Data_Point,Test_Time(s),Date_Time,Step_Time(s),Step_Index,Cycle_Index,Current(A),Voltage(V),Charge_Capacity(Ah),Discharge_Capacity(Ah),Charge_Energy(Wh),Discharge_Energy(Wh),dV/dt(V/s),Internal_Resistance(Ohm),Is_FC_Data,AC_Impedance(Ohm),ACI_Phase_Angle(Deg)
15651,546593.0720322116,2010-10-22 01:03:17,30.01517073591104,1,48,0.0,3.3771116733551025,46.67935560352336,46.6931979508989,186.4889580679228,170.18843533631207,0.0007446765666827,0.0906857252120971,0,0,0
15652,546623.0872315787,2010-10-22 01:03:47,60.030370123230206,1,48,0.0,3.4026896953582764,46.67935560352336,46.6931979508989,186.4889580679228,170.18843533631207,0.0006151676061563,0.0906857252120971,0,0,0
15653,546653.1025850752,2010-10-22 01:04:17,90.04572374996144,1,48,0.0,3.422116041183472,46.67935560352336,46.6931979508989,186.4889580679228,170.18843533631207,0.0004856586456298,0.0906857252120971,0,0,0
15654,546683.0706878483,2010-10-22 01:04:47,120.01382639771433,1,48,0.0,3.437494993209839,46.67935560352336,46.6931979508989,186.4889580679228,170.18843533631207,0.0003561496851034,0.0906857252120971,0,0,0
15655,546713.0929139794,2010-10-22 01:05:17,30.015181843594803,2,48,0.5501165986061096,3.592905282974243,46.68394207216855,46.6931979508989,186.50527097938752,170.18843533631207,0.0016511917347088,0.0906857252120971,0,0,0
15656,546743.1080678082,2010-10-22 01:05:47,60.03033568239304,2,48,0.5501165986061096,3.6416330337524414,46.68852862140342,46.6931979508989,186.52186881848476,170.18843533631207,0.0011008263099938,0.0906857252120971,0,0,0
15657,546773.1235359655,2010-10-22 01:06:17,90.0458412578272,2,48,0.5501165986061096,3.676923990249634,46.69311505070731,46.6931979508989,186.5386553851625,170.18843533631207,0.0008418083307333,0.0906857252120971,0,0,0
15658,546803.1384468436,2010-10-22 01:06:47,120.06071471282272,2,48,0.550297200679779,3.704444646835327,46.6977014162783,46.6931979508989,186.55558383652857,170.18843533631207,0.0006799221155233,0.0906857252120971,0,0,0
15659,546833.1538470616,2010-10-22 01:07:17,150.07611511613558,2,48,0.5497553944587708,3.726461172103882,46.70228783995622,46.6931979508989,186.57262617356983,170.18843533631207,0.0005180359003134,0.0906857252120971,0,0,0
15660,546863.1687828067,2010-10-22 01:07:47,180.09105070097783,2,48,0.5501165986061096,3.7450780868530273,46.70687425127562,46.6931979508989,186.58976167293187,170.18843533631207,0.0004532813909463,0.0906857252120971,0,0,0
15661,546893.1840197828,2010-10-22 01:08:17,210.1062876819921,2,48,0.5499359965324402,3.759323835372925,46.711460621632135,46.6931979508989,186.60697217720227,170.18843533631207,0.0003561496851034,0.0906857252120971,0,0,0
15662,546923.1991342584,2010-10-22 01:08:47,240.12140215267283,2,48,0.550297200679779,3.7682275772094727,46.71604698464356,46.6931979508989,186.62423589128744,170.18843533631207,0.0001618862152099,0.0906857252120971,0,0,0
15663,546953.2143220418,2010-10-22 01:09:17,270.1365899561214,2,48,0.5499359965324402,3.773407936096192,46.72063342785341,46.6931979508989,186.6415319334494,170.18843533631207,6.47544875391759e-05,0.0906857252120971,0,0,0
15664,546983.229496903,2010-10-22 01:09:47,300.15176476217647,2,48,0.5501165986061096,3.777778863906861,46.72521988493195,46.6931979508989,186.65884920188984,170.18843533631207,0.0001295089750783,0.0906857252120971,0,0,0
15665,547013.2446690073,2010-10-22 01:10:17,330.166936906598,2,48,0.550297200679779,3.7815022468566895,46.72980629516554,46.6931979508989,186.67618401453643,170.18843533631207,0.0001295089750783,0.0906857252120971,0,0,0
15666,547043.2598311068,2010-10-22 01:10:47,360.1820989759092,2,48,0.5501165986061096,3.7850637435913086,46.7343926943496,46.6931979508989,186.6935356854927,170.18843533631207,9.713172767078504e-05,0.0906857252120971,0,0,0
15667,547073.2750179678,2010-10-22 01:11:17,390.1972859021716,2,48,0.5501165986061096,3.788625240325928,46.73897913640804,46.6931979508989,186.71090408116865,170.18843533631207,9.713172767078504e-05,0.0906857252120971,0,0,0
15668,547103.2901818115,2010-10-22 01:11:47,420.21244973086766,2,48,0.5501165986061096,3.792186737060547,46.74356559690676,46.6931979508989,186.72828876555104,170.18843533631207,0.0001295089750783,0.0906857252120971,0,0,0
15669,547133.3053566427,2010-10-22 01:12:17,450.2276245118603,2,48,0.5501165986061096,3.795586347579956,46.74815204886736,46.6931979508989,186.74568937494024,170.18843533631207,3.237724376958795e-05,0.0906857252120971,0,0,0
15670,547163.3205365164,2010-10-22 01:12:47,480.2428044757704,2,48,0.5501165986061096,3.798985958099365,46.75273847284653,46.6931979508989,186.76310544226115,170.18843533631207,6.47544875391759e-05,0.0906857252120971,0,0,0
15671,547193.335766139,2010-10-22 01:13:17,510.2580349756316,2,48,0.5501165986061096,3.8023855686187744,46.75732499448794,46.6931979508989,186.78053711475337,170.18843533631207,0.0001295089750783,0.0906857252120971,0,0,0
15672,547223.3510009396,2010-10-22 01:13:47,540.2732688037879,2,48,0.5501165986061096,3.805461406707764,46.761911455615405,46.6931979508989,186.79798351843644,170.18843533631207,6.47544875391759e-05,0.0906857252120971,0,0,0
15673,547253.3660615511,2010-10-22 01:14:17,570.2883294402973,2,48,0.550297200679779,3.808699131011963,46.76649792067391,46.6931979508989,186.81544471321365,170.18843533631207,6.47544875391759e-05,0.0906857252120971,0,0,0
15674,547283.3812438056,2010-10-22 01:14:47,600.3035116648416,2,48,0.550297200679779,3.811936855316162,46.77108443340915,46.6931979508989,186.83292068978307,170.18843533631207,9.713172767078504e-05,0.0906857252120971,0,0,0
15675,547313.3964269124,2010-10-22 01:15:17,630.3186947816096,2,48,0.5501165986061096,3.815012693405152,46.77567085444942,46.6931979508989,186.85041096980228,170.18843533631207,6.47544875391759e-05,0.0906857252120971,0,0,0
15676,547343.4115855834,2010-10-22 01:15:47,660.3338534775132,2,48,0.5499359965324402,3.818250417709351,46.78025725634345,46.6931979508989,186.86791581221885,170.18843533631207,6.47544875391759e-05,0.0906857252120971,0,0,0
15677,547373.4267663392,2010-10-22 01:16:17,690.3490342283847,2,48,0.550297200679779,3.82148814201355,46.78484367030661,46.6931979508989,186.88543529157403,170.18843533631207,6.47544875391759e-05,0.0906857252120971,0,0,0
15678,547403.4419628844,2010-10-22 01:16:47,720.3642308688578,2,48,0.550297200679779,3.824887752532959,46.78943017818466,46.6931979508989,186.90296992234573,170.18843533631207,9.713172767078504e-05,0.0906857252120971,0,0,0
15679,547433.4571382719,2010-10-22 01:17:17,750.3794061611248,2,48,0.5499359965324402,3.827963590621948,46.79401661668303,46.6931979508989,186.92051932176116,170.18843533631207,9.713172767078504e-05,0.0906857252120971,0,0,0
15680,547463.4724199442,2010-10-22 01:17:47,780.394687838536,2,48,0.5501165986061096,3.831363201141357,46.79860303043234,46.6931979508989,186.9380840371235,170.18843533631207,6.47544875391759e-05,0.0906857252120971,0,0,0
15681,547493.4874679594,2010-10-22 01:18:17,810.4097358535889,2,48,0.5499359965324402,3.834762573242188,46.80318945765771,46.6931979508989,186.95566441428463,170.18843533631207,9.713172767078504e-05,0.0906857252120971,0,0,0
15682,547523.5027682331,2010-10-22 01:18:47,840.4250361273481,2,48,0.5501165986061096,3.838324069976807,46.80777595543895,46.6931979508989,186.9732609598406,170.18843533631207,9.713172767078504e-05,0.0906857252120971,0,0,0
15683,547553.5178471252,2010-10-22 01:19:17,870.4401150193559,2,48,0.5501165986061096,3.841885566711426,46.81236240100595,46.6931979508989,186.9908732979195,170.18843533631207,0.0001618862152099,0.0906857252120971,0,0,0
15684,547583.5329942321,2010-10-22 01:19:47,900.455262091289,2,48,0.5501165986061096,3.845123291015625,46.81694883778058,46.6931979508989,187.0085014367021,170.18843533631207,3.237724376958795e-05,0.0906857252120971,0,0,0
15685,547613.5482004716,2010-10-22 01:20:18,930.4704683858232,2,48,0.5501165986061096,3.848684787750244,46.82153526065699,46.6931979508989,187.02614514718744,170.18843533631207,6.47544875391759e-05,0.0906857252120971,0,0,0
15686,547643.5633556286,2010-10-22 01:20:48,960.4856235228568,2,48,0.5501165986061096,3.8519225120544434,46.82612173322941,46.6931979508989,187.043804484178,170.18843533631207,9.713172767078504e-05,0.0906857252120971,0,0,0
15687,547673.5785424296,2010-10-22 01:21:18,990.5008104040068,2,48,0.5501165986061096,3.855322122573853,46.83070823585868,46.6931979508989,187.06147900555183,170.18843533631207,0.0001295089750783,0.0906857252120971,0,0,0
15688,547703.593755902,2010-10-22 01:21:48,1020.5160238964804,2,48,0.5501165986061096,3.858559846878052,46.83529468609898,46.6931979508989,187.0791682085257,170.18843533631207,0.0001295089750783,0.0906857252120971,0,0,0
15689,547733.6088775806,2010-10-22 01:22:18,1050.5311454448008,2,48,0.5501165986061096,3.861635684967041,46.83988115928313,46.6931979508989,187.09687195066687,170.18843533631207,0.0001295089750783,0.0906857252120971,0,0,0
15690,547763.6240575747,2010-10-22 01:22:48,1080.5463254337735,2,48,0.5499359965324402,3.86454963684082,46.84446759594273,46.6931979508989,187.11458969106556,170.18843533631207,9.713172767078504e-05,0.0906857252120971,0,0,0
15691,547793.6394342488,2010-10-22 01:23:18,1110.5617021931585,2,48,0.550297200679779,3.8674635887146,46.84905404264787,46.6931979508989,187.13232113019612,170.18843533631207,6.47544875391759e-05,0.0906857252120971,0,0,0
15692,547823.6545728045,2010-10-22 01:23:48,1140.5768406786915,2,48,0.5501165986061096,3.870377540588379,46.85364047313667,46.6931979508989,187.15006577062596,170.18843533631207,6.47544875391759e-05,0.0906857252120971,0,0,0
15693,547853.6695746644,2010-10-22 01:24:18,1170.5918425236746,2,48,0.5501165986061096,3.873129606246948,46.85822686519811,46.6931979508989,187.16782290570683,170.18843533631207,6.47544875391759e-05,0.0906857252120971,0,0,0
15694,547883.6848875397,2010-10-22 01:24:48,1200.60715543894,2,48,0.5501165986061096,3.8755578994750977,46.862813339827255,46.6931979508989,187.18559231561963,170.18843533631207,6.47544875391759e-05,0.0906857252120971,0,0,0
15695,547913.7000703006,2010-10-22 01:25:18,1230.6223381998211,2,48,0.5499359965324402,3.877824306488037,46.86739978294218,46.6931979508989,187.20337294048824,170.18843533631207,3.237724376958795e-05,0.0906857252120971,0,0,0
15696,547943.7151339095,2010-10-22 01:25:48,1260.637401863876,2,48,0.5501165986061096,3.8802525997161865,46.87198626837333,46.6931979508989,187.2211644900919,170.18843533631207,3.237724376958795e-05,0.0906857252120971,0,0,0
15697,547973.7302863899,2010-10-22 01:26:18,1290.6525542941638,2,48,0.550297200679779,3.882357120513916,46.87657277983758,46.6931979508989,187.23896628197585,170.18843533631207,6.47544875391759e-05,0.0906857252120971,0,0,0
15698,548003.7448673509,2010-10-22 01:26:48,1320.6671352100618,2,48,0.5501165986061096,3.8844616413116455,46.88114735918526,46.6931979508989,187.25673125909867,170.18843533631207,6.47544875391759e-05,0.0906857252120971,0,0,0
15699,548033.7450174508,2010-10-22 01:27:18,1350.667285314939,2,48,0.550297200679779,3.886242389678955,46.88574336505254,46.6931979508989,187.2745882074209,170.18843533631207,3.237724376958795e-05,0.0906857252120971,0,0,0
15700,548063.7602120361,2010-10-22 01:27:48,1380.6824799955273,2,48,0.5501165986061096,3.887861251831055,46.89032989370649,46.6931979508989,187.2924166638606,170.18843533631207,0.0,0.0906857252120971,0,0,0
15701,548093.7754937687,2010-10-22 01:28:18,1410.6977617330886,2,48,0.5501165986061096,3.889642000198364,46.894916418645245,46.6931979508989,187.31025285066747,170.18843533631207,6.47544875391759e-05,0.0906857252120971,0,0,0
15702,548123.7905970815,2010-10-22 01:28:48,1440.7128649858107,2,48,0.5501165986061096,3.891098976135254,46.89950292916771,46.6931979508989,187.32809620469985,170.18843533631207,3.237724376958795e-05,0.0906857252120971,0,0,0
15703,548153.8057144344,2010-10-22 01:29:18,1470.7279823236374,2,48,0.550297200679779,3.8927178382873535,46.90408946224668,46.6931979508989,187.34594656160323,170.18843533631207,3.237724376958795e-05,0.0906857252120971,0,0,0
15704,548183.8210582718,2010-10-22 01:29:48,1500.743326135908,2,48,0.550297200679779,3.894174814224243,46.90867604009952,46.6931979508989,187.36380367015323,170.18843533631207,6.47544875391759e-05,0.0906857252120971,0,0,0
15705,548213.8360672295,2010-10-22 01:30:18,1530.758335113668,2,48,0.550297200679779,3.895308017730713,46.91326257589426,46.6931979508989,187.3816666819287,170.18843533631207,6.47544875391759e-05,0.0906857252120971,0,0,0
15706,548243.8513764305,2010-10-22 01:30:48,1560.7736443347264,2,48,0.550297200679779,3.8967649936676025,46.91784907747192,46.6931979508989,187.39953562113985,170.18843533631207,3.237724376958795e-05,0.0906857252120971,0,0,0
15707,548273.8664111224,2010-10-22 01:31:18,1590.7886789914864,2,48,0.5501165986061096,3.898060083389282,46.922435554993015,46.6931979508989,187.4174105154096,170.18843533631207,3.237724376958795e-05,0.0906857252120971,0,0,0
15708,548303.881599432,2010-10-22 01:31:48,1620.8038673262597,2,48,0.5501165986061096,3.899193286895752,46.92702206110572,46.6931979508989,187.4352915659164,170.18843533631207,3.237724376958795e-05,0.0906857252120971,0,0,0
15709,548333.8816753922,2010-10-22 01:32:18,1650.803943261282,2,48,0.5499359965324402,3.9003264904022217,46.93160622807106,46.6931979508989,187.45316940277496,170.18843533631207,-3.237724376958795e-05,0.0906857252120971,0,0,0
15710,548363.8963034254,2010-10-22 01:32:48,1680.8185713146613,2,48,0.550297200679779,3.901945352554321,46.93619254352501,46.6931979508989,187.47106152956889,170.18843533631207,6.47544875391759e-05,0.0906857252120971,0,0,0
15711,548393.9114837652,2010-10-22 01:33:18,1710.8337517196703,2,48,0.5499359965324402,3.903078556060791,46.94077900975601,46.6931979508989,187.4889602306243,170.18843533631207,3.237724376958795e-05,0.0906857252120971,0,0,0
15712,548423.9266541052,2010-10-22 01:33:48,1740.8489219743824,2,48,0.5501165986061096,3.9045355319976807,46.94536544330106,46.6931979508989,187.50686479492643,170.18843533631207,6.47544875391759e-05,0.0906857252120971,0,0,0
15713,548453.9419942133,2010-10-22 01:34:18,1770.8642620924456,2,48,0.5501165986061096,3.90583062171936,46.94995198533481,46.6931979508989,187.52477568571297,170.18843533631207,3.237724376958795e-05,0.0906857252120971,0,0,0
15714,548483.9571394506,2010-10-22 01:34:48,1800.8794073197816,2,48,0.5501165986061096,3.90696382522583,46.954538413408535,46.6931979508989,187.54269214270693,170.18843533631207,0.0,0.0906857252120971,0,0,0
15715,548513.9721836562,2010-10-22 01:35:18,1830.894451515315,2,48,0.5501165986061096,3.90842080116272,46.95912486057668,46.6931979508989,187.56061468733333,170.18843533631207,6.47544875391759e-05,0.0906857252120971,0,0,0
15716,548543.9873865773,2010-10-22 01:35:48,1860.9096545918287,2,48,0.5501165986061096,3.9097158908844,46.96371128886921,46.6931979508989,187.5785432254952,170.18843533631207,3.237724376958795e-05,0.0906857252120971,0,0,0
15717,548574.0053604946,2010-10-22 01:36:18,1890.9276284991056,2,48,0.550297200679779,3.911010980606079,46.96829819085893,46.6931979508989,187.59647967785764,170.18843533631207,0.0,0.0906857252120971,0,0,0
15718,548604.0177310917,2010-10-22 01:36:48,1920.9399989859344,2,48,0.550297200679779,3.912306070327759,46.97288423628363,46.6931979508989,187.61441889586348,170.18843533631207,3.237724376958795e-05,0.0906857252120971,0,0,0
15719,548634.0328974366,2010-10-22 01:37:18,1950.9551653910512,2,48,0.5499359965324402,3.913762807846069,46.97747068036456,46.6931979508989,187.6323657823833,170.18843533631207,3.23295607813634e-05,0.0906857252120971,0,0,0
15720,548664.0484917733,2010-10-22 01:37:48,1980.970759787856,2,48,0.5499359965324402,3.915057897567749,46.982057193883726,46.6931979508989,187.6503191992933,170.18843533631207,3.237724376958795e-05,0.0906857252120971,0,0,0
15721,548694.0632590387,2010-10-22 01:38:18,2010.9855269028192,2,48,0.5501165986061096,3.916514873504639,46.98664361658927,46.6931979508989,187.6682783280721,170.18843533631207,3.237724376958795e-05,0.0906857252120971,0,0,0
15722,548724.078425539,2010-10-22 01:38:48,2041.0006935284864,2,48,0.550297200679779,3.9178099632263184,46.991230058710144,46.6931979508989,187.68624387358017,170.18843533631207,3.237724376958795e-05,0.0906857252120971,0,0,0
15723,548754.0938490198,2010-10-22 01:39:18,2071.0161169241032,2,48,0.5501165986061096,3.919105052947998,46.995816582013575,46.6931979508989,187.70421606446627,170.18843533631207,3.237724376958795e-05,0.0906857252120971,0,0,0
15724,548784.1088238725,2010-10-22 01:39:48,2101.0310917517504,2,48,0.5499359965324402,3.9204001426696777,47.0004030093885,46.6931979508989,187.7221943086077,170.18843533631207,3.237724376958795e-05,0.0906857252120971,0,0,0
15725,548814.1241613189,2010-10-22 01:40:18,2131.046429183118,2,48,0.550297200679779,3.922019004821777,47.00498950229499,46.6931979508989,187.74017913913724,170.18843533631207,3.237724376958795e-05,0.0906857252120971,0,0,0
15726,548844.1391321968,2010-10-22 01:40:48,2161.061400060921,2,48,0.5501165986061096,3.923314094543457,47.00957591185776,46.6931979508989,187.7581701480766,170.18843533631207,3.237724376958795e-05,0.0906857252120971,0,0,0
15727,548874.1543073538,2010-10-22 01:41:18,2191.0765752429133,2,48,0.5499359965324402,3.9247710704803462,47.014162344040095,46.6931979508989,187.77616772537672,170.18843533631207,3.237724376958795e-05,0.0906857252120971,0,0,0
15728,548904.1694897335,2010-10-22 01:41:48,2221.0917575977824,2,48,0.5501165986061096,3.926228046417236,47.018748834636575,46.6931979508989,187.79417205608968,170.18843533631207,6.47544875391759e-05,0.0906857252120971,0,0,0
15729,548934.184678319,2010-10-22 01:42:18,2251.106946268392,2,48,0.5501165986061096,3.927685022354126,47.023335319823765,46.6931979508989,187.81218296137143,170.18843533631207,3.237724376958795e-05,0.0906857252120971,0,0,0
15730,548964.1998841524,2010-10-22 01:42:48,2281.122152011552,2,48,0.5501165986061096,3.929141998291016,47.02792176126811,46.6931979508989,187.8302003783935,170.18843533631207,3.237724376958795e-05,0.0906857252120971,0,0,0
15731,548994.215008989,2010-10-22 01:43:18,2311.137276878142,2,48,0.5499359965324402,3.930598974227905,47.03250820826343,46.6931979508989,187.8482245434408,170.18843533631207,0.0,0.0906857252120971,0,0,0
15732,549024.2301906069,2010-10-22 01:43:48,2341.152458476125,2,48,0.5499359965324402,3.931894063949585,47.037094716320105,46.6931979508989,187.8662556896329,170.18843533631207,0.0,0.0906857252120971,0,0,0
15733,549054.2453991622,2010-10-22 01:44:18,2371.167667121518,2,48,0.5499359965324402,3.933512926101685,47.04168117985142,46.6931979508989,187.88429349544472,170.18843533631207,3.237724376958795e-05,0.0906857252120971,0,0,0
15734,549084.260550209,2010-10-22 01:44:48,2401.182818073121,2,48,0.5501165986061096,3.934969902038574,47.04626766696943,46.6931979508989,187.90233822902212,170.18843533631207,3.237724376958795e-05,0.0906857252120971,0,0,0
15735,549114.2806623152,2010-10-22 01:45:18,2431.202930299747,2,48,0.5499359965324402,3.936426877975464,47.050854968666776,46.6931979508989,187.92039302366123,170.18843533631207,3.237724376958795e-05,0.0906857252120971,0,0,0
15736,549144.2908701922,2010-10-22 01:45:48,2461.213138101499,2,48,0.5501165986061096,3.938045740127564,47.05544063953755,46.6931979508989,187.9384482668047,170.18843533631207,0.0,0.0906857252120971,0,0,0
15737,549174.3061160303,2010-10-22 01:46:18,2491.228383899488,2,48,0.5501165986061096,3.939664602279663,47.060027128372525,46.6931979508989,187.956513798589,170.18843533631207,3.237724376958795e-05,0.0906857252120971,0,0,0
15738,549204.3215186491,2010-10-22 01:46:48,2521.243786518323,2,48,0.550297200679779,3.9412834644317623,47.0646136223093,46.6931979508989,187.97458652790408,170.18843533631207,6.47544875391759e-05,0.0906857252120971,0,0,0
15739,549234.3364464145,2010-10-22 01:47:18,2551.2587143087385,2,48,0.5499359965324402,3.9425785541534415,47.06920003357519,46.6931979508989,187.9926659664248,170.18843533631207,0.0,0.0906857252120971,0,0,0
15740,549264.3516296265,2010-10-22 01:47:48,2581.273897520744,2,48,0.5501165986061096,3.944359302520752,47.07378648131725,46.6931979508989,188.01075272250577,170.18843533631207,3.237724376958795e-05,0.0906857252120971,0,0,0
15741,549294.366769731,2010-10-22 01:48:18,2611.289037590225,2,48,0.550297200679779,3.945978164672852,47.07837354622677,46.6931979508989,188.02884921208496,170.18843533631207,6.47544875391759e-05,0.0906857252120971,0,0,0
15742,549324.3819374444,2010-10-22 01:48:48,2641.304205308615,2,48,0.550297200679779,3.947435140609741,47.08296082939437,46.6931979508989,188.04695372409049,170.18843533631207,3.237724376958795e-05,0.0906857252120971,0,0,0
15743,549354.397156185,2010-10-22 01:49:18,2671.3194240742314,2,48,0.5501165986061096,3.949054002761841,47.0875479297583,46.6931979508989,188.06506486497625,170.18843533631207,3.237724376958795e-05,0.0906857252120971,0,0,0
15744,549384.4123282492,2010-10-22 01:49:48,2701.334596108378,2,48,0.550297200679779,3.9508347511291504,47.09213517021802,46.6931979508989,188.083183941024,170.18843533631207,6.47544875391759e-05,0.0906857252120971,0,0,0
15745,549414.4274971405,2010-10-22 01:50:18,2731.3497650097165,2,48,0.5499359965324402,3.95229172706604,47.09672243813539,46.6931979508989,188.10131053935456,170.18843533631207,6.47544875391759e-05,0.0906857252120971,0,0,0
15746,549444.442770031,2010-10-22 01:50:48,2761.365038020528,2,48,0.550297200679779,3.9540724754333496,47.10130971218195,46.6931979508989,188.11944466282216,170.18843533631207,9.713172767078504e-05,0.0906857252120971,0,0,0
15747,549474.4578312992,2010-10-22 01:51:18,2791.3800991582866,2,48,0.5501165986061096,3.955691337585449,47.10589649926117,46.6931979508989,188.1375843557689,170.18843533631207,6.47544875391759e-05,0.0906857252120971,0,0,0
15748,549504.4730558542,2010-10-22 01:51:48,2821.3953237484197,2,48,0.5501165986061096,3.957310199737549,47.11048314146302,46.6931979508989,188.15573108212416,170.18843533631207,6.47544875391759e-05,0.0906857252120971,0,0,0
15749,549534.4882395123,2010-10-22 01:52:18,2851.4105074215736,2,48,0.5501165986061096,3.9590909481048575,47.11506976259382,46.6931979508989,188.17388535769533,170.18843533631207,6.47544875391759e-05,0.0906857252120971,0,0,0
15750,549564.5034195816,2010-10-22 01:52:48,2881.4256874907464,2,48,0.5501165986061096,3.960547924041748,47.11965634297126,46.6931979508989,188.1920471909281,170.18843533631207,6.47544875391759e-05,0.0906857252120971,0,0,0
15751,549594.5185973649,2010-10-22 01:53:19,2911.4408652591846,2,48,0.5499359965324402,3.9623286724090576,47.12424296110858,46.6931979508989,188.2102169646696,170.18843533631207,3.237724376958795e-05,0.0906857252120971,0,0,0
15752,549624.5337466022,2010-10-22 01:53:49,2941.4560144664392,2,48,0.550297200679779,3.964109420776367,47.12882956118982,46.6931979508989,188.2283944317141,170.18843533631207,3.237724376958795e-05,0.0906857252120971,0,0,0
15753,549654.5490637881,2010-10-22 01:54:19,2971.471331697461,2,48,0.5499359965324402,3.965728282928467,47.13341616615689,46.6931979508989,188.246579833377,170.18843533631207,3.237724376958795e-05,0.0906857252120971,0,0,0
15754,549684.5640997181,2010-10-22 01:54:49,3001.4863675872944,2,48,0.550297200679779,3.967509031295776,47.13800268916618,46.6931979508989,188.2647728546494,170.18843533631207,3.237724376958795e-05,0.0906857252120971,0,0,0
15755,549714.5792769752,2010-10-22 01:55:19,3031.5015448444583,2,48,0.5501165986061096,3.969289779663086,47.14258930635183,46.6931979508989,188.28297414500096,170.18843533631207,3.237724376958795e-05,0.0906857252120971,0,0,0
15756,549744.5944659967,2010-10-22 01:55:49,3061.516733865943,2,48,0.5501165986061096,3.971070528030396,47.14717591934912,46.6931979508989,188.30118352537573,170.18843533631207,9.713172767078504e-05,0.0906857252120971,0,0,0
15757,549774.6098524753,2010-10-22 01:56:19,3091.532120344551,2,48,0.550297200679779,3.972851276397705,47.15176255533713,46.6931979508989,188.3194010951013,170.18843533631207,6.47544875391759e-05,0.0906857252120971,0,0,0
15758,549804.6249603847,2010-10-22 01:56:49,3121.5472282939786,2,48,0.5501165986061096,3.9744701385498047,47.15634922799721,46.6931979508989,188.33762695557047,170.18843533631207,0.0,0.0906857252120971,0,0,0
15759,549834.6401189052,2010-10-22 01:57:19,3151.562386774345,2,48,0.5501165986061096,3.976250886917114,47.16093586857729,46.6931979508989,188.35586092804093,170.18843533631207,6.47544875391759e-05,0.0906857252120971,0,0,0
15760,549864.6552983378,2010-10-22 01:57:49,3181.577566211944,2,48,0.5501165986061096,3.977869749069214,47.165522540537374,46.6931979508989,188.3741031712437,170.18843533631207,3.237724376958795e-05,0.0906857252120971,0,0,0
15761,549894.6703803025,2010-10-22 01:58:19,3211.592648201672,2,48,0.5501165986061096,3.979974269866944,47.17010909145042,46.6931979508989,188.392353298848,170.18843533631207,3.237724376958795e-05,0.0906857252120971,0,0,0
15762,549924.6855432489,2010-10-22 01:58:49,3241.6078111431566,2,48,0.550297200679779,3.981916904449463,47.1746956082539,46.6931979508989,188.41061201475276,170.18843533631207,3.237724376958795e-05,0.0906857252120971,0,0,0
15763,549954.700725288,2010-10-22 01:59:19,3271.622993187252,2,48,0.550297200679779,3.984021425247192,47.17928219469532,46.6931979508989,188.42887959646256,170.18843533631207,9.713172767078504e-05,0.0906857252120971,0,0,0
15764,549984.7160023589,2010-10-22 01:59:49,3301.638270238132,2,48,0.5501165986061096,3.985478401184082,47.18386876579122,46.6931979508989,188.44715575888625,170.18843533631207,3.237724376958795e-05,0.0906857252120971,0,0,0
15765,550014.7311120979,2010-10-22 02:00:19,3331.6533801023315,2,48,0.5501165986061096,3.9874210357666016,47.18845534710261,46.6931979508989,188.4654407459805,170.18843533631207,3.237724376958795e-05,0.0906857252120971,0,0,0
15766,550044.7462345886,2010-10-22 02:00:49,3361.668502457664,2,48,0.5501165986061096,3.989363670349121,47.193041825127615,46.6931979508989,188.48373409374057,170.18843533631207,0.0,0.0906857252120971,0,0,0
15767,550074.7614084572,2010-10-22 02:01:19,3391.683676351445,2,48,0.5499359965324402,3.9914681911468506,47.197628345642144,46.6931979508989,188.5020365861931,170.18843533631207,6.47544875391759e-05,0.0906857252120971,0,0,0
15768,550104.7765898798,2010-10-22 02:01:49,3421.698857743916,2,48,0.5501165986061096,3.99357271194458,47.20221479223904,46.6931979508989,188.5203478258946,170.18843533631207,9.713172767078504e-05,0.0906857252120971,0,0,0
15769,550134.7917853324,2010-10-22 02:02:19,3451.714053236528,2,48,0.550297200679779,3.995515108108521,47.20680136501251,46.6931979508989,188.53866877143423,170.18843533631207,6.47544875391759e-05,0.0906857252120971,0,0,0
15770,550164.8069410458,2010-10-22 02:02:49,3481.729208914911,2,48,0.550297200679779,3.99761962890625,47.21138792221165,46.6931979508989,188.5569989158754,170.18843533631207,9.713172767078504e-05,0.0906857252120971,0,0,0
15771,550194.8221151951,2010-10-22 02:03:19,3511.7443830944044,2,48,0.5501165986061096,3.99940037727356,47.21597448615077,46.6931979508989,188.575338370446,170.18843533631207,0.0,0.0906857252120971,0,0,0
15772,550224.8373289433,2010-10-22 02:03:49,3541.75959681244,2,48,0.5501165986061096,4.001667022705078,47.220561036415056,46.6931979508989,188.5936873277678,170.18843533631207,6.47544875391759e-05,0.0906857252120971,0,0,0
15773,550254.8526268662,2010-10-22 02:04:19,3571.7748947754403,2,48,0.5501165986061096,4.0037713050842285,47.22514757367942,46.6931979508989,188.61204585436528,170.18843533631207,6.47544875391759e-05,0.0906857252120971,0,0,0
15774,550284.8676799388,2010-10-22 02:04:49,3601.7899478130107,2,48,0.5501165986061096,4.006037712097168,47.22973410336314,46.6931979508989,188.6304140388396,170.18843533631207,6.47544875391759e-05,0.0906857252120971,0,0,0
15775,550314.8828320133,2010-10-22 02:05:19,3631.8050999074617,2,48,0.5501165986061096,4.008142471313477,47.2343207278205,46.6931979508989,188.6487924721636,170.18843533631207,6.47544875391759e-05,0.0906857252120971,0,0,0
15776,550344.8980100222,2010-10-22 02:05:49,3661.820277916499,2,48,0.5497553944587708,4.010085105895996,47.23890727234132,46.6931979508989,188.6671804230741,170.18843533631207,3.24249267578125e-05,0.0906857252120971,0,0,0
15777,550374.9132824265,2010-10-22 02:06:19,3691.8355504210494,2,48,0.5501165986061096,4.012351512908936,47.24349387474391,46.6931979508989,188.6855786976657,170.18843533631207,6.47544875391759e-05,0.0906857252120971,0,0,0
15778,550404.9284887812,2010-10-22 02:06:49,3721.850756690521,2,48,0.5499359965324402,4.014455795288086,47.248080472349216,46.6931979508989,188.70398710782752,170.18843533631207,3.23295607813634e-05,0.0906857252120971,0,0,0
15779,550434.9435578438,2010-10-22 02:07:19,3751.8658257129314,2,48,0.550297200679779,4.016884326934815,47.25266702665934,46.6931979508989,188.7224055589404,170.18843533631207,6.47544875391759e-05,0.0906857252120971,0,0,0
15780,550464.9587138179,2010-10-22 02:07:49,3781.8809817271504,2,48,0.5499359965324402,4.018988609313965,47.25725362347465,46.6931979508989,188.74083451641684,170.18843533631207,3.23295607813634e-05,0.0906857252120971,0,0,0
15781,550494.9748329875,2010-10-22 02:08:19,3811.897100992088,2,48,0.5501165986061096,4.021417140960693,47.26184033956486,46.6931979508989,188.7592742012851,170.18843533631207,9.71794142969884e-05,0.0906857252120971,0,0,0
15782,550524.9770958681,2010-10-22 02:08:49,3841.8993638526026,2,48,0.550297200679779,4.023845195770264,47.26642493690603,46.6931979508989,188.77771602605503,170.18843533631207,9.70840483205393e-05,0.0906857252120971,0,0,0
15783,550554.9886719551,2010-10-22 02:09:19,3871.910939859341,2,48,0.5501165986061096,4.026111602783203,47.27101098375572,46.6931979508989,188.7961741995776,170.18843533631207,6.47544875391759e-05,0.0906857252120971,0,0,0
15784,550585.0038295282,2010-10-22 02:09:49,3901.92609739736,2,48,0.5501165986061096,4.028216361999512,47.27559759240541,46.6931979508989,188.81464540984285,170.18843533631207,0.0,0.0906857252120971,0,0,0
15785,550615.018937217,2010-10-22 02:10:19,3931.941205106188,2,48,0.5499359965324402,4.030644416809082,47.280183845360064,46.6931979508989,188.8331258490395,170.18843533631207,3.23295607813634e-05,0.0906857252120971,0,0,0
15786,550645.034250844,2010-10-22 02:10:49,3961.9565187532776,2,48,0.5501165986061096,4.0330729484558105,47.284769592852,46.6931979508989,188.85161497731252,170.18843533631207,6.47544875391759e-05,0.0906857252120971,0,0,0
15787,550675.049306087,2010-10-22 02:11:19,3991.971573956245,2,48,0.5501165986061096,4.035501003265381,47.28935542793108,46.6931979508989,188.8701154161336,170.18843533631207,6.47544875391759e-05,0.0906857252120971,0,0,0
15788,550705.0647100543,2010-10-22 02:11:49,4021.986977953515,2,48,0.5499359965324402,4.037929058074951,47.293941162053,46.6931979508989,188.88862641152664,170.18843533631207,6.47544875391759e-05,0.0906857252120971,0,0,0
15789,550735.0796673533,2010-10-22 02:12:19,4052.001935262501,2,48,0.5501165986061096,4.04035758972168,47.29852684852836,46.6931979508989,188.90714826418693,170.18843533631207,0.0001295089750783,0.0906857252120971,0,0,0
15790,550765.0950459372,2010-10-22 02:12:49,4082.0173139065823,2,48,0.5499359965324402,4.042623996734619,47.30311253034808,46.6931979508989,188.92568123461396,170.18843533631207,3.24249267578125e-05,0.0906857252120971,0,0,0
15791,550795.1100390253,2010-10-22 02:13:19,4112.032306919553,2,48,0.5499359965324402,4.0452141761779785,47.30769841980843,46.6931979508989,188.94422641199665,170.18843533631207,6.47544875391759e-05,0.0906857252120971,0,0,0
15792,550825.1253217303,2010-10-22 02:13:49,4142.047589604476,2,48,0.550297200679779,4.047804355621338,47.3122850491382,46.6931979508989,188.96278606176705,170.18843533631207,6.47544875391759e-05,0.0906857252120971,0,0,0
15793,550855.1403739258,2010-10-22 02:14:19,4172.062641794935,2,48,0.5501165986061096,4.050232410430908,47.316871695586805,46.6931979508989,188.9813573762291,170.18843533631207,6.47544875391759e-05,0.0906857252120971,0,0,0
15794,550885.1555569272,2010-10-22 02:14:49,4202.077824791403,2,48,0.5501165986061096,4.052822589874268,47.32145838465692,46.6931979508989,188.99994037264065,170.18843533631207,9.70840483205393e-05,0.0906857252120971,0,0,0
15795,550915.1707368059,2010-10-22 02:15:19,4232.093004675114,2,48,0.5501165986061096,4.055251121520996,47.326045071362046,46.6931979508989,189.0185351514616,170.18843533631207,3.24249267578125e-05,0.0906857252120971,0,0,0
15796,550945.1858940131,2010-10-22 02:15:49,4262.108161887319,2,48,0.5501165986061096,4.057841300964356,47.33063174926113,46.6931979508989,189.03714170574588,170.18843533631207,3.24249267578125e-05,0.0906857252120971,0,0,0
15797,550975.201203956,2010-10-22 02:16:19,4292.123471850226,2,48,0.5501165986061096,4.060593128204346,47.33521848956868,46.6931979508989,189.0557604751836,170.18843533631207,9.70840483205393e-05,0.0906857252120971,0,0,0
15798,551005.2165602695,2010-10-22 02:16:49,4322.138828163654,2,48,0.5501165986061096,4.063183307647705,47.339805184290086,46.6931979508989,189.07439063150863,170.18843533631207,6.47544875391759e-05,0.0906857252120971,0,0,0
15799,551035.2314238698,2010-10-22 02:17:19,4352.153691739027,2,48,0.5501165986061096,4.0657734870910645,47.34439172048136,46.6931979508989,189.09303243642483,170.18843533631207,9.70840483205393e-05,0.0906857252120971,0,0,0
15800,551065.2467330006,2010-10-22 02:17:49,4382.169000879886,2,48,0.5501165986061096,4.068525791168213,47.34897837004528,46.6931979508989,189.11168701848152,170.18843533631207,6.47544875391759e-05,0.0906857252120971,0,0,0
15801,551095.2618065343,2010-10-22 02:18:19,4412.1840744035135,2,48,0.550297200679779,4.071277618408203,47.35356504840556,46.6931979508989,189.13035417366297,170.18843533631207,6.47544875391759e-05,0.0906857252120971,0,0,0
15802,551125.2771173344,2010-10-22 02:18:49,4442.199385203507,2,48,0.5501165986061096,4.0738677978515625,47.35815170855136,46.6931979508989,189.149033732952,170.18843533631207,6.47544875391759e-05,0.0906857252120971,0,0,0
15803,551155.2923907711,2010-10-22 02:19:19,4472.214658675469,2,48,0.550297200679779,4.076943874359131,47.36273843184655,46.6931979508989,189.1677263606772,170.18843533631207,9.71794142969884e-05,0.0906857252120971,0,0,0
15804,551185.3073199901,2010-10-22 02:19:49,4502.22958786437,2,48,0.550297200679779,4.079695701599121,47.36732503970188,46.6931979508989,189.1864314021985,170.18843533631207,0.0001295089750783,0.0906857252120971,0,0,0
15805,551215.3226449555,2010-10-22 02:20:19,4532.244912829668,2,48,0.5501165986061096,4.0822858810424805,47.37191174965332,46.6931979508989,189.20514979638884,170.18843533631207,6.47544875391759e-05,0.0906857252120971,0,0,0
15806,551245.3377668397,2010-10-22 02:20:49,4562.260034728863,2,48,0.5501165986061096,4.08519983291626,47.37649840106388,46.6931979508989,189.22388095548385,170.18843533631207,6.47544875391759e-05,0.0906857252120971,0,0,0
15807,551275.3529888884,2010-10-22 02:21:19,4592.275256892948,2,48,0.5501165986061096,4.088113784790039,47.381085090846845,46.6931979508989,189.24262543107704,170.18843533631207,6.47544875391759e-05,0.0906857252120971,0,0,0
15808,551305.3680482167,2010-10-22 02:21:49,4622.290316075835,2,48,0.5501165986061096,4.091027736663818,47.38567176373227,46.6931979508989,189.2613831148119,170.18843533631207,6.47544875391759e-05,0.0906857252120971,0,0,0
15809,551335.3832546265,2010-10-22 02:22:19,4652.305522525757,2,48,0.5501165986061096,4.093941688537598,47.390258487919816,46.6931979508989,189.28015437121456,170.18843533631207,6.47544875391759e-05,0.0906857252120971,0,0,0
15810,551365.3984092473,2010-10-22 02:22:49,4682.320677136479,2,48,0.5501165986061096,4.097017765045166,47.39484519310992,46.6931979508989,189.2989390592472,170.18843533631207,9.71794142969884e-05,0.0906857252120971,0,0,0
15811,551395.413774939,2010-10-22 02:23:19,4712.336042943567,2,48,0.550297200679779,4.099931716918945,47.39943191157399,46.6931979508989,189.3177373796408,170.18843533631207,9.71794142969884e-05,0.0906857252120971,0,0,0
15812,551425.4287620875,2010-10-22 02:23:49,4742.351029951571,2,48,0.5501165986061096,4.103007316589356,47.40401858047869,46.6931979508989,189.33654909077853,170.18843533631207,0.0001295089750783,0.0906857252120971,0,0,0
15813,551455.4439233397,2010-10-22 02:24:19,4772.366191238934,2,48,0.5499359965324402,4.105921268463135,47.40860515042542,46.6931979508989,189.35537421737283,170.18843533631207,9.70840483205393e-05,0.0906857252120971,0,0,0
15814,551485.4591200653,2010-10-22 02:24:49,4802.381387934544,2,48,0.5501165986061096,4.108997344970703,47.41319177988382,46.6931979508989,189.37421351955504,170.18843533631207,6.47544875391759e-05,0.0906857252120971,0,0,0
15815,551515.4743313022,2010-10-22 02:25:19,4832.396600028533,2,48,0.5501165986061096,4.112072944641113,47.417778439584126,46.6931979508989,189.39306697798617,170.18843533631207,6.47544875391759e-05,0.0906857252120971,0,0,0
15816,551545.4894516375,2010-10-22 02:25:50,4862.411719526744,2,48,0.5501165986061096,4.115148544311523,47.42236507491996,46.6931979508989,189.4119344298052,170.18843533631207,9.70840483205393e-05,0.0906857252120971,0,0,0
15817,551575.5046317368,2010-10-22 02:26:20,4892.426899605941,2,48,0.550297200679779,4.118386268615723,47.42695173364709,46.6931979508989,189.4308163770419,170.18843533631207,9.70840483205393e-05,0.0906857252120971,0,0,0
15818,551605.5198181919,2010-10-22 02:26:50,4922.44208608108,2,48,0.550297200679779,4.121462345123291,47.43153841360969,46.6931979508989,189.44971288575343,170.18843533631207,6.47544875391759e-05,0.0906857252120971,0,0,0
15819,551635.5351332725,2010-10-22 02:27:20,4952.457401151717,2,48,0.550297200679779,4.124537944793701,47.43612514284565,46.6931979508989,189.4686240502068,170.18843533631207,6.47544875391759e-05,0.0906857252120971,0,0,0
15820,551665.5501569569,2010-10-22 02:27:50,4982.472424826105,2,48,0.5501165986061096,4.1277756690979,47.44071174573484,46.6931979508989,189.4875493336148,170.18843533631207,9.70840483205393e-05,0.0906857252120971,0,0,0
15821,551695.5653485849,2010-10-22 02:28:20,5012.487616454086,2,48,0.5501165986061096,4.131175518035889,47.44529837915793,46.6931979508989,189.5064895607369,170.18843533631207,9.71794142969884e-05,0.0906857252120971,0,0,0
15822,551725.5806131647,2010-10-22 02:28:50,5042.502881169221,2,48,0.5501165986061096,4.134251117706299,47.44988510263674,46.6931979508989,189.52544515801344,170.18843533631207,3.23295607813634e-05,0.0906857252120971,0,0,0
15823,551755.5956994451,2010-10-22 02:29:20,5072.517967314307,2,48,0.5501165986061096,4.137650966644287,47.45447174908632,46.6931979508989,189.54441535539272,170.18843533631207,9.71794142969884e-05,0.0906857252120971,0,0,0
15824,551785.6108800507,2010-10-22 02:29:50,5102.53314790979,2,48,0.550297200679779,4.140888690948486,47.4590584488713,46.6931979508989,189.5634008682506,170.18843533631207,0.0001295089750783,0.0906857252120971,0,0,0
15825,551815.6260583805,2010-10-22 02:30:20,5132.548326249653,2,48,0.5501165986061096,4.144288063049316,47.463645211634486,46.6931979508989,189.58240184340076,170.18843533631207,0.0001295089750783,0.0906857252120971,0,0,0
15826,551845.6412577628,2010-10-22 02:30:50,5162.563525667048,2,48,0.5501165986061096,4.147687911987305,47.46823183634026,46.6931979508989,189.6014179767952,170.18843533631207,9.71794142969884e-05,0.0906857252120971,0,0,0
15827,551875.6564119975,2010-10-22 02:31:20,5192.578679866745,2,48,0.550297200679779,4.151087284088135,47.47281850304128,46.6931979508989,189.62044976639908,170.18843533631207,9.70840483205393e-05,0.0906857252120971,0,0,0
15828,551905.6716004326,2010-10-22 02:31:50,5222.593868321817,2,48,0.5499359965324402,4.154487133026123,47.477405175242346,46.6931979508989,189.6394971055212,170.18843533631207,9.71794142969884e-05,0.0906857252120971,0,0,0
15829,551935.6867699656,2010-10-22 02:32:20,5252.609037859743,2,48,0.5499359965324402,4.157724857330322,47.48199176188427,46.6931979508989,189.65855973676972,170.18843533631207,9.71794142969884e-05,0.0906857252120971,0,0,0
15830,551965.7019574833,2010-10-22 02:32:50,5282.624225372467,2,48,0.5499359965324402,4.161286354064941,47.486578415937686,46.6931979508989,189.6776384451512,170.18843533631207,6.47544875391759e-05,0.0906857252120971,0,0,0
15831,551995.7171190212,2010-10-22 02:33:20,5312.639386920479,2,48,0.5501165986061096,4.1648478507995605,47.49116508256069,46.6931979508989,189.6967331182792,170.18843533631207,9.71794142969884e-05,0.0906857252120971,0,0,0
15832,552025.7323025439,2010-10-22 02:33:50,5342.654570413183,2,48,0.5501165986061096,4.16840934753418,47.49575169554959,46.6931979508989,189.7158435971013,170.18843533631207,9.71794142969884e-05,0.0906857252120971,0,0,0
15833,552055.7475004877,2010-10-22 02:34:20,5372.669768381968,2,48,0.5499359965324402,4.17180871963501,47.50033833808629,46.6931979508989,189.7349703552348,170.18843533631207,6.47544875391759e-05,0.0906857252120971,0,0,0
15834,552085.7626708327,2010-10-22 02:34:50,5402.684938726904,2,48,0.550297200679779,4.175532341003418,47.50492494462585,46.6931979508989,189.75411322626456,170.18843533631207,9.71794142969884e-05,0.0906857252120971,0,0,0
15835,552115.7779134025,2010-10-22 02:35:20,5432.700181397097,2,48,0.550297200679779,4.179093837738037,47.50951161133774,46.6931979508989,189.7732728375976,170.18843533631207,6.47544875391759e-05,0.0906857252120971,0,0,0
15836,552145.7930088408,2010-10-22 02:35:50,5462.715276700006,2,48,0.5501165986061096,4.182655334472656,47.514098253408186,46.6931979508989,189.79244884753203,170.18843533631207,9.71794142969884e-05,0.0906857252120971,0,0,0
15837,552175.8082040328,2010-10-22 02:36:20,5492.730471931969,2,48,0.5499359965324402,4.186216831207275,47.518684924333805,46.6931979508989,189.81164161754697,170.18843533631207,9.71794142969884e-05,0.0906857252120971,0,0,0
15838,552205.8234927827,2010-10-22 02:36:50,5522.7457606920325,2,48,0.5501165986061096,4.189939975738525,47.52327155872969,46.6931979508989,189.8308510214652,170.18843533631207,6.47544875391759e-05,0.0906857252120971,0,0,0
15839,552235.8385453742,2010-10-22 02:37:20,5552.760813268454,2,48,0.5499359965324402,4.193663597106934,47.5278581981863,46.6931979508989,189.85007722933625,170.18843533631207,9.71794142969884e-05,0.0906857252120971,0,0,0
15840,552265.8537445811,2010-10-22 02:37:50,5582.776012470311,2,48,0.5501165986061096,4.197386741638184,47.53244485338985,46.6931979508989,189.86932048116785,170.18843533631207,0.0001295089750783,0.0906857252120971,0,0,0
15841,552286.4004390658,2010-10-22 02:38:10,5603.322706934976,2,48,0.5501165986061096,4.200138568878174,47.53558455527052,46.6931979508989,189.88250290352028,170.18843533631207,0.0001618385285837,0.0906857252120971,0,0,0
15842,552316.3969505926,2010-10-22 02:38:41,30.015304995527316,3,48,0.0,4.115148544311523,47.53558455527052,46.6931979508989,189.88250290352028,170.18843533631207,-0.0003885269106831,0.0906857252120971,0,0,0
15843,552346.412114271,2010-10-22 02:39:11,60.03046864878621,3,48,0.0,4.104626178741455,47.53558455527052,46.6931979508989,189.88250290352028,170.18843533631207,-0.0001942634553415,0.0906857252120971,0,0,0
15844,552376.4273138638,2010-10-22 02:39:41,90.04566823660508,3,48,0.0,4.098312854766846,47.53558455527052,46.6931979508989,189.88250290352028,170.18843533631207,-0.0001295089750783,0.0906857252120971,0,0,0
15845,552406.3956299485,2010-10-22 02:40:11,120.013984316296,3,48,0.0,4.094103813171387,47.53558455527052,46.6931979508989,189.88250290352028,170.18843533631207,-0.0001295089750783,0.0906857252120971,0,0,0
15846,552406.4100019318,2010-10-22 02:40:11,0.01576221930041,4,48,0.9940541982650756,4.199653148651123,47.5355889076315,46.6931979508989,189.8825211819268,170.18843533631207,0.0,0.0906857252120971,0,0,0
15847,552407.3317811241,2010-10-22 02:40:12,0.937541436734631,4,48,0.943664252758026,4.199653148651123,47.53583535458903,46.6931979508989,189.88355617971573,170.18843533631207,0.0,0.0906857252120971,0,0,0
15848,552409.4724523606,2010-10-22 02:40:14,3.078212648061322,4,48,0.8930936455726624,4.199491024017334,47.53638026938752,46.6931979508989,189.8858446539086,170.18843533631207,-3.24249267578125e-05,0.0906857252120971,0,0,0
15849,552412.6754202419,2010-10-22 02:40:17,6.28118052453808,4,48,0.8430648446083069,4.199814796447754,47.53715137250482,46.6931979508989,189.88908305252468,170.18843533631207,6.47544875391759e-05,0.0906857252120971,0,0,0
15850,552417.081575652,2010-10-22 02:40:21,10.687335939572472,4,48,0.7928555011749268,4.199814796447754,47.53815110255759,46.6931979508989,189.8932816244887,170.18843533631207,3.23295607813634e-05,0.0906857252120971,0,0,0
15851,552422.8159945935,2010-10-22 02:40:27,16.421754881011136,4,48,0.7428267002105713,4.199814796447754,47.539372529847775,46.6931979508989,189.8984112720732,170.18843533631207,0.0,0.0906857252120971,0,0,0
15852,552430.2376279123,2010-10-22 02:40:35,23.843388184783613,4,48,0.6927979588508606,4.199653148651123,47.54085025682373,46.6931979508989,189.90461730775868,170.18843533631207,0.0,0.0906857252120971,0,0,0
15853,552440.1595035994,2010-10-22 02:40:44,33.76526391699312,4,48,0.6425885558128357,4.199653148651123,47.542687361580434,46.6931979508989,189.9123326284476,170.18843533631207,-3.23295607813634e-05,0.0906857252120971,0,0,0
15854,552454.0497777464,2010-10-22 02:40:58,47.65553801898578,4,48,0.592559814453125,4.199653148651123,47.54506453022601,46.6931979508989,189.92231606648596,170.18843533631207,-3.23295607813634e-05,0.0906857252120971,0,0,0
15855,552474.8776033515,2010-10-22 02:41:19,68.48336362395509,4,48,0.5421698093414307,4.199653148651123,47.54833747889994,46.6931979508989,189.9360615605248,170.18843533631207,0.0,0.0906857252120971,0,0,0
15856,552510.9395607052,2010-10-22 02:41:55,104.5453209876924,4,48,0.4921410381793976,4.199653148651123,47.553496900035,46.6931979508989,189.95772969044864,170.18843533631207,0.0,0.0906857252120971,0,0,0
15857,552575.3917315312,2010-10-22 02:43:00,168.99749183889077,4,48,0.4421122670173645,4.199491024017334,47.56182592062101,46.6931979508989,189.9927093024774,170.18843533631207,-6.47544875391759e-05,0.0906857252120971,0,0,0
15858,552674.6574414737,2010-10-22 02:44:39,268.2632018966501,4,48,0.3920834958553314,4.199653148651123,47.573302827389135,46.6931979508989,190.04090912587844,170.18843533631207,-3.23295607813634e-05,0.0906857252120971,0,0,0
15859,552798.1074010626,2010-10-22 02:46:42,391.71316145046114,4,48,0.3420547246932983,4.199814796447754,47.58587014989699,46.6931979508989,190.0936884547387,170.18843533631207,0.0,0.0906857252120971,0,0,0
15860,552945.8237043567,2010-10-22 02:49:10,539.4294646542152,4,48,0.2920259535312652,4.199814796447754,47.59885893019384,46.6931979508989,190.14823775540356,170.18843533631207,0.0,0.0906857252120971,0,0,0
15861,553122.8523125437,2010-10-22 02:52:07,716.4580728160955,4,48,0.2419971823692321,4.199491024017334,47.61195904820595,46.6931979508989,190.2032546462953,170.18843533631207,0.0,0.0906857252120971,0,0,0
15862,553341.8803056708,2010-10-22 02:55:46,935.4860659482092,4,48,0.1919684112071991,4.199814796447754,47.62511269581558,46.6931979508989,190.25849630883465,170.18843533631207,0.0,0.0906857252120971,0,0,0
15863,553631.7355852787,2010-10-22 03:00:36,1225.3413455963323,4,48,0.1419396549463272,4.199491024017334,47.63848266020017,46.6931979508989,190.3146464165152,170.18843533631207,-6.47544875391759e-05,0.0906857252120971,0,0,0
15864,554078.1974909204,2010-10-22 03:08:03,1671.8032512280608,4,48,0.0919108763337135,4.199814796447754,47.65277305401944,46.6931979508989,190.3746620497591,170.18843533631207,3.23295607813634e-05,0.0906857252120971,0,0,0
15865,554764.9216976784,2010-10-22 03:19:29,2358.527457960995,4,48,0.0498289167881011,4.199653148651123,47.66589108164869,46.6931979508989,190.42975409575672,170.18843533631207,0.0,0.0906857252120971,0,0,0
15866,554794.9238653627,2010-10-22 03:19:59,30.015234214118266,5,48,0.0,4.191882610321045,47.66589108164869,46.6931979508989,190.42975409575672,170.18843533631207,-3.24249267578125e-05,0.0906857252120971,0,0,0
15867,554824.923391342,2010-10-22 03:20:29,60.01476026365712,5,48,0.0,4.190911293029785,47.66589108164869,46.6931979508989,190.42975409575672,170.18843533631207,3.23295607813634e-05,0.0906857252120971,0,0,0
15868,554825.0986044271,2010-10-22 03:20:30,0.187413567275363,6,48,-1.9243103452026844e-05,4.190749645233154,47.66589108164869,46.69319795190067,190.42975409575672,170.1884353405103,0.0,0.0940094217658042,0,0,0
15869,554829.9267545979,2010-10-22 03:20:35,5.015563743098183,6,48,0.0003419754502829,4.190587520599365,47.66589202931582,46.693197951985205,190.42975806717612,170.18843534086454,-3.24249267578125e-05,0.0940094217658042,0,0,0
15870,554859.960975653,2010-10-22 03:21:05,30.015180209522192,7,48,-1.0997490882873535,4.014455795288086,47.66589202931582,46.702366179363175,190.42975806717612,170.22543891785327,-0.0009389877086505,0.0940094217658042,0,0,0
15871,554889.9762025439,2010-10-22 03:21:35,60.03040705527622,7,48,-1.099568486213684,3.9877448081970215,47.66589202931582,46.71153437748574,190.42975806717612,170.26211229095037,-0.0005504131549969,0.0940094217658042,0,0,0
15872,554919.9913616409,2010-10-22 03:22:05,90.04556614716678,7,48,-1.099568486213684,3.968804121017456,47.66589202931582,46.72070243648464,190.42975806717612,170.29858021880582,-0.0004209041653666,0.0940094217658042,0,0,0
15873,554950.0066269876,2010-10-22 03:22:35,120.06083150891452,7,48,-1.0997490882873535,3.9540724754333496,47.66589202931582,46.72987051192437,190.42975806717612,170.33489737095348,-0.0003561496851034,0.0940094217658042,0,0,0
15874,554980.0218092321,2010-10-22 03:23:05,150.07601374849625,7,48,-1.099568486213684,3.9419310092926025,47.66589202931582,46.73903858926224,190.42975806717612,170.3710922308091,-0.0003237724304199,0.0940094217658042,0,0,0
15875,555010.0368763598,2010-10-22 03:23:35,180.09108089623373,7,48,-1.099568486213684,3.930922746658325,47.66589202931582,46.748206634777176,190.42975806717612,170.40718119599762,-0.0002913951757363,0.0940094217658042,0,0,0
15876,555040.0521664382,2010-10-22 03:24:05,210.10637095453285,7,48,-1.099568486213684,3.9210476875305176,47.66589202931582,46.75737472515226,190.42975806717612,170.44317509280847,-0.0002590179501567,0.0940094217658042,0,0,0
15877,555070.0672211099,2010-10-22 03:24:35,240.1214256211635,7,48,-1.099568486213684,3.911658525466919,47.66589202931582,46.76654278008906,190.42975806717612,170.479079604824,-0.0002266406954731,0.0940094217658042,0,0,0
15878,555100.0826813824,2010-10-22 03:25:05,270.1368858936889,7,48,-1.099568486213684,3.902592897415161,47.66589202931582,46.77571050368084,190.42975806717612,170.5148989062566,-0.0002590179501567,0.0940094217658042,0,0,0
15879,555130.0975938797,2010-10-22 03:25:35,300.1517984110398,7,48,-1.099568486213684,3.894012928009033,47.66589202931582,46.78487784837782,190.42975806717612,170.5506356186482,-0.0001942634553415,0.0940094217658042,0,0,0
15880,555160.1127626407,2010-10-22 03:26:05,330.1669671519787,7,48,-1.0997490882873535,3.8855948448181152,47.66589202931582,46.79404528164854,190.42975806717612,170.5862947284587,-0.0001942634553415,0.0940094217658042,0,0,0
15881,555190.1279564942,2010-10-22 03:26:35,360.18216115588086,7,48,-1.099568486213684,3.877176761627197,47.66589202931582,46.80321269875397,190.42975806717612,170.62187702799974,-0.0002266406954731,0.0940094217658042,0,0,0
15882,555220.143138403,2010-10-22 03:27:05,390.1973429393258,7,48,-1.099568486213684,3.869082450866699,47.66589202931582,46.81238053419683,190.42975806717612,170.65738547663267,-0.0002266406954731,0.0940094217658042,0,0,0
15883,555250.1583473892,2010-10-22 03:27:35,420.21255189048094,7,48,-1.099568486213684,3.860988140106201,47.66589202931582,46.821548604151104,190.42975806717612,170.69282089346444,-0.0001942634553415,0.0940094217658042,0,0,0
15884,555280.1734913234,2010-10-22 03:28:05,450.2276958296061,7,48,-1.099568486213684,3.853379487991333,47.66589202931582,46.83071670719305,190.42975806717612,170.7281835342466,-0.0001618862152099,0.0940094217658042,0,0,0
15885,555310.1887010164,2010-10-22 03:28:35,480.2429055576976,7,48,-1.099568486213684,3.845608949661255,47.66589202931582,46.8398848947188,190.42975806717612,170.76347518989985,-0.0001295089750783,0.0940094217658042,0,0,0
15886,555340.2038465043,2010-10-22 03:29:05,510.258051065733,7,48,-1.099568486213684,3.8380002975463863,47.66589202931582,46.84905302200463,190.42975806717612,170.79869619758895,-0.0001942634553415,0.0940094217658042,0,0,0
15887,555370.2190357964,2010-10-22 03:29:35,540.2732403328296,7,48,-1.099568486213684,3.8303918838500977,47.66589202931582,46.85822120319496,190.42975806717612,170.83384821722098,-0.0001942634553415,0.0940094217658042,0,0,0
15888,555400.234329985,2010-10-22 03:30:05,570.2885345164101,7,48,-1.0997490882873535,3.8227832317352295,47.66589202931582,46.86738935422184,190.42975806717612,170.86893189144433,-0.0002266406954731,0.0940094217658042,0,0,0
15889,555430.2495120141,2010-10-22 03:30:35,600.3037165354422,7,48,-1.0993878841400146,3.815822124481201,47.66589202931582,46.87655746861091,190.42975806717612,170.90394903794905,-0.0001942634553415,0.0940094217658042,0,0,0
15890,555460.264568806,2010-10-22 03:31:05,630.3187733073197,7,48,-1.099568486213684,3.808699131011963,47.66589202931582,46.885725520948114,190.42975806717612,170.93890047140036,-0.0001618862152099,0.0940094217658042,0,0,0
15891,555490.2824876711,2010-10-22 03:31:35,660.3366923077516,7,48,-1.0997490882873535,3.801738023757935,47.66589202931582,46.89489450628406,190.42975806717612,170.9737911396337,-0.0002266406954731,0.0940094217658042,0,0,0
15892,555520.2951277047,2010-10-22 03:32:05,690.349332251149,7,48,-1.099568486213684,3.795100688934326,47.66589202931582,46.90406192872893,190.42975806717612,171.00861329753027,-0.0001618862152099,0.0940094217658042,0,0,0
15893,555550.3101054647,2010-10-22 03:32:35,720.3643099760171,7,48,-1.0997490882873535,3.7884633541107178,47.66589202931582,46.91323000064958,190.42975806717612,171.04337671073085,-0.0001942634553415,0.0940094217658042,0,0,0
15894,555580.3252912982,2010-10-22 03:33:05,750.3794958396311,7,48,-1.0997490882873535,3.781826019287109,47.66589202931582,46.92239816201318,190.42975806717612,171.07807998791884,-0.0001942634553415,0.0940094217658042,0,0,0
15895,555610.3406098025,2010-10-22 03:33:35,780.3948144089886,7,48,-1.0997490882873535,3.775350570678711,47.66589202931582,46.93156635597408,190.42975806717612,171.11272405871176,-0.0001942634553415,0.0940094217658042,0,0,0
15896,555640.3556737321,2010-10-22 03:34:05,810.4098782785559,7,48,-1.099568486213684,3.769198894500733,47.66589202931582,46.940734436270645,190.42975806717612,171.1473089990668,-0.0001618862152099,0.0940094217658042,0,0,0
15897,555670.3710515442,2010-10-22 03:34:35,840.4252560655018,7,48,-1.099568486213684,3.763047218322754,47.66589202931582,46.949902666086224,190.42975806717612,171.1818373549162,-0.0001618862152099,0.0940094217658042,0,0,0
15898,555700.3860311187,2010-10-22 03:35:05,870.4402356550171,7,48,-1.099568486213684,3.757057428359986,47.66589202931582,46.959070727895394,190.42975806717612,171.21630928636606,-0.0001618862152099,0.0940094217658042,0,0,0
15899,555730.401419477,2010-10-22 03:35:35,900.455623983235,7,48,-1.0997490882873535,3.751229763031006,47.66589202931582,46.96823901024603,190.42975806717612,171.25072748296944,-0.0001295089750783,0.0940094217658042,0,0,0
15900,555760.4164977975,2010-10-22 03:36:05,930.4707023489312,7,48,-1.0997490882873535,3.745239973068237,47.66589202931582,46.97740712287977,190.42975806717612,171.28509136489683,-0.0001618862152099,0.0940094217658042,0,0,0
15901,555790.4315504842,2010-10-22 03:36:35,960.4857549905148,7,48,-1.099568486213684,3.7395739555358887,47.66589202931582,46.986575260774686,190.42975806717612,171.3194024767277,-0.0001618862152099,0.0940094217658042,0,0,0
15902,555820.4467357262,2010-10-22 03:37:05,990.5009402375922,7,48,-1.0997490882873535,3.73406982421875,47.66589202931582,46.99574341935951,190.42975806717612,171.3536620060381,-0.0001295089750783,0.0940094217658042,0,0,0
15903,555850.461924036,2010-10-22 03:37:35,1020.51612858239,7,48,-1.099568486213684,3.728727579116821,47.66589202931582,47.004911599726505,190.42975806717612,171.38787078121803,-9.713172767078504e-05,0.0940094217658042,0,0,0
15904,555880.4770840202,2010-10-22 03:38:05,1050.5312885213918,7,48,-1.0997490882873535,3.7232234477996826,47.66589202931582,47.01407976111791,190.42975806717612,171.42203005004754,-0.0001295089750783,0.0940094217658042,0,0,0
15905,555910.4922706556,2010-10-22 03:38:35,1080.546475166955,7,48,-1.0997490882873535,3.717719316482544,47.66589202931582,47.02324790639303,190.42975806717612,171.4561397261405,-0.0001618862152099,0.0940094217658042,0,0,0
15906,555940.5074456471,2010-10-22 03:39:05,1110.5616501584718,7,48,-1.0997490882873535,3.712538957595825,47.66589202931582,47.03241614258322,190.42975806717612,171.4902011823272,-9.713172767078504e-05,0.0940094217658042,0,0,0
15907,555970.5226160071,2010-10-22 03:39:35,1140.5768205134336,7,48,-1.0997490882873535,3.707196712493897,47.66589202931582,47.04158432860582,190.42975806717612,171.52421437321743,-0.0001618862152099,0.0940094217658042,0,0,0
15908,556000.5377987128,2010-10-22 03:40:05,1170.5920032442395,7,48,-1.099929690361023,3.702178239822388,47.66589202931582,47.05075247992708,190.42975806717612,171.55818040415429,-0.0001295089750783,0.0940094217658042,0,0,0
15909,556030.5529770226,2010-10-22 03:40:35,1200.6071815740768,7,48,-1.099568486213684,3.697159767150879,47.66589202931582,47.05992065059257,190.42975806717612,171.5920998097217,-0.0001295089750783,0.0940094217658042,0,0,0
15910,556060.5681496282,2010-10-22 03:41:05,1230.6223541295228,7,48,-1.0997490882873535,3.69214129447937,47.66589202931582,47.06908883334548,190.42975806717612,171.62597364842998,-0.0001942634553415,0.0940094217658042,0,0,0
15911,556090.5834763179,2010-10-22 03:41:35,1260.6376808592183,7,48,-1.099568486213684,3.687608480453491,47.66589202931582,47.07825707190296,190.42975806717612,171.6598028599621,-3.237724376958795e-05,0.0940094217658042,0,0,0
15912,556120.5986275652,2010-10-22 03:42:05,1290.6528320714704,7,48,-1.099568486213684,3.6825900077819824,47.66589202931582,47.08742518439938,190.42975806717612,171.69358795782523,-0.0001295089750783,0.0940094217658042,0,0,0
15913,556150.6138306567,2010-10-22 03:42:35,1320.6680351680343,7,48,-1.099929690361023,3.6778953075408936,47.66589202931582,47.09659337855657,190.42975806717612,171.72733001586553,-0.0001295089750783,0.0940094217658042,0,0,0
15914,556180.6290089966,2010-10-22 03:43:05,1350.6832135078964,7,48,-1.099568486213684,3.673362493515015,47.66589202931582,47.1057616098551,190.42975806717612,171.7610292848237,-0.0001295089750783,0.0940094217658042,0,0,0
15915,556210.6441849255,2010-10-22 03:43:35,1380.6983894467749,7,48,-1.0997490882873535,3.668668031692505,47.66589202931582,47.114929892324696,190.42975806717612,171.79468631489033,-0.0001295089750783,0.0940094217658042,0,0,0
15916,556240.6592230108,2010-10-22 03:44:05,1410.7134275320798,7,48,-1.0997490882873535,3.664297103881836,47.66589202931582,47.12409801225289,190.42975806717612,171.8283011352918,-0.0001295089750783,0.0940094217658042,0,0,0
15917,556270.6745707127,2010-10-22 03:44:35,1440.7287752340449,7,48,-1.0993878841400146,3.659926176071167,47.66589202931582,47.13326621017064,190.42975806717612,171.86187547285513,-6.47544875391759e-05,0.0940094217658042,0,0,0
15918,556300.6895921666,2010-10-22 03:45:05,1470.7437967079493,7,48,-1.099568486213684,3.655555248260498,47.66589202931582,47.14243437725966,190.42975806717612,171.89540931774044,-9.713172767078504e-05,0.0940094217658042,0,0,0
15919,556330.7047860201,2010-10-22 03:45:35,1500.7589905163638,7,48,-1.0997490882873535,3.651184320449829,47.66589202931582,47.151602599368616,190.42975806717612,171.9289037858995,-9.713172767078504e-05,0.0940094217658042,0,0,0
15920,556360.720095176,2010-10-22 03:46:05,1530.7742997173723,7,48,-1.0997490882873535,3.64665150642395,47.66589202931582,47.16077081946603,190.42975806717612,171.96235881840423,-0.0001618862152099,0.0940094217658042,0,0,0
15921,556390.7351369305,2010-10-22 03:46:35,1560.7893414768346,7,48,-1.0997490882873535,3.642604351043701,47.66589202931582,47.16993892910117,190.42975806717612,171.99577387949412,-0.0001295089750783,0.0940094217658042,0,0,0
15922,556420.7503232001,2010-10-22 03:47:05,1590.804527761498,7,48,-1.0997490882873535,3.638557195663452,47.66589202931582,47.17910707873248,190.42975806717612,172.02915123218702,-9.713172767078504e-05,0.0940094217658042,0,0,0
15923,556450.7655025224,2010-10-22 03:47:35,1620.819707053734,7,48,-1.0997490882873535,3.634348154067993,47.66589202931582,47.18827525894499,190.42975806717612,172.06249137682923,-0.0001618862152099,0.0940094217658042,0,0,0
15924,556480.7806972129,2010-10-22 03:48:05,1650.8349017643975,7,48,-1.099568486213684,3.630624771118164,47.66589202931582,47.19744342405914,190.42975806717612,172.0957948131905,-9.713172767078504e-05,0.0940094217658042,0,0,0
15925,556510.7958591119,2010-10-22 03:48:36,1680.8500637434838,7,48,-1.0997490882873535,3.626577615737915,47.66589202931582,47.20661158051877,190.42975806717612,172.12906249976345,-9.713172767078504e-05,0.0940094217658042,0,0,0
15926,556540.8110326848,2010-10-22 03:49:06,1710.8652372162155,7,48,-1.099568486213684,3.622854232788086,47.66589202931582,47.215779799827885,190.42975806717612,172.1622953183128,-9.713172767078504e-05,0.0940094217658042,0,0,0
15927,556570.8262397513,2010-10-22 03:49:36,1740.8804442525989,7,48,-1.099568486213684,3.619292736053467,47.66589202931582,47.22494806379181,190.42975806717612,172.19549393973776,-6.47544875391759e-05,0.0940094217658042,0,0,0
15928,556600.8413918357,2010-10-22 03:50:06,1770.8955963470496,7,48,-1.099568486213684,3.6155693531036377,47.66589202931582,47.234116316304814,190.42975806717612,172.2286591005631,-9.713172767078504e-05,0.0940094217658042,0,0,0
15929,556630.856571168,2010-10-22 03:50:36,1800.9107756994356,7,48,-1.0997490882873535,3.612169742584229,47.66589202931582,47.24328458707797,190.42975806717612,172.2617920441552,-9.713172767078504e-05,0.0940094217658042,0,0,0
15930,556660.8717581043,2010-10-22 03:51:06,1830.9259626407352,7,48,-1.099568486213684,3.6087701320648193,47.66589202931582,47.25245277275923,190.42975806717612,172.29489320024084,-6.47544875391759e-05,0.0940094217658042,0,0,0
15931,556690.887158267,2010-10-22 03:51:36,1860.941362798436,7,48,-1.099568486213684,3.60537052154541,47.66589202931582,47.26162108901185,190.42975806717612,172.32796383119924,-9.713172767078504e-05,0.0940094217658042,0,0,0
15932,556720.9021266137,2010-10-22 03:52:06,1890.956331159968,7,48,-1.0997490882873535,3.602132797241211,47.66589202931582,47.27078987458341,190.42975806717612,172.36100550490607,-9.713172767078504e-05,0.0940094217658042,0,0,0
15933,556750.9172906177,2010-10-22 03:52:36,1920.9714951240007,7,48,-1.0997490882873535,3.5987331867218018,47.66589202931582,47.279958950603564,190.42975806717612,172.39401856749552,-9.713172767078504e-05,0.0940094217658042,0,0,0
15934,556780.9325005262,2010-10-22 03:53:06,1950.986705042568,7,48,-1.099568486213684,3.5958192348480225,47.66589202931582,47.289128043212166,190.42975806717612,172.42700258273047,-6.47544875391759e-05,0.0940094217658042,0,0,0
15935,556810.947677217,2010-10-22 03:53:36,1981.0018818586325,7,48,-1.0997490882873535,3.5925815105438232,47.66589202931582,47.29829713930135,190.42975806717612,172.45995786053248,-9.713172767078504e-05,0.0940094217658042,0,0,0
15936,556840.9628369204,2010-10-22 03:54:06,2011.017041456785,7,48,-1.0993878841400146,3.589829683303833,47.66589202931582,47.30746557618935,190.42975806717612,172.4928827493475,-3.237724376958795e-05,0.0940094217658042,0,0,0
15937,556870.9780294606,2010-10-22 03:54:36,2041.032233966964,7,48,-1.099568486213684,3.586591958999634,47.66589202931582,47.31663386218196,190.42975806717612,172.52577940056156,-9.713172767078504e-05,0.0940094217658042,0,0,0
15938,556900.9932186826,2010-10-22 03:55:06,2071.04742319396,7,48,-1.099568486213684,3.5836780071258545,47.66589202931582,47.32580211837763,190.42975806717612,172.5586483248574,-6.47544875391759e-05,0.0940094217658042,0,0,0
15939,556931.0083844562,2010-10-22 03:55:36,2101.062588957479,7,48,-1.099568486213684,3.580602169036865,47.66589202931582,47.33497037619355,190.42975806717612,172.59149009566792,-9.713172767078504e-05,0.0940094217658042,0,0,0
15940,556961.0235530367,2010-10-22 03:56:06,2131.077757548043,7,48,-1.099568486213684,3.577688217163086,47.66589202931582,47.34413859970957,190.42975806717612,172.62430472000852,-6.47544875391759e-05,0.0940094217658042,0,0,0
15941,556991.0387837571,2010-10-22 03:56:36,2161.0929891205774,7,48,-1.099568486213684,3.574774265289306,47.66589202931582,47.353306891037285,190.42975806717612,172.65709255408782,-6.47544875391759e-05,0.0940094217658042,0,0,0
15942,557021.0538936564,2010-10-22 03:57:06,2191.1080981627288,7,48,-1.099568486213684,3.571860313415528,47.66589202931582,47.36247506005099,190.42975806717612,172.68985306384832,-9.713172767078504e-05,0.0940094217658042,0,0,0
15943,557051.0690888432,2010-10-22 03:57:36,2221.123293349579,7,48,-1.0997490882873535,3.568784475326538,47.66589202931582,47.3716430599906,190.42975806717612,172.7225859055304,-6.47544875391759e-05,0.0940094217658042,0,0,0
15944,557081.0842782006,2010-10-22 03:58:06,2251.1384827169254,7,48,-1.0997490882873535,3.565870523452759,47.66589202931582,47.38081113429894,190.42975806717612,172.75529188811217,-9.713172767078504e-05,0.0940094217658042,0,0,0
15945,557111.0996011859,2010-10-22 03:58:36,2281.1538057073017,7,48,-1.099568486213684,3.563118457794189,47.66589202931582,47.38997941059452,190.42975806717612,172.78797116470216,-3.237724376958795e-05,0.0940094217658042,0,0,0
15946,557141.1146691256,2010-10-22 03:59:06,2311.168873647013,7,48,-1.0997490882873535,3.5600426197052,47.66589202931582,47.39914766140412,190.42975806717612,172.82062340390348,-6.47544875391759e-05,0.0940094217658042,0,0,0
15947,557171.129876152,2010-10-22 03:59:36,2341.184080668358,7,48,-1.0997490882873535,3.556804895401001,47.66589202931582,47.408315925888125,190.42975806717612,172.85324769396655,-9.713172767078504e-05,0.0940094217658042,0,0,0
15948,557201.1450500858,2010-10-22 04:00:06,2371.199254647352,7,48,-1.0997490882873535,3.553729057312012,47.66589202931582,47.41748425445839,190.42975806717612,172.88584385416365,-9.713172767078504e-05,0.0940094217658042,0,0,0
15949,557231.1601996239,2010-10-22 04:00:36,2401.214404130294,7,48,-1.099568486213684,3.5506532192230225,47.66589202931582,47.42665243430048,190.42975806717612,172.9184109377247,-6.47544875391759e-05,0.0940094217658042,0,0,0
15950,557261.1753823799,2010-10-22 04:01:06,2431.2295868911747,7,48,-1.0997490882873535,3.5474154949188232,47.66589202931582,47.435820660234704,190.42975806717612,172.95094892948137,-9.713172767078504e-05,0.0940094217658042,0,0,0
15951,557291.1906141479,2010-10-22 04:01:36,2461.2448186792467,7,48,-1.099568486213684,3.544015884399414,47.66589202931582,47.44498896161841,190.42975806717612,172.9834567504314,-6.47544875391759e-05,0.0940094217658042,0,0,0
15952,557321.205867169,2010-10-22 04:02:06,2491.260071680188,7,48,-1.0997490882873535,3.539968729019165,47.66589202931582,47.45415727253841,190.42975806717612,173.01593120778924,-0.0001295089750783,0.0940094217658042,0,0,0
15953,557351.220918442,2010-10-22 04:02:36,2521.275122978423,7,48,-1.099568486213684,3.536245346069336,47.66589202931582,47.46332547169887,190.42975806717612,173.0483703103012,-9.713172767078504e-05,0.0940094217658042,0,0,0
15954,557381.2360961904,2010-10-22 04:03:06,2551.290300701749,7,48,-1.0997490882873535,3.532036304473877,47.66589202931582,47.47249369042241,190.42975806717612,173.0807724624938,-0.0001295089750783,0.0940094217658042,0,0,0
15955,557411.2541642674,2010-10-22 04:03:36,2581.3083689040377,7,48,-1.099568486213684,3.527989149093628,47.66589202931582,47.48166278609798,190.42975806717612,173.11314004352113,-0.0001295089750783,0.0940094217658042,0,0,0
15956,557441.2665884631,2010-10-22 04:04:06,2611.3207930145127,7,48,-1.099568486213684,3.523618221282959,47.66589202931582,47.490830049181405,190.42975806717612,173.14546220097793,-0.0001295089750783,0.0940094217658042,0,0,0
15957,557471.2816174107,2010-10-22 04:04:36,2641.3358219169318,7,48,-1.0997490882873535,3.51908540725708,47.66589202931582,47.49999809054971,190.42975806717612,173.1777461842446,-9.713172767078504e-05,0.0940094217658042,0,0,0
15958,557501.2968009434,2010-10-22 04:05:06,2671.3510054647736,7,48,-1.0997490882873535,3.514228820800781,47.66589202931582,47.50916621355342,190.42975806717612,173.20998772848753,-0.0001618862152099,0.0940094217658042,0,0,0
15959,557531.3119816441,2010-10-22 04:05:36,2701.366186150483,7,48,-1.099568486213684,3.509372472763061,47.66589202931582,47.51833422103229,190.42975806717612,173.24218413871188,-0.0001295089750783,0.0940094217658042,0,0,0
15960,557561.3271360694,2010-10-22 04:06:06,2731.381340585768,7,48,-1.099568486213684,3.503868341445923,47.66589202931582,47.52750220623332,190.42975806717612,173.27433291307293,-0.0001618862152099,0.0940094217658042,0,0,0
15961,557591.3425042474,2010-10-22 04:06:36,2761.396708763765,7,48,-1.0997490882873535,3.498202323913574,47.66589202931582,47.536670262554445,190.42975806717612,173.30643142815688,-0.0001618862152099,0.0940094217658042,0,0,0
15962,557621.3574812054,2010-10-22 04:07:06,2791.4116857517965,7,48,-1.099568486213684,3.492050647735596,47.66589202931582,47.54583816929578,190.42975806717612,173.33847498615205,-0.0001942634553415,0.0940094217658042,0,0,0
15963,557651.372824707,2010-10-22 04:07:36,2821.427029213193,7,48,-1.099568486213684,3.4849276542663574,47.66589202931582,47.55500612441906,190.42975806717612,173.3704583487639,-0.0002266406954731,0.0940094217658042,0,0,0
15964,557681.387820161,2010-10-22 04:08:06,2851.44202471236,7,48,-1.099568486213684,3.4771571159362797,47.66589202931582,47.56417394311396,190.42975806717612,173.40237322693176,-0.0002266406954731,0.0940094217658042,0,0,0
15965,557711.4029737542,2010-10-22 04:08:36,2881.457178295521,7,48,-1.099568486213684,3.4684152603149414,47.66589202931582,47.57334172946101,190.42975806717612,173.43421123036978,-0.0002266406954731,0.0940094217658042,0,0,0
15966,557741.4182640881,2010-10-22 04:09:06,2911.4724686094573,7,48,-1.099568486213684,3.458216428756714,47.66589202931582,47.582509612554816,190.42975806717612,173.46596295157912,-0.0002913951757363,0.0940094217658042,0,0,0
15967,557771.4333095368,2010-10-22 04:09:36,2941.4875140681397,7,48,-1.099568486213684,3.4463987350463867,47.66589202931582,47.59167740538856,190.42975806717612,173.49761411864793,-0.0003561496851034,0.0940094217658042,0,0,0
15968,557801.4484631601,2010-10-22 04:10:06,2971.5026676663374,7,48,-1.0997490882873535,3.43215274810791,47.66589202931582,47.60084524821454,190.42975806717612,173.52914656118983,-0.0004209041653666,0.0940094217658042,0,0,0
15969,557831.4636707527,2010-10-22 04:10:36,3001.5178752992074,7,48,-1.0997490882873535,3.415154933929444,47.66589202931582,47.610013048295,190.42975806717612,173.56053684171633,-0.0005180359003134,0.0940094217658042,0,0,0
15970,557861.4788072886,2010-10-22 04:11:06,3031.5330118298684,7,48,-1.099568486213684,3.3941097259521484,47.66589202931582,47.61918085308671,190.42975806717612,173.59175280297382,-0.0006151676061563,0.0940094217658042,0,0,0
15971,557891.4939894578,2010-10-22 04:11:36,3061.54819398925,7,48,-1.099568486213684,3.366103410720825,47.66589202931582,47.628348622168815,190.42975806717612,173.62274599151783,-0.0008094310760498,0.0940094217658042,0,0,0
15972,557921.5087471594,2010-10-22 04:12:06,3091.562951374965,7,48,-1.099568486213684,3.3285460472106934,47.66589202931582,47.63751625363104,190.42975806717612,173.6534414240813,-0.0011008263099938,0.0940094217658042,0,0,0
15973,557951.5089271638,2010-10-22 04:12:36,3121.563131705173,7,48,-1.099568486213684,3.275609254837036,47.66589202931582,47.64667931458041,190.42975806717612,173.6837112091338,-0.0016188621520996,0.0940094217658042,0,0,0
15974,557981.5239618307,2010-10-22 04:13:06,3151.5781663819826,7,48,-1.0997490882873535,3.200170516967773,47.66589202931582,47.655847029419945,190.42975806717612,173.7134173173719,-0.0023635388351976,0.0940094217658042,0,0,0
15975,558011.5389716153,2010-10-22 04:13:36,3181.593176146704,7,48,-1.0993878841400146,3.0844223499298096,47.66589202931582,47.66501465394312,190.42975806717612,173.7422664050651,-0.0037881373427808,0.0940094217658042,0,0,0
15976,558039.3510479922,2010-10-22 04:14:04,3209.405252538635,7,48,-1.099568486213684,2.884169578552246,47.66589202931582,47.673509418384505,190.42975806717612,173.7677326686945,-0.0080619333311915,0.0940094217658042,0,0,0
15977,558053.3978774133,2010-10-22 04:14:18,3223.452081919553,7,48,-1.099568486213684,2.699943780899048,47.66589202931582,47.67779980104415,190.42975806717612,173.77973373140642,-0.0116881374269723,0.0940094217658042,0,0,0
15978,558113.4015181031,2010-10-22 04:15:18,60.01468858501188,8,48,0.0,3.346353530883789,47.66589202931582,47.67779980104415,190.42975806717612,173.77973373140642,0.0013274669181555,0.0940094217658042,0,0,0
15979,558113.5790716726,2010-10-22 04:15:19,0.187497140565718,9,48,-1.9243103452026844e-05,3.346515417098999,47.66589202931582,47.67779980204638,190.42975806717612,173.7797337347604,0.0,0.0922218039631843,0,0,0
15980,558118.4072006707,2010-10-22 04:15:23,5.015626113544527,9,48,0.0008838032954372,3.354771375656128,47.66589290539834,47.6777998022146,190.4297610030829,173.7797337353234,0.0011655330890789,0.0922218039631843,0,0,0
