Data_Point,Test_Time(s),Date_Time,Step_Time(s),Step_Index,Cycle_Index,Current(A),Voltage(V),Charge_Capacity(Ah),Discharge_Capacity(Ah),Charge_Energy(Wh),Discharge_Energy(Wh),dV/dt(V/s),Internal_Resistance(Ohm),Is_FC_Data,AC_Impedance(Ohm),ACI_Phase_Angle(Deg)
7753,268511.83378302306,2010-10-18 19:48:06,30.015146841358465,1,24,0.0,3.421630382537842,23.07101992058989,23.074109182884705,92.06815838580953,84.26615834335479,0.0007770538213662,0.0923051163554191,0,0,0
7754,268541.8489030125,2010-10-18 19:48:36,60.030266825781176,1,24,0.0,3.446074962615967,23.07101992058989,23.074109182884705,92.06815838580953,84.26615834335479,0.0005827903514727,0.0923051163554191,0,0,0
7755,268571.8640736131,2010-10-18 19:49:06,90.04543752159228,1,24,0.0,3.4645299911499023,23.07101992058989,23.074109182884705,92.06815838580953,84.26615834335479,0.0004532813909463,0.0923051163554191,0,0,0
7756,268601.8323292572,2010-10-18 19:49:36,120.01369310049662,1,24,0.0,3.479261636734009,23.07101992058989,23.074109182884705,92.06815838580953,84.26615834335479,0.0003561496851034,0.0923051163554191,0,0,0
7757,268631.84849274094,2010-10-18 19:50:06,30.01524476040285,2,24,0.5501165986061096,3.631272315979004,23.07560631148505,23.074109182884705,92.08466235141802,84.26615834335479,0.0014569759368896,0.0923051163554191,0,0,0
7758,268661.8635965801,2010-10-18 19:50:36,60.03034869983651,2,24,0.5499359965324402,3.6743338108062735,23.08019259112779,23.074109182884705,92.10142242027902,84.26615834335479,0.0009388923645019,0.0923051163554191,0,0,0
7759,268691.8786695724,2010-10-18 19:51:06,90.0454215568031,2,24,0.5501165986061096,3.705415964126587,23.08477885225771,23.074109182884705,92.11834911136724,84.26615834335479,0.0007446765666827,0.0923051163554191,0,0,0
7760,268721.8939261322,2010-10-18 19:51:36,120.06067815170115,2,24,0.5501165986061096,3.729051351547241,23.08936518873555,23.074109182884705,92.13540036659164,84.26615834335479,0.0005180359003134,0.0923051163554191,0,0,0
7761,268751.9089444483,2010-10-18 19:52:06,150.07569643766,2,24,0.5499359965324402,3.7483158111572266,23.09395146880496,23.074109182884705,92.1525492746478,84.26615834335479,0.0004532813909463,0.0923051163554191,0,0,0
7762,268781.92410730454,2010-10-18 19:52:36,180.09085929894505,2,24,0.5501165986061096,3.763370990753174,23.098537773667157,23.074109182884705,92.16977654547053,84.26615834335479,0.0003561496851034,0.0923051163554191,0,0,0
7763,268811.93943789887,2010-10-18 19:53:06,210.1061899433974,2,24,0.5501165986061096,3.773084163665772,23.10312410278923,23.074109182884705,92.187060850985,84.26615834335479,0.0001618862152099,0.0923051163554191,0,0,0
7764,268841.95576775365,2010-10-18 19:53:36,240.12251987838923,2,24,0.5501165986061096,3.77923583984375,23.107710547450427,23.074109182884705,92.20438106211309,84.26615834335479,0.0001295089750783,0.0923051163554191,0,0,0
7765,268871.9570049679,2010-10-18 19:54:06,270.1237570826521,2,24,0.5501165986061096,3.783444881439209,23.11229471549836,23.074109182884705,92.22171579132493,84.26615834335479,6.47544875391759e-05,0.0923051163554191,0,0,0
7766,268901.96909280535,2010-10-18 19:54:36,300.1358448197816,2,24,0.5501165986061096,3.787492036819458,23.116880496322647,23.074109182884705,92.2390755356204,84.26615834335479,0.0001295089750783,0.0923051163554191,0,0,0
7767,268931.9842171255,2010-10-18 19:55:06,330.150969155048,2,24,0.550297200679779,3.791377305984497,23.12146680133657,23.074109182884705,92.25645512398164,84.26615834335479,9.713172767078504e-05,0.0923051163554191,0,0,0
7768,268961.9994497457,2010-10-18 19:55:36,360.16620180025603,2,24,0.5501165986061096,3.795100688934326,23.126053173048764,23.074109182884705,92.27385232034572,84.26615834335479,6.47544875391759e-05,0.0923051163554191,0,0,0
7769,268992.0145019111,2010-10-18 19:56:06,390.1812539355779,2,24,0.5501165986061096,3.798662185668945,23.13063949087261,23.074109182884705,92.29126641665373,84.26615834335479,6.47544875391759e-05,0.0923051163554191,0,0,0
7770,269022.0297567366,2010-10-18 19:56:36,420.1965087360036,2,24,0.5501165986061096,3.802223682403565,23.13522584133667,23.074109182884705,92.3086973427633,84.26615834335479,6.47544875391759e-05,0.0923051163554191,0,0,0
7771,269052.04478180443,2010-10-18 19:57:06,450.21153379384,2,24,0.5499359965324402,3.805785179138184,23.139812101207788,23.074109182884705,92.32614442716364,84.26615834335479,6.47544875391759e-05,0.0923051163554191,0,0,0
7772,269082.05993680115,2010-10-18 19:57:36,480.2266888256116,2,24,0.5501165986061096,3.8095085620880127,23.144398493974435,23.074109182884705,92.34360809904722,84.26615834335479,0.0001295089750783,0.0923051163554191,0,0,0
7773,269112.0751957068,2010-10-18 19:58:06,510.2419477563312,2,24,0.5499359965324402,3.812746286392212,23.14898497341824,23.074109182884705,92.36108789912387,84.26615834335479,9.713172767078504e-05,0.0923051163554191,0,0,0
7774,269142.0902073662,2010-10-18 19:58:36,540.2569593656498,2,24,0.5501165986061096,3.816145896911621,23.15357125086787,23.074109182884705,92.37858281428454,84.26615834335479,9.713172767078504e-05,0.0923051163554191,0,0,0
7775,269172.1054980561,2010-10-18 19:59:06,570.272250075573,2,24,0.5501165986061096,3.81970739364624,23.15815755220975,23.074109182884705,92.39609306895,84.26615834335479,9.713172767078504e-05,0.0923051163554191,0,0,0
7776,269202.1205025878,2010-10-18 19:59:36,600.2872546122644,2,24,0.5501165986061096,3.8227832317352295,23.162743866978797,23.074109182884705,92.41361850163396,84.26615834335479,6.47544875391759e-05,0.0923051163554191,0,0,0
7777,269232.135766932,2010-10-18 20:00:06,630.3025189364262,2,24,0.5501165986061096,3.826182842254639,23.167330170060275,23.074109182884705,92.43115881881116,84.26615834335479,6.47544875391759e-05,0.0923051163554191,0,0,0
7778,269262.15078213526,2010-10-18 20:00:36,660.317534129677,2,24,0.5501165986061096,3.829258680343628,23.17191642209516,23.074109182884705,92.44871390541968,84.26615834335479,6.47544875391759e-05,0.0923051163554191,0,0,0
7779,269292.1659334829,2010-10-18 20:01:06,690.3326855875412,2,24,0.550297200679779,3.832658290863037,23.176502786022077,23.074109182884705,92.46628450173075,84.26615834335479,6.47544875391759e-05,0.0923051163554191,0,0,0
7780,269322.1811033516,2010-10-18 20:01:36,720.3478553460162,2,24,0.5499359965324402,3.835895776748657,23.181089083921865,23.074109182884705,92.48386995264936,84.26615834335479,3.237724376958795e-05,0.0923051163554191,0,0,0
7781,269352.19626363646,2010-10-18 20:02:06,750.36301565093,2,24,0.5499359965324402,3.839457273483277,23.18567539222778,23.074109182884705,92.50147088671046,84.26615834335479,9.713172767078504e-05,0.0923051163554191,0,0,0
7782,269382.21167560364,2010-10-18 20:02:36,780.3784276280885,2,24,0.5499359965324402,3.842694997787476,23.19026173952051,23.074109182884705,92.51908740565304,84.26615834335479,9.713172767078504e-05,0.0923051163554191,0,0,0
7783,269412.2265197105,2010-10-18 20:03:06,810.3932717299268,2,24,0.550297200679779,3.8460946083068848,23.194848023499777,23.074109182884705,92.5367190865724,84.26615834335479,9.713172767078504e-05,0.0923051163554191,0,0,0
7784,269442.241676236,2010-10-18 20:03:36,840.4084282504087,2,24,0.5499359965324402,3.849332332611084,23.199434317078385,23.074109182884705,92.5543662051482,84.26615834335479,9.713172767078504e-05,0.0923051163554191,0,0,0
7785,269472.2568136237,2010-10-18 20:04:06,870.4235656482309,2,24,0.550297200679779,3.852893829345703,23.20402062918505,23.074109182884705,92.57202861933634,84.26615834335479,0.0001295089750783,0.0923051163554191,0,0,0
7786,269502.27195922204,2010-10-18 20:04:36,900.4387112414789,2,24,0.5501165986061096,3.855969667434693,23.208606961995297,23.074109182884705,92.5897060549296,84.26615834335479,9.713172767078504e-05,0.0923051163554191,0,0,0
7787,269532.2871096624,2010-10-18 20:05:06,930.4538616567444,2,24,0.5499359965324402,3.8590455055236816,23.21319328779612,23.074109182884705,92.60739823971775,84.26615834335479,6.47544875391759e-05,0.0923051163554191,0,0,0
7788,269562.3024127932,2010-10-18 20:05:36,960.469164802662,2,24,0.5501165986061096,3.862283229827881,23.217779657831866,23.074109182884705,92.6251050334222,84.26615834335479,6.47544875391759e-05,0.0923051163554191,0,0,0
7789,269592.3174203675,2010-10-18 20:06:06,990.484172376924,2,24,0.5501165986061096,3.86535906791687,23.22236599188953,23.074109182884705,92.6428257432799,84.26615834335479,9.713172767078504e-05,0.0923051163554191,0,0,0
7790,269622.332557229,2010-10-18 20:06:36,1020.499309243422,2,24,0.5499359965324402,3.8682730197906494,23.226952350410052,23.074109182884705,92.66056025366132,84.26615834335479,9.713172767078504e-05,0.0923051163554191,0,0,0
7791,269652.3477052482,2010-10-18 20:07:06,1050.5144572426664,2,24,0.550297200679779,3.8711869716644287,23.231538747518687,23.074109182884705,92.67830828175568,84.26615834335479,9.713172767078504e-05,0.0923051163554191,0,0,0
7792,269682.3628724955,2010-10-18 20:07:36,1080.5296245299824,2,24,0.5501165986061096,3.873939037322998,23.23612515843657,23.074109182884705,92.69606927569832,84.26615834335479,6.47544875391759e-05,0.0923051163554191,0,0,0
7793,269712.377997342,2010-10-18 20:08:06,1110.5447493614854,2,24,0.5499359965324402,3.876529216766357,23.240711525863684,23.074109182884705,92.7138424533794,84.26615834335479,6.47544875391759e-05,0.0923051163554191,0,0,0
7794,269742.39317374706,2010-10-18 20:08:36,1140.559925761513,2,24,0.5499359965324402,3.878957509994507,23.245297929427466,23.074109182884705,92.73162769272292,84.26615834335479,6.47544875391759e-05,0.0923051163554191,0,0,0
7795,269772.40830603713,2010-10-18 20:09:06,1170.575058026543,2,24,0.5499359965324402,3.881547689437866,23.24988431701395,23.074109182884705,92.74942412558842,84.26615834335479,6.47544875391759e-05,0.0923051163554191,0,0,0
7796,269802.42382092576,2010-10-18 20:09:36,1200.590573070576,2,24,0.550297200679779,3.8838140964508057,23.25447076198687,23.074109182884705,92.7672314798174,84.26615834335479,9.713172767078504e-05,0.0923051163554191,0,0,0
7797,269832.4387248417,2010-10-18 20:10:06,1230.605476831102,2,24,0.5501165986061096,3.885918617248535,23.25905715383905,23.074109182884705,92.78504866551457,84.26615834335479,3.237724376958795e-05,0.0923051163554191,0,0,0
7798,269862.4538747608,2010-10-18 20:10:36,1260.6206267501311,2,24,0.5501165986061096,3.8880231380462646,23.26364356675291,23.074109182884705,92.80287535317966,84.26615834335479,3.237724376958795e-05,0.0923051163554191,0,0,0
7799,269892.46889031987,2010-10-18 20:11:06,1290.6356423143066,2,24,0.550297200679779,3.889803886413574,23.26822999024751,23.074109182884705,92.82071095223976,84.26615834335479,6.47544875391759e-05,0.0923051163554191,0,0,0
7800,269922.4840573416,2010-10-18 20:11:36,1320.6508093860853,2,24,0.5499359965324402,3.891260862350464,23.27281650484996,23.074109182884705,92.8385550439922,84.26615834335479,3.237724376958795e-05,0.0923051163554191,0,0,0
7801,269952.49925256846,2010-10-18 20:12:06,1350.6660045929857,2,24,0.5501165986061096,3.893041610717773,23.27740292974423,23.074109182884705,92.8564064428022,84.26615834335479,3.237724376958795e-05,0.0923051163554191,0,0,0
7802,269982.51440525946,2010-10-18 20:12:36,1380.6811572889355,2,24,0.5501165986061096,3.894498586654663,23.281989280876537,23.074109182884705,92.87426471774208,84.26615834335479,3.237724376958795e-05,0.0923051163554191,0,0,0
7803,270012.5295588677,2010-10-18 20:13:06,1410.6963108620716,2,24,0.550297200679779,3.8959555625915527,23.28657569886751,23.074109182884705,92.89212942793736,84.26615834335479,3.237724376958795e-05,0.0923051163554191,0,0,0
7804,270042.5446999697,2010-10-18 20:13:36,1440.7114519591137,2,24,0.550297200679779,3.897250652313232,23.291162050121645,23.074109182884705,92.91000026951755,84.26615834335479,6.47544875391759e-05,0.0923051163554191,0,0,0
7805,270072.5599837925,2010-10-18 20:14:06,1470.726735937259,2,24,0.5501165986061096,3.898383855819702,23.295748417328923,23.074109182884705,92.92787708784446,84.26615834335479,0.0,0.0923051163554191,0,0,0
7806,270102.5750106548,2010-10-18 20:14:36,1500.7417626742804,2,24,0.5499359965324402,3.899840831756592,23.30033465672607,23.074109182884705,92.94575919786362,84.26615834335479,3.237724376958795e-05,0.0923051163554191,0,0,0
7807,270132.59015613777,2010-10-18 20:15:06,1530.7569081572533,2,24,0.550297200679779,3.9009740352630615,23.30492097843127,23.074109182884705,92.96364717566048,84.26615834335479,3.237724376958795e-05,0.0923051163554191,0,0,0
7808,270162.6053409137,2010-10-18 20:15:36,1560.7720929431814,2,24,0.5501165986061096,3.9021072387695312,23.309507340379,23.074109182884705,92.98154083894576,84.26615834335479,3.237724376958795e-05,0.0923051163554191,0,0,0
7809,270192.62046307354,2010-10-18 20:16:06,1590.7872151180634,2,24,0.5501165986061096,3.903240442276001,23.314093641675075,23.074109182884705,92.99943971958186,84.26615834335479,0.0,0.0923051163554191,0,0,0
7810,270222.63563986955,2010-10-18 20:16:37,1620.8023919190907,2,24,0.5501165986061096,3.9045355319976807,23.31867989042951,23.074109182884705,93.01734384221132,84.26615834335479,3.237724376958795e-05,0.0923051163554191,0,0,0
7811,270252.6507712273,2010-10-18 20:17:07,1650.817523216709,2,24,0.5499359965324402,3.905506849288941,23.323266253947533,23.074109182884705,93.0352537540519,84.26615834335479,3.237724376958795e-05,0.0923051163554191,0,0,0
7812,270282.66594501084,2010-10-18 20:17:37,1680.832697030291,2,24,0.5501165986061096,3.90696382522583,23.327852583662185,23.074109182884705,93.0531689755346,84.26615834335479,3.237724376958795e-05,0.0923051163554191,0,0,0
7813,270312.68108441867,2010-10-18 20:18:07,1710.8478364130603,2,24,0.5501165986061096,3.9080970287323,23.33243885351749,23.074109182884705,93.07108939206849,84.26615834335479,6.47544875391759e-05,0.0923051163554191,0,0,0
7814,270342.69623568107,2010-10-18 20:18:37,1740.8629877105243,2,24,0.5499359965324402,3.9092302322387695,23.337025132550263,23.074109182884705,93.08901531734524,84.26615834335479,6.47544875391759e-05,0.0923051163554191,0,0,0
7815,270372.7113993744,2010-10-18 20:19:07,1770.8781514038835,2,24,0.5501165986061096,3.9103634357452393,23.34161149556463,23.074109182884705,93.10694711359102,84.26615834335479,0.0,0.0923051163554191,0,0,0
7816,270402.726563574,2010-10-18 20:19:37,1800.8933155684167,2,24,0.5499359965324402,3.911496639251709,23.34619779297168,23.074109182884705,93.12488406745848,84.26615834335479,3.237724376958795e-05,0.0923051163554191,0,0,0
7817,270432.74172857567,2010-10-18 20:20:07,1830.908480590086,2,24,0.5501165986061096,3.9127917289733887,23.35078404372569,23.074109182884705,93.14282647952304,84.26615834335479,3.237724376958795e-05,0.0923051163554191,0,0,0
7818,270462.7569081135,2010-10-18 20:20:37,1860.923660117909,2,24,0.5499359965324402,3.9139246940612793,23.355370417973727,23.074109182884705,93.1607749845908,84.26615834335479,3.237724376958795e-05,0.0923051163554191,0,0,0
7819,270492.77203201764,2010-10-18 20:21:07,1890.9387840371387,2,24,0.5501165986061096,3.915381669998169,23.35995672974692,23.074109182884705,93.17872891805789,84.26615834335479,3.237724376958795e-05,0.0923051163554191,0,0,0
7820,270522.78719955566,2010-10-18 20:21:37,1920.9539515700667,2,24,0.5501165986061096,3.9163529872894287,23.36454305337788,23.074109182884705,93.19668838087084,84.26615834335479,0.0,0.0923051163554191,0,0,0
7821,270552.80234763504,2010-10-18 20:22:07,1950.969099654524,2,24,0.5501165986061096,3.9178099632263184,23.36912937533461,23.074109182884705,93.21465375225,84.26615834335479,3.237724376958795e-05,0.0923051163554191,0,0,0
7822,270582.8174940604,2010-10-18 20:22:37,1980.9842460497705,2,24,0.5501165986061096,3.919105052947998,23.37371562922835,23.074109182884705,93.23262465339968,84.26615834335479,3.237724376958795e-05,0.0923051163554191,0,0,0
7823,270612.83266248554,2010-10-18 20:23:07,2010.999414504997,2,24,0.5501165986061096,3.920238256454468,23.378301990772705,23.074109182884705,93.25060190022262,84.26615834335479,0.0,0.0923051163554191,0,0,0
7824,270642.8478399482,2010-10-18 20:23:37,2041.014591992736,2,24,0.5501165986061096,3.921695232391357,23.382888319514368,23.074109182884705,93.26858488015112,84.26615834335479,3.237724376958795e-05,0.0923051163554191,0,0,0
7825,270672.86297899514,2010-10-18 20:24:07,2071.029730989543,2,24,0.5499359965324402,3.922990322113037,23.387474601062404,23.074109182884705,93.2865736464005,84.26615834335479,3.237724376958795e-05,0.0923051163554191,0,0,0
7826,270702.8781479165,2010-10-18 20:24:37,2101.044899941007,2,24,0.5501165986061096,3.924447298049927,23.39206096867263,23.074109182884705,93.30456880587944,84.26615834335479,9.713172767078504e-05,0.0923051163554191,0,0,0
7827,270732.89331469254,2010-10-18 20:25:07,2131.060066717049,2,24,0.5501165986061096,3.9257423877716064,23.39664727624692,23.074109182884705,93.32256985667247,84.26615834335479,6.47544875391759e-05,0.0923051163554191,0,0,0
7828,270762.9086729959,2010-10-18 20:25:37,2161.075424985348,2,24,0.5501165986061096,3.927037477493286,23.40123370053288,23.074109182884705,93.3405773517589,84.26615834335479,6.47544875391759e-05,0.0923051163554191,0,0,0
7829,270792.9245605033,2010-10-18 20:26:07,2191.091312633024,2,24,0.5499359965324402,3.928332567214966,23.405820145231107,23.074109182884705,93.35859116781042,84.26615834335479,6.47544875391759e-05,0.0923051163554191,0,0,0
7830,270822.9258603737,2010-10-18 20:26:37,2221.0926125385577,2,24,0.550297200679779,3.9296276569366455,23.41040441239784,23.074109182884705,93.37660263175744,84.26615834335479,3.237724376958795e-05,0.0923051163554191,0,0,0
7831,270852.9383210202,2010-10-18 20:27:07,2251.1050730397296,2,24,0.5499359965324402,3.930922746658325,23.41499029914014,23.074109182884705,93.3946267702362,84.26615834335479,0.0,0.0923051163554191,0,0,0
7832,270882.9534829542,2010-10-18 20:27:37,2281.120234973704,2,24,0.550297200679779,3.932541608810425,23.419576611105693,23.074109182884705,93.41265882575422,84.26615834335479,6.47544875391759e-05,0.0923051163554191,0,0,0
7833,270912.9686792188,2010-10-18 20:28:07,2311.1354312432527,2,24,0.5499359965324402,3.933836698532105,23.424162993707576,23.074109182884705,93.43069758513454,84.26615834335479,6.47544875391759e-05,0.0923051163554191,0,0,0
7834,270942.9837976493,2010-10-18 20:28:37,2341.150549643728,2,24,0.5501165986061096,3.935131788253784,23.42874935607891,23.074109182884705,93.44874271142992,84.26615834335479,0.0,0.0923051163554191,0,0,0
7835,270972.99895803945,2010-10-18 20:29:07,2371.165710038866,2,24,0.550297200679779,3.936588764190674,23.43333571754782,23.074109182884705,93.46679421929832,84.26615834335479,6.47544875391759e-05,0.0923051163554191,0,0,0
7836,271003.01414396823,2010-10-18 20:29:37,2401.180895987692,2,24,0.5501165986061096,3.938207626342773,23.437922081810264,23.074109182884705,93.4848523132728,84.26615834335479,6.47544875391759e-05,0.0923051163554191,0,0,0
7837,271033.0293023584,2010-10-18 20:30:07,2431.196054357784,2,24,0.5501165986061096,3.939502716064453,23.44250848927781,23.074109182884705,93.50291725242116,84.26615834335479,0.0,0.0923051163554191,0,0,0
7838,271063.0445719908,2010-10-18 20:30:37,2461.211324015238,2,24,0.5501165986061096,3.940959692001343,23.44709477695117,23.074109182884705,93.52098838503711,84.26615834335479,3.237724376958795e-05,0.0923051163554191,0,0,0
7839,271093.0596117853,2010-10-18 20:31:07,2491.226363779728,2,24,0.5499359965324402,3.942416667938232,23.451681098257385,23.074109182884705,93.53906632678232,84.26615834335479,6.47544875391759e-05,0.0923051163554191,0,0,0
7840,271123.0747851077,2010-10-18 20:31:37,2521.241537107098,2,24,0.5499359965324402,3.944035530090332,23.456267331416875,23.074109182884705,93.55715074927171,84.26615834335479,9.713172767078504e-05,0.0923051163554191,0,0,0
7841,271153.08991271607,2010-10-18 20:32:07,2551.256664705497,2,24,0.5499359965324402,3.945330619812012,23.460853596819867,23.074109182884705,93.57524214440387,84.26615834335479,0.0,0.0923051163554191,0,0,0
7842,271183.1052420172,2010-10-18 20:32:37,2581.2719941319133,2,24,0.5499359965324402,3.946787595748901,23.46543915952731,23.074109182884705,93.59333751371956,84.26615834335479,3.237724376958795e-05,0.0923051163554191,0,0,0
7843,271213.1203819714,2010-10-18 20:33:07,2611.2871339708195,2,24,0.5499359965324402,3.948406457901001,23.470024715248982,23.074109182884705,93.61143979740902,84.26615834335479,3.237724376958795e-05,0.0923051163554191,0,0,0
7844,271243.1354512444,2010-10-18 20:33:37,2641.3022032288163,2,24,0.550297200679779,3.950187206268311,23.474611020667293,23.074109182884705,93.62955221004673,84.26615834335479,3.237724376958795e-05,0.0923051163554191,0,0,0
7845,271273.15062620584,2010-10-18 20:34:07,2671.317378200284,2,24,0.5501165986061096,3.9516441822052,23.47919734286484,23.074109182884705,93.64767181154484,84.26615834335479,6.47544875391759e-05,0.0923051163554191,0,0,0
7846,271303.1657835083,2010-10-18 20:34:37,2701.3325354977023,2,24,0.5499359965324402,3.95293927192688,23.483783684697936,23.074109182884705,93.66579858711546,84.26615834335479,3.237724376958795e-05,0.0923051163554191,0,0,0
7847,271333.1812745425,2010-10-18 20:35:07,2731.3480266020697,2,24,0.5499359965324402,3.95455813407898,23.48837008579283,23.074109182884705,93.68393283111266,84.26615834335479,0.0,0.0923051163554191,0,0,0
7848,271363.1961099326,2010-10-18 20:35:37,2761.3628619520964,2,24,0.5501165986061096,3.956338882446289,23.492956431146457,23.074109182884705,93.70207407755116,84.26615834335479,6.47544875391759e-05,0.0923051163554191,0,0,0
7849,271393.21128466347,2010-10-18 20:36:07,2791.378036662914,2,24,0.5501165986061096,3.9579577445983887,23.49754279348049,23.074109182884705,93.72022257641603,84.26615834335479,6.47544875391759e-05,0.0923051163554191,0,0,0
7850,271423.22653325845,2010-10-18 20:36:37,2821.393285318024,2,24,0.5501165986061096,3.9594147205352783,23.502129134787115,23.074109182884705,93.73837832470612,84.26615834335479,3.237724376958795e-05,0.0923051163554191,0,0,0
7851,271453.24166623526,2010-10-18 20:37:07,2851.40841825974,2,24,0.5499359965324402,3.960871696472168,23.506715423821607,23.074109182884705,93.75654124152302,84.26615834335479,3.237724376958795e-05,0.0923051163554191,0,0,0
7852,271483.25677901175,2010-10-18 20:37:37,2881.4235310111358,2,24,0.5499359965324402,3.962814331054688,23.511301599418,23.074109182884705,93.77471114921975,84.26615834335479,6.47544875391759e-05,0.0923051163554191,0,0,0
7853,271513.27198644914,2010-10-18 20:38:07,2911.43873857383,2,24,0.5499359965324402,3.964271306991577,23.515887798381492,23.074109182884705,93.79288868356764,84.26615834335479,0.0,0.0923051163554191,0,0,0
7854,271543.287123882,2010-10-18 20:38:37,2941.453875931553,2,24,0.5501165986061096,3.9658901691436768,23.520474128290505,23.074109182884705,93.81107426339234,84.26615834335479,3.237724376958795e-05,0.0923051163554191,0,0,0
7855,271573.3023031893,2010-10-18 20:39:07,2971.469055218776,2,24,0.5501165986061096,3.9676709175109854,23.525060514438305,23.074109182884705,93.8292676760868,84.26615834335479,3.237724376958795e-05,0.0923051163554191,0,0,0
7856,271603.3174571735,2010-10-18 20:39:37,3001.484209202936,2,24,0.5501165986061096,3.969451665878296,23.529646899162938,23.074109182884705,93.8474687347849,84.26615834335479,6.47544875391759e-05,0.0923051163554191,0,0,0
7857,271633.3326494079,2010-10-18 20:40:07,3031.4994014624917,2,24,0.550297200679779,3.9709086418151855,23.534233287473427,23.074109182884705,93.86567755147404,84.26615834335479,3.237724376958795e-05,0.0923051163554191,0,0,0
7858,271663.34778593865,2010-10-18 20:40:37,3061.5145379931523,2,24,0.5501165986061096,3.972689390182495,23.53881965638053,23.074109182884705,93.8838941281267,84.26615834335479,3.237724376958795e-05,0.0923051163554191,0,0,0
7859,271693.3629522585,2010-10-18 20:41:07,3091.5297042879947,2,24,0.5499359965324402,3.9744701385498047,23.54340599163546,23.074109182884705,93.90211839263873,84.26615834335479,3.237724376958795e-05,0.0923051163554191,0,0,0
7860,271723.37812195683,2010-10-18 20:41:37,3121.544873981308,2,24,0.5501165986061096,3.976250886917114,23.54799235025041,23.074109182884705,93.92035069719404,84.26615834335479,6.47544875391759e-05,0.0923051163554191,0,0,0
7861,271753.39349854575,2010-10-18 20:42:07,3151.5602505702677,2,24,0.5501165986061096,3.977869749069214,23.552578785103645,23.074109182884705,93.93859126955869,84.26615834335479,3.237724376958795e-05,0.0923051163554191,0,0,0
7862,271783.4085788864,2010-10-18 20:42:37,3181.5753308808107,2,24,0.5501165986061096,3.979812383651733,23.557165085842698,23.074109182884705,93.95683912070126,84.26615834335479,6.47544875391759e-05,0.0923051163554191,0,0,0
7863,271813.42362075613,2010-10-18 20:43:07,3211.590372785635,2,24,0.5501165986061096,3.981431245803833,23.561751353316456,23.074109182884705,93.97509546129042,84.26615834335479,0.0,0.0923051163554191,0,0,0
7864,271843.43881045934,2010-10-18 20:43:37,3241.6055624587434,2,24,0.5499359965324402,3.983373880386353,23.56633770966155,23.074109182884705,93.99336036026948,84.26615834335479,6.47544875391759e-05,0.0923051163554191,0,0,0
7865,271873.45396346605,2010-10-18 20:44:07,3271.620715465468,2,24,0.5499359965324402,3.985154628753662,23.570923967347767,23.074109182884705,94.01163321276346,84.26615834335479,3.237724376958795e-05,0.0923051163554191,0,0,0
7866,271903.469120588,2010-10-18 20:44:37,3301.635872607499,2,24,0.550297200679779,3.9870972633361816,23.57551021442549,23.074109182884705,94.02991447056544,84.26615834335479,6.47544875391759e-05,0.0923051163554191,0,0,0
7867,271933.4843200355,2010-10-18 20:45:07,3331.651072064993,2,24,0.5501165986061096,3.988878011703491,23.58009653036441,23.074109182884705,94.0482045059443,84.26615834335479,6.47544875391759e-05,0.0923051163554191,0,0,0
7868,271963.4994292731,2010-10-18 20:45:37,3361.666181272556,2,24,0.5499359965324402,3.9908206462860103,23.584682774464717,23.074109182884705,94.06650293052728,84.26615834335479,6.47544875391759e-05,0.0923051163554191,0,0,0
7869,271993.5147358727,2010-10-18 20:46:07,3391.681487982356,2,24,0.5501165986061096,3.9927632808685294,23.58926912785572,23.074109182884705,94.08481055889352,84.26615834335479,6.47544875391759e-05,0.0923051163554191,0,0,0
7870,272023.5298756063,2010-10-18 20:46:37,3421.6966276107373,2,24,0.5501165986061096,3.994705677032471,23.59385541427872,23.074109182884705,94.10312669408884,84.26615834335479,3.237724376958795e-05,0.0923051163554191,0,0,0
7871,272053.54499630746,2010-10-18 20:47:07,3451.711748337009,2,24,0.5501165986061096,3.9966483116149902,23.598441775069887,23.074109182884705,94.12145214533618,84.26615834335479,3.237724376958795e-05,0.0923051163554191,0,0,0
7872,272083.5602754486,2010-10-18 20:47:37,3481.727027488124,2,24,0.5501165986061096,3.9985909461975098,23.60302810251561,23.074109182884705,94.13978655980809,84.26615834335479,6.47544875391759e-05,0.0923051163554191,0,0,0
7873,272113.57532982953,2010-10-18 20:48:07,3511.742081828943,2,24,0.5501165986061096,4.000533580780029,23.607614444678937,23.074109182884705,94.15813019037924,84.26615834335479,0.0,0.0923051163554191,0,0,0
7874,272143.59061244427,2010-10-18 20:48:37,3541.757364448703,2,24,0.5501165986061096,4.002638339996338,23.612200765313755,23.074109182884705,94.17648305703212,84.26615834335479,6.47544875391759e-05,0.0923051163554191,0,0,0
7875,272173.60565912595,2010-10-18 20:49:08,3571.772411155496,2,24,0.5501165986061096,4.004904747009277,23.616787097347,23.074109182884705,94.19484543133906,84.26615834335479,9.71794142969884e-05,0.0923051163554191,0,0,0
7876,272203.62082911003,2010-10-18 20:49:38,3601.7875811044446,2,24,0.5501165986061096,4.006847381591797,23.621373364034163,23.074109182884705,94.2132171140366,84.26615834335479,9.71794142969884e-05,0.0923051163554191,0,0,0
7877,272233.63592556585,2010-10-18 20:50:08,3631.8026775652393,2,24,0.5501165986061096,4.008951663970947,23.625959719651256,23.074109182884705,94.23159887363153,84.26615834335479,6.47544875391759e-05,0.0923051163554191,0,0,0
7878,272263.6511502061,2010-10-18 20:50:38,3661.817902225546,2,24,0.5499359965324402,4.011056423187256,23.63054592739452,23.074109182884705,94.24998968219889,84.26615834335479,3.24249267578125e-05,0.0923051163554191,0,0,0
7879,272293.6663890216,2010-10-18 20:51:08,3691.833141021083,2,24,0.5501165986061096,4.013322830200195,23.635132119864668,23.074109182884705,94.26839024283004,84.26615834335479,6.47544875391759e-05,0.0923051163554191,0,0,0
7880,272323.6816130404,2010-10-18 20:51:38,3721.848365039792,2,24,0.5499359965324402,4.015427112579346,23.639718316068787,23.074109182884705,94.28680077761588,84.26615834335479,6.47544875391759e-05,0.0923051163554191,0,0,0
7881,272353.69678164093,2010-10-18 20:52:08,3751.863533670456,2,24,0.5501165986061096,4.017693519592285,23.64430452530161,23.074109182884705,94.30522142497468,84.26615834335479,6.47544875391759e-05,0.0923051163554191,0,0,0
7882,272383.7118358364,2010-10-18 20:52:38,3781.878587825812,2,24,0.5499359965324402,4.019959926605225,23.64889082323412,23.074109182884705,94.3236525260394,84.26615834335479,6.47544875391759e-05,0.0923051163554191,0,0,0
7883,272413.72698636696,2010-10-18 20:53:08,3811.893738366391,2,24,0.5499359965324402,4.022064685821533,23.65347713564104,23.074109182884705,94.34209399777777,84.26615834335479,6.47544875391759e-05,0.0923051163554191,0,0,0
7884,272443.742165198,2010-10-18 20:53:38,3841.908917187452,2,24,0.5501165986061096,4.024492740631104,23.6580633675766,23.074109182884705,94.36054547945284,84.26615834335479,6.47544875391759e-05,0.0923051163554191,0,0,0
7885,272473.75736412423,2010-10-18 20:54:08,3871.924116183796,2,24,0.5499359965324402,4.026597499847412,23.66264967368521,23.074109182884705,94.37900771224623,84.26615834335479,3.24249267578125e-05,0.0923051163554191,0,0,0
7886,272503.77251508087,2010-10-18 20:54:38,3901.9392670752486,2,24,0.5501165986061096,4.029025554656982,23.66723599121231,23.074109182884705,94.39748054107322,84.26615834335479,3.23295607813634e-05,0.0923051163554191,0,0,0
7887,272533.7876694459,2010-10-18 20:55:08,3931.9544214754474,2,24,0.5501165986061096,4.031291961669922,23.671822223870663,23.074109182884705,94.4159635252396,84.26615834335479,6.47544875391759e-05,0.0923051163554191,0,0,0
7888,272563.80321260006,2010-10-18 20:55:38,3961.9699646295385,2,24,0.5501165986061096,4.033558368682861,23.676408706997435,23.074109182884705,94.43445818658404,84.26615834335479,3.23295607813634e-05,0.0923051163554191,0,0,0
7889,272593.8179841611,2010-10-18 20:56:08,3991.9847362156447,2,24,0.550297200679779,4.035986423492432,23.68099578652676,23.074109182884705,94.45296603967029,84.26615834335479,6.47544875391759e-05,0.0923051163554191,0,0,0
7890,272623.8332204654,2010-10-18 20:56:38,4021.999972489898,2,24,0.5501165986061096,4.038252830505371,23.685582810403176,23.074109182884705,94.47148453221624,84.26615834335479,3.23295607813634e-05,0.0923051163554191,0,0,0
7891,272653.8484444891,2010-10-18 20:57:08,4052.015196488556,2,24,0.5499359965324402,4.0408430099487305,23.690170008745543,23.074109182884705,94.49001464869836,84.26615834335479,9.70840483205393e-05,0.0923051163554191,0,0,0
7892,272683.8635314362,2010-10-18 20:57:38,4082.030283430627,2,24,0.5501165986061096,4.04310941696167,23.69475714380686,23.074109182884705,94.5085555723438,84.26615834335479,6.47544875391759e-05,0.0923051163554191,0,0,0
7893,272713.87900505203,2010-10-18 20:58:08,4112.045757201796,2,24,0.550297200679779,4.045699596405029,23.69934432344308,23.074109182884705,94.5271078269987,84.26615834335479,0.0001295089750783,0.0923051163554191,0,0,0
7894,272743.8964722313,2010-10-18 20:58:38,4142.063224356088,2,24,0.5499359965324402,4.048128128051758,23.70393178624879,23.074109182884705,94.5456724999632,84.26615834335479,6.47544875391759e-05,0.0923051163554191,0,0,0
7895,272773.9090487166,2010-10-18 20:59:08,4172.075800756115,2,24,0.5501165986061096,4.050718307495117,23.70851783807463,23.074109182884705,94.5642428792312,84.26615834335479,9.71794142969884e-05,0.0923051163554191,0,0,0
7896,272803.92419604416,2010-10-18 20:59:38,4202.090948043586,2,24,0.5501165986061096,4.053146362304688,23.71310430951051,23.074109182884705,94.58282648912204,84.26615834335479,6.47544875391759e-05,0.0923051163554191,0,0,0
7897,272833.9393968851,2010-10-18 21:00:08,4232.1061488945525,2,24,0.5501165986061096,4.055412769317627,23.717690726261157,23.074109182884705,94.60142150916934,84.26615834335479,3.23295607813634e-05,0.0923051163554191,0,0,0
7898,272863.954524253,2010-10-18 21:00:38,4262.12127624734,2,24,0.5501165986061096,4.058326721191406,23.72227719115429,23.074109182884705,94.62002845931995,84.26615834335479,9.70840483205393e-05,0.0923051163554191,0,0,0
7899,272893.9698392033,2010-10-18 21:01:08,4292.136591207703,2,24,0.5501165986061096,4.060593128204346,23.726863739706666,23.074109182884705,94.63864765204458,84.26615834335479,0.0,0.0923051163554191,0,0,0
7900,272923.9848622511,2010-10-18 21:01:38,4322.151614250516,2,24,0.5501165986061096,4.063345432281494,23.73145015898677,23.074109182884705,94.65727787559268,84.26615834335479,6.47544875391759e-05,0.0923051163554191,0,0,0
7901,272954.0001731864,2010-10-18 21:02:08,4352.166925195873,2,24,0.5499359965324402,4.066097259521484,23.73603669034579,23.074109182884705,94.675920772166,84.26615834335479,6.47544875391759e-05,0.0923051163554191,0,0,0
7902,272984.01534162665,2010-10-18 21:02:38,4382.182093636062,2,24,0.5499359965324402,4.068687438964844,23.74062309683102,23.074109182884705,94.69457537771927,84.26615834335479,6.47544875391759e-05,0.0923051163554191,0,0,0
7903,273014.03037737106,2010-10-18 21:03:08,4412.1971293755205,2,24,0.5501165986061096,4.071277618408203,23.74520953492452,23.074109182884705,94.71324249773798,84.26615834335479,3.23295607813634e-05,0.0923051163554191,0,0,0
7904,273044.0455544127,2010-10-18 21:03:38,4442.212306412135,2,24,0.5499359965324402,4.074029922485352,23.749795913660627,23.074109182884705,94.73192184937788,84.26615834335479,6.47544875391759e-05,0.0923051163554191,0,0,0
7905,273074.06076622097,2010-10-18 21:04:08,4472.227518380811,2,24,0.550297200679779,4.077105522155762,23.754382304901743,23.074109182884705,94.75061387075526,84.26615834335479,0.0001295089750783,0.0923051163554191,0,0,0
7906,273104.0758777644,2010-10-18 21:04:38,4502.242629763796,2,24,0.5499359965324402,4.079695701599121,23.75896885018497,23.074109182884705,94.76931925414924,84.26615834335479,6.47544875391759e-05,0.0923051163554191,0,0,0
7907,273134.09103229485,2010-10-18 21:05:08,4532.25778431938,2,24,0.5501165986061096,4.0824480056762695,23.763555368159096,23.074109182884705,94.78803728518292,84.26615834335479,6.47544875391759e-05,0.0923051163554191,0,0,0
7908,273164.1062047,2010-10-18 21:05:38,4562.272956704402,2,24,0.5501165986061096,4.085361957550049,23.768141829780763,23.074109182884705,94.8067679865462,84.26615834335479,9.71794142969884e-05,0.0923051163554191,0,0,0
7909,273194.1213308999,2010-10-18 21:06:08,4592.288082924365,2,24,0.5501165986061096,4.088113784790039,23.77272837097348,23.074109182884705,94.82551209721206,84.26615834335479,3.23295607813634e-05,0.0923051163554191,0,0,0
7910,273224.13654273824,2010-10-18 21:06:38,4622.303294747679,2,24,0.5501165986061096,4.091189861297607,23.77731486139638,23.074109182884705,94.84426924022644,84.26615834335479,9.71794142969884e-05,0.0923051163554191,0,0,0
7911,273254.1520001286,2010-10-18 21:07:08,4652.318752133008,2,24,0.5501165986061096,4.093941688537598,23.781901469342586,23.074109182884705,94.86304018031144,84.26615834335479,6.47544875391759e-05,0.0923051163554191,0,0,0
7912,273284.1669089367,2010-10-18 21:07:38,4682.333660941114,2,24,0.5501165986061096,4.097017765045166,23.78648801265557,23.074109182884705,94.8818243587602,84.26615834335479,9.71794142969884e-05,0.0923051163554191,0,0,0
7913,273314.18212175753,2010-10-18 21:08:08,4712.348873817052,2,24,0.550297200679779,4.100093364715576,23.791074608843005,23.074109182884705,94.90062231077326,84.26615834335479,9.70840483205393e-05,0.0923051163554191,0,0,0
7914,273344.1972426441,2010-10-18 21:08:38,4742.363994648586,2,24,0.5499359965324402,4.102845668792725,23.79566122122267,23.074109182884705,94.9194339707284,84.26615834335479,9.71794142969884e-05,0.0923051163554191,0,0,0
7915,273374.21241655794,2010-10-18 21:09:08,4772.37916856743,2,24,0.550297200679779,4.105921268463135,23.80024778020389,23.074109182884705,94.93825924268086,84.26615834335479,9.70840483205393e-05,0.0923051163554191,0,0,0
7916,273404.2276285467,2010-10-18 21:09:38,4802.394380681467,2,24,0.550297200679779,4.108997344970703,23.80483428296876,23.074109182884705,94.9570981656978,84.26615834335479,6.47544875391759e-05,0.0923051163554191,0,0,0
7917,273434.2427846712,2010-10-18 21:10:08,4832.409536675637,2,24,0.5501165986061096,4.112072944641113,23.809420886277053,23.074109182884705,94.97595156048314,84.26615834335479,6.47544875391759e-05,0.0923051163554191,0,0,0
7918,273464.2579807603,2010-10-18 21:10:38,4862.424732769749,2,24,0.550297200679779,4.115148544311523,23.81400743936491,23.074109182884705,94.99481880562956,84.26615834335479,6.47544875391759e-05,0.0923051163554191,0,0,0
7919,273494.2731251806,2010-10-18 21:11:08,4892.439877185062,2,24,0.5501165986061096,4.118224620819092,23.81859396088318,23.074109182884705,95.0137001943519,84.26615834335479,9.71794142969884e-05,0.0923051163554191,0,0,0
7920,273524.2884295597,2010-10-18 21:11:38,4922.455181594127,2,24,0.5501165986061096,4.121462345123291,23.82318053443825,23.074109182884705,95.03259619418502,84.26615834335479,9.71794142969884e-05,0.0923051163554191,0,0,0
7921,273554.3034566174,2010-10-18 21:12:08,4952.470208621872,2,24,0.5501165986061096,4.124537944793701,23.82776706559082,23.074109182884705,95.05150646966004,84.26615834335479,6.47544875391759e-05,0.0923051163554191,0,0,0
7922,273584.3187438387,2010-10-18 21:12:38,4982.485495848114,2,24,0.5497553944587708,4.1276140213012695,23.832353698760265,23.074109182884705,95.070431765411,84.26615834335479,3.24249267578125e-05,0.0923051163554191,0,0,0
7923,273614.3339293765,2010-10-18 21:13:08,5012.500681385915,2,24,0.5501165986061096,4.1310133934021,23.836940247900408,23.074109182884705,95.08937133656435,84.26615834335479,9.70840483205393e-05,0.0923051163554191,0,0,0
7924,273644.3489853664,2010-10-18 21:13:38,5042.515737400907,2,24,0.5501165986061096,4.134251117706299,23.841526863744843,23.074109182884705,95.10832607954454,84.26615834335479,6.47544875391759e-05,0.0923051163554191,0,0,0
7925,273674.36436263204,2010-10-18 21:14:08,5072.531114751766,2,24,0.5501165986061096,4.137650966644287,23.84611352394293,23.074109182884705,95.1272959588278,84.26615834335479,0.0001295089750783,0.0923051163554191,0,0,0
7926,273704.379451935,2010-10-18 21:14:38,5102.546203944447,2,24,0.5501165986061096,4.140726566314697,23.850700175337128,23.074109182884705,95.14628095243052,84.26615834335479,6.47544875391759e-05,0.0923051163554191,0,0,0
7927,273734.39450798003,2010-10-18 21:15:08,5132.5612599845,2,24,0.5499359965324402,4.1441264152526855,23.85528679925456,23.074109182884705,95.16528096780186,84.26615834335479,0.0001295089750783,0.0923051163554191,0,0,0
7928,273764.4096664755,2010-10-18 21:15:38,5162.576418499954,2,24,0.5499359965324402,4.147525787353516,23.85987339687211,23.074109182884705,95.18429659418352,84.26615834335479,9.70840483205393e-05,0.0923051163554191,0,0,0
7929,273794.4249283435,2010-10-18 21:16:08,5192.591680498319,2,24,0.5501165986061096,4.151087284088135,23.864460000210595,23.074109182884705,95.2033276571322,84.26615834335479,0.0001295089750783,0.0923051163554191,0,0,0
7930,273824.44000612776,2010-10-18 21:16:38,5222.606758147229,2,24,0.5501165986061096,4.154163360595703,23.869046589421373,23.074109182884705,95.22237420582532,84.26615834335479,6.47544875391759e-05,0.0923051163554191,0,0,0
7931,273854.4553089479,2010-10-18 21:17:08,5252.622060977359,2,24,0.550297200679779,4.157886505126953,23.87363314670916,23.074109182884705,95.24143621568696,84.26615834335479,0.0001295089750783,0.0923051163554191,0,0,0
7932,273884.4703508677,2010-10-18 21:17:38,5282.637102867146,2,24,0.5501165986061096,4.161286354064941,23.878219715006423,23.074109182884705,95.2605140937455,84.26615834335479,9.71794142969884e-05,0.0923051163554191,0,0,0
7933,273914.4856608657,2010-10-18 21:18:08,5312.652412875166,2,24,0.550297200679779,4.1648478507995605,23.882806351774832,23.074109182884705,95.27960819468449,84.26615834335479,0.0001295089750783,0.0923051163554191,0,0,0
7934,273944.50085087965,2010-10-18 21:18:38,5342.667602914186,2,24,0.5501165986061096,4.168247222900391,23.887392880808857,23.074109182884705,95.29871791539408,84.26615834335479,9.70840483205393e-05,0.0923051163554191,0,0,0
7935,273974.5158882181,2010-10-18 21:19:08,5372.682640217542,2,24,0.550297200679779,4.17180871963501,23.8919794087166,23.074109182884705,95.31784385483915,84.26615834335479,9.70840483205393e-05,0.0923051163554191,0,0,0
7936,274004.5311755897,2010-10-18 21:19:38,5402.69792759917,2,24,0.5501165986061096,4.175370216369629,23.896566010417565,23.074109182884705,95.33698627276311,84.26615834335479,0.0001295089750783,0.0923051163554191,0,0,0
7937,274034.54625689774,2010-10-18 21:20:08,5432.7130089072,2,24,0.5501165986061096,4.178770065307617,23.90115255981006,23.074109182884705,95.35614480215663,84.26615834335479,3.24249267578125e-05,0.0923051163554191,0,0,0
7938,274064.5615342645,2010-10-18 21:20:38,5462.728286273867,2,24,0.550297200679779,4.182331562042236,23.905739177130915,23.074109182884705,95.37532008929452,84.26615834335479,6.47544875391759e-05,0.0923051163554191,0,0,0
7939,274094.57670743135,2010-10-18 21:21:09,5492.743459470912,2,24,0.5499359965324402,4.186054706573486,23.9103257897709,23.074109182884705,95.394511930846,84.26615834335479,9.70840483205393e-05,0.0923051163554191,0,0,0
7940,274124.5917450706,2010-10-18 21:21:39,5522.758497075018,2,24,0.550297200679779,4.189939975738525,23.91491234414864,23.074109182884705,95.41372024771836,84.26615834335479,9.70840483205393e-05,0.0923051163554191,0,0,0
7941,274154.606955696,2010-10-18 21:22:09,5552.773707720396,2,24,0.5501165986061096,4.1935014724731445,23.91949889426484,23.074109182884705,95.4329453330068,84.26615834335479,9.70840483205393e-05,0.0923051163554191,0,0,0
7942,274184.6220950636,2010-10-18 21:22:39,5582.788847063064,2,24,0.5499359965324402,4.1972246170043945,23.924085502268458,23.074109182884705,95.4521876329384,84.26615834335479,0.0001295089750783,0.0923051163554191,0,0,0
7943,274206.79365474737,2010-10-18 21:23:01,5604.960406746815,2,24,0.5501165986061096,4.200138568878174,23.927473474044465,23.074109182884705,95.4664121897335,84.26615834335479,0.0001295089750783,0.0923051163554191,0,0,0
7944,274236.8184724976,2010-10-18 21:23:31,30.015566452157685,3,24,0.0,4.115472316741943,23.927473474044465,23.074109182884705,95.4664121897335,84.26615834335479,-0.0003885269106831,0.0923051163554191,0,0,0
7945,274266.8332134122,2010-10-18 21:24:01,60.03030727158456,3,24,0.0,4.104788303375244,23.927473474044465,23.074109182884705,95.4664121897335,84.26615834335479,-0.0002590179501567,0.0923051163554191,0,0,0
7946,274296.84847729024,2010-10-18 21:24:31,90.04557114963447,3,24,0.0,4.098474502563477,23.927473474044465,23.074109182884705,95.4664121897335,84.26615834335479,-0.0001295089750783,0.0923051163554191,0,0,0
7947,274326.8168939156,2010-10-18 21:25:01,120.01398778494092,3,24,0.0,4.094265460968018,23.927473474044465,23.074109182884705,95.4664121897335,84.26615834335479,-6.47544875391759e-05,0.0923051163554191,0,0,0
7948,274326.8277211955,2010-10-18 21:25:01,2.9423332e-06,4,24,1.000014305114746,4.199814796447754,23.92747347486179,23.074109182884705,95.46641219316612,84.26615834335479,0.0,0.0923051163554191,0,0,0
7949,274327.7184344219,2010-10-18 21:25:02,0.890716153721583,4,24,0.948901891708374,4.199653148651123,23.927713000146657,23.074109182884705,95.4674181355626,84.26615834335479,-3.23295607813634e-05,0.0923051163554191,0,0,0
7950,274329.7963908437,2010-10-18 21:25:04,2.968672560458373,4,24,0.8986925482749939,4.199814796447754,23.9282452110218,23.074109182884705,95.46965327135588,84.26615834335479,0.0,0.0923051163554191,0,0,0
7951,274332.9370945137,2010-10-18 21:25:07,6.109376230374163,4,24,0.8486637473106384,4.199653148651123,23.92900639972907,23.074109182884705,95.47285005269816,84.26615834335479,0.0,0.0923051163554191,0,0,0
7952,274337.218305604,2010-10-18 21:25:11,10.390587325719483,4,24,0.7986350059509277,4.199814796447754,23.92998477908725,23.074109182884705,95.47695898011736,84.26615834335479,0.0,0.0923051163554191,0,0,0
7953,274342.8274542834,2010-10-18 21:25:17,15.999736005120454,4,24,0.7486062049865723,4.199653148651123,23.93118875851889,23.074109182884705,95.4820153689774,84.26615834335479,-3.23295607813634e-05,0.0923051163554191,0,0,0
7954,274350.0933151744,2010-10-18 21:25:24,23.265597006385143,4,24,0.6985774636268616,4.199653148651123,23.93264700473973,23.074109182884705,95.48813963049368,84.26615834335479,0.0,0.0923051163554191,0,0,0
7955,274359.6241120878,2010-10-18 21:25:34,32.79639382962152,4,24,0.6485486626625061,4.199653148651123,23.934427051600284,23.074109182884705,95.4956153841217,84.26615834335479,-3.23295607813634e-05,0.0923051163554191,0,0,0
7956,274372.78013729566,2010-10-18 21:25:47,45.952419002359726,4,24,0.5985199213027954,4.199814796447754,23.9367008556016,23.074109182884705,95.50516479892852,84.26615834335479,0.0,0.0923051163554191,0,0,0
7957,274392.6548711528,2010-10-18 21:26:07,65.82715286444677,4,24,0.5481299161911011,4.199491024017334,23.939857583471145,23.074109182884705,95.51842226502336,84.26615834335479,-6.47544875391759e-05,0.0923051163554191,0,0,0
7958,274426.34195917135,2010-10-18 21:26:41,99.5142410133718,4,24,0.498101145029068,4.199653148651123,23.944732969031783,23.074109182884705,95.53889767961624,84.26615834335479,-3.23295607813634e-05,0.0923051163554191,0,0,0
7959,274487.15341905056,2010-10-18 21:27:41,160.32570075727196,4,24,0.4480723738670349,4.199814796447754,23.95268632064527,23.074109182884705,95.5722997867954,84.26615834335479,3.23295607813634e-05,0.0923051163554191,0,0,0
7960,274582.21451191354,2010-10-18 21:29:16,255.38679362526605,4,24,0.3980436027050018,4.199653148651123,23.96382634252433,23.074109182884705,95.6190851548827,84.26615834335479,0.0,0.0923051163554191,0,0,0
7961,274702.6657871634,2010-10-18 21:31:17,375.83806893025695,4,24,0.3480148315429687,4.199653148651123,23.97629418285283,23.074109182884705,95.67144699739715,84.26615834335479,0.0,0.0923051163554191,0,0,0
7962,274848.4917298872,2010-10-18 21:33:43,521.6640115888831,4,24,0.2979860603809356,4.199653148651123,23.989366487995703,23.074109182884705,95.72634740238594,84.26615834335479,0.0,0.0923051163554191,0,0,0
7963,275022.19226757844,2010-10-18 21:36:36,695.3645492951664,4,24,0.2479572892189026,4.199814796447754,24.00251565611381,23.074109182884705,95.78157055809724,84.26615834335479,0.0,0.0923051163554191,0,0,0
7964,275236.6890429517,2010-10-18 21:40:11,909.8613246934668,4,24,0.1979285180568695,4.199653148651123,24.01575997999216,23.074109182884705,95.83719339498872,84.26615834335479,-6.47544875391759e-05,0.0923051163554191,0,0,0
7965,275514.9975049824,2010-10-18 21:44:49,1188.1697867342452,4,24,0.1478997617959976,4.199653148651123,24.02905910233676,23.074109182884705,95.89304635108512,84.26615834335479,-3.23295607813634e-05,0.0923051163554191,0,0,0
7966,275924.72564764915,2010-10-18 21:51:39,1597.8979293708935,4,24,0.0978709831833839,4.199491024017334,24.042880513466315,23.074109182884705,95.95109274698424,84.26615834335479,-6.47544875391759e-05,0.0923051163554191,0,0,0
7967,276654.3866917672,2010-10-18 22:03:49,2327.558973498951,4,24,0.0498289167881011,4.199653148651123,24.057312998931064,23.074109182884705,96.01170550971152,84.26615834335479,0.0,0.0923051163554191,0,0,0
7968,276684.400946097,2010-10-18 22:04:19,30.01530983759524,5,24,0.0,4.192044734954834,24.057312998931064,23.074109182884705,96.01170550971152,84.26615834335479,-3.23295607813634e-05,0.0923051163554191,0,0,0
7969,276714.4003482677,2010-10-18 22:04:49,60.01471200337765,5,24,0.0,4.190749645233154,24.057312998931064,23.074109182884705,96.01170550971152,84.26615834335479,-3.23295607813634e-05,0.0923051163554191,0,0,0
7970,276714.5880864591,2010-10-18 22:04:49,0.187896124957587,6,24,-1.9243103452026844e-05,4.190749645233154,24.057312998931064,23.074109183889068,96.01170550971152,84.26615834756383,0.0,0.0940094217658042,0,0,0
7971,276719.4157321276,2010-10-18 22:04:54,5.015541788380271,6,24,0.0007031940040178,4.190587520599365,24.05731388382219,23.07410918397068,96.01170921809776,84.26615834790583,-6.47544875391759e-05,0.0940094217658042,0,0,0
7972,276749.430817074,2010-10-18 22:05:24,30.01516838505197,7,24,-1.099929690361023,4.015750885009766,24.05731388382219,23.08327745313609,96.01170921809776,84.30317312900895,-0.0009065627818927,0.0940094217658042,0,0,0
7973,276779.4460097095,2010-10-18 22:05:54,60.03036102054351,7,24,-1.0997490882873535,3.988878011703491,24.05731388382219,23.09244568758408,96.01170921809776,84.33985878757677,-0.0005827903514727,0.0940094217658042,0,0,0
7974,276809.46119810943,2010-10-18 22:06:24,90.04554943551621,7,24,-1.099568486213684,3.970422983169556,24.05731388382219,23.10161386279781,96.01170921809776,84.3763407208731,-0.0004209041653666,0.0940094217658042,0,0,0
7975,276839.47636124643,2010-10-18 22:06:54,120.0607125424134,7,24,-1.099568486213684,3.956176996231079,24.05731388382219,23.11078194309147,96.01170921809776,84.412673530966,-0.0003237724304199,0.0940094217658042,0,0,0
7976,276869.4915487792,2010-10-18 22:07:24,150.07590010024987,7,24,-1.0993878841400146,3.944035530090332,24.05731388382219,23.119950080215315,96.01170921809776,84.44888643051584,-0.0003237724304199,0.0940094217658042,0,0,0
7977,276899.5070638984,2010-10-18 22:07:54,180.09141522448255,7,24,-1.099568486213684,3.9333510398864746,24.05731388382219,23.129118305591085,96.01170921809776,84.48499595195021,-0.0002266406954731,0.0940094217658042,0,0,0
7978,276929.521895489,2010-10-18 22:08:24,210.10624679508933,7,24,-1.099568486213684,3.923475980758667,24.05731388382219,23.138286397110395,96.01170921809776,84.52101134219711,-0.0002590179501567,0.0940094217658042,0,0,0
7979,276959.5370877336,2010-10-18 22:08:54,240.121439014544,7,24,-1.0997490882873535,3.914248466491699,24.05731388382219,23.147454584618888,96.01170921809776,84.5569402377211,-0.0002590179501567,0.0940094217658042,0,0,0
7980,276989.5522529056,2010-10-18 22:09:24,270.1366041916005,7,24,-1.099568486213684,3.905506849288941,24.05731388382219,23.156622785532512,96.01170921809776,84.5927865298074,-0.0001942634553415,0.0940094217658042,0,0,0
7981,277019.5674315112,2010-10-18 22:09:54,300.1517828322126,7,24,-1.099568486213684,3.8967649936676025,24.05731388382219,23.165791024901807,96.01170921809776,84.62855264336378,-0.0002590179501567,0.0940094217658042,0,0,0
7982,277049.5826120465,2010-10-18 22:10:24,330.1669633725593,7,24,-1.099568486213684,3.888670682907105,24.05731388382219,23.17495922173824,96.01170921809776,84.66424127799317,-0.0001942634553415,0.0940094217658042,0,0,0
7983,277079.59780137375,2010-10-18 22:10:54,360.1821526797557,7,24,-1.099568486213684,3.8802525997161865,24.05731388382219,23.184127456107166,96.01170921809776,84.69985457101994,-0.0002266406954731,0.0940094217658042,0,0,0
7984,277109.6131114619,2010-10-18 22:11:24,390.1974627579506,7,24,-1.099568486213684,3.8723201751708975,24.05731388382219,23.193295727259148,96.01170921809776,84.73539352210913,-0.0001942634553415,0.0940094217658042,0,0,0
7985,277139.62814777787,2010-10-18 22:11:54,420.212499098908,7,24,-1.099568486213684,3.8642258644104,24.05731388382219,23.20246391627925,96.01170921809776,84.7708587825012,-0.0002266406954731,0.0940094217658042,0,0,0
7986,277169.6433380073,2010-10-18 22:12:24,450.227689328403,7,24,-1.099568486213684,3.856617212295532,24.05731388382219,23.21163216489809,96.01170921809776,84.80625227024107,-0.0001942634553415,0.0940094217658042,0,0,0
7987,277199.6585550737,2010-10-18 22:12:54,480.2429063697214,7,24,-1.099568486213684,3.848846673965454,24.05731388382219,23.220800375921808,96.01170921809776,84.84157477879546,-0.0001942634553415,0.0940094217658042,0,0,0
7988,277229.67368295783,2010-10-18 22:13:24,510.2580342387952,7,24,-1.099568486213684,3.841399908065796,24.05731388382219,23.22996864185448,96.01170921809776,84.87682775735587,-0.0001618862152099,0.0940094217658042,0,0,0
7989,277259.68887448055,2010-10-18 22:13:54,540.2732257715384,7,24,-1.0997490882873535,3.8339531421661377,24.05731388382219,23.239136877256826,96.01170921809776,84.91201175293439,-0.0001942634553415,0.0940094217658042,0,0,0
7990,277289.7040477427,2010-10-18 22:14:24,570.2883990287331,7,24,-1.0997490882873535,3.8265066146850586,24.05731388382219,23.248305125222235,96.01170921809776,84.94712860213437,-0.0002590179501567,0.0940094217658042,0,0,0
7991,277319.7195955635,2010-10-18 22:14:54,600.3039469446928,7,24,-1.099568486213684,3.81938362121582,24.05731388382219,23.2574734730484,96.01170921809776,84.98217910299775,-0.0001942634553415,0.0940094217658042,0,0,0
7992,277349.73454902787,2010-10-18 22:15:24,630.3189003339091,7,24,-1.0997490882873535,3.812422513961792,24.05731388382219,23.26664168883379,96.01170921809776,85.01716385056683,-0.0001618862152099,0.0940094217658042,0,0,0
7993,277379.7495927422,2010-10-18 22:15:54,660.3339440382183,7,24,-1.099568486213684,3.805461406707764,24.05731388382219,23.27580990513163,96.01170921809776,85.05208447326788,-0.0001942634553415,0.0940094217658042,0,0,0
7994,277409.7647775983,2010-10-18 22:16:24,690.3491288742713,7,24,-1.0997490882873535,3.798662185668945,24.05731388382219,23.28497814281442,96.01170921809776,85.08694265056218,-0.0001942634553415,0.0940094217658042,0,0,0
7995,277439.77996320627,2010-10-18 22:16:54,720.364314492273,7,24,-1.0997490882873535,3.792024850845337,24.05731388382219,23.294146345409143,96.01170921809776,85.12173923348497,-0.0001942634553415,0.0940094217658042,0,0,0
7996,277469.7951473757,2010-10-18 22:17:24,750.3794986867268,7,24,-1.099568486213684,3.7855494022369385,24.05731388382219,23.30331450472664,96.01170921809776,85.15647509030372,-0.0001295089750783,0.0940094217658042,0,0,0
7997,277499.8103402517,2010-10-18 22:17:54,780.3946915728432,7,24,-1.0997490882873535,3.77907395362854,24.05731388382219,23.312482767147912,96.01170921809776,85.191151945587,-0.0001618862152099,0.0940094217658042,0,0,0
7998,277529.825525148,2010-10-18 22:18:24,810.4098764890958,7,24,-1.099568486213684,3.7729222774505615,24.05731388382219,23.3216510001615,96.01170921809776,85.22577104291514,-0.0001618862152099,0.0940094217658042,0,0,0
7999,277559.8407273222,2010-10-18 22:18:54,840.425078623261,7,24,-1.099568486213684,3.766770601272583,24.05731388382219,23.3308192540239,96.01170921809776,85.26033352878662,-0.0001618862152099,0.0940094217658042,0,0,0
8000,277589.8560931845,2010-10-18 22:19:24,870.4404444804744,7,24,-1.099568486213684,3.7607808113098153,24.05731388382219,23.33998754495604,96.01170921809776,85.29484065966959,-0.0001618862152099,0.0940094217658042,0,0,0
8001,277619.8710376063,2010-10-18 22:19:54,900.4553889023413,7,24,-1.0997490882873535,3.754791021347046,24.05731388382219,23.34915572921935,96.01170921809776,85.32929264749674,-0.0001942634553415,0.0940094217658042,0,0,0
8002,277649.88622184086,2010-10-18 22:20:24,930.470573136895,7,24,-1.0997490882873535,3.749125242233277,24.05731388382219,23.35832393854859,96.01170921809776,85.36369148249373,-0.0001618862152099,0.0940094217658042,0,0,0
8003,277679.90140510804,2010-10-18 22:20:54,960.4857564040376,7,24,-1.099568486213684,3.743459224700928,24.05731388382219,23.36749221825941,96.01170921809776,85.39803811428125,-0.0001618862152099,0.0940094217658042,0,0,0
8004,277709.9165742399,2010-10-18 22:21:24,990.500925525926,7,24,-1.0997490882873535,3.737793207168579,24.05731388382219,23.37666053413428,96.01170921809776,85.43233294990395,-0.0001295089750783,0.0940094217658042,0,0,0
8005,277739.9317801435,2010-10-18 22:21:55,1020.5161314545484,7,24,-1.099568486213684,3.73228907585144,24.05731388382219,23.385828780111588,96.01170921809776,85.46657672458207,-0.0001618862152099,0.0940094217658042,0,0,0
8006,277769.94694006245,2010-10-18 22:22:25,1050.5312913484374,7,24,-1.099568486213684,3.7271087169647217,24.05731388382219,23.39499704434431,96.01170921809776,85.5007708599002,-9.713172767078504e-05,0.0940094217658042,0,0,0
8007,277799.9622585466,2010-10-18 22:22:55,1080.5466098626578,7,24,-1.099568486213684,3.721766471862793,24.05731388382219,23.40416535672792,96.01170921809776,85.53491693490317,-0.0001618862152099,0.0940094217658042,0,0,0
8008,277829.977456761,2010-10-18 22:23:25,1110.5618080570036,7,24,-1.099568486213684,3.716586112976074,24.05731388382219,23.413333610011016,96.01170921809776,85.56901499881181,-0.0001295089750783,0.0940094217658042,0,0,0
8009,277859.99248435016,2010-10-18 22:23:55,1140.5768356461488,7,24,-1.099568486213684,3.711567640304565,24.05731388382219,23.42250184711477,96.01170921809776,85.60306539859654,-6.47544875391759e-05,0.0940094217658042,0,0,0
8010,277890.00779953104,2010-10-18 22:24:25,1170.5921508471113,7,24,-1.099568486213684,3.706387281417847,24.05731388382219,23.431670165598337,96.01170921809776,85.6370690159124,-0.0001295089750783,0.0940094217658042,0,0,0
8011,277920.0228612152,2010-10-18 22:24:55,1200.6072125111816,7,24,-1.099568486213684,3.701368808746338,24.05731388382219,23.440838450412063,96.01170921809776,85.6710262939143,-0.0001295089750783,0.0940094217658042,0,0,0
8012,277950.03806895326,2010-10-18 22:25:25,1230.622420294426,7,24,-1.099568486213684,3.696512222290039,24.05731388382219,23.45000677848031,96.01170921809776,85.70493842182604,-9.713172767078504e-05,0.0940094217658042,0,0,0
8013,277980.05321570946,2010-10-18 22:25:55,1260.6375669954348,7,24,-1.099568486213684,3.69165563583374,24.05731388382219,23.459175069356142,96.01170921809776,85.73880583883454,-0.0001295089750783,0.0940094217658042,0,0,0
8014,278010.0684002548,2010-10-18 22:26:25,1290.6527515407631,7,24,-1.099568486213684,3.6867990493774414,24.05731388382219,23.468343402703287,96.01170921809776,85.77262952894525,-0.0001295089750783,0.0940094217658042,0,0,0
8015,278040.0836110756,2010-10-18 22:26:55,1320.6679623716032,7,24,-1.099568486213684,3.682104349136353,24.05731388382219,23.47751168612197,96.01170921809776,85.80640981861798,-0.0001618862152099,0.0940094217658042,0,0,0
8016,278070.09872142604,2010-10-18 22:27:25,1350.6830727270274,7,24,-1.099568486213684,3.6775715351104736,24.05731388382219,23.486680712015424,96.01170921809776,85.84014962045573,-0.0001295089750783,0.0940094217658042,0,0,0
8017,278100.1138113906,2010-10-18 22:27:55,1380.698162696644,7,24,-1.0997490882873535,3.6728768348693848,24.05731388382219,23.49584967548317,96.01170921809776,85.87384691151381,-9.713172767078504e-05,0.0940094217658042,0,0,0
8018,278130.1290977146,2010-10-18 22:28:25,1410.7134490256487,7,24,-1.099568486213684,3.668506145477295,24.05731388382219,23.50501862227718,96.01170921809776,85.90750247993014,-9.713172767078504e-05,0.0940094217658042,0,0,0
8019,278160.14430661063,2010-10-18 22:28:55,1440.7286579216664,7,24,-1.0997490882873535,3.663973331451416,24.05731388382219,23.514187679786488,96.01170921809776,85.94111755433765,-9.713172767078504e-05,0.0940094217658042,0,0,0
8020,278190.1594640935,2010-10-18 22:29:25,1470.7438154296092,7,24,-1.099568486213684,3.659602403640747,24.05731388382219,23.523356679750165,96.01170921809776,85.97469205487589,-9.713172767078504e-05,0.0940094217658042,0,0,0
8021,278220.17464655865,2010-10-18 22:29:55,1500.758997864678,7,24,-1.099568486213684,3.655231475830078,24.05731388382219,23.532525725377685,96.01170921809776,86.0082270128531,-0.0001295089750783,0.0940094217658042,0,0,0
8022,278250.18983932945,2010-10-18 22:30:25,1530.774190615457,7,24,-1.0997490882873535,3.651022434234619,24.05731388382219,23.541694087301003,96.01170921809776,86.04172085934614,-9.713172767078504e-05,0.0940094217658042,0,0,0
8023,278280.205226991,2010-10-18 22:30:55,1560.7895783070885,7,24,-1.0993878841400146,3.64665150642395,24.05731388382219,23.55086236002285,96.01170921809776,86.07517561408993,-0.0001618862152099,0.0940094217658042,0,0,0
8024,278310.222860124,2010-10-18 22:31:25,1590.807211535288,7,24,-1.0993878841400146,3.642766237258911,24.05731388382219,23.560031246385176,96.01170921809776,86.10859401382363,-0.0001295089750783,0.0940094217658042,0,0,0
8025,278340.2355361423,2010-10-18 22:31:55,1620.8198874583577,7,24,-1.099568486213684,3.638719081878662,24.05731388382219,23.56919868408078,96.01170921809776,86.14197008124094,-6.47544875391759e-05,0.0940094217658042,0,0,0
8026,278370.25058826257,2010-10-18 22:32:25,1650.8349395686173,7,24,-1.099568486213684,3.634995698928833,24.05731388382219,23.57836683032091,96.01170921809776,86.17531221017234,-6.47544875391759e-05,0.0940094217658042,0,0,0
8027,278400.26575939445,2010-10-18 22:32:55,1680.8501107005152,7,24,-1.099568486213684,3.630948543548584,24.05731388382219,23.587534968909942,96.01170921809776,86.2086188303539,-9.713172767078504e-05,0.0940094217658042,0,0,0
8028,278430.2809219901,2010-10-18 22:33:25,1710.8652732710757,7,24,-1.099568486213684,3.627225160598755,24.05731388382219,23.59670325216475,96.01170921809776,86.2418911769516,-9.713172767078504e-05,0.0940094217658042,0,0,0
8029,278460.29622105585,2010-10-18 22:33:55,1740.8805723418366,7,24,-1.099568486213684,3.623501777648926,24.05731388382219,23.6058709604596,96.01170921809776,86.27512742715776,-9.713172767078504e-05,0.0940094217658042,0,0,0
8030,278490.3112764794,2010-10-18 22:34:25,1770.8956277553289,7,24,-1.099568486213684,3.619940280914306,24.05731388382219,23.615038503389336,96.01170921809776,86.30832979839111,-6.47544875391759e-05,0.0940094217658042,0,0,0
8031,278520.3266089634,2010-10-18 22:34:55,1800.9109603045283,7,24,-1.099568486213684,3.6165406703948975,24.05731388382219,23.62420618382629,96.01170921809776,86.34150019037153,-9.713172767078504e-05,0.0940094217658042,0,0,0
8032,278550.3417953884,2010-10-18 22:35:25,1830.926146674404,7,24,-1.0992072820663452,3.613141059875488,24.05731388382219,23.633373755843763,96.01170921809776,86.3746384001368,-6.47544875391759e-05,0.0940094217658042,0,0,0
8033,278580.3568537893,2010-10-18 22:35:55,1860.9412050953915,7,24,-1.0993878841400146,3.609741449356079,24.05731388382219,23.642541783330664,96.01170921809776,86.40774707792187,-6.47544875391759e-05,0.0940094217658042,0,0,0
8034,278610.3720193474,2010-10-18 22:36:25,1890.9563706533977,7,24,-1.099568486213684,3.60650372505188,24.05731388382219,23.651709994085923,96.01170921809776,86.44082621238954,-9.713172767078504e-05,0.0940094217658042,0,0,0
8035,278640.38721101044,2010-10-18 22:36:55,1920.9715622863907,7,24,-1.0997490882873535,3.603104114532471,24.05731388382219,23.66087823660053,96.01170921809776,86.47387560234976,-0.0001295089750783,0.0940094217658042,0,0,0
8036,278670.4023871097,2010-10-18 22:37:25,1950.9867384408064,7,24,-1.0997490882873535,3.600028276443481,24.05731388382219,23.67004636583193,96.01170921809776,86.50689564078831,-6.47544875391759e-05,0.0940094217658042,0,0,0
8037,278700.4175641012,2010-10-18 22:37:55,1981.0019154072456,7,24,-1.099568486213684,3.596952438354492,24.05731388382219,23.679214625408544,96.01170921809776,86.53988757601967,-0.0001295089750783,0.0940094217658042,0,0,0
8038,278730.43274957384,2010-10-18 22:38:25,2011.0171008899104,7,24,-1.099568486213684,3.594038486480713,24.05731388382219,23.688382878471533,96.01170921809776,86.57285165919967,-6.47544875391759e-05,0.0940094217658042,0,0,0
8039,278760.4479427206,2010-10-18 22:38:55,2041.032294031664,7,24,-1.099929690361023,3.5909628868103027,24.05731388382219,23.69755115711902,96.01170921809776,86.60578851350185,-6.47544875391759e-05,0.0940094217658042,0,0,0
8040,278790.4631333712,2010-10-18 22:39:25,2071.047484652133,7,24,-1.0997490882873535,3.5877251625061035,24.05731388382219,23.706719461841143,96.01170921809776,86.63869819821204,-0.0001295089750783,0.0940094217658042,0,0,0
8041,278820.4785903404,2010-10-18 22:39:55,2101.0629416615257,7,24,-1.099568486213684,3.585134983062744,24.05731388382219,23.715887888052603,96.01170921809776,86.6715812590518,-3.237724376958795e-05,0.0940094217658042,0,0,0
8042,278850.49360921787,2010-10-18 22:40:25,2131.077960528933,7,24,-1.099568486213684,3.582221031188965,24.05731388382219,23.72505610796408,96.01170921809776,86.7044369465585,-6.47544875391759e-05,0.0940094217658042,0,0,0
8043,278880.5086763656,2010-10-18 22:40:55,2161.0930276516083,7,24,-1.099568486213684,3.579307079315185,24.05731388382219,23.734224388908583,96.01170921809776,86.73726621570562,-6.47544875391759e-05,0.0940094217658042,0,0,0
8044,278910.5238652919,2010-10-18 22:41:25,2191.108216602918,7,24,-1.099568486213684,3.576555013656616,24.05731388382219,23.74339260238779,96.01170921809776,86.77006886199355,-3.237724376958795e-05,0.0940094217658042,0,0,0
8045,278940.5392076856,2010-10-18 22:41:55,2221.123559021716,7,24,-1.0997490882873535,3.573479175567627,24.05731388382219,23.75256095493033,96.01170921809776,86.80284539530497,-9.713172767078504e-05,0.0940094217658042,0,0,0
8046,278970.55424815184,2010-10-18 22:42:25,2251.1385994378297,7,24,-1.099568486213684,3.570565223693848,24.05731388382219,23.76172922548632,96.01170921809776,86.8355950683616,-6.47544875391759e-05,0.0940094217658042,0,0,0
8047,279000.5694324216,2010-10-18 22:42:55,2281.153783757596,7,24,-1.099568486213684,3.5676512718200684,24.05731388382219,23.77089751272495,96.01170921809776,86.86831799262445,-6.47544875391759e-05,0.0940094217658042,0,0,0
8048,279030.5845828518,2010-10-18 22:43:25,2311.1689341778742,7,24,-1.099568486213684,3.564737319946289,24.05731388382219,23.7800658453117,96.01170921809776,86.90101375408463,-9.713172767078504e-05,0.0940094217658042,0,0,0
8049,279060.59977045475,2010-10-18 22:43:55,2341.184121770798,7,24,-1.099568486213684,3.5618233680725098,24.05731388382219,23.789234152670016,96.01170921809776,86.9336822167408,-6.47544875391759e-05,0.0940094217658042,0,0,0
8050,279090.614954158,2010-10-18 22:44:25,2371.199305469015,7,24,-1.0997490882873535,3.5587475299835205,24.05731388382219,23.79840243555128,96.01170921809776,86.96632337729731,-3.237724376958795e-05,0.0940094217658042,0,0,0
8051,279120.6301371895,2010-10-18 22:44:55,2401.214488475508,7,24,-1.099568486213684,3.5556716918945312,24.05731388382219,23.80757072507837,96.01170921809776,86.99893667621,-9.713172767078504e-05,0.0940094217658042,0,0,0
8052,279150.6453189479,2010-10-18 22:45:25,2431.2296702739905,7,24,-1.0997490882873535,3.552595853805542,24.05731388382219,23.81673900404594,96.01170921809776,87.03152144161086,-3.237724376958795e-05,0.0940094217658042,0,0,0
8053,279180.6604892929,2010-10-18 22:45:55,2461.2448405788277,7,24,-1.099568486213684,3.5493581295013428,24.05731388382219,23.825907282704968,96.01170921809776,87.06407747927422,-6.47544875391759e-05,0.0940094217658042,0,0,0
8054,279210.6756929809,2010-10-18 22:46:25,2491.2600442618527,7,24,-1.0993878841400146,3.546120405197144,24.05731388382219,23.83507559673908,96.01170921809776,87.09660408931157,-9.713172767078504e-05,0.0940094217658042,0,0,0
8055,279240.69120053627,2010-10-18 22:46:55,2521.2755519074462,7,24,-1.0993878841400146,3.5427207946777344,24.05731388382219,23.844243983313767,96.01170921809776,87.12910088398633,-9.713172767078504e-05,0.0940094217658042,0,0,0
8056,279270.70616964967,2010-10-18 22:47:25,2551.2905209556898,7,24,-1.099568486213684,3.539321184158325,24.05731388382219,23.85341228336028,96.01170921809776,87.16156639306767,-9.713172767078504e-05,0.0940094217658042,0,0,0
8057,279300.7212379152,2010-10-18 22:47:55,2581.305589201163,7,24,-1.099568486213684,3.535759687423706,24.05731388382219,23.8625806844369,96.01170921809776,87.19400026311256,-9.713172767078504e-05,0.0940094217658042,0,0,0
8058,279330.7365416476,2010-10-18 22:48:25,2611.3208929435677,7,24,-1.0997490882873535,3.532036304473877,24.05731388382219,23.871749100931584,96.01170921809776,87.22640102593931,-0.0001295089750783,0.0940094217658042,0,0,0
8059,279360.75161476515,2010-10-18 22:48:55,2641.3359660762208,7,24,-1.0997490882873535,3.528151035308838,24.05731388382219,23.88091736404784,96.01170921809776,87.25876682750567,-9.713172767078504e-05,0.0940094217658042,0,0,0
8060,279390.7667826239,2010-10-18 22:49:25,2671.351133934961,7,24,-1.0993878841400146,3.524427652359009,24.05731388382219,23.890085728827227,96.01170921809776,87.29109713157018,-3.237724376958795e-05,0.0940094217658042,0,0,0
8061,279420.78202322894,2010-10-18 22:49:55,2701.36637456507,7,24,-1.099568486213684,3.52021861076355,24.05731388382219,23.89925408544589,96.01170921809776,87.3233901650029,-9.713172767078504e-05,0.0940094217658042,0,0,0
8062,279450.7971628423,2010-10-18 22:50:25,2731.381514238564,7,24,-1.0993878841400146,3.515847682952881,24.05731388382219,23.908422405619188,96.01170921809776,87.35564394740018,-6.47544875391759e-05,0.0940094217658042,0,0,0
8063,279480.81235435,2010-10-18 22:50:55,2761.396705661032,7,24,-1.099568486213684,3.511153221130371,24.05731388382219,23.91759076717537,96.01170921809776,87.38785636711106,-0.0001294612884521,0.0940094217658042,0,0,0
8064,279510.8276583831,2010-10-18 22:51:25,2791.4120096891484,7,24,-1.0997490882873535,3.5061347484588623,24.05731388382219,23.92675910267981,96.01170921809776,87.42002445850787,-0.0001295089750783,0.0940094217658042,0,0,0
8065,279540.84272637294,2010-10-18 22:51:55,2821.427077658934,7,24,-1.099568486213684,3.5007925033569336,24.05731388382219,23.935927460875465,96.01170921809776,87.45214427743008,-6.47544875391759e-05,0.0940094217658042,0,0,0
8066,279570.85800844134,2010-10-18 22:52:25,2851.442359742358,7,24,-1.099568486213684,3.494478940963745,24.05731388382219,23.94509582102559,96.01170921809776,87.48421144634482,-0.0001942634553415,0.0940094217658042,0,0,0
8067,279600.8730802056,2010-10-18 22:52:55,2881.4574314915635,7,24,-1.0997490882873535,3.4876797199249268,24.05731388382219,23.954264111738485,96.01170921809776,87.51621956938226,-0.0001618862152099,0.0940094217658042,0,0,0
8068,279630.88826413936,2010-10-18 22:53:25,2911.472615445418,7,24,-1.0997490882873535,3.4799091815948486,24.05731388382219,23.963432424623505,96.01170921809776,87.54816139442029,-0.0002266406954731,0.0940094217658042,0,0,0
8069,279660.9034324442,2010-10-18 22:53:56,2941.4877837252075,7,24,-1.099568486213684,3.4711673259735107,24.05731388382219,23.972600692991858,96.01170921809776,87.58002688906136,-0.0002266406954731,0.0940094217658042,0,0,0
8070,279690.9186351348,2010-10-18 22:54:26,2971.502986410747,7,24,-1.0997490882873535,3.4606447219848637,24.05731388382219,23.981769033238702,96.01170921809776,87.61180520672393,-0.0003237724304199,0.0940094217658042,0,0,0
8071,279720.9338149283,2010-10-18 22:54:56,3001.5181662693944,7,24,-1.0997490882873535,3.448665142059326,24.05731388382219,23.990937363515496,96.01170921809776,87.64348106144841,-0.0003561496851034,0.0940094217658042,0,0,0
8072,279750.94898049626,2010-10-18 22:55:26,3031.533331812363,7,24,-1.0997490882873535,3.43393349647522,24.05731388382219,24.00010568378893,96.01170921809776,87.67503467919559,-0.0004532813909463,0.0940094217658042,0,0,0
8073,279780.9642162593,2010-10-18 22:55:56,3061.5485675753416,7,24,-1.0997490882873535,3.415640592575073,24.05731388382219,24.0092739975465,96.01170921809776,87.70643834916591,-0.0005180359003134,0.0940094217658042,0,0,0
8074,279810.97946435295,2010-10-18 22:56:26,3091.5638156389773,7,24,-1.099568486213684,3.392005205154419,24.05731388382219,24.018442326660427,96.01170921809776,87.73765069492494,-0.0006799221155233,0.0940094217658042,0,0,0
8075,279840.99454976624,2010-10-18 22:56:56,3121.578901052238,7,24,-1.0997490882873535,3.359142303466797,24.05731388382219,24.02761056904411,96.01170921809776,87.76860643065528,-0.0010360718006268,0.0940094217658042,0,0,0
8076,279871.00969048234,2010-10-18 22:57:26,3151.594041803418,7,24,-1.099568486213684,3.312843084335327,24.05731388382219,24.036778848918168,96.01170921809776,87.79920457501156,-0.0014245987404137,0.0940094217658042,0,0,0
8077,279901.02487552894,2010-10-18 22:57:56,3181.6092268600205,7,24,-1.099568486213684,3.2461462020874023,24.05731388382219,24.04594715659232,96.01170921809776,87.82929107266514,-0.0020721436012536,0.0940094217658042,0,0,0
8078,279931.0400908961,2010-10-18 22:58:26,3211.624442287316,7,24,-1.0997490882873535,3.146424531936645,24.05731388382219,24.05511552140144,96.01170921809776,87.85862839609463,-0.0032053471077233,0.0940094217658042,0,0,0
8079,279961.0552714164,2010-10-18 22:58:56,3241.639622732426,7,24,-1.099568486213684,2.9775776863098145,24.05731388382219,24.064283826239407,96.01170921809776,87.88678858971015,-0.0061516761779785,0.0940094217658042,0,0,0
8080,279978.5237446967,2010-10-18 22:59:13,3259.1080960027302,7,24,-1.0997490882873535,2.77732515335083,24.05731388382219,24.069619702190213,96.01170921809776,87.9021962734837,-0.0113319875672459,0.0940094217658042,0,0,0
8081,279983.50807574834,2010-10-18 22:59:18,3264.0924270493383,7,24,-1.0997490882873535,2.699943780899048,24.05731388382219,24.07114218323203,96.01170921809776,87.9063666727057,-0.0124651910737156,0.0940094217658042,0,0,0
8082,280043.50849069003,2010-10-18 23:00:18,60.014811195595165,8,24,0.0,3.324984550476074,24.05731388382219,24.07114218323203,96.01170921809776,87.9063666727057,0.0013598442310467,0.0940094217658042,0,0,0
8083,280043.6823135086,2010-10-18 23:00:19,0.187426574693852,9,24,-1.9243103452026844e-05,3.325146436691284,24.05731388382219,24.071142184233885,96.01170921809776,87.90636667603701,0.0,0.0914128422737121,0,0,0
8084,280048.51036897337,2010-10-18 23:00:23,5.015481994355162,9,24,0.0007031940040178,3.333564519882202,24.057314759680505,24.07114218440138,96.0117121346809,87.90636667659419,0.0011979580158367,0.0914128422737121,0,0,0
