Data_Point,Test_Time(s),Date_Time,Step_Time(s),Step_Index,Cycle_Index,Current(A),Voltage(V),Charge_Capacity(Ah),Discharge_Capacity(Ah),Charge_Energy(Wh),Discharge_Energy(Wh),dV/dt(V/s),Internal_Resistance(Ohm),Is_FC_Data,AC_Impedance(Ohm),ACI_Phase_Angle(Deg)
12701,442474.4771905856,2010-10-20 20:07:47,30.015366228137825,1,39,0.0,3.4153168201446533,37.85739734407692,37.86262408064001,151.19782547273505,138.06895700496557,0.0008094310760498,0.0922218039631843,0,0,0
12702,442504.49224410433,2010-10-20 20:08:17,60.030419736882685,1,39,0.0,3.4400851726531982,37.85739734407692,37.86262408064001,151.19782547273505,138.06895700496557,0.0005504131549969,0.0922218039631843,0,0,0
12703,442534.5072724904,2010-10-20 20:08:47,90.04544811298929,1,39,0.0,3.459025859832764,37.85739734407692,37.86262408064001,151.19782547273505,138.06895700496557,0.0004856586456298,0.0922218039631843,0,0,0
12704,442564.4758050947,2010-10-20 20:09:17,120.01398073236372,1,39,0.0,3.47391939163208,37.85739734407692,37.86262408064001,151.19782547273505,138.06895700496557,0.0003561496851034,0.0922218039631843,0,0,0
12705,442594.4995777253,2010-10-20 20:09:47,30.01515562825812,2,39,0.5499359965324402,3.625444412231445,37.86198372597647,37.86262408064001,151.21430227754595,138.06895700496557,0.0014245987404137,0.0922218039631843,0,0,0
12706,442624.5147275992,2010-10-20 20:10:17,60.0303054720997,2,39,0.5501165986061096,3.6696393489837646,37.86657012683321,37.86262408064001,151.23103861033005,138.06895700496557,0.0010036944877356,0.0922218039631843,0,0,0
12707,442654.52986484166,2010-10-20 20:10:47,90.04544268947222,2,39,0.5497553944587708,3.700721263885498,37.87115654505372,37.86262408064001,151.24794404898333,138.06895700496557,0.0007122993702068,0.0922218039631843,0,0,0
12708,442684.5450487254,2010-10-20 20:11:17,120.06062663330148,2,39,0.5501165986061096,3.725166082382202,37.87574292811061,37.86262408064001,151.2649754694323,138.06895700496557,0.0005827903514727,0.0922218039631843,0,0,0
12709,442714.5601685242,2010-10-20 20:11:47,150.07574637712457,2,39,0.5501165986061096,3.7445924282073975,37.880329315701935,37.86262408064001,151.2821068132604,138.06895700496557,0.0004532813909463,0.0922218039631843,0,0,0
12710,442744.57545474806,2010-10-20 20:12:17,180.09103263595424,2,39,0.550297200679779,3.7599713802337646,37.88491569723666,37.86262408064001,151.2993183854397,138.06895700496557,0.0003561496851034,0.0922218039631843,0,0,0
12711,442774.590721804,2010-10-20 20:12:47,210.10629969693696,2,39,0.5501165986061096,3.770332098007202,37.88950208403246,37.86262408064001,151.31658914047904,138.06895700496557,0.0002266406954731,0.0922218039631843,0,0,0
12712,442804.6056089732,2010-10-20 20:13:17,240.12118682601252,2,39,0.5501165986061096,3.776645660400391,37.89408837929352,37.86262408064001,151.333896500451,138.06895700496557,0.0001618862152099,0.0922218039631843,0,0,0
12713,442834.6207671979,2010-10-20 20:13:47,270.13634507079183,2,39,0.5501165986061096,3.7808547019958496,37.898674722307135,37.86262408064001,151.35122781167044,138.06895700496557,6.47544875391759e-05,0.0922218039631843,0,0,0
12714,442864.63592401415,2010-10-20 20:14:17,300.15150185693574,2,39,0.5501165986061096,3.7850637435913086,37.903261030579735,37.86262408064001,151.3685778417203,138.06895700496557,0.0001295089750783,0.0922218039631843,0,0,0
12715,442894.6510876624,2010-10-20 20:14:47,330.16666554026955,2,39,0.5501165986061096,3.7887871265411377,37.90784737521476,37.86262408064001,151.38594563378754,138.06895700496557,9.713172767078504e-05,0.0922218039631843,0,0,0
12716,442924.6663570241,2010-10-20 20:15:17,360.181934886949,2,39,0.5501165986061096,3.792510509490967,37.912433802007705,37.86262408064001,151.4033308884342,138.06895700496557,0.0001295089750783,0.0922218039631843,0,0,0
12717,442954.6813883025,2010-10-20 20:15:47,390.196966175314,2,39,0.5499359965324402,3.796072006225586,37.91702009944788,37.86262408064001,151.42073249527283,138.06895700496557,9.713172767078504e-05,0.0922218039631843,0,0,0
12718,442984.696710536,2010-10-20 20:16:17,420.21228853912834,2,39,0.5501165986061096,3.799471616744995,37.921606449796336,37.86262408064001,151.43815085300878,138.06895700496557,6.47544875391759e-05,0.0922218039631843,0,0,0
12719,443014.71192215366,2010-10-20 20:16:47,450.2275001268546,2,39,0.5499359965324402,3.8030331134796143,37.926192831509965,37.86262408064001,151.4555854829303,138.06895700496557,6.47544875391759e-05,0.0922218039631843,0,0,0
12720,443044.7268414129,2010-10-20 20:17:17,480.2424192907709,2,39,0.5501165986061096,3.8065946102142334,37.93077916517811,37.86262408064001,151.47303583451568,138.06895700496557,9.713172767078504e-05,0.0922218039631843,0,0,0
12721,443074.742005041,2010-10-20 20:17:47,510.2575830142046,2,39,0.5501165986061096,3.8099942207336426,37.93536553553698,37.86262408064001,151.49050190144663,138.06895700496557,6.47544875391759e-05,0.0922218039631843,0,0,0
12722,443104.7572045838,2010-10-20 20:18:17,540.2727824917487,2,39,0.5499359965324402,3.813231945037842,37.93995194027347,37.86262408064001,151.50798346620633,138.06895700496557,6.47544875391759e-05,0.0922218039631843,0,0,0
12723,443134.7722920071,2010-10-20 20:18:47,570.287869915019,2,39,0.550297200679779,3.816793441772461,37.94453827108468,37.86262408064001,151.52548020262574,138.06895700496557,9.713172767078504e-05,0.0922218039631843,0,0,0
12724,443164.7874383522,2010-10-20 20:19:18,600.3030161999908,2,39,0.5501165986061096,3.81986927986145,37.949124675408605,37.86262408064001,151.54299214554575,138.06895700496557,6.47544875391759e-05,0.0922218039631843,0,0,0
12725,443194.80259840144,2010-10-20 20:19:48,630.3181762843549,2,39,0.5501165986061096,3.8231070041656494,37.953711048476336,37.86262408064001,151.5605188935504,138.06895700496557,9.713172767078504e-05,0.0922218039631843,0,0,0
12726,443224.81788521167,2010-10-20 20:20:18,660.3334630795213,2,39,0.5499359965324402,3.8263447284698486,37.958297348859006,37.86262408064001,151.57806022900274,138.06895700496557,6.47544875391759e-05,0.0922218039631843,0,0,0
12727,443254.8329039938,2010-10-20 20:20:48,690.3484818466794,2,39,0.550297200679779,3.829582452774048,37.96288363921437,37.86262408064001,151.59561653525168,138.06895700496557,9.713172767078504e-05,0.0922218039631843,0,0,0
12728,443284.8480428353,2010-10-20 20:21:18,720.363620703137,2,39,0.5499359965324402,3.832820177078247,37.9674700379416,37.86262408064001,151.6131884348492,138.06895700496557,9.713172767078504e-05,0.0922218039631843,0,0,0
12729,443314.8632121176,2010-10-20 20:21:48,750.3787899954502,2,39,0.5501165986061096,3.836381435394287,37.97205640320704,37.86262408064001,151.63077559901748,138.06895700496557,6.47544875391759e-05,0.0922218039631843,0,0,0
12730,443344.87835860805,2010-10-20 20:22:18,780.3939365109967,2,39,0.5499359965324402,3.839781045913696,37.976642796581096,37.86262408064001,151.64837854783508,138.06895700496557,0.0001295089750783,0.0922218039631843,0,0,0
12731,443374.8935053241,2010-10-20 20:22:48,810.4090832320553,2,39,0.5501165986061096,3.8431806564331055,37.98122917894372,37.86262408064001,151.66599724110546,138.06895700496557,6.47544875391759e-05,0.0922218039631843,0,0,0
12732,443404.9087411772,2010-10-20 20:23:18,840.4243191504211,2,39,0.5501165986061096,3.846580266952514,37.9858156559906,37.86262408064001,151.68363206613748,138.06895700496557,6.47544875391759e-05,0.0922218039631843,0,0,0
12733,443434.92395528127,2010-10-20 20:23:48,870.4395331441439,2,39,0.5501165986061096,3.850141763687134,37.990402125896274,37.86262408064001,151.7012825687831,138.06895700496557,0.0001295089750783,0.0922218039631843,0,0,0
12734,443464.9389881536,2010-10-20 20:24:18,900.4545660014189,2,39,0.5499359965324402,3.853379487991333,37.99498860114623,37.86262408064001,151.71894858845613,138.06895700496557,6.47544875391759e-05,0.0922218039631843,0,0,0
12735,443494.9540825543,2010-10-20 20:24:48,930.469660462229,2,39,0.5501165986061096,3.856617212295532,37.9995750485562,37.86262408064001,151.73662963399067,138.06895700496557,9.713172767078504e-05,0.0922218039631843,0,0,0
12736,443524.9692921169,2010-10-20 20:25:18,960.4848699697708,2,39,0.5501165986061096,3.859854936599731,38.0041614974745,37.86262408064001,151.75432562785468,138.06895700496557,9.713172767078504e-05,0.0922218039631843,0,0,0
12737,443554.9844350085,2010-10-20 20:25:48,990.5000128562724,2,39,0.5501165986061096,3.86309266090393,38.00874786504279,37.86262408064001,151.7720359164974,138.06895700496557,9.713172767078504e-05,0.0922218039631843,0,0,0
12738,443584.99960245617,2010-10-20 20:26:18,1020.5151803240384,2,39,0.5499359965324402,3.86600661277771,38.013334269387535,37.86262408064001,151.78976049150145,138.06895700496557,6.47544875391759e-05,0.0922218039631843,0,0,0
12739,443615.0147491121,2010-10-20 20:26:48,1050.5303269598846,2,39,0.5501165986061096,3.869082450866699,38.01792062460035,37.86262408064001,151.80749877349055,138.06895700496557,6.47544875391759e-05,0.0922218039631843,0,0,0
12740,443645.0299065498,2010-10-20 20:27:18,1080.545484397653,2,39,0.5501165986061096,3.871834516525269,38.02250711789761,37.86262408064001,151.82525101427274,138.06895700496557,6.47544875391759e-05,0.0922218039631843,0,0,0
12741,443675.04506934097,2010-10-20 20:27:48,1110.5606473140751,2,39,0.5499359965324402,3.874586582183838,38.02709363109393,37.86262408064001,151.8430162339516,138.06895700496557,6.47544875391759e-05,0.0922218039631843,0,0,0
12742,443705.06024560565,2010-10-20 20:28:18,1140.5758235085907,2,39,0.5501165986061096,3.8773386478424072,38.03168007377474,37.86262408064001,151.8607934989009,138.06895700496557,6.47544875391759e-05,0.0922218039631843,0,0,0
12743,443735.0755316941,2010-10-20 20:28:48,1170.5911095869706,2,39,0.5501165986061096,3.879928827285767,38.0362666303943,37.86262408064001,151.8785830270445,138.06895700496557,9.713172767078504e-05,0.0922218039631843,0,0,0
12744,443765.0905519349,2010-10-20 20:29:18,1200.606129782689,2,39,0.5501165986061096,3.882195234298706,38.0408531533364,37.86262408064001,151.89638356441966,138.06895700496557,6.47544875391759e-05,0.0922218039631843,0,0,0
12745,443795.1057204803,2010-10-20 20:29:48,1230.6212983331534,2,39,0.5499359965324402,3.8844616413116455,38.04543964260397,37.86262408064001,151.914194457433,138.06895700496557,6.47544875391759e-05,0.0922218039631843,0,0,0
12746,443825.12108123983,2010-10-20 20:30:18,1260.6366591127116,2,39,0.5501165986061096,3.886566162109375,38.05002618862669,37.86262408064001,151.93201535954844,138.06895700496557,6.47544875391759e-05,0.0922218039631843,0,0,0
12747,443855.13608463865,2010-10-20 20:30:48,1290.6516624915173,2,39,0.5499359965324402,3.888346910476685,38.05461264066249,37.86262408064001,151.94984509813034,138.06895700496557,3.237724376958795e-05,0.0922218039631843,0,0,0
12748,443885.151321329,2010-10-20 20:31:18,1320.666899221907,2,39,0.5499359965324402,3.890127658843994,38.05919921931885,37.86262408064001,151.96768394027984,138.06895700496557,0.0,0.0922218039631843,0,0,0
12749,443915.16635459726,2010-10-20 20:31:48,1350.6819324551193,2,39,0.5501165986061096,3.891908407211304,38.06378570158896,37.86262408064001,151.9855304170156,138.06895700496557,3.237724376958795e-05,0.0922218039631843,0,0,0
12750,443945.18162098667,2010-10-20 20:32:18,1380.697198894553,2,39,0.550297200679779,3.8935272693634033,38.06837223992301,37.86262408064001,152.0033845670726,138.06895700496557,3.237724376958795e-05,0.0922218039631843,0,0,0
12751,443975.1969370197,2010-10-20 20:32:48,1410.7125150077886,2,39,0.5499359965324402,3.894822359085083,38.07295882070209,37.86262408064001,152.0212459361775,138.06895700496557,0.0,0.0922218039631843,0,0,0
12752,444005.2118287151,2010-10-20 20:33:18,1440.727406562895,2,39,0.550297200679779,3.8966031074523926,38.07754534598659,37.86262408064001,152.0391132618115,138.06895700496557,6.47544875391759e-05,0.0922218039631843,0,0,0
12753,444035.2269859373,2010-10-20 20:33:48,1470.7425638001637,2,39,0.5501165986061096,3.897574424743652,38.0821318232418,37.86262408064001,152.05698690473614,138.06895700496557,0.0,0.0922218039631843,0,0,0
12754,444065.242296988,2010-10-20 20:34:18,1500.7578748758444,2,39,0.5499359965324402,3.899031400680542,38.08671825898488,37.86262408064001,152.07486650595322,138.06895700496557,3.237724376958795e-05,0.0922218039631843,0,0,0
12755,444095.2573345469,2010-10-20 20:34:48,1530.7729124248126,2,39,0.5497553944587708,3.9003264904022217,38.09130475915823,37.86262408064001,152.0927523752162,138.06895700496557,3.237724376958795e-05,0.0922218039631843,0,0,0
12756,444125.2724690024,2010-10-20 20:35:18,1560.788046905364,2,39,0.5501165986061096,3.9014596939086914,38.09589118625146,37.86262408064001,152.1106437603591,138.06895700496557,0.0,0.0922218039631843,0,0,0
12757,444155.2876592871,2010-10-20 20:35:48,1590.8032371749591,2,39,0.5499359965324402,3.902754783630371,38.100477616811126,37.86262408064001,152.1285410504092,138.06895700496557,3.237724376958795e-05,0.0922218039631843,0,0,0
12758,444185.3028160832,2010-10-20 20:36:18,1620.818393931028,2,39,0.5501165986061096,3.9042117595672607,38.10506409951872,37.86262408064001,152.14644435642245,138.06895700496557,6.47544875391759e-05,0.0922218039631843,0,0,0
12759,444215.31793406274,2010-10-20 20:36:48,1650.8335119154665,2,39,0.5501165986061096,3.905183076858521,38.10965058638684,37.86262408064001,152.16435345879134,138.06895700496557,0.0,0.0922218039631843,0,0,0
12760,444245.3333644155,2010-10-20 20:37:18,1680.8489423135354,2,39,0.5501165986061096,3.90664005279541,38.11423709631305,37.86262408064001,152.1822683170313,138.06895700496557,3.237724376958795e-05,0.0922218039631843,0,0,0
12761,444275.3483350528,2010-10-20 20:37:48,1710.8639130209135,2,39,0.5499359965324402,3.90777325630188,38.11882354836624,37.86262408064001,152.20018883765175,138.06895700496557,0.0,0.0922218039631843,0,0,0
12762,444305.3634309973,2010-10-20 20:38:18,1740.8790088701842,2,39,0.5501165986061096,3.9092302322387695,38.12340998591279,37.86262408064001,152.21811512278495,138.06895700496557,3.237724376958795e-05,0.0922218039631843,0,0,0
12763,444335.3785758387,2010-10-20 20:38:48,1770.8941536965206,2,39,0.5499359965324402,3.9103634357452393,38.12799655708948,37.86262408064001,152.236047868787,138.06895700496557,0.0,0.0922218039631843,0,0,0
12764,444365.39388529526,2010-10-20 20:39:18,1800.9094631531664,2,39,0.5501165986061096,3.911820411682129,38.13258315164372,37.86262408064001,152.2539865845864,138.06895700496557,3.237724376958795e-05,0.0922218039631843,0,0,0
12765,444395.40903739474,2010-10-20 20:39:48,1830.92461527268,2,39,0.5501165986061096,3.9131155014038086,38.13716968431353,37.86262408064001,152.27193103300462,138.06895700496557,3.237724376958795e-05,0.0922218039631843,0,0,0
12766,444425.4240792093,2010-10-20 20:40:18,1860.9396570622168,2,39,0.5499359965324402,3.914248466491699,38.14175623734129,37.86262408064001,152.2898815477794,138.06895700496557,3.237724376958795e-05,0.0922218039631843,0,0,0
12767,444455.43923284765,2010-10-20 20:40:48,1890.9548107005155,2,39,0.5501165986061096,3.915543556213379,38.146342818602434,37.86262408064001,152.30783821128435,138.06895700496557,3.237724376958795e-05,0.0922218039631843,0,0,0
12768,444485.4543935887,2010-10-20 20:41:18,1920.969971436503,2,39,0.5499359965324402,3.9168386459350586,38.150929377217125,37.86262408064001,152.32580066016132,138.06895700496557,0.0,0.0922218039631843,0,0,0
12769,444515.4695593371,2010-10-20 20:41:48,1950.985137215059,2,39,0.5501165986061096,3.918295621871948,38.155515956387184,37.86262408064001,152.34376937211792,138.06895700496557,3.237724376958795e-05,0.0922218039631843,0,0,0
12770,444545.4847346245,2010-10-20 20:42:18,1981.000312467226,2,39,0.550297200679779,3.919752597808838,38.16010247404696,37.86262408064001,152.3617440205622,138.06895700496557,3.237724376958795e-05,0.0922218039631843,0,0,0
12771,444575.4999106485,2010-10-20 20:42:48,2011.015488601592,2,39,0.5501165986061096,3.9210476875305176,38.16468909392247,37.86262408064001,152.3797252843536,138.06895700496557,3.237724376958795e-05,0.0922218039631843,0,0,0
12772,444605.5150494448,2010-10-20 20:43:18,2041.0306273177,2,39,0.5501165986061096,3.9225046634674072,38.16927564093222,37.86262408064001,152.39771248836456,138.06895700496557,6.47544875391759e-05,0.0922218039631843,0,0,0
12773,444635.53021587,2010-10-20 20:43:48,2071.045793742867,2,39,0.5501165986061096,3.923961639404297,38.173862188146046,37.86262408064001,152.41570598947953,138.06895700496557,9.713172767078504e-05,0.0922218039631843,0,0,0
12774,444665.5455173166,2010-10-20 20:44:18,2101.0610953048367,2,39,0.5501165986061096,3.925094842910767,38.17844876394575,37.86262408064001,152.43370596066055,138.06895700496557,3.237724376958795e-05,0.0922218039631843,0,0,0
12775,444695.5606829248,2010-10-20 20:44:48,2131.0762608077057,2,39,0.5501165986061096,3.926551818847656,38.18303537063629,37.86262408064001,152.45171238119036,138.06895700496557,3.237724376958795e-05,0.0922218039631843,0,0,0
12776,444725.57570287486,2010-10-20 20:45:18,2161.0912807528,2,39,0.550297200679779,3.928008794784546,38.18762196967373,37.86262408064001,152.46972522043012,138.06895700496557,6.47544875391759e-05,0.0922218039631843,0,0,0
12777,444755.59086341545,2010-10-20 20:45:48,2191.1064412682376,2,39,0.550297200679779,3.9293038845062256,38.192208538795086,37.86262408064001,152.48774438100654,138.06895700496557,0.0,0.0922218039631843,0,0,0
12778,444785.6062686257,2010-10-20 20:46:18,2221.121846623894,2,39,0.5501165986061096,3.9307608604431152,38.19679510723963,37.86262408064001,152.50577010725448,138.06895700496557,3.237724376958795e-05,0.0922218039631843,0,0,0
12779,444815.621202376,2010-10-20 20:46:48,2251.136780253863,2,39,0.5501165986061096,3.932379722595215,38.201381715091394,37.86262408064001,152.5238025447115,138.06895700496557,3.237724376958795e-05,0.0922218039631843,0,0,0
12780,444845.6363803048,2010-10-20 20:47:18,2281.1519582027518,2,39,0.5501165986061096,3.9336748123168954,38.20596829616122,37.86262408064001,152.54184149555823,138.06895700496557,3.237724376958795e-05,0.0922218039631843,0,0,0
12781,444875.6515664141,2010-10-20 20:47:48,2311.16714429694,2,39,0.5501165986061096,3.935131788253784,38.21055492881608,37.86262408064001,152.5598873159195,138.06895700496557,3.237724376958795e-05,0.0922218039631843,0,0,0
12782,444905.6672064495,2010-10-20 20:48:18,2341.182784337503,2,39,0.5499359965324402,3.936426877975464,38.215141656840096,37.86262408064001,152.57794015884258,138.06895700496557,3.237724376958795e-05,0.0922218039631843,0,0,0
12783,444935.6674063736,2010-10-20 20:48:48,2371.182984256532,2,39,0.550297200679779,3.938045740127564,38.21972594968607,37.86262408064001,152.59599018262492,138.06895700496557,3.237724376958795e-05,0.0922218039631843,0,0,0
12784,444965.68154734303,2010-10-20 20:49:18,2401.19712533121,2,39,0.5499359965324402,3.939502716064453,38.2243123583288,37.86262408064001,152.614055369248,138.06895700496557,6.47544875391759e-05,0.0922218039631843,0,0,0
12785,444995.6965868719,2010-10-20 20:49:48,2431.2121647548506,2,39,0.5499359965324402,3.940959692001343,38.22889886129646,37.86262408064001,152.63212785422766,138.06895700496557,3.237724376958795e-05,0.0922218039631843,0,0,0
12786,445025.711717132,2010-10-20 20:50:18,2461.2272950098704,2,39,0.5499359965324402,3.9425785541534415,38.2334859157837,37.86262408064001,152.65020944772007,138.06895700496557,0.0,0.0922218039631843,0,0,0
12787,445055.7270200022,2010-10-20 20:50:48,2491.242597880101,2,39,0.550297200679779,3.944197416305542,38.23807324889626,37.86262408064001,152.66829914861512,138.06895700496557,3.237724376958795e-05,0.0922218039631843,0,0,0
12788,445085.7420633807,2010-10-20 20:51:18,2521.2576412285234,2,39,0.5501165986061096,3.945654392242432,38.24266011141369,37.86262408064001,152.68639401600882,138.06895700496557,3.237724376958795e-05,0.0922218039631843,0,0,0
12789,445115.7572311793,2010-10-20 20:51:49,2551.272809062201,2,39,0.5501165986061096,3.9472732543945312,38.2472466807132,37.86262408064001,152.70449472037228,138.06895700496557,3.237724376958795e-05,0.0922218039631843,0,0,0
12790,445145.7725194983,2010-10-20 20:52:19,2581.288097501465,2,39,0.550297200679779,3.948892116546631,38.251833238409645,37.86262408064001,152.722602546081,138.06895700496557,6.47544875391759e-05,0.0922218039631843,0,0,0
12791,445175.7875766461,2010-10-20 20:52:49,2611.303154498905,2,39,0.5501165986061096,3.950349092483521,38.25641972297995,37.86262408064001,152.74071726208413,138.06895700496557,3.237724376958795e-05,0.0922218039631843,0,0,0
12792,445205.8028478123,2010-10-20 20:53:19,2641.318425690182,2,39,0.5501165986061096,3.95196795463562,38.26100628564854,37.86262408064001,152.75883956555273,138.06895700496557,6.47544875391759e-05,0.0922218039631843,0,0,0
12793,445235.8178887998,2010-10-20 20:53:49,2671.333466652657,2,39,0.5501165986061096,3.95358681678772,38.2655928560596,37.86262408064001,152.77696917692674,138.06895700496557,3.237724376958795e-05,0.0922218039631843,0,0,0
12794,445265.8331885824,2010-10-20 20:54:19,2701.3487664402046,2,39,0.5501165986061096,3.9552056789398193,38.27017940289343,37.86262408064001,152.79510605135178,138.06895700496557,3.237724376958795e-05,0.0922218039631843,0,0,0
12795,445295.8483629824,2010-10-20 20:54:49,2731.363940835236,2,39,0.5501165986061096,3.956662654876709,38.274765986423,37.86262408064001,152.81325047506263,138.06895700496557,3.237724376958795e-05,0.0922218039631843,0,0,0
12796,445325.8633879801,2010-10-20 20:55:19,2761.3789658279097,2,39,0.550297200679779,3.9584434032440186,38.27935252992768,37.86262408064001,152.83140208451292,138.06895700496557,6.47544875391759e-05,0.0922218039631843,0,0,0
12797,445355.8786892864,2010-10-20 20:55:49,2791.394267144268,2,39,0.5501165986061096,3.960062265396118,38.28393910844266,37.86262408064001,152.84956140305712,138.06895700496557,3.237724376958795e-05,0.0922218039631843,0,0,0
12798,445385.8937250459,2010-10-20 20:56:19,2821.409302898763,2,39,0.5501165986061096,3.9616811275482178,38.288525729126256,37.86262408064001,152.86772853472362,138.06895700496557,0.0,0.0922218039631843,0,0,0
12799,445415.9088903032,2010-10-20 20:56:49,2851.42446815602,2,39,0.5501165986061096,3.963299989700317,38.29311233123724,37.86262408064001,152.88590316768853,138.06895700496557,3.237724376958795e-05,0.0922218039631843,0,0,0
12800,445445.92418566975,2010-10-20 20:57:19,2881.4397635225487,2,39,0.550297200679779,3.965242624282837,38.29769890029704,37.86262408064001,152.9040853468645,138.06895700496557,6.47544875391759e-05,0.0922218039631843,0,0,0
12801,445475.9392150834,2010-10-20 20:57:49,2911.454792946266,2,39,0.550297200679779,3.966861486434937,38.30228550506778,37.86262408064001,152.92227542716435,138.06895700496557,6.47544875391759e-05,0.0922218039631843,0,0,0
12802,445505.9545102695,2010-10-20 20:58:19,2941.47008822257,2,39,0.5501165986061096,3.968480348587036,38.30687219191406,37.86262408064001,152.94047354520347,138.06895700496557,9.713172767078504e-05,0.0922218039631843,0,0,0
12803,445535.9696818575,2010-10-20 20:58:49,2971.4852597103554,2,39,0.550297200679779,3.970099210739136,38.311458792166526,37.86262408064001,152.95867914130352,138.06895700496557,3.237724376958795e-05,0.0922218039631843,0,0,0
12804,445565.9847625891,2010-10-20 20:59:19,3001.500340497085,2,39,0.5501165986061096,3.9720418453216553,38.31604534533509,37.86262408064001,152.97689242361747,138.06895700496557,6.47544875391759e-05,0.0922218039631843,0,0,0
12805,445595.9998832502,2010-10-20 20:59:49,3031.515461103057,2,39,0.5501165986061096,3.973822593688965,38.32063190923141,37.86262408064001,152.99511370741735,138.06895700496557,9.713172767078504e-05,0.0922218039631843,0,0,0
12806,445626.0150588332,2010-10-20 21:00:19,3061.5306367060984,2,39,0.5501165986061096,3.9752795696258554,38.32521848160842,37.86262408064001,153.01334305838472,138.06895700496557,3.237724376958795e-05,0.0922218039631843,0,0,0
12807,445656.0302515138,2010-10-20 21:00:49,3091.5458293917145,2,39,0.5501165986061096,3.977222204208374,38.32980510141298,37.86262408064001,153.03158072561737,138.06895700496557,6.47544875391759e-05,0.0922218039631843,0,0,0
12808,445686.0454469112,2010-10-20 21:01:19,3121.56102480914,2,39,0.5501165986061096,3.979002952575684,38.33439168814019,37.86262408064001,153.04982593740843,138.06895700496557,6.47544875391759e-05,0.0922218039631843,0,0,0
12809,445716.0605587002,2010-10-20 21:01:49,3151.5761365931244,2,39,0.5501165986061096,3.980783700942993,38.33897816440812,37.86262408064001,153.06807938840734,138.06895700496557,6.47544875391759e-05,0.0922218039631843,0,0,0
12810,445746.0757140127,2010-10-20 21:02:19,3181.5912918855456,2,39,0.5501165986061096,3.9827263355255127,38.343564695143016,37.86262408064001,153.08634144794397,138.06895700496557,6.47544875391759e-05,0.0922218039631843,0,0,0
12811,445776.09110481705,2010-10-20 21:02:49,3211.606682815247,2,39,0.5501165986061096,3.984345197677612,38.34815121392428,37.86262408064001,153.10461177745688,138.06895700496557,3.237724376958795e-05,0.0922218039631843,0,0,0
12812,445806.1060070388,2010-10-20 21:03:19,3241.621585026913,2,39,0.5499359965324402,3.986287832260132,38.35273772067542,37.86262408064001,153.12289064836722,138.06895700496557,6.47544875391759e-05,0.0922218039631843,0,0,0
12813,445836.12119007536,2010-10-20 21:03:49,3271.636767938169,2,39,0.5501165986061096,3.9882304668426514,38.35732420359491,37.86262408064001,153.14117800867976,138.06895700496557,3.237724376958795e-05,0.0922218039631843,0,0,0
12814,445866.1363004357,2010-10-20 21:04:19,3301.6518783086303,2,39,0.5501165986061096,3.990173101425171,38.36191072174002,37.86262408064001,153.1594741288827,138.06895700496557,6.47544875391759e-05,0.0922218039631843,0,0,0
12815,445896.1515907647,2010-10-20 21:04:49,3331.6671686175546,2,39,0.5501165986061096,3.991953849792481,38.36649720533556,37.86262408064001,153.1777789720374,138.06895700496557,9.713172767078504e-05,0.0922218039631843,0,0,0
12816,445926.16688568005,2010-10-20 21:05:19,3361.682463542984,2,39,0.5501165986061096,3.993896484375,38.37108377219385,37.86262408064001,153.19609305690008,138.06895700496557,3.237724376958795e-05,0.0922218039631843,0,0,0
12817,445956.1819038608,2010-10-20 21:05:49,3391.697481743731,2,39,0.5501165986061096,3.995838880538941,38.375670236763206,37.86262408064001,153.21441572856327,138.06895700496557,3.237724376958795e-05,0.0922218039631843,0,0,0
12818,445986.1970924011,2010-10-20 21:06:19,3421.712670309078,2,39,0.5501165986061096,3.99794340133667,38.38025670433334,37.86262408064001,153.23274748703935,138.06895700496557,6.47544875391759e-05,0.0922218039631843,0,0,0
12819,446016.21231653006,2010-10-20 21:06:49,3451.727894508236,2,39,0.5499359965324402,4.0000481605529785,38.38484315973388,37.86262408064001,153.25108828964107,138.06895700496557,9.71794142969884e-05,0.0922218039631843,0,0,0
12820,446046.2273948406,2010-10-20 21:07:19,3481.7429726884698,2,39,0.5501165986061096,4.001990795135498,38.38942963978734,37.86262408064001,153.2694385511655,138.06895700496557,6.47544875391759e-05,0.0922218039631843,0,0,0
12821,446076.2425670202,2010-10-20 21:07:49,3511.7581448980536,2,39,0.5499359965324402,4.003933429718018,38.39401617579352,37.86262408064001,153.28779849348533,138.06895700496557,3.24249267578125e-05,0.0922218039631843,0,0,0
12822,446106.25773125485,2010-10-20 21:08:19,3541.7733091427867,2,39,0.5499359965324402,4.006199836730957,38.398602699793926,37.86262408064001,153.30616799762925,138.06895700496557,6.47544875391759e-05,0.0922218039631843,0,0,0
12823,446136.2729060459,2010-10-20 21:08:49,3571.788483898717,2,39,0.550297200679779,4.008304119110107,38.403189207421065,37.86262408064001,153.32454714834677,138.06895700496557,6.47544875391759e-05,0.0922218039631843,0,0,0
12824,446166.2880667117,2010-10-20 21:09:19,3601.80364456453,2,39,0.550297200679779,4.010408878326416,38.4077757740194,37.86262408064001,153.3429361947246,138.06895700496557,6.47544875391759e-05,0.0922218039631843,0,0,0
12825,446196.30352514464,2010-10-20 21:09:49,3631.8191030325584,2,39,0.5499359965324402,4.012513160705566,38.41236231426375,37.86262408064001,153.36133496649492,138.06895700496557,3.23295607813634e-05,0.0922218039631843,0,0,0
12826,446226.3184113263,2010-10-20 21:10:19,3661.83398920926,2,39,0.5501165986061096,4.014779567718506,38.416948819861375,37.86262408064001,153.37974355273474,138.06895700496557,3.23295607813634e-05,0.0922218039631843,0,0,0
12827,446256.3335878968,2010-10-20 21:10:49,3691.8491657496375,2,39,0.5501165986061096,4.016884326934815,38.42153532538525,37.86262408064001,153.39816217563202,138.06895700496557,6.47544875391759e-05,0.0922218039631843,0,0,0
12828,446286.3487297106,2010-10-20 21:11:19,3721.8643075584528,2,39,0.5499359965324402,4.019150733947754,38.426121848407504,37.86262408064001,153.41659104921013,138.06895700496557,3.24249267578125e-05,0.0922218039631843,0,0,0
12829,446316.3638914341,2010-10-20 21:11:49,3751.879469286915,2,39,0.5501165986061096,4.021417140960693,38.43070833005204,37.86262408064001,153.43502988428966,138.06895700496557,3.24249267578125e-05,0.0922218039631843,0,0,0
12830,446346.3790708768,2010-10-20 21:12:19,3781.8946487245134,2,39,0.5501165986061096,4.023683547973633,38.43529483926674,37.86262408064001,153.45347931778213,138.06895700496557,6.47544875391759e-05,0.0922218039631843,0,0,0
12831,446376.39424150233,2010-10-20 21:12:49,3811.909819385237,2,39,0.5501165986061096,4.025787830352783,38.43988136278898,37.86262408064001,153.4719393438816,138.06895700496557,3.23295607813634e-05,0.0922218039631843,0,0,0
12832,446406.4098308967,2010-10-20 21:13:19,3841.925408799624,2,39,0.5504778623580933,4.0287017822265625,38.44446794726306,37.86262408064001,153.49041020700346,138.06895700496557,0.0001295089750783,0.0922218039631843,0,0,0
12833,446436.4245890644,2010-10-20 21:13:49,3871.9401669472377,2,39,0.5499359965324402,4.030644416809082,38.44905441900445,37.86262408064001,153.50889127642648,138.06895700496557,3.23295607813634e-05,0.0922218039631843,0,0,0
12834,446466.4397522615,2010-10-20 21:14:19,3901.95533014436,2,39,0.550297200679779,4.0329108238220215,38.45364094473378,37.86262408064001,153.52738327301392,138.06895700496557,3.23295607813634e-05,0.0922218039631843,0,0,0
12835,446496.4550389564,2010-10-20 21:14:49,3931.970616834264,2,39,0.5499359965324402,4.035338878631592,38.45822747163068,37.86262408064001,153.5458860651136,138.06895700496557,6.47544875391759e-05,0.0922218039631843,0,0,0
12836,446526.4700658187,2010-10-20 21:15:19,3961.985643666522,2,39,0.5501165986061096,4.03776741027832,38.46281392978966,37.86262408064001,153.56439951892867,138.06895700496557,6.47544875391759e-05,0.0922218039631843,0,0,0
12837,446556.48536990193,2010-10-20 21:15:49,3992.0009477547887,2,39,0.5501165986061096,4.039871692657471,38.467400551719486,37.86262408064001,153.5829246515231,138.06895700496557,0.0,0.0922218039631843,0,0,0
12838,446586.50040508,2010-10-20 21:16:19,4022.015982927835,2,39,0.5499359965324402,4.04246187210083,38.47198706677703,37.86262408064001,153.60146039407377,138.06895700496557,0.0,0.0922218039631843,0,0,0
12839,446616.5156065877,2010-10-20 21:16:49,4052.0311844605017,2,39,0.5499359965324402,4.044890403747559,38.47657356916696,37.86262408064001,153.62000733601815,138.06895700496557,3.24249267578125e-05,0.0922218039631843,0,0,0
12840,446646.5308881247,2010-10-20 21:17:19,4082.0464659975632,2,39,0.5501165986061096,4.047480583190918,38.48116015121475,37.86262408064001,153.63856588727944,138.06895700496557,9.71794142969884e-05,0.0922218039631843,0,0,0
12841,446676.5459074682,2010-10-20 21:17:49,4112.061485321108,2,39,0.5501165986061096,4.050070762634277,38.48574666267443,37.86262408064001,153.6571356366182,138.06895700496557,6.47544875391759e-05,0.0922218039631843,0,0,0
12842,446706.5611000386,2010-10-20 21:18:19,4142.0766779165,2,39,0.5501165986061096,4.052498817443848,38.49033320869747,37.86262408064001,153.6757168973449,138.06895700496557,6.47544875391759e-05,0.0922218039631843,0,0,0
12843,446736.57636962587,2010-10-20 21:18:49,4172.091947513804,2,39,0.550297200679779,4.055251121520996,38.49491975650276,37.86262408064001,153.69430977615417,138.06895700496557,6.47544875391759e-05,0.0922218039631843,0,0,0
12844,446766.5914159166,2010-10-20 21:19:19,4202.106993794534,2,39,0.5501165986061096,4.057679176330566,38.49950631327967,37.86262408064001,153.71291438901363,138.06895700496557,9.70840483205393e-05,0.0922218039631843,0,0,0
12845,446796.60671598994,2010-10-20 21:19:49,4232.122293882831,2,39,0.550297200679779,4.060107707977295,38.50409290773344,37.86262408064001,153.73153102047382,138.06895700496557,6.47544875391759e-05,0.0922218039631843,0,0,0
12846,446826.6217706616,2010-10-20 21:20:19,4262.137348529412,2,39,0.5501165986061096,4.062859535217285,38.50867945640462,37.86262408064001,153.7501590288104,138.06895700496557,9.70840483205393e-05,0.0922218039631843,0,0,0
12847,446856.6369577733,2010-10-20 21:20:49,4292.152535626098,2,39,0.5499359965324402,4.0654497146606445,38.51326598486755,37.86262408064001,153.76879913527816,138.06895700496557,6.47544875391759e-05,0.0922218039631843,0,0,0
12848,446886.6523146832,2010-10-20 21:21:19,4322.16789267135,2,39,0.550297200679779,4.068202018737793,38.51785254630335,37.86262408064001,153.78745160189268,138.06895700496557,9.71794142969884e-05,0.0922218039631843,0,0,0
12849,446916.6672564033,2010-10-20 21:21:49,4352.182834256146,2,39,0.5501165986061096,4.070792198181152,38.52243901764409,37.86262408064001,153.80611607751104,138.06895700496557,6.47544875391759e-05,0.0922218039631843,0,0,0
12850,446946.6824006833,2010-10-20 21:22:19,4382.197978561184,2,39,0.5501165986061096,4.073544025421143,38.527025475874645,37.86262408064001,153.82479290806242,138.06895700496557,9.70840483205393e-05,0.0922218039631843,0,0,0
12851,446976.6975804016,2010-10-20 21:22:49,4412.213158284494,2,39,0.5499359965324402,4.076134204864502,38.53161189662306,37.86262408064001,153.84348220716092,138.06895700496557,3.23295607813634e-05,0.0922218039631843,0,0,0
12852,447006.7127815884,2010-10-20 21:23:19,4442.22835947631,2,39,0.5501165986061096,4.07888650894165,38.5361984229767,37.86262408064001,153.862184599567,138.06895700496557,3.24249267578125e-05,0.0922218039631843,0,0,0
12853,447036.7281019472,2010-10-20 21:23:50,4472.243679830115,2,39,0.5501165986061096,4.08180046081543,38.54078499279611,37.86262408064001,153.88089995037757,138.06895700496557,9.71794142969884e-05,0.0922218039631843,0,0,0
12854,447066.74312195246,2010-10-20 21:24:20,4502.258699795259,2,39,0.5501165986061096,4.084714412689209,38.54537142978457,37.86262408064001,153.89962767530616,138.06895700496557,6.47544875391759e-05,0.0922218039631843,0,0,0
12855,447096.75829847273,2010-10-20 21:24:50,4532.273876330624,2,39,0.5499359965324402,4.087304592132568,38.54995788964131,37.86262408064001,153.9183685584455,138.06895700496557,0.0,0.0922218039631843,0,0,0
12856,447126.7734577801,2010-10-20 21:25:20,4562.289035668126,2,39,0.5501165986061096,4.090542316436768,38.55454436254612,37.86262408064001,153.93712266983985,138.06895700496557,6.47544875391759e-05,0.0922218039631843,0,0,0
12857,447156.7886273733,2010-10-20 21:25:50,4592.304205266202,2,39,0.5497553944587708,4.093132495880127,38.55913088356051,37.86262408064001,153.95589011453882,138.06895700496557,6.47544875391759e-05,0.0922218039631843,0,0,0
12858,447186.8038084199,2010-10-20 21:26:20,4622.3193863027855,2,39,0.5501165986061096,4.096046447753906,38.56371738003239,37.86262408064001,153.97467078998062,138.06895700496557,3.24249267578125e-05,0.0922218039631843,0,0,0
12859,447216.81898479984,2010-10-20 21:26:50,4652.3345626927885,2,39,0.5499359965324402,4.099122047424316,38.56830393583495,37.86262408064001,153.99346517368426,138.06895700496557,6.47544875391759e-05,0.0922218039631843,0,0,0
12860,447246.834156824,2010-10-20 21:27:20,4682.349734726935,2,39,0.5501165986061096,4.102035999298096,38.572890529951415,37.86262408064001,154.0122733440667,138.06895700496557,6.47544875391759e-05,0.0922218039631843,0,0,0
12861,447276.8493036954,2010-10-20 21:27:50,4712.364881583331,2,39,0.5501165986061096,4.105112075805664,38.57747705154895,37.86262408064001,154.03109491899883,138.06895700496557,6.47544875391759e-05,0.0922218039631843,0,0,0
12862,447306.86447751406,2010-10-20 21:28:20,4742.380055361825,2,39,0.5501165986061096,4.108187675476074,38.58206356568414,37.86262408064001,154.0499304289558,138.06895700496557,9.70840483205393e-05,0.0922218039631843,0,0,0
12863,447336.87965420977,2010-10-20 21:28:50,4772.395232072628,2,39,0.5501165986061096,4.111425399780273,38.58665005194593,37.86262408064001,154.0687798641898,138.06895700496557,6.47544875391759e-05,0.0922218039631843,0,0,0
12864,447366.8948429355,2010-10-20 21:29:20,4802.410421675561,2,39,0.5501165986061096,4.114501476287842,38.59123657618047,37.86262408064001,154.08764356208752,138.06895700496557,9.71794142969884e-05,0.0922218039631843,0,0,0
12865,447396.9099807945,2010-10-20 21:29:50,4832.425558657346,2,39,0.5501165986061096,4.117577075958252,38.5958230719299,37.86262408064001,154.1065213731531,138.06895700496557,6.47544875391759e-05,0.0922218039631843,0,0,0
12866,447426.9251564026,2010-10-20 21:30:20,4862.440734250362,2,39,0.5501165986061096,4.120814800262451,38.600409605526025,37.86262408064001,154.1254137013934,138.06895700496557,0.0001295089750783,0.0922218039631843,0,0,0
12867,447456.9403463714,2010-10-20 21:30:50,4892.455924279358,2,39,0.5499359965324402,4.123728752136231,38.60499620377601,37.86262408064001,154.14432076653372,138.06895700496557,6.47544875391759e-05,0.0922218039631843,0,0,0
12868,447486.9554922153,2010-10-20 21:31:20,4922.4710700680935,2,39,0.5501165986061096,4.12696647644043,38.6095826879135,37.86262408064001,154.16324186643925,138.06895700496557,6.47544875391759e-05,0.0922218039631843,0,0,0
12869,447516.9706623146,2010-10-20 21:31:50,4952.486240167417,2,39,0.550297200679779,4.13036584854126,38.61416920266283,37.86262408064001,154.1821777981237,138.06895700496557,9.70840483205393e-05,0.0922218039631843,0,0,0
12870,447546.9858325142,2010-10-20 21:32:20,4982.501410361979,2,39,0.550297200679779,4.133441925048828,38.618755767090725,37.86262408064001,154.20112871347703,138.06895700496557,9.71794142969884e-05,0.0922218039631843,0,0,0
12871,447577.0010250945,2010-10-20 21:32:50,5012.51660297742,2,39,0.5501165986061096,4.136679649353027,38.62334231891596,37.86262408064001,154.22009445907594,138.06895700496557,9.71794142969884e-05,0.0922218039631843,0,0,0
12872,447607.01618534926,2010-10-20 21:33:20,5042.531763227197,2,39,0.5501165986061096,4.139917373657227,38.62792887332506,37.86262408064001,154.23907529186445,138.06895700496557,6.47544875391759e-05,0.0922218039631843,0,0,0
12873,447637.0313629423,2010-10-20 21:33:50,5072.546940800148,2,39,0.5501165986061096,4.143478870391846,38.6325154528796,37.86262408064001,154.25807138788767,138.06895700496557,0.0001295089750783,0.0922218039631843,0,0,0
12874,447667.0465306908,2010-10-20 21:34:20,5102.562108538588,2,39,0.5501165986061096,4.146878242492676,38.63710192817217,37.86262408064001,154.2770824806305,138.06895700496557,0.0001295089750783,0.0922218039631843,0,0,0
12875,447697.06189835246,2010-10-20 21:34:50,5132.577476205312,2,39,0.5501165986061096,4.150115966796875,38.64168846704466,37.86262408064001,154.29610946589867,138.06895700496557,9.70840483205393e-05,0.0922218039631843,0,0,0
12876,447727.06217591,2010-10-20 21:35:20,5162.577753913214,2,39,0.5501165986061096,4.153515815734863,38.64627270081134,37.86262408064001,154.31514238648086,138.06895700496557,6.47544875391759e-05,0.0922218039631843,0,0,0
12877,447757.0764597455,2010-10-20 21:35:50,5192.592037723634,2,39,0.5501165986061096,4.157077312469482,38.65085905492134,37.86262408064001,154.33419965176762,138.06895700496557,9.71794142969884e-05,0.0922218039631843,0,0,0
12878,447787.0915721159,2010-10-20 21:36:20,5222.607149998844,2,39,0.5501165986061096,4.1604766845703125,38.65544561296159,37.86262408064001,154.35327357893942,138.06895700496557,9.70840483205393e-05,0.0922218039631843,0,0,0
12879,447817.1067749969,2010-10-20 21:36:50,5252.622352889895,2,39,0.5501165986061096,4.163876533508301,38.66003218623836,37.86262408064001,154.37236345174273,138.06895700496557,9.71794142969884e-05,0.0922218039631843,0,0,0
12880,447847.1219439434,2010-10-20 21:37:20,5282.637521796246,2,39,0.5501165986061096,4.167275905609131,38.66461868829314,37.86262408064001,154.3914689015585,138.06895700496557,9.70840483205393e-05,0.0922218039631843,0,0,0
12881,447877.1372701268,2010-10-20 21:37:50,5312.652848104893,2,39,0.5501165986061096,4.170999526977539,38.6692051988608,37.86262408064001,154.4105904755389,138.06895700496557,9.71794142969884e-05,0.0922218039631843,0,0,0
12882,447907.1522551698,2010-10-20 21:38:20,5342.667833017676,2,39,0.5501165986061096,4.174398899078369,38.67379174104341,37.86262408064001,154.42972841381382,138.06895700496557,0.0001295089750783,0.0922218039631843,0,0,0
12883,447937.1674177955,2010-10-20 21:38:50,5372.682995648385,2,39,0.5501165986061096,4.178122520446777,38.6783782820156,37.86262408064001,154.4488825544812,138.06895700496557,6.47544875391759e-05,0.0922218039631843,0,0,0
12884,447967.1826129824,2010-10-20 21:39:20,5402.6981908602975,2,39,0.5501165986061096,4.181521892547607,38.68296483158508,37.86262408064001,154.4680531160692,138.06895700496557,9.70840483205393e-05,0.0922218039631843,0,0,0
12885,447997.1977654979,2010-10-20 21:39:50,5432.713343350735,2,39,0.5499359965324402,4.184921741485596,38.68755145574294,37.86262408064001,154.48724045324957,138.06895700496557,3.24249267578125e-05,0.0922218039631843,0,0,0
12886,448027.2130776914,2010-10-20 21:40:20,5462.728655569264,2,39,0.5501165986061096,4.188807010650635,38.692138060755845,37.86262408064001,154.50644421106244,138.06895700496557,9.71794142969884e-05,0.0922218039631843,0,0,0
12887,448057.2281075261,2010-10-20 21:40:50,5492.743685388969,2,39,0.5501165986061096,4.192368507385254,38.69672459293053,37.86262408064001,154.5256644557927,138.06895700496557,9.71794142969884e-05,0.0922218039631843,0,0,0
12888,448087.243279049,2010-10-20 21:41:20,5522.758856901817,2,39,0.550297200679779,4.196091651916504,38.70131114626073,37.86262408064001,154.54490160937422,138.06895700496557,9.71794142969884e-05,0.0922218039631843,0,0,0
12889,448117.258564546,2010-10-20 21:41:50,5552.774142418798,2,39,0.5501165986061096,4.199814796447754,38.70589764306974,37.86262408064001,154.56415551310295,138.06895700496557,9.70840483205393e-05,0.0922218039631843,0,0,0
12890,448118.1178177542,2010-10-20 21:41:51,5553.633395632191,2,39,0.5501165986061096,4.200138568878174,38.70602895430108,37.86262408064001,154.56470700446866,138.06895700496557,0.0001295089750783,0.0922218039631843,0,0,0
12891,448148.1334813621,2010-10-20 21:42:21,30.01516368333385,3,39,0.0,4.114501476287842,38.70602895430108,37.86262408064001,154.56470700446866,138.06895700496557,-0.0003561019839253,0.0922218039631843,0,0,0
12892,448178.1489303465,2010-10-20 21:42:51,60.03061272286314,3,39,0.0,4.103654861450195,38.70602895430108,37.86262408064001,154.56470700446866,138.06895700496557,-0.0002266883820993,0.0922218039631843,0,0,0
12893,448208.1638451345,2010-10-20 21:43:21,90.04552757603565,3,39,0.0,4.097341537475586,38.70602895430108,37.86262408064001,154.56470700446866,138.06895700496557,-0.0001295089750783,0.0922218039631843,0,0,0
12894,448238.1321179764,2010-10-20 21:43:51,120.0138003327524,3,39,0.0,4.092970371246338,38.70602895430108,37.86262408064001,154.56470700446866,138.06895700496557,-0.0001295089750783,0.0922218039631843,0,0,0
12895,448238.1344354605,2010-10-20 21:43:51,0.015616115163947,4,39,0.9940541982650756,4.199653148651123,38.70603329492038,37.86262408064001,154.564725234266,138.06895700496557,-6.47544875391759e-05,0.0922218039631843,0,0,0
12896,448239.1187997992,2010-10-20 21:43:52,0.999980479040069,4,39,0.943483591079712,4.199653148651123,38.70629668681431,37.86262408064001,154.565831412411,138.06895700496557,-6.47544875391759e-05,0.0922218039631843,0,0,0
12897,448241.3074198088,2010-10-20 21:43:54,3.188600508575218,4,39,0.8934548497200012,4.199814796447754,38.70685387733272,37.86262408064001,154.56817146176638,138.06895700496557,-3.24249267578125e-05,0.0922218039631843,0,0,0
12898,448244.52497246,2010-10-20 21:43:58,6.406153139748296,4,39,0.8434261083602905,4.199814796447754,38.70762879025416,37.86262408064001,154.57142588361972,138.06895700496557,3.23295607813634e-05,0.0922218039631843,0,0,0
12899,448248.97804971866,2010-10-20 21:44:02,10.859230413492089,4,39,0.7930361032485962,4.199814796447754,38.708639709822975,37.86262408064001,154.57567146868587,138.06895700496557,0.0,0.0922218039631843,0,0,0
12900,448254.806079056,2010-10-20 21:44:08,16.687259710740616,4,39,0.7428267002105713,4.199814796447754,38.70988125704642,37.86262408064001,154.58088566573275,138.06895700496557,3.23295607813634e-05,0.0922218039631843,0,0,0
12901,448262.290324298,2010-10-20 21:44:15,24.17150494771585,4,39,0.6927979588508606,4.199653148651123,38.71137132114938,37.86262408064001,154.58714355696063,138.06895700496557,0.0,0.0922218039631843,0,0,0
12902,448272.27455225616,2010-10-20 21:44:25,34.155732910870164,4,39,0.6425885558128357,4.199814796447754,38.71321983903548,37.86262408064001,154.59490689706882,138.06895700496557,0.0,0.0922218039631843,0,0,0
12903,448286.03997294005,2010-10-20 21:44:39,47.92115359974089,4,39,0.592559814453125,4.199491024017334,38.71557638347097,37.86262408064001,154.6048037655552,138.06895700496557,-3.24249267578125e-05,0.0922218039631843,0,0,0
12904,448307.3521321535,2010-10-20 21:45:00,69.2333128181005,4,39,0.5423504114151001,4.199653148651123,38.71892562008354,37.86262408064001,154.61886951195132,138.06895700496557,3.24249267578125e-05,0.0922218039631843,0,0,0
12905,448343.8204572555,2010-10-20 21:45:37,105.7016379403282,4,39,0.492321640253067,4.199814796447754,38.72414318982069,37.86262408064001,154.64078168923024,138.06895700496557,3.23295607813634e-05,0.0922218039631843,0,0,0
12906,448409.9443321025,2010-10-20 21:46:43,171.82551275717944,4,39,0.4422928690910339,4.199653148651123,38.73268643988714,37.86262408064001,154.67666073362878,138.06895700496557,3.24249267578125e-05,0.0922218039631843,0,0,0
12907,448511.11483108526,2010-10-20 21:48:24,272.9960118001789,4,39,0.3922640979290008,4.199814796447754,38.74438431109135,37.86262408064001,154.72578883941586,138.06895700496557,3.23295607813634e-05,0.0922218039631843,0,0,0
12908,448636.3628228737,2010-10-20 21:50:29,398.24400358354666,4,39,0.3418741226196289,4.199653148651123,38.75714210220156,37.86262408064001,154.77936837215566,138.06895700496557,0.0,0.0922218039631843,0,0,0
12909,448787.43875834986,2010-10-20 21:53:01,549.3199390295814,4,39,0.2918453514575958,4.199653148651123,38.7704271427012,37.86262408064001,154.83516216134802,138.06895700496557,0.0,0.0922218039631843,0,0,0
12910,448967.57666191255,2010-10-20 21:56:01,729.4578425722572,4,39,0.2418165802955627,4.199653148651123,38.78375178175499,37.86262408064001,154.89112220373758,138.06895700496557,-3.23295607813634e-05,0.0922218039631843,0,0,0
12911,449191.0576661986,2010-10-20 21:59:44,952.9388468583238,4,39,0.1916072070598602,4.199653148651123,38.79717288545702,37.86262408064001,154.94748739275047,138.06895700496557,-3.23295607813634e-05,0.0922218039631843,0,0,0
12912,449487.38118525455,2010-10-20 22:04:41,1249.262365899241,4,39,0.1415784358978271,4.199653148651123,38.810820783180525,37.86262408064001,155.00480512995085,138.06895700496557,-3.23295607813634e-05,0.0922218039631843,0,0,0
12913,449938.9372862686,2010-10-20 22:12:12,1700.818466973457,4,39,0.0915496572852134,4.199653148651123,38.8252202815843,37.86262408064001,155.06527933977983,138.06895700496557,-3.23295607813634e-05,0.0922218039631843,0,0,0
12914,450619.864159242,2010-10-20 22:23:33,2381.7453398917305,4,39,0.0496483072638511,4.199653148651123,38.83819907049612,37.86262408064001,155.11978696811488,138.06895700496557,0.0,0.0922218039631843,0,0,0
12915,450649.88631741086,2010-10-20 22:24:03,30.01518008420988,5,39,0.0,4.191882610321045,38.83819907049612,37.86262408064001,155.11978696811488,138.06895700496557,0.0,0.0922218039631843,0,0,0
12916,450679.88584176113,2010-10-20 22:24:33,60.014704429501215,5,39,0.0,4.190587520599365,38.83819907049612,37.86262408064001,155.11978696811488,138.06895700496557,-3.24249267578125e-05,0.0922218039631843,0,0,0
12917,450680.0814048952,2010-10-20 22:24:33,0.187670397374996,6,39,-1.9243103452026844e-05,4.190425872802734,38.83819907049612,37.86262408164317,155.11978696811488,138.06895700916922,0.0,0.0940094217658042,0,0,0
12918,450684.909449132,2010-10-20 22:24:38,5.015714659227613,6,39,0.0007031940040178,4.190425872802734,38.83819997845119,37.86262408180933,155.11979077304565,138.0689570098655,-9.70840483205393e-05,0.0940094217658042,0,0,0
12919,450714.91669886,2010-10-20 22:25:08,30.015087794194763,7,39,-1.0997490882873535,4.013160705566406,38.83819997845119,37.8717921790695,155.11979077304565,138.105948677432,-0.0009065627818927,0.0940094217658042,0,0,0
12920,450744.93173775234,2010-10-20 22:25:38,60.03012668149852,7,39,-1.0997490882873535,3.985802173614502,38.83819997845119,37.88096025936179,155.11979077304565,138.14260687568614,-0.0006151676061563,0.0940094217658042,0,0,0
12921,450774.9469056311,2010-10-20 22:26:08,90.04529456028872,7,39,-1.099568486213684,3.966861486434937,38.83819997845119,37.89012826329894,155.11979077304565,138.17905761883898,-0.0004209041653666,0.0940094217658042,0,0,0
12922,450804.9621243416,2010-10-20 22:26:38,120.06051330084208,7,39,-1.099568486213684,3.95212984085083,38.83819997845119,37.8992962615578,155.11979077304565,138.21535654925248,-0.0003561496851034,0.0940094217658042,0,0,0
12923,450834.9774229211,2010-10-20 22:27:08,150.07581189040377,7,39,-1.0997490882873535,3.939826488494873,38.83819997845119,37.90846452739116,155.11979077304565,138.25153383091185,-0.0003237724304199,0.0940094217658042,0,0,0
12924,450864.99257393286,2010-10-20 22:27:38,180.09096289213116,7,39,-1.0997490882873535,3.9289801120758057,38.83819997845119,37.917633341059656,155.11979077304565,138.2876075321453,-0.0002913951757363,0.0940094217658042,0,0,0
12925,450895.00764885,2010-10-20 22:28:08,210.10603778918227,7,39,-1.099568486213684,3.919105052947998,38.83819997845119,37.92680193167928,155.11979077304565,138.32358516501998,-0.0002913951757363,0.0940094217658042,0,0,0
12926,450925.0228402976,2010-10-20 22:28:38,240.1212292216756,7,39,-1.099568486213684,3.9097158908844,38.83819997845119,37.935969997051664,155.11979077304565,138.3594722525977,-0.0002266406954731,0.0940094217658042,0,0,0
12927,450955.03809864674,2010-10-20 22:29:08,270.1364876160585,7,39,-1.0997490882873535,3.900812149047852,38.83819997845119,37.945138036024936,155.11979077304565,138.39527515574574,-0.0002590179501567,0.0940094217658042,0,0,0
12928,450985.05316179455,2010-10-20 22:29:39,300.15155075881427,7,39,-1.099568486213684,3.891908407211304,38.83819997845119,37.95430599600965,155.11979077304565,138.43099675081234,-0.0002590179501567,0.0940094217658042,0,0,0
12929,451015.06844905583,2010-10-20 22:30:09,330.1668379900676,7,39,-1.099568486213684,3.8838140964508057,38.83819997845119,37.963474111205,155.11979077304565,138.46664102900138,-0.0001618862152099,0.0940094217658042,0,0,0
12930,451045.0835291258,2010-10-20 22:30:39,360.1819180800611,7,39,-1.0997490882873535,3.875396013259888,38.83819997845119,37.97264212017046,155.11979077304565,138.50220837881733,-0.0002266406954731,0.0940094217658042,0,0,0
12931,451075.0986801376,2010-10-20 22:31:09,390.1970691018385,7,39,-1.099568486213684,3.8673017024993896,38.83819997845119,37.98181017863728,155.11979077304565,138.53770074745592,-0.0002266406954731,0.0940094217658042,0,0,0
12932,451105.1138502118,2010-10-20 22:31:39,420.212239141013,7,39,-1.0997490882873535,3.8593692779541016,38.83819997845119,37.99097825840269,155.11979077304565,138.5731198295726,-0.0001942634553415,0.0940094217658042,0,0,0
12933,451135.1290366269,2010-10-20 22:32:09,450.22742559108855,7,39,-1.099568486213684,3.851598739624024,38.83819997845119,38.000146345816574,155.11979077304565,138.6084669186331,-0.0002266406954731,0.0940094217658042,0,0,0
12934,451165.144213052,2010-10-20 22:32:39,480.2426019760789,7,39,-1.099568486213684,3.8439900875091553,38.83819997845119,38.00931447066959,155.11979077304565,138.64374327636693,-0.0001942634553415,0.0940094217658042,0,0,0
12935,451195.1593822941,2010-10-20 22:33:09,510.2577712333045,7,39,-1.099568486213684,3.836381435394287,38.83819997845119,38.018482594562265,155.11979077304565,138.6789497879896,-0.0001942634553415,0.0940094217658042,0,0,0
12936,451225.1745535663,2010-10-20 22:33:39,540.2729424955273,7,39,-1.099568486213684,3.828934907913208,38.83819997845119,38.027650720293416,155.11979077304565,138.7140876580831,-0.0002266406954731,0.0940094217658042,0,0,0
12937,451255.1897596503,2010-10-20 22:34:09,570.2881486296617,7,39,-1.0997490882873535,3.82165002822876,38.83819997845119,38.03681881364819,155.11979077304565,138.74915774938097,-0.0001618862152099,0.0940094217658042,0,0,0
12938,451285.2049375391,2010-10-20 22:34:39,600.3033265033623,7,39,-1.0997490882873535,3.814365148544312,38.83819997845119,38.045986961135085,155.11979077304565,138.78416207917968,-0.0002266406954731,0.0940094217658042,0,0,0
12939,451315.22010866593,2010-10-20 22:35:09,630.3184977756099,7,39,-1.099568486213684,3.807242155075073,38.83819997845119,38.05515506339036,155.11979077304565,138.81910060480732,-0.0001942634553415,0.0940094217658042,0,0,0
12940,451345.2352607203,2010-10-20 22:35:39,660.3336496444986,7,39,-1.099568486213684,3.800442934036255,38.83819997845119,38.06432312986691,155.11979077304565,138.85397450841324,-0.0001942634553415,0.0940094217658042,0,0,0
12941,451375.250438193,2010-10-20 22:36:09,690.3488271272248,7,39,-1.0997490882873535,3.793643712997437,38.83819997845119,38.07349125539316,155.11979077304565,138.88878606886524,-0.0001942634553415,0.0940094217658042,0,0,0
12942,451405.26562290377,2010-10-20 22:36:39,720.3640118329529,7,39,-1.0997490882873535,3.786844491958618,38.83819997845119,38.08265934343766,155.11979077304565,138.92353559814484,-0.0001942634553415,0.0940094217658042,0,0,0
12943,451435.28078650194,2010-10-20 22:37:09,750.3791754310744,7,39,-1.099568486213684,3.78036904335022,38.83819997845119,38.09182745189887,155.11979077304565,138.95822449226748,-0.0001618862152099,0.0940094217658042,0,0,0
12944,451465.29598322255,2010-10-20 22:37:39,780.3943722620222,7,39,-1.099568486213684,3.7740554809570312,38.83819997845119,38.10099556445095,155.11979077304565,138.9928546946652,-0.0001942634553415,0.0940094217658042,0,0,0
12945,451495.3111459084,2010-10-20 22:38:09,810.4095348576453,7,39,-1.099568486213684,3.7679038047790527,38.83819997845119,38.11016370053133,155.11979077304565,139.0274276588437,-0.0001942634553415,0.0940094217658042,0,0,0
12946,451525.32633142616,2010-10-20 22:38:39,840.4247203804096,7,39,-1.0997490882873535,3.761752128601074,38.83819997845119,38.11933182958119,155.11979077304565,139.06194414277255,-0.0001618862152099,0.0940094217658042,0,0,0
12947,451555.34148893406,2010-10-20 22:39:09,870.4398778883525,7,39,-1.0997490882873535,3.7557623386383057,38.83819997845119,38.12849995236774,155.11979077304565,139.09640534039858,-0.0001942634553415,0.0940094217658042,0,0,0
12948,451585.3567884159,2010-10-20 22:39:39,900.4551773500879,7,39,-1.0997490882873535,3.749772787094116,38.83819997845119,38.1376681671043,155.11979077304565,139.13081237241863,-0.0002266406954731,0.0940094217658042,0,0,0
12949,451615.3718427417,2010-10-20 22:40:09,930.4702316708566,7,39,-1.099568486213684,3.7442686557769775,38.83819997845119,38.14683633956664,155.11979077304565,139.1651659696106,-0.0001295089750783,0.0940094217658042,0,0,0
12950,451645.3872396814,2010-10-20 22:40:39,960.485628640612,7,39,-1.0997490882873535,3.738602638244629,38.83819997845119,38.15600458987715,155.11979077304565,139.19946735406594,-0.0001295089750783,0.0940094217658042,0,0,0
12951,451675.402438798,2010-10-20 22:41:09,990.5008278825688,7,39,-1.0997490882873535,3.73309850692749,38.83819997845119,38.16517270459532,155.11979077304565,139.23371736383285,-0.0001618862152099,0.0940094217658042,0,0,0
12952,451705.41751434666,2010-10-20 22:41:39,1020.5159033209692,7,39,-1.0997490882873535,3.727594375610352,38.83819997845119,38.17434085170133,155.11979077304565,139.2679170691165,-0.0001618862152099,0.0940094217658042,0,0,0
12953,451735.4325557503,2010-10-20 22:42:09,1050.530944709507,7,39,-1.099568486213684,3.722090244293213,38.83819997845119,38.18350899426459,155.11979077304565,139.30206735606237,-0.0001942634553415,0.0940094217658042,0,0,0
12954,451765.4477402805,2010-10-20 22:42:39,1080.5461292097227,7,39,-1.099568486213684,3.716909885406494,38.83819997845119,38.19267713938911,155.11979077304565,139.33616873745586,-0.0001295089750783,0.0940094217658042,0,0,0
12955,451795.46302603313,2010-10-20 22:43:09,1110.561414967303,7,39,-1.0997490882873535,3.711567640304565,38.83819997845119,38.20184541943412,155.11979077304565,139.37022235737973,-0.0001618862152099,0.0940094217658042,0,0,0
12956,451825.4780825243,2010-10-20 22:43:39,1140.5764714534685,7,39,-1.099568486213684,3.7065491676330566,38.83819997845119,38.21101359765781,155.11979077304565,139.4042281972851,-0.0001295089750783,0.0940094217658042,0,0,0
12957,451855.4932508342,2010-10-20 22:44:09,1170.5916397583208,7,39,-1.0997490882873535,3.701368808746338,38.83819997845119,38.2201818260624,155.11979077304565,139.43818756955096,-0.0001942634553415,0.0940094217658042,0,0,0
12958,451885.50846323394,2010-10-20 22:44:39,1200.6068521881457,7,39,-1.099568486213684,3.696512222290039,38.83819997845119,38.22935007156721,155.11979077304565,139.47210065595732,-0.0001295089750783,0.0940094217658042,0,0,0
12959,451915.5235921957,2010-10-20 22:45:09,1230.6219811248804,7,39,-1.0993878841400146,3.69165563583374,38.83819997845119,38.23851806164754,155.11979077304565,139.505967260189,-9.713172767078504e-05,0.0940094217658042,0,0,0
12960,451945.53873494186,2010-10-20 22:45:39,1260.63712392617,7,39,-1.099568486213684,3.686637163162232,38.83819997845119,38.24768554180796,155.11979077304565,139.5397872728499,-0.0001295089750783,0.0940094217658042,0,0,0
12961,451975.5540577969,2010-10-20 22:46:09,1290.6524467310835,7,39,-1.099568486213684,3.6817805767059326,38.83819997845119,38.25685317599124,155.11979077304565,139.57356350426306,-0.0001295089750783,0.0940094217658042,0,0,0
12962,452005.5692416756,2010-10-20 22:46:39,1320.6676306097504,7,39,-1.099568486213684,3.6772477626800537,38.83819997845119,38.26602065288536,155.11979077304565,139.60729515449475,-6.47544875391759e-05,0.0940094217658042,0,0,0
12963,452035.58428851765,2010-10-20 22:47:09,1350.6826774468675,7,39,-1.0993878841400146,3.672553062438965,38.83819997845119,38.27518802135834,155.11979077304565,139.6409834653534,-9.713172767078504e-05,0.0940094217658042,0,0,0
12964,452065.5997309858,2010-10-20 22:47:39,1380.698119925044,7,39,-1.0997490882873535,3.667858600616455,38.83819997845119,38.28435563255373,155.11979077304565,139.67462999763356,-0.0001295089750783,0.0940094217658042,0,0,0
12965,452095.6146757786,2010-10-20 22:48:09,1410.7130647027975,7,39,-1.0993878841400146,3.663487672805786,38.83819997845119,38.29352311760678,155.11979077304565,139.70823422906878,-6.47544875391759e-05,0.0940094217658042,0,0,0
12966,452125.629839076,2010-10-20 22:48:39,1440.7282280051822,7,39,-1.0997490882873535,3.6589548587799072,38.83819997845119,38.30269125280971,155.11979077304565,139.7417997726688,-9.713172767078504e-05,0.0940094217658042,0,0,0
12967,452155.645005441,2010-10-20 22:49:09,1470.7433943701997,7,39,-1.099568486213684,3.6545839309692383,38.83819997845119,38.311859311948126,155.11979077304565,139.7753243458785,-6.47544875391759e-05,0.0940094217658042,0,0,0
12968,452185.66028439166,2010-10-20 22:49:39,1500.75867333084,7,39,-1.0997490882873535,3.65005111694336,38.83819997845119,38.32102740869205,155.11979077304565,139.80880910370905,-0.0001618862152099,0.0940094217658042,0,0,0
12969,452215.6753422061,2010-10-20 22:50:09,1530.7737311503283,7,39,-1.0997490882873535,3.6456801891326895,38.83819997845119,38.33019543365785,155.11979077304565,139.84225417348722,-0.0001295089750783,0.0940094217658042,0,0,0
12970,452245.6905851069,2010-10-20 22:50:39,1560.788974166384,7,39,-1.0993878841400146,3.641956806182861,38.83819997845119,38.33936344922983,155.11979077304565,139.87566092681655,-6.47544875391759e-05,0.0940094217658042,0,0,0
12971,452275.7056726103,2010-10-20 22:51:09,1590.8040615796292,7,39,-1.099568486213684,3.6377477645874015,38.83819997845119,38.34853150958947,155.11979077304565,139.90903008065203,-6.47544875391759e-05,0.0940094217658042,0,0,0
12972,452305.7210107184,2010-10-20 22:51:39,1620.8193997227706,7,39,-1.099568486213684,3.633700609207153,38.83819997845119,38.35769965370016,155.11979077304565,139.94236258630468,-9.713172767078504e-05,0.0940094217658042,0,0,0
12973,452335.73603526,2010-10-20 22:52:09,1650.8344241941454,7,39,-1.0993878841400146,3.629815340042114,38.83819997845119,38.36686764424981,155.11979077304565,139.9756583362124,-0.0001295089750783,0.0940094217658042,0,0,0
12974,452365.7512976543,2010-10-20 22:52:39,1680.8496865784723,7,39,-1.099568486213684,3.626091957092285,38.83819997845119,38.37603578803356,155.11979077304565,140.00891902846473,-6.47544875391759e-05,0.0940094217658042,0,0,0
12975,452395.7665380789,2010-10-20 22:53:09,1710.8649270682315,7,39,-1.0997490882873535,3.622044801712036,38.83819997845119,38.385203924029085,155.11979077304565,140.04214503251478,-0.0001295089750783,0.0940094217658042,0,0,0
12976,452425.78163457976,2010-10-20 22:53:39,1740.8800235340386,7,39,-1.099568486213684,3.618483304977417,38.83819997845119,38.39437208402096,155.11979077304565,140.07533703041736,-9.713172767078504e-05,0.0940094217658042,0,0,0
12977,452455.796812629,2010-10-20 22:54:09,1770.8952015631266,7,39,-1.0997490882873535,3.614921808242798,38.83819997845119,38.4035402589188,155.11979077304565,140.10849558814073,-9.713172767078504e-05,0.0940094217658042,0,0,0
12978,452485.8120080864,2010-10-20 22:54:39,1800.9103970507265,7,39,-1.099568486213684,3.6111984252929688,38.83819997845119,38.41270845547918,155.11979077304565,140.14162169573262,-9.713172767078504e-05,0.0940094217658042,0,0,0
12979,452515.82736204896,2010-10-20 22:55:09,1830.9257510132943,7,39,-1.099568486213684,3.6079607009887695,38.83819997845119,38.42187664463676,155.11979077304565,140.1747160268064,-9.713172767078504e-05,0.0940094217658042,0,0,0
12980,452545.8423777586,2010-10-20 22:55:39,1860.940767554906,7,39,-1.099568486213684,3.6047229766845694,38.83819997845119,38.43104471965764,155.11979077304565,140.2077791268017,-9.713172767078504e-05,0.0940094217658042,0,0,0
12981,452575.8576896463,2010-10-20 22:56:09,1890.956078620562,7,39,-1.099568486213684,3.601485252380371,38.83819997845119,38.440212835775,155.11979077304565,140.2408124256084,-9.713172767078504e-05,0.0940094217658042,0,0,0
12982,452605.872914081,2010-10-20 22:56:39,1920.9713030954072,7,39,-1.099568486213684,3.598247528076172,38.83819997845119,38.44938099308397,155.11979077304565,140.27381602835572,-9.713172767078504e-05,0.0940094217658042,0,0,0
12983,452635.8878739714,2010-10-20 22:57:09,1950.9862629056263,7,39,-1.0997490882873535,3.5950098037719727,38.83819997845119,38.45854911710418,155.11979077304565,140.30679042366708,-9.713172767078504e-05,0.0940094217658042,0,0,0
12984,452665.90308186994,2010-10-20 22:57:39,1981.0014708442584,7,39,-1.0997490882873535,3.5919342041015625,38.83819997845119,38.467717312161696,155.11979077304565,140.3397365027984,-9.70840483205393e-05,0.0940094217658042,0,0,0
12985,452695.9182340446,2010-10-20 22:58:09,2011.0166229838208,7,39,-1.099568486213684,3.589020252227783,38.83819997845119,38.47688546758736,155.11979077304565,140.37265445563347,-6.47544875391759e-05,0.0940094217658042,0,0,0
12986,452725.93346981256,2010-10-20 22:58:39,2041.0318588019368,7,39,-1.099568486213684,3.585944414138794,38.83819997845119,38.48605366368418,155.11979077304565,140.40554481698604,-6.47544875391759e-05,0.0940094217658042,0,0,0
12987,452755.9487145579,2010-10-20 22:59:09,2071.047103512215,7,39,-1.0997490882873535,3.5828685760498047,38.83819997845119,38.49522180350744,155.11979077304565,140.43840757996205,-9.713172767078504e-05,0.0940094217658042,0,0,0
12988,452785.96376028727,2010-10-20 22:59:39,2101.062149216509,7,39,-1.0997490882873535,3.5799546241760254,38.83819997845119,38.50438991997848,155.11979077304565,140.47124305143478,-6.47544875391759e-05,0.0940094217658042,0,0,0
12989,452815.9789521108,2010-10-20 23:00:09,2131.077341085089,7,39,-1.099568486213684,3.577040672302246,38.83819997845119,38.5135581845008,155.11979077304565,140.5040517324397,-9.713172767078504e-05,0.0940094217658042,0,0,0
12990,452845.99412575393,2010-10-20 23:00:39,2161.092514688146,7,39,-1.099568486213684,3.573964834213257,38.83819997845119,38.522726356957484,155.11979077304565,140.53683289817027,-0.0001295089750783,0.0940094217658042,0,0,0
12991,452876.0093019685,2010-10-20 23:01:09,2191.107690927773,7,39,-1.099568486213684,3.5712127685546875,38.83819997845119,38.53189456463584,155.11979077304565,140.5695870599545,-6.47544875391759e-05,0.0940094217658042,0,0,0
12992,452906.02448364167,2010-10-20 23:01:40,2221.1228725658566,7,39,-1.099568486213684,3.5681369304656982,38.83819997845119,38.54106283039148,155.11979077304565,140.60231437204976,-9.713172767078504e-05,0.0940094217658042,0,0,0
12993,452936.0396630693,2010-10-20 23:02:10,2251.138052058592,7,39,-1.0997490882873535,3.565222978591919,38.83819997845119,38.55023102306743,155.11979077304565,140.63501439350316,-3.237724376958795e-05,0.0940094217658042,0,0,0
12994,452966.054827309,2010-10-20 23:02:40,2281.153216278263,7,39,-1.099568486213684,3.5621471405029297,38.83819997845119,38.55939913884338,155.11979077304565,140.66768709737272,-0.0001295089750783,0.0940094217658042,0,0,0
12995,452996.0699954183,2010-10-20 23:03:10,2311.1683843475275,7,39,-1.099568486213684,3.5592331886291504,38.83819997845119,38.56856729559835,155.11979077304565,140.70033307966517,-6.47544875391759e-05,0.0940094217658042,0,0,0
12996,453026.08516930713,2010-10-20 23:03:40,2341.183558231284,7,39,-1.0997490882873535,3.556319236755371,38.83819997845119,38.57773542513284,155.11979077304565,140.7329512709777,-9.713172767078504e-05,0.0940094217658042,0,0,0
12997,453056.100477235,2010-10-20 23:04:10,2371.198866169145,7,39,-1.099568486213684,3.553081512451172,38.83819997845119,38.58690364748254,155.11979077304565,140.76554167179236,-9.713172767078504e-05,0.0940094217658042,0,0,0
12998,453086.115534919,2010-10-20 23:04:40,2401.213923858308,7,39,-1.099568486213684,3.5500056743621826,38.83819997845119,38.59607182691136,155.11979077304565,140.79810360017953,-9.713172767078504e-05,0.0940094217658042,0,0,0
12999,453116.1307017152,2010-10-20 23:05:10,2431.2290906594126,7,39,-1.0997490882873535,3.5467679500579834,38.83819997845119,38.60524002278424,155.11979077304565,140.83063675379915,-0.0001295089750783,0.0940094217658042,0,0,0
13000,453146.1459059045,2010-10-20 23:05:40,2461.2442948386747,7,39,-1.0997490882873535,3.543530225753784,38.83819997845119,38.6144082776534,155.11979077304565,140.8631405530943,-0.0001295089750783,0.0940094217658042,0,0,0
13001,453176.16107365285,2010-10-20 23:06:10,2491.259462652303,7,39,-1.099929690361023,3.540130615234375,38.83819997845119,38.623576481472575,155.11979077304565,140.8956138990571,-9.713172767078504e-05,0.0940094217658042,0,0,0
13002,453206.1762463286,2010-10-20 23:06:40,2521.274635262886,7,39,-1.099568486213684,3.536892890930176,38.83819997845119,38.63274471061297,155.11979077304565,140.92805603989032,-9.713172767078504e-05,0.0940094217658042,0,0,0
13003,453236.1914219016,2010-10-20 23:07:10,2551.2898108759523,7,39,-1.099568486213684,3.5333313941955566,38.83819997845119,38.64191297683326,155.11979077304565,140.96046620299035,-9.713172767078504e-05,0.0940094217658042,0,0,0
13004,453266.20660306845,2010-10-20 23:07:40,2581.304992097998,7,39,-1.099568486213684,3.5296080112457275,38.83819997845119,38.65108119083945,155.11979077304565,140.99284319642632,-0.0001295089750783,0.0940094217658042,0,0,0
13005,453296.2219031819,2010-10-20 23:08:10,2611.320292126145,7,39,-1.099568486213684,3.5258846282958984,38.83819997845119,38.66024944340224,155.11979077304565,141.02518618903812,-9.713172767078504e-05,0.0940094217658042,0,0,0
13006,453326.2369867807,2010-10-20 23:08:40,2641.335375724884,7,39,-1.0997490882873535,3.5218374729156494,38.83819997845119,38.66941763279016,155.11979077304565,141.0574934976787,-9.713172767078504e-05,0.0940094217658042,0,0,0
13007,453356.2521286396,2010-10-20 23:09:10,2671.350517578812,7,39,-1.0997490882873535,3.5176284313201904,38.83819997845119,38.67858585947593,155.11979077304565,141.08976411245806,-0.0001295089750783,0.0940094217658042,0,0,0
13008,453386.2674106929,2010-10-20 23:09:40,2701.365799627148,7,39,-1.099568486213684,3.513257503509521,38.83819997845119,38.68775411681147,155.11979077304565,141.12199569526533,-0.0001295089750783,0.0940094217658042,0,0,0
13009,453416.2824311192,2010-10-20 23:10:10,2731.380820083516,7,39,-1.099568486213684,3.5087249279022217,38.83819997845119,38.69692227577077,155.11979077304565,141.15418524454756,-0.0001295089750783,0.0940094217658042,0,0,0
13010,453446.297692862,2010-10-20 23:10:40,2761.396081796169,7,39,-1.099568486213684,3.503544569015503,38.83819997845119,38.70609057850603,155.11979077304565,141.18633093579027,-0.0001295089750783,0.0940094217658042,0,0,0
13011,453476.31285568816,2010-10-20 23:11:10,2791.411244752692,7,39,-1.099568486213684,3.4980404376983643,38.83819997845119,38.71525879321299,155.11979077304565,141.2184280603339,-0.0001618862152099,0.0940094217658042,0,0,0
13012,453506.3281629342,2010-10-20 23:11:40,2821.426551868503,7,39,-1.099568486213684,3.492050647735596,38.83819997845119,38.72442710273517,155.11979077304565,141.25047254630533,-0.0001942634553415,0.0940094217658042,0,0,0
13013,453536.34320979146,2010-10-20 23:12:10,2851.4415987206576,7,39,-1.099568486213684,3.4854133129119877,38.83819997845119,38.73359527481724,155.11979077304565,141.28245765372947,-0.0001618862152099,0.0940094217658042,0,0,0
13014,453566.358778785,2010-10-20 23:12:40,2881.457167944724,7,39,-1.099568486213684,3.477480888366699,38.83819997845119,38.742763595954,155.11979077304565,141.31437678067329,-0.0002266406954731,0.0940094217658042,0,0,0
13015,453596.3606149219,2010-10-20 23:13:10,2911.459004006524,7,39,-1.099568486213684,3.4687390327453613,38.83819997845119,38.75192767262822,155.11979077304565,141.3462055390541,-0.0002266406954731,0.0940094217658042,0,0,0
13016,453626.3731916728,2010-10-20 23:13:40,2941.471580752413,7,39,-1.099568486213684,3.458702087402344,38.83819997845119,38.76109509057363,155.11979077304565,141.3779591515968,-0.0002266406954731,0.0940094217658042,0,0,0
13017,453656.3884275561,2010-10-20 23:14:10,2971.486816525417,7,39,-1.0997490882873535,3.4463987350463867,38.83819997845119,38.77026333871533,155.11979077304565,141.40961416580163,-0.0003885269106831,0.0940094217658042,0,0,0
13018,453686.403479541,2010-10-20 23:14:40,3001.5018684752768,7,39,-1.099568486213684,3.43215274810791,38.83819997845119,38.77943156647383,155.11979077304565,141.44114842180025,-0.0003561496851034,0.0940094217658042,0,0,0
13019,453716.4186956601,2010-10-20 23:15:10,3031.517084619359,7,39,-1.099568486213684,3.4140217304229736,38.83819997845119,38.78859975957904,155.11979077304565,141.47253494077722,-0.0005504131549969,0.0940094217658042,0,0,0
13020,453746.4339749265,2010-10-20 23:15:40,3061.5323639559365,7,39,-1.099568486213684,3.390872001647949,38.83819997845119,38.79776801439751,155.11979077304565,141.50373436926415,-0.0007122993702068,0.0940094217658042,0,0,0
13021,453776.4490133727,2010-10-20 23:16:10,3091.5474023369784,7,39,-1.099568486213684,3.3596279621124268,38.83819997845119,38.80693614926316,155.11979077304565,141.53468632677829,-0.0009389400365762,0.0940094217658042,0,0,0
13022,453806.464341155,2010-10-20 23:16:40,3121.5627300892224,7,39,-1.0993878841400146,3.3157570362091064,38.83819997845119,38.81610439850087,155.11979077304565,141.5652980508525,-0.0013598442310467,0.0940094217658042,0,0,0
13023,453836.47938307485,2010-10-20 23:17:10,3151.5777721043214,7,39,-1.0997490882873535,3.2529454231262207,38.83819997845119,38.825272534994575,155.11979077304565,141.59542688424983,-0.0019426345825195,0.0940094217658042,0,0,0
13024,453866.49455551006,2010-10-20 23:17:40,3181.592944434205,7,39,-1.099568486213684,3.160184860229492,38.83819997845119,38.83444074406942,155.11979077304565,141.6248546383276,-0.0028815746773034,0.0940094217658042,0,0,0
13025,453896.50980111246,2010-10-20 23:18:10,3211.6081901820694,7,39,-1.099568486213684,3.007850408554077,38.83819997845119,38.843608972871024,155.11979077304565,141.65319871271353,-0.0053745745681226,0.0940094217658042,0,0,0
13026,453916.15019141336,2010-10-20 23:18:30,3231.248580357584,7,39,-1.0997490882873535,2.8075976371765137,38.83819997845119,38.84960815419616,155.11979077304565,141.67071088744956,-0.0104902265593409,0.0940094217658042,0,0,0
13027,453923.41572834697,2010-10-20 23:18:37,3238.514117311222,7,39,-1.099568486213684,2.699943780899048,38.83819997845119,38.85182742018565,155.11979077304565,141.67682483094032,-0.0121737960726022,0.0940094217658042,0,0,0
13028,453983.424083969,2010-10-20 23:19:37,60.014740699898205,8,39,0.0,3.3319456577301025,38.83819997845119,38.85182742018565,155.11979077304565,141.67682483094032,0.0013922214275225,0.0940094217658042,0,0,0
13029,453983.60629577725,2010-10-20 23:19:37,0.187564037292945,9,39,-1.9243103452026844e-05,3.3321075439453125,38.83819997845119,38.85182742118823,155.11979077304565,141.67682483428106,0.0,0.0915781408548355,0,0,0
13030,453988.4341490432,2010-10-20 23:19:42,5.01541720788735,9,39,0.0007031940040178,3.3405256271362305,38.8382008401555,38.851827421354194,155.11979364838604,141.67682483483406,0.0011979580158367,0.0915781408548355,0,0,0
