Data_Point,Test_Time(s),Date_Time,Step_Time(s),Step_Index,Cycle_Index,Current(A),Voltage(V),Charge_Capacity(Ah),Discharge_Capacity(Ah),Charge_Energy(Wh),Discharge_Energy(Wh),dV/dt(V/s),Internal_Resistance(Ohm),Is_FC_Data,AC_Impedance(Ohm),ACI_Phase_Angle(Deg)
13363,465597.9944547597,2010-10-21 02:33:13,30.015179683210462,1,41,0.0,3.374359607696533,39.827473770787726,39.84222072867617,159.07074092646624,145.29112044180368,0.0008094310760498,0.0929468795657157,0,0,0
13364,465628.0099248216,2010-10-21 02:33:43,60.03064975014652,1,41,0.0,3.399613857269287,39.827473770787726,39.84222072867617,159.07074092646624,145.29112044180368,0.0005180359003134,0.0929468795657157,0,0,0
13365,465658.02494506247,2010-10-21 02:34:13,90.04567000100249,1,41,0.0,3.4190402030944824,39.827473770787726,39.84222072867617,159.07074092646624,145.29112044180368,0.0004532813909463,0.0929468795657157,0,0,0
13366,465687.9931297898,2010-10-21 02:34:43,120.01385473834787,1,41,0.0,3.4344191551208496,39.827473770787726,39.84222072867617,159.07074092646624,145.29112044180368,0.0003561496851034,0.0929468795657157,0,0,0
13367,465718.0035373588,2010-10-21 02:35:13,30.01520380332521,2,41,0.5501165986061096,3.589991569519043,39.83206019611342,39.84222072867617,159.0870400445012,145.29112044180368,0.0016188621520996,0.0929468795657157,0,0,0
13368,465748.0187373426,2010-10-21 02:35:43,60.03040387735587,2,41,0.5501165986061096,3.639042854309082,39.83664669273897,39.84222072867617,159.10362527965057,145.29112044180368,0.0010684489971026,0.0929468795657157,0,0,0
13369,465778.0339008957,2010-10-21 02:36:13,90.04556734515253,2,41,0.5501165986061096,3.674495697021485,39.84123303835817,39.84222072867617,159.12040018137083,145.29112044180368,0.0008093834039755,0.0929468795657157,0,0,0
13370,465808.04908539087,2010-10-21 02:36:43,120.06075186541842,2,41,0.550297200679779,3.702178239822388,39.84581945710465,39.84222072867617,159.13731840014725,145.29112044180368,0.0006475448608398,0.0929468795657157,0,0,0
13371,465838.0642796554,2010-10-21 02:37:13,150.07594609989513,2,41,0.5499359965324402,3.7245185375213614,39.85040588801792,39.84222072867617,159.15435095213263,145.29112044180368,0.0005180359003134,0.0929468795657157,0,0,0
13372,465868.0795742952,2010-10-21 02:37:43,180.0912407346001,2,41,0.5501165986061096,3.743135452270508,39.854992235405895,39.84222072867617,159.17147676419793,145.29112044180368,0.0004856586456298,0.0929468795657157,0,0,0
13373,465898.09464025486,2010-10-21 02:38:13,210.10630669938925,2,41,0.5501165986061096,3.757381200790405,39.85957852802855,39.84222072867617,159.1886784145357,145.29112044180368,0.0003237724304199,0.0929468795657157,0,0,0
13374,465928.10982443433,2010-10-21 02:38:43,240.12149089384312,2,41,0.5499359965324402,3.766770601272583,39.86416490664653,39.84222072867617,159.2059350498062,145.29112044180368,0.0001618862152099,0.0929468795657157,0,0,0
13375,465958.125242642,2010-10-21 02:39:13,270.136909111555,2,41,0.5499359965324402,3.7722747325897217,39.86875130285149,39.84222072867617,159.22322474159574,145.29112044180368,9.713172767078504e-05,0.0929468795657157,0,0,0
13376,465988.14023399085,2010-10-21 02:39:43,300.15190046037816,2,41,0.5499359965324402,3.7764837741851807,39.87333767220818,39.84222072867617,159.24053577344148,145.29112044180368,0.0001295089750783,0.0929468795657157,0,0,0
13377,466018.1554077192,2010-10-21 02:40:13,330.16707419375985,2,41,0.5501165986061096,3.7800452709198,39.87792397884853,39.84222072867617,159.25786429507343,145.29112044180368,6.47544875391759e-05,0.0929468795657157,0,0,0
13378,466048.1705798285,2010-10-21 02:40:43,360.1822462730189,2,41,0.5501165986061096,3.783930540084839,39.88251031152456,39.84222072867617,159.27520966854755,145.29112044180368,0.0001295089750783,0.0929468795657157,0,0,0
13379,466078.1857847196,2010-10-21 02:41:13,390.1974511640551,2,41,0.5501165986061096,3.787330150604248,39.887096716032616,39.84222072867617,159.2925718051043,145.29112044180368,9.713172767078504e-05,0.0929468795657157,0,0,0
13380,466108.2010800811,2010-10-21 02:41:43,420.21274655564633,2,41,0.5501165986061096,3.790729761123657,39.89168313687728,39.84222072867617,159.30995006274327,145.29112044180368,6.47544875391759e-05,0.0929468795657157,0,0,0
13381,466138.216151349,2010-10-21 02:42:13,450.2278180592399,2,41,0.5501165986061096,3.7941293716430655,39.89626947079147,39.84222072867617,159.3273435754689,145.29112044180368,6.47544875391759e-05,0.0929468795657157,0,0,0
13382,466168.2313548717,2010-10-21 02:42:43,480.24302134627845,2,41,0.5501165986061096,3.7973670959472656,39.900855827815725,39.84222072867617,159.34475261039188,145.29112044180368,3.237724376958795e-05,0.0929468795657157,0,0,0
13383,466198.2465336276,2010-10-21 02:43:13,510.2582000721028,2,41,0.5501165986061096,3.800604820251465,39.90544221629189,39.84222072867617,159.36217678630996,145.29112044180368,6.47544875391759e-05,0.0929468795657157,0,0,0
13384,466228.2617008448,2010-10-21 02:43:43,540.2733673143065,2,41,0.5501165986061096,3.804004430770874,39.91002860419922,39.84222072867617,159.37961571378278,145.29112044180368,6.47544875391759e-05,0.0929468795657157,0,0,0
13385,466258.2768884326,2010-10-21 02:44:14,570.2885548771553,2,41,0.5499359965324402,3.8070802688598633,39.91461502027726,39.84222072867617,159.3970694428941,145.29112044180368,6.47544875391759e-05,0.0929468795657157,0,0,0
13386,466288.29212450143,2010-10-21 02:44:44,600.3037910661957,2,41,0.5501165986061096,3.8103179931640634,39.91920147064573,39.84222072867617,159.4145377674517,145.29112044180368,9.713172767078504e-05,0.0929468795657157,0,0,0
13387,466318.3072702551,2010-10-21 02:45:14,630.3189367296185,2,41,0.5499359965324402,3.813393831253052,39.92378751926913,39.84222072867617,159.43201884158913,145.29112044180368,9.713172767078504e-05,0.0929468795657157,0,0,0
13388,466348.3224458832,2010-10-21 02:45:44,660.3341123276474,2,41,0.5499359965324402,3.816469669342041,39.92837301376463,39.84222072867617,159.44951232689004,145.29112044180368,9.713172767078504e-05,0.0929468795657157,0,0,0
13389,466378.33780391584,2010-10-21 02:46:14,690.3494703703847,2,41,0.5501165986061096,3.8195455074310303,39.93295895716466,39.84222072867617,159.46702193253662,145.29112044180368,6.47544875391759e-05,0.0929468795657157,0,0,0
13390,466408.35285414144,2010-10-21 02:46:44,720.3645205959468,2,41,0.5501165986061096,3.82294511795044,39.937545390288925,39.84222072867617,159.48454808091563,145.29112044180368,9.713172767078504e-05,0.0929468795657157,0,0,0
13391,466438.3680634986,2010-10-21 02:47:14,750.3797299731639,2,41,0.5501165986061096,3.8260209560394287,39.94213177321623,39.84222072867617,159.50208885838055,145.29112044180368,6.47544875391759e-05,0.0929468795657157,0,0,0
13392,466468.38330770266,2010-10-21 02:47:44,780.3949741521176,2,41,0.550297200679779,3.829744338989258,39.94671814300812,39.84222072867617,159.519644822411,145.29112044180368,0.0001618862152099,0.0929468795657157,0,0,0
13393,466498.3984041333,2010-10-21 02:48:14,810.4100705828371,2,41,0.5501165986061096,3.832820177078247,39.951304541374434,39.84222072867617,159.5372164762973,145.29112044180368,6.47544875391759e-05,0.0929468795657157,0,0,0
13394,466528.4135898767,2010-10-21 02:48:44,840.4252563261512,2,41,0.5501165986061096,3.836381435394287,39.95589091650517,39.84222072867617,159.55480374920643,145.29112044180368,6.47544875391759e-05,0.0929468795657157,0,0,0
13395,466558.4289244509,2010-10-21 02:49:14,870.4405909856102,2,41,0.5501165986061096,3.839942932128906,39.960477234861166,39.84222072867617,159.5724067014115,145.29112044180368,6.47544875391759e-05,0.0929468795657157,0,0,0
13396,466588.444006556,2010-10-21 02:49:44,900.4556730254635,2,41,0.550297200679779,3.843342542648315,39.96506355204209,39.84222072867617,159.59002544190702,145.29112044180368,9.713172767078504e-05,0.0929468795657157,0,0,0
13397,466618.4591656428,2010-10-21 02:50:14,930.4708322075788,2,41,0.5499359965324402,3.846580266952514,39.96964993076394,39.84222072867617,159.6076599395478,145.29112044180368,3.237724376958795e-05,0.0929468795657157,0,0,0
13398,466648.474342123,2010-10-21 02:50:44,960.4860085675068,2,41,0.5501165986061096,3.849979877471924,39.97423628371588,39.84222072867617,159.6253096987432,145.29112044180368,6.47544875391759e-05,0.0929468795657157,0,0,0
13399,466678.4895436607,2010-10-21 02:51:14,990.50121023551,2,41,0.5501165986061096,3.853379487991333,39.97882269467944,39.84222072867617,159.64297479719465,145.29112044180368,0.0001295089750783,0.0929468795657157,0,0,0
13400,466708.5047092538,2010-10-21 02:51:44,1020.5163756932662,2,41,0.550297200679779,3.856455326080322,39.98340907607989,39.84222072867617,159.66065442645467,145.29112044180368,9.713172767078504e-05,0.0929468795657157,0,0,0
13401,466738.5199030121,2010-10-21 02:52:14,1050.5315694565686,2,41,0.5499359965324402,3.859531164169312,39.98799548020355,39.84222072867617,159.6783486539447,145.29112044180368,9.713172767078504e-05,0.0929468795657157,0,0,0
13402,466768.5350927203,2010-10-21 02:52:44,1080.5467592499767,2,41,0.5501165986061096,3.862607002258301,39.99258185324816,39.84222072867617,159.69605683537492,145.29112044180368,6.47544875391759e-05,0.0929468795657157,0,0,0
13403,466798.5503362826,2010-10-21 02:53:14,1110.5620028775566,2,41,0.5501165986061096,3.86552095413208,39.99716826033621,39.84222072867617,159.71377881796835,145.29112044180368,9.713172767078504e-05,0.0929468795657157,0,0,0
13404,466828.5654639864,2010-10-21 02:53:44,1140.577130430843,2,41,0.5499359965324402,3.8682730197906494,40.00175465551639,39.84222072867617,159.73151392636635,145.29112044180368,6.47544875391759e-05,0.0929468795657157,0,0,0
13405,466858.58073129295,2010-10-21 02:54:14,1170.592397797588,2,41,0.5501165986061096,3.8710250854492183,40.00634106044654,39.84222072867617,159.74926172671115,145.29112044180368,9.713172767078504e-05,0.0929468795657157,0,0,0
13406,466888.59584123234,2010-10-21 02:54:44,1200.6075077670505,2,41,0.5501165986061096,3.873615264892578,40.0109274559388,39.84222072867617,159.76702155462402,145.29112044180368,6.47544875391759e-05,0.0929468795657157,0,0,0
13407,466918.6110441434,2010-10-21 02:55:14,1230.622710703214,2,41,0.5501165986061096,3.8758816719055176,40.01551390228172,39.84222072867617,159.784792915767,145.29112044180368,6.47544875391759e-05,0.0929468795657157,0,0,0
13408,466948.6262703626,2010-10-21 02:55:44,1260.6379369374442,2,41,0.5501165986061096,3.878309965133667,40.02010033717658,39.84222072867617,159.8025750718826,145.29112044180368,9.713172767078504e-05,0.0929468795657157,0,0,0
13409,466978.6414359958,2010-10-21 02:56:14,1290.6531025255254,2,41,0.5499359965324402,3.880414485931397,40.02468674217902,39.84222072867617,159.82036725833717,145.29112044180368,3.237724376958795e-05,0.0929468795657157,0,0,0
13410,467008.6566251576,2010-10-21 02:56:44,1320.6682916071595,2,41,0.5499359965324402,3.882357120513916,40.02927310802625,39.84222072867617,159.83816879560544,145.29112044180368,6.47544875391759e-05,0.0929468795657157,0,0,0
13411,467038.6718040689,2010-10-21 02:57:14,1350.683470518446,2,41,0.5499359965324402,3.884299755096436,40.03385953185326,39.84222072867617,159.8559795094151,145.29112044180368,6.47544875391759e-05,0.0929468795657157,0,0,0
13412,467068.6870972099,2010-10-21 02:57:44,1380.6987636644408,2,41,0.5501165986061096,3.886080503463745,40.0384460252349,39.84222072867617,159.8737986902252,145.29112044180368,6.47544875391759e-05,0.0929468795657157,0,0,0
13413,467098.7022748932,2010-10-21 02:58:14,1410.7139413526788,2,41,0.5501165986061096,3.887861251831055,40.0430324379665,39.84222072867617,159.89162527672676,145.29112044180368,9.713172767078504e-05,0.0929468795657157,0,0,0
13414,467128.7173393943,2010-10-21 02:58:44,1440.7290058538204,2,41,0.5499359965324402,3.8891563415527344,40.04761884592104,39.84222072867617,159.90945914116406,145.29112044180368,3.237724376958795e-05,0.0929468795657157,0,0,0
13415,467158.7325423856,2010-10-21 02:59:14,1470.744208870184,2,41,0.5499359965324402,3.890451431274414,40.05220526028239,39.84222072867617,159.92729985744583,145.29112044180368,-3.237724376958795e-05,0.0929468795657157,0,0,0
13416,467188.7477195826,2010-10-21 02:59:44,1500.7593860270983,2,41,0.5501165986061096,3.8920702934265137,40.056791700946135,39.84222072867617,159.94514718148395,145.29112044180368,6.47544875391759e-05,0.0929468795657157,0,0,0
13417,467218.7629190401,2010-10-21 03:00:14,1530.77458547958,2,41,0.5501165986061096,3.893203496932984,40.06137815140852,39.84222072867617,159.96300081595427,145.29112044180368,0.0,0.0929468795657157,0,0,0
13418,467248.77824135387,2010-10-21 03:00:44,1560.7899078283567,2,41,0.5501165986061096,3.894660472869873,40.0659646746099,39.84222072867617,159.98086085497377,145.29112044180368,3.237724376958795e-05,0.0929468795657157,0,0,0
13419,467278.7932779905,2010-10-21 03:01:14,1590.8049445402387,2,41,0.5501165986061096,3.895793676376343,40.07055113061287,39.84222072867617,159.9987260669008,145.29112044180368,0.0,0.0929468795657157,0,0,0
13420,467308.8085840587,2010-10-21 03:01:44,1620.8202505132022,2,41,0.5499359965324402,3.897250652313232,40.0751375427508,39.84222072867617,160.01659715436426,145.29112044180368,3.237724376958795e-05,0.0929468795657157,0,0,0
13421,467338.82392108405,2010-10-21 03:02:14,1650.8355875636205,2,41,0.5499359965324402,3.898383855819702,40.079723932862365,39.84222072867617,160.03447392351515,145.29112044180368,6.47544875391759e-05,0.0929468795657157,0,0,0
13422,467368.838849897,2010-10-21 03:02:44,1680.8505163665598,2,41,0.5499359965324402,3.899678945541382,40.08431024128143,39.84222072867617,160.0523563229372,145.29112044180368,0.0,0.0929468795657157,0,0,0
13423,467398.8540480262,2010-10-21 03:03:14,1710.8657145609056,2,41,0.5499359965324402,3.9009740352630615,40.08889664693966,39.84222072867617,160.0702448330139,145.29112044180368,6.47544875391759e-05,0.0929468795657157,0,0,0
13424,467428.8692639446,2010-10-21 03:03:44,1740.8809303942132,2,41,0.5499359965324402,3.9021072387695312,40.09348303743753,39.84222072867617,160.08813916552137,145.29112044180368,0.0,0.0929468795657157,0,0,0
13425,467458.8844061745,2010-10-21 03:04:14,1770.8960727393658,2,41,0.5499359965324402,3.903402328491211,40.09806941402386,39.84222072867617,160.1060392859279,145.29112044180368,0.0,0.0929468795657157,0,0,0
13426,467488.8995815019,2010-10-21 03:04:44,1800.9112479815078,2,41,0.5501165986061096,3.90469741821289,40.10265584116115,39.84222072867617,160.12394550203456,145.29112044180368,0.0,0.0929468795657157,0,0,0
13427,467518.9148537358,2010-10-21 03:05:14,1830.9265203005957,2,41,0.550297200679779,3.90615439414978,40.107242341549984,39.84222072867617,160.14185773651462,145.29112044180368,6.47544875391759e-05,0.0929468795657157,0,0,0
13428,467548.9299433395,2010-10-21 03:05:44,1860.941609814075,2,41,0.5501165986061096,3.90744948387146,40.11182880630891,39.84222072867617,160.15977583312304,145.29112044180368,6.47544875391759e-05,0.0929468795657157,0,0,0
13429,467578.9452547309,2010-10-21 03:06:14,1890.9569212105555,2,41,0.5501165986061096,3.9085826873779297,40.11641521203531,39.84222072867617,160.1776996307342,145.29112044180368,6.47544875391759e-05,0.0929468795657157,0,0,0
13430,467608.96030134754,2010-10-21 03:06:44,1920.971967847173,2,41,0.5501165986061096,3.9100396633148193,40.121001587347365,39.84222072867617,160.1956293269362,145.29112044180368,3.237724376958795e-05,0.0929468795657157,0,0,0
13431,467638.97552675975,2010-10-21 03:07:14,1950.987193229279,2,41,0.5499359965324402,3.911172866821289,40.125588076669686,39.84222072867617,160.21356547796503,145.29112044180368,0.0,0.0929468795657157,0,0,0
13432,467668.9906809895,2010-10-21 03:07:44,1981.0023474289767,2,41,0.550297200679779,3.9126298427581783,40.130174523235496,39.84222072867617,160.23150752880971,145.29112044180368,0.0,0.0929468795657157,0,0,0
13433,467699.00586723903,2010-10-21 03:08:14,2011.0175336835653,2,41,0.550297200679779,3.914086580276489,40.13476112060227,39.84222072867617,160.2494563197199,145.29112044180368,3.237724376958795e-05,0.0929468795657157,0,0,0
13434,467729.0211773374,2010-10-21 03:08:44,2041.0328437918347,2,41,0.5499359965324402,3.915219783782959,40.13934774045065,39.84222072867617,160.26741141496868,145.29112044180368,0.0,0.0929468795657157,0,0,0
13435,467759.0362661691,2010-10-21 03:09:14,2071.047932728878,2,41,0.5501165986061096,3.9166767597198486,40.14393425585968,39.84222072867617,160.28537215184636,145.29112044180368,3.237724376958795e-05,0.0929468795657157,0,0,0
13436,467789.0515545131,2010-10-21 03:09:44,2101.063220957617,2,41,0.5501165986061096,3.9181337356567374,40.14852078653708,39.84222072867617,160.3033393228259,145.29112044180368,6.47544875391759e-05,0.0929468795657157,0,0,0
13437,467819.06662362575,2010-10-21 03:10:14,2131.0782901003267,2,41,0.5501165986061096,3.919428825378418,40.15310725363664,39.84222072867617,160.32131244458435,145.29112044180368,6.47544875391759e-05,0.0929468795657157,0,0,0
13438,467849.0818685266,2010-10-21 03:10:44,2161.09353502113,2,41,0.5501165986061096,3.920885801315308,40.15769370249216,39.84222072867617,160.3392919127361,145.29112044180368,3.237724376958795e-05,0.0929468795657157,0,0,0
13439,467879.09732683416,2010-10-21 03:11:14,2191.1089933688577,2,41,0.550297200679779,3.922342777252197,40.162280173916905,39.84222072867617,160.3572778357875,145.29112044180368,6.47544875391759e-05,0.0929468795657157,0,0,0
13440,467909.1121879685,2010-10-21 03:11:44,2221.123854448009,2,41,0.5501165986061096,3.923637866973877,40.1668666379165,39.84222072867617,160.3752702661485,145.29112044180368,6.47544875391759e-05,0.0929468795657157,0,0,0
13441,467939.1273987942,2010-10-21 03:12:14,2251.1390652738364,2,41,0.5501165986061096,3.925094842910767,40.17145314105744,39.84222072867617,160.39326939405888,145.29112044180368,3.237724376958795e-05,0.0929468795657157,0,0,0
13442,467969.1426895493,2010-10-21 03:12:44,2281.154356008822,2,41,0.5501165986061096,3.926551818847656,40.176039685439385,39.84222072867617,160.41127521801994,145.29112044180368,6.47544875391759e-05,0.0929468795657157,0,0,0
13443,467999.1577555692,2010-10-21 03:13:14,2311.169422008699,2,41,0.5499359965324402,3.927846908569336,40.18062610729402,39.84222072867617,160.4292872086053,145.29112044180368,0.0,0.0929468795657157,0,0,0
13444,468029.1731167849,2010-10-21 03:13:44,2341.184783229356,2,41,0.5501165986061096,3.929465770721436,40.18521263174247,39.84222072867617,160.4473062888315,145.29112044180368,6.47544875391759e-05,0.0929468795657157,0,0,0
13445,468059.1881450858,2010-10-21 03:14:14,2371.1998115804004,2,41,0.550297200679779,3.930922746658325,40.189799073817554,39.84222072867617,160.46533182107254,145.29112044180368,6.47544875391759e-05,0.0929468795657157,0,0,0
13446,468089.2033154408,2010-10-21 03:14:44,2401.214981880225,2,41,0.5501165986061096,3.932379722595215,40.19438559040507,39.84222072867617,160.48336438379428,145.29112044180368,0.0,0.0929468795657157,0,0,0
13447,468119.21843303926,2010-10-21 03:15:14,2431.230099508776,2,41,0.5501165986061096,3.933836698532105,40.19897213413589,39.84222072867617,160.50140387691334,145.29112044180368,3.237724376958795e-05,0.0929468795657157,0,0,0
13448,468149.2336447774,2010-10-21 03:15:44,2461.245311221814,2,41,0.550297200679779,3.935455560684204,40.20355947708195,39.84222072867617,160.519453466154,145.29112044180368,6.47544875391759e-05,0.0929468795657157,0,0,0
13449,468179.2487964307,2010-10-21 03:16:15,2491.2604629002285,2,41,0.550297200679779,3.9369125366210938,40.20814678614308,39.84222072867617,160.53750971964428,145.29112044180368,6.47544875391759e-05,0.0929468795657157,0,0,0
13450,468209.2641636212,2010-10-21 03:16:45,2521.275830070715,2,41,0.550297200679779,3.9386932849884033,40.21273400581342,39.84222072867617,160.5555726931458,145.29112044180368,0.0001295089750783,0.0929468795657157,0,0,0
13451,468239.2792375559,2010-10-21 03:17:15,2551.2909040304294,2,41,0.5501165986061096,3.939988374710083,40.21732132540529,39.84222072867617,160.57364308372476,145.29112044180368,3.237724376958795e-05,0.0929468795657157,0,0,0
13452,468269.294554426,2010-10-21 03:17:45,2581.306220875489,2,41,0.5501165986061096,3.9414453506469727,40.22190863977392,39.84222072867617,160.59172054433392,145.29112044180368,3.237724376958795e-05,0.0929468795657157,0,0,0
13453,468299.309600015,2010-10-21 03:18:15,2611.3212664594835,2,41,0.550297200679779,3.943226099014282,40.22649591925369,39.84222072867617,160.6098049936069,145.29112044180368,3.237724376958795e-05,0.0929468795657157,0,0,0
13454,468329.32479922194,2010-10-21 03:18:45,2641.336465666353,2,41,0.5501165986061096,3.944683074951172,40.231082563718616,39.84222072867617,160.62789414550429,145.29112044180368,3.237724376958795e-05,0.0929468795657157,0,0,0
13455,468359.3401531594,2010-10-21 03:19:15,2671.351819643959,2,41,0.550297200679779,3.946301937103272,40.23566924374877,39.84222072867617,160.6459907579208,145.29112044180368,3.237724376958795e-05,0.0929468795657157,0,0,0
13456,468389.3552019614,2010-10-21 03:19:45,2701.366868471036,2,41,0.5499359965324402,3.947758913040161,40.240255939883056,39.84222072867617,160.66409458420466,145.29112044180368,3.237724376958795e-05,0.0929468795657157,0,0,0
13457,468419.3703674392,2010-10-21 03:20:15,2731.382033883679,2,41,0.5501165986061096,3.9493777751922607,40.24484261054907,39.84222072867617,160.68220572783528,145.29112044180368,6.47544875391759e-05,0.0929468795657157,0,0,0
13458,468449.3855534633,2010-10-21 03:20:45,2761.3972199026807,2,41,0.5501165986061096,3.95099663734436,40.24942927388926,39.84222072867617,160.70032426661203,145.29112044180368,3.237724376958795e-05,0.0929468795657157,0,0,0
13459,468479.4007615321,2010-10-21 03:21:15,2791.4124280067244,2,41,0.5501165986061096,3.95277738571167,40.25401598291759,39.84222072867617,160.7184504793228,145.29112044180368,6.47544875391759e-05,0.0929468795657157,0,0,0
13460,468509.41600625246,2010-10-21 03:21:45,2821.427672727028,2,41,0.5501165986061096,3.9543962478637695,40.25860265559219,39.84222072867617,160.7365841231199,145.29112044180368,3.237724376958795e-05,0.0929468795657157,0,0,0
13461,468539.4312460956,2010-10-21 03:22:15,2851.4429125451124,2,41,0.550297200679779,3.956015110015869,40.26318938205284,39.84222072867617,160.75472560790894,145.29112044180368,3.237724376958795e-05,0.0929468795657157,0,0,0
13462,468569.4463176844,2010-10-21 03:22:45,2881.457984128906,2,41,0.5501165986061096,3.9576339721679688,40.267776065421074,39.84222072867617,160.77287449177598,145.29112044180368,0.0,0.0929468795657157,0,0,0
13463,468599.4615042949,2010-10-21 03:23:15,2911.473170739381,2,41,0.5504778623580933,3.959576606750488,40.27236266298167,39.84222072867617,160.79103073475073,145.29112044180368,9.713172767078504e-05,0.0929468795657157,0,0,0
13464,468629.4766722539,2010-10-21 03:23:45,2941.488338703384,2,41,0.5501165986061096,3.961033582687378,40.27694933212969,39.84222072867617,160.8091950594915,145.29112044180368,3.237724376958795e-05,0.0929468795657157,0,0,0
13465,468659.4919874699,2010-10-21 03:24:15,2971.503653959484,2,41,0.5501165986061096,3.962814331054688,40.281536009660336,39.84222072867617,160.82736720948716,145.29112044180368,3.237724376958795e-05,0.0929468795657157,0,0,0
13466,468689.5071969424,2010-10-21 03:24:45,3001.5188633918374,2,41,0.550297200679779,3.964595079421997,40.28612265559562,39.84222072867617,160.84554715415356,145.29112044180368,6.47544875391759e-05,0.0929468795657157,0,0,0
13467,468719.5223627008,2010-10-21 03:25:15,3031.534029155356,2,41,0.5499359965324402,3.9662139415740967,40.29070933784328,39.84222072867617,160.8637352101867,145.29112044180368,3.237724376958795e-05,0.0929468795657157,0,0,0
13468,468749.5374368711,2010-10-21 03:25:45,3061.549103340634,2,41,0.550297200679779,3.968156576156616,40.2952960494371,39.84222072867617,160.88193139549864,145.29112044180368,6.47544875391759e-05,0.0929468795657157,0,0,0
13469,468779.5526181984,2010-10-21 03:26:15,3091.5642846378664,2,41,0.5501165986061096,3.969937324523926,40.299882687146365,39.84222072867617,160.90013528399982,145.29112044180368,9.713172767078504e-05,0.0929468795657157,0,0,0
13470,468809.5677999317,2010-10-21 03:26:45,3121.579466396249,2,41,0.5499359965324402,3.971394300460816,40.304469326726725,39.84222072867617,160.91834731530446,145.29112044180368,0.0,0.0929468795657157,0,0,0
13471,468839.5833273717,2010-10-21 03:27:15,3151.5949939715138,2,41,0.550297200679779,3.973498821258545,40.30905606522228,39.84222072867617,160.93656798770078,145.29112044180368,9.713172767078504e-05,0.0929468795657157,0,0,0
13472,468869.59823310206,2010-10-21 03:27:45,3181.609899666862,2,41,0.5501165986061096,3.975117683410645,40.31364270821626,39.84222072867617,160.95479657382478,145.29112044180368,0.0,0.0929468795657157,0,0,0
13473,468899.613424294,2010-10-21 03:28:15,3211.625090773543,2,41,0.5501165986061096,3.977060317993164,40.31822939891549,39.84222072867617,160.9730337331327,145.29112044180368,3.237724376958795e-05,0.0929468795657157,0,0,0
13474,468929.6285660978,2010-10-21 03:28:45,3241.6402325723343,2,41,0.5499359965324402,3.9788410663604736,40.32281612047402,39.84222072867617,160.99127902595978,145.29112044180368,9.713172767078504e-05,0.0929468795657157,0,0,0
13475,468959.6437717056,2010-10-21 03:29:15,3271.655438145069,2,41,0.5499359965324402,3.980621814727783,40.32740276304904,39.84222072867617,161.00953298771594,145.29112044180368,0.0,0.0929468795657157,0,0,0
13476,468989.6590663103,2010-10-21 03:29:45,3301.670732759724,2,41,0.5499359965324402,3.982564449310303,40.33198939363476,39.84222072867617,161.02779554471056,145.29112044180368,3.237724376958795e-05,0.0929468795657157,0,0,0
13477,469019.6741441596,2010-10-21 03:30:15,3331.685810684321,2,41,0.5499359965324402,3.984345197677612,40.33657595563849,39.84222072867617,161.04606637001112,145.29112044180368,0.0,0.0929468795657157,0,0,0
13478,469049.6893163592,2010-10-21 03:30:45,3361.7009828337546,2,41,0.5501165986061096,3.986611604690552,40.34116254357816,39.84222072867617,161.06434614733743,145.29112044180368,9.713172767078504e-05,0.0929468795657157,0,0,0
13479,469079.7045192402,2010-10-21 03:31:15,3391.7161856796943,2,41,0.5501165986061096,3.988392353057861,40.34574917245378,39.84222072867617,161.08263491698887,145.29112044180368,9.713172767078504e-05,0.0929468795657157,0,0,0
13480,469109.7197090787,2010-10-21 03:31:45,3421.731375553302,2,41,0.5501165986061096,3.990334987640381,40.35033576931446,39.84222072867617,161.10093248832183,145.29112044180368,6.47544875391759e-05,0.0929468795657157,0,0,0
13481,469139.73488894745,2010-10-21 03:32:15,3451.746555416962,2,41,0.5501165986061096,3.992277622222901,40.35492234055271,39.84222072867617,161.1192390096679,145.29112044180368,3.237724376958795e-05,0.0929468795657157,0,0,0
13482,469169.7501342642,2010-10-21 03:32:45,3481.7618007538017,2,41,0.5501165986061096,3.994381904602051,40.35950896349172,39.84222072867617,161.13755493394086,145.29112044180368,3.237724376958795e-05,0.0929468795657157,0,0,0
13483,469199.7652669052,2010-10-21 03:33:15,3511.776933344644,2,41,0.5501165986061096,3.9963245391845694,40.364095579899335,39.84222072867617,161.15588015311886,145.29112044180368,6.47544875391759e-05,0.0929468795657157,0,0,0
13484,469229.7804413904,2010-10-21 03:33:45,3541.792107834912,2,41,0.5501165986061096,3.9984290599823,40.36868222735173,39.84222072867617,161.1742149060985,145.29112044180368,6.47544875391759e-05,0.0929468795657157,0,0,0
13485,469259.7959096078,2010-10-21 03:34:15,3571.8075760873253,2,41,0.5501165986061096,4.000533580780029,40.37326891340895,39.84222072867617,161.19255918619703,145.29112044180368,6.47544875391759e-05,0.0929468795657157,0,0,0
13486,469289.8108042505,2010-10-21 03:34:45,3601.82247071509,2,41,0.5501165986061096,4.002638339996338,40.3778554332733,39.84222072867617,161.21091250337943,145.29112044180368,9.71794142969884e-05,0.0929468795657157,0,0,0
13487,469319.8260170113,2010-10-21 03:35:15,3631.837683480752,2,41,0.550297200679779,4.004904747009277,40.38244201539445,39.84222072867617,161.22927576884553,145.29112044180368,6.47544875391759e-05,0.0929468795657157,0,0,0
13488,469349.8415687818,2010-10-21 03:35:45,3661.853235241294,2,41,0.5501165986061096,4.007009029388428,40.38702864666144,39.84222072867617,161.24764904544975,145.29112044180368,6.47544875391759e-05,0.0929468795657157,0,0,0
13489,469379.8564868229,2010-10-21 03:36:15,3691.868153397698,2,41,0.550297200679779,4.009113788604736,40.39161524195134,39.84222072867617,161.26603218085202,145.29112044180368,9.71794142969884e-05,0.0929468795657157,0,0,0
13490,469409.8716096895,2010-10-21 03:36:45,3721.883276128968,2,41,0.550297200679779,4.011380195617676,40.39620180994552,39.84222072867617,161.28442514994137,145.29112044180368,9.71794142969884e-05,0.0929468795657157,0,0,0
13491,469439.88680367335,2010-10-21 03:37:15,3751.89847015292,2,41,0.5499359965324402,4.013484477996826,40.40078833662244,39.84222072867617,161.3028281257347,145.29112044180368,6.47544875391759e-05,0.0929468795657157,0,0,0
13492,469469.9019788654,2010-10-21 03:37:45,3781.9136453148617,2,41,0.5501165986061096,4.015750885009766,40.40537490752055,39.84222072867617,161.32124152994896,145.29112044180368,6.47544875391759e-05,0.0929468795657157,0,0,0
13493,469499.9171750047,2010-10-21 03:38:15,3811.928841484161,2,41,0.5501165986061096,4.018179416656494,40.40996160216958,39.84222072867617,161.3396658403976,145.29112044180368,9.71794142969884e-05,0.0929468795657157,0,0,0
13494,469529.932393284,2010-10-21 03:38:45,3841.9440597485273,2,41,0.5501165986061096,4.0202836990356445,40.414548233774525,39.84222072867617,161.35810023356885,145.29112044180368,3.23295607813634e-05,0.0929468795657157,0,0,0
13495,469559.94758094207,2010-10-21 03:39:15,3871.9592474166384,2,41,0.5499359965324402,4.022550106048584,40.4191347950899,39.84222072867617,161.376544946327,145.29112044180368,3.23295607813634e-05,0.0929468795657157,0,0,0
13496,469589.96272786864,2010-10-21 03:39:45,3901.97439432316,2,41,0.5499359965324402,4.024816513061523,40.4237214624963,39.84222072867617,161.39500072320865,145.29112044180368,3.23295607813634e-05,0.0929468795657157,0,0,0
13497,469619.9780455709,2010-10-21 03:40:15,3931.9897120253554,2,41,0.5499359965324402,4.027082920074463,40.42830808056847,39.84222072867617,161.41346698101043,145.29112044180368,6.47544875391759e-05,0.0929468795657157,0,0,0
13498,469649.99314442254,2010-10-21 03:40:45,3962.004810862072,2,41,0.5501165986061096,4.029673099517822,40.43289474383133,39.84222072867617,161.43194423327802,145.29112044180368,6.47544875391759e-05,0.0929468795657157,0,0,0
13499,469680.0083107626,2010-10-21 03:41:15,3992.0199772120513,2,41,0.5501165986061096,4.031939506530762,40.43748134014599,39.84222072867617,161.45043189474814,145.29112044180368,3.23295607813634e-05,0.0929468795657157,0,0,0
13500,469710.0236107706,2010-10-21 03:41:45,4022.0352772201486,2,41,0.5501165986061096,4.034367561340332,40.442067977323255,39.84222072867617,161.46893062615572,145.29112044180368,9.70840483205393e-05,0.0929468795657157,0,0,0
13501,469740.0387000536,2010-10-21 03:42:15,4052.050366493029,2,41,0.550297200679779,4.036957740783691,40.44665461446511,39.84222072867617,161.48744036052275,145.29112044180368,9.70840483205393e-05,0.0929468795657157,0,0,0
13502,469770.053875416,2010-10-21 03:42:45,4082.0655418905594,2,41,0.5501165986061096,4.039224147796631,40.45124124531202,39.84222072867617,161.5059612226007,145.29112044180368,6.47544875391759e-05,0.0929468795657157,0,0,0
13503,469800.0692650474,2010-10-21 03:43:15,4112.080931577161,2,41,0.5501165986061096,4.041652679443359,40.45582790078429,39.84222072867617,161.52449328948285,145.29112044180368,3.24249267578125e-05,0.0929468795657157,0,0,0
13504,469830.08425183495,2010-10-21 03:43:45,4142.095918279404,2,41,0.5501165986061096,4.044242858886719,40.46041452093804,39.84222072867617,161.5430365366291,145.29112044180368,9.71794142969884e-05,0.0929468795657157,0,0,0
13505,469860.0994878134,2010-10-21 03:44:15,4172.111154293008,2,41,0.5499359965324402,4.046670913696289,40.465001159902776,39.84222072867617,161.5615913173456,145.29112044180368,9.70840483205393e-05,0.0929468795657157,0,0,0
13506,469890.1146516572,2010-10-21 03:44:45,4202.12631813674,2,41,0.5499359965324402,4.049099445343018,40.46958783612639,39.84222072867617,161.58015776337228,145.29112044180368,6.47544875391759e-05,0.0929468795657157,0,0,0
13507,469920.12982331536,2010-10-21 03:45:15,4232.141489779913,2,41,0.550297200679779,4.051851272583008,40.47417453163833,39.84222072867617,161.59873589049306,145.29112044180368,9.70840483205393e-05,0.0929468795657157,0,0,0
13508,469950.14513009536,2010-10-21 03:45:45,4262.1567965649,2,41,0.5501165986061096,4.054279804229736,40.47876118131878,39.84222072867617,161.61732559128274,145.29112044180368,6.47544875391759e-05,0.0929468795657157,0,0,0
13509,469980.1602193031,2010-10-21 03:46:15,4292.17188577763,2,41,0.5501165986061096,4.056869983673096,40.483347818140544,39.84222072867617,161.63592720348367,145.29112044180368,6.47544875391759e-05,0.0929468795657157,0,0,0
13510,470010.1754080037,2010-10-21 03:46:45,4322.187074473303,2,41,0.5501165986061096,4.059621810913086,40.48793442825125,39.84222072867617,161.65454078436298,145.29112044180368,6.47544875391759e-05,0.0929468795657157,0,0,0
13511,470040.19061321055,2010-10-21 03:47:15,4352.202279655064,2,41,0.5501165986061096,4.062211990356445,40.49252109990218,39.84222072867617,161.6731664556118,145.29112044180368,9.70840483205393e-05,0.0929468795657157,0,0,0
13512,470070.205786974,2010-10-21 03:47:45,4382.217453413508,2,41,0.5501165986061096,4.064964294433594,40.49710772588438,39.84222072867617,161.69180418444452,145.29112044180368,9.71794142969884e-05,0.0929468795657157,0,0,0
13513,470100.2209748526,2010-10-21 03:48:16,4412.232641297156,2,41,0.5501165986061096,4.067554473876953,40.50169437825114,39.84222072867617,161.7104543384323,145.29112044180368,9.71794142969884e-05,0.0929468795657157,0,0,0
13514,470130.2361663654,2010-10-21 03:48:46,4442.247832834912,2,41,0.5501165986061096,4.070306301116943,40.50628102299671,39.84222072867617,161.72911690853,145.29112044180368,9.70840483205393e-05,0.0929468795657157,0,0,0
13515,470160.2513822589,2010-10-21 03:49:16,4472.263048723356,2,41,0.5499359965324402,4.072896480560303,40.51086763381281,39.84222072867617,161.74779189070296,145.29112044180368,3.23295607813634e-05,0.0929468795657157,0,0,0
13516,470190.2666714399,2010-10-21 03:49:46,4502.278337889432,2,41,0.5501165986061096,4.075810432434082,40.5154542394173,39.84222072867617,161.76647950954245,145.29112044180368,9.70840483205393e-05,0.0929468795657157,0,0,0
13517,470220.2817334449,2010-10-21 03:50:16,4532.293399884327,2,41,0.550297200679779,4.078562736511231,40.52004087706777,39.84222072867617,161.78518008319548,145.29112044180368,9.71794142969884e-05,0.0929468795657157,0,0,0
13518,470250.2969744509,2010-10-21 03:50:46,4562.30864092546,2,41,0.5501165986061096,4.08147668838501,40.52462750367134,39.84222072867617,161.80389358565205,145.29112044180368,9.71794142969884e-05,0.0929468795657157,0,0,0
13519,470280.3121374876,2010-10-21 03:51:16,4592.323803932108,2,41,0.5501165986061096,4.084228515625,40.52921406918134,39.84222072867617,161.8226197347602,145.29112044180368,6.47544875391759e-05,0.0929468795657157,0,0,0
13520,470310.32731565705,2010-10-21 03:51:46,4622.338982136634,2,41,0.5499359965324402,4.087142467498779,40.53380066536195,39.84222072867617,161.84135922703496,145.29112044180368,6.47544875391759e-05,0.0929468795657157,0,0,0
13521,470340.3424990696,2010-10-21 03:52:16,4652.354165509038,2,41,0.5499359965324402,4.089894771575928,40.53838732876278,39.84222072867617,161.86011230153417,145.29112044180368,3.24249267578125e-05,0.0929468795657157,0,0,0
13522,470370.35771316855,2010-10-21 03:52:46,4682.3693796380985,2,41,0.5501165986061096,4.092970371246338,40.542973996830376,39.84222072867617,161.8788787908565,145.29112044180368,6.47544875391759e-05,0.0929468795657157,0,0,0
13523,470400.3728861751,2010-10-21 03:53:16,4712.3845526446685,2,41,0.5501165986061096,4.095884323120117,40.54756058341532,39.84222072867617,161.89765848772456,145.29112044180368,3.23295607813634e-05,0.0929468795657157,0,0,0
13524,470430.388064104,2010-10-21 03:53:46,4742.399730578519,2,41,0.5501165986061096,4.0989603996276855,40.55214720837577,39.84222072867617,161.91645196078608,145.29112044180368,6.47544875391759e-05,0.0929468795657157,0,0,0
13525,470460.4032502934,2010-10-21 03:54:16,4772.414916762932,2,41,0.5501165986061096,4.102035999298096,40.556733887160505,39.84222072867617,161.93525939076403,145.29112044180368,0.0001295089750783,0.0929468795657157,0,0,0
13526,470490.4184408386,2010-10-21 03:54:46,4802.430107283151,2,41,0.5501165986061096,4.104949951171875,40.56132051183934,39.84222072867617,161.95408026882507,145.29112044180368,6.47544875391759e-05,0.0929468795657157,0,0,0
13527,470520.433655905,2010-10-21 03:55:16,4832.445322349548,2,41,0.5501165986061096,4.108026027679443,40.565907173003225,39.84222072867617,161.9729153277264,145.29112044180368,6.47544875391759e-05,0.0929468795657157,0,0,0
13528,470550.4488451321,2010-10-21 03:55:46,4862.460511576544,2,41,0.5501165986061096,4.1111016273498535,40.57049375913137,39.84222072867617,161.99176419003064,145.29112044180368,6.47544875391759e-05,0.0929468795657157,0,0,0
13529,470580.46415035817,2010-10-21 03:56:16,4892.475816812672,2,41,0.5501165986061096,4.114177703857422,40.5750804408524,39.84222072867617,162.01062765941649,145.29112044180368,6.47544875391759e-05,0.0929468795657157,0,0,0
13530,470610.4792042078,2010-10-21 03:56:46,4922.490870677304,2,41,0.5501165986061096,4.117577075958252,40.57966701723698,39.84222072867617,162.0295050599855,145.29112044180368,9.71794142969884e-05,0.0929468795657157,0,0,0
13531,470640.4945710775,2010-10-21 03:57:16,4952.50623754704,2,41,0.5499359965324402,4.120491027832031,40.58425373057989,39.84222072867617,162.04839755755864,145.29112044180368,6.47544875391759e-05,0.0929468795657157,0,0,0
13532,470670.5095815089,2010-10-21 03:57:46,4982.521247978423,2,41,0.5501165986061096,4.123728752136231,40.58884037588776,39.84222072867617,162.06730441432916,145.29112044180368,6.47544875391759e-05,0.0929468795657157,0,0,0
13533,470700.5247758988,2010-10-21 03:58:16,5012.536442378312,2,41,0.5501165986061096,4.12696647644043,40.59342706548044,39.84222072867617,162.08622621529466,145.29112044180368,9.71794142969884e-05,0.0929468795657157,0,0,0
13534,470730.539956424,2010-10-21 03:58:46,5042.551622868534,2,41,0.5499359965324402,4.13004207611084,40.59801378503511,39.84222072867617,162.1051629816368,145.29112044180368,6.47544875391759e-05,0.0929468795657157,0,0,0
13535,470760.55545417,2010-10-21 03:59:16,5072.567120714704,2,41,0.5497553944587708,4.133279800415039,40.60260051501153,39.84222072867617,162.12411481889526,145.29112044180368,3.23295607813634e-05,0.0929468795657157,0,0,0
13536,470790.5705198391,2010-10-21 03:59:46,5102.582186423857,2,41,0.5501165986061096,4.136679649353027,40.6071871965483,39.84222072867617,162.1430814825236,145.29112044180368,3.24249267578125e-05,0.0929468795657157,0,0,0
13537,470820.58556533774,2010-10-21 04:00:16,5132.597231872513,2,41,0.5501165986061096,4.140241146087647,40.61177388178394,39.84222072867617,162.1620633361424,145.29112044180368,0.0001295089750783,0.0929468795657157,0,0,0
13538,470850.6007475724,2010-10-21 04:00:46,5162.612414016858,2,41,0.550297200679779,4.143478870391846,40.6163606334168,39.84222072867617,162.18106070945856,145.29112044180368,9.71794142969884e-05,0.0929468795657157,0,0,0
13539,470880.6159410901,2010-10-21 04:01:16,5192.627607534548,2,41,0.550297200679779,4.147040367126465,40.62094726532239,39.84222072867617,162.2000731752854,145.29112044180368,0.0001295089750783,0.0929468795657157,0,0,0
13540,470910.6312512785,2010-10-21 04:01:46,5222.642917733043,2,41,0.5501165986061096,4.150278091430664,40.62553392991836,39.84222072867617,162.2191014811393,145.29112044180368,9.71794142969884e-05,0.0929468795657157,0,0,0
13541,470940.6463309926,2010-10-21 04:02:16,5252.657997557374,2,41,0.5501165986061096,4.153839588165283,40.6301205624256,39.84222072867617,162.23814552040085,145.29112044180368,9.71794142969884e-05,0.0929468795657157,0,0,0
13542,470970.6615225704,2010-10-21 04:02:46,5282.673189019942,2,41,0.5501165986061096,4.157401084899902,40.63470721231808,39.84222072867617,162.2572056773964,145.29112044180368,9.71794142969884e-05,0.0929468795657157,0,0,0
13543,471000.67683627264,2010-10-21 04:03:16,5312.688502732194,2,41,0.5501165986061096,4.1609625816345215,40.63929382021577,39.84222072867617,162.27628210629047,145.29112044180368,0.0001295089750783,0.0929468795657157,0,0,0
13544,471030.69186618266,2010-10-21 04:03:46,5342.703532672199,2,41,0.5499359965324402,4.164361953735352,40.64388041560311,39.84222072867617,162.29537504201636,145.29112044180368,6.47544875391759e-05,0.0929468795657157,0,0,0
13545,471060.7070406879,2010-10-21 04:04:16,5372.718707142416,2,41,0.5501165986061096,4.168247222900391,40.64846694793431,39.84222072867617,162.31448432331962,145.29112044180368,9.70840483205393e-05,0.0929468795657157,0,0,0
13546,471090.7223521496,2010-10-21 04:04:46,5402.734018599046,2,41,0.5499359965324402,4.171970844268799,40.65305347840137,39.84222072867617,162.33361035555924,145.29112044180368,9.71794142969884e-05,0.0929468795657157,0,0,0
13547,471120.73748815886,2010-10-21 04:05:16,5432.749154638484,2,41,0.5499359965324402,4.175532341003418,40.65764003967069,39.84222072867617,162.3527534196924,145.29112044180368,6.47544875391759e-05,0.0929468795657157,0,0,0
13548,471150.7525986848,2010-10-21 04:05:46,5462.764265134258,2,41,0.5501165986061096,4.179417610168457,40.66222656724295,39.84222072867617,162.37191335052765,145.29112044180368,0.0001295089750783,0.0929468795657157,0,0,0
13549,471180.7680342658,2010-10-21 04:06:16,5492.779700720256,2,41,0.5501165986061096,4.183140754699707,40.66681311877671,39.84222072867617,162.39109050677405,145.29112044180368,0.0001295089750783,0.0929468795657157,0,0,0
13550,471210.7830906667,2010-10-21 04:06:46,5522.794757126222,2,41,0.5501165986061096,4.187026023864746,40.67139965387849,39.84222072867617,162.4102848212258,145.29112044180368,0.0001618385285837,0.0929468795657157,0,0,0
13551,471240.798150446,2010-10-21 04:07:16,5552.809816935671,2,41,0.5501165986061096,4.190587520599365,40.67598616363224,39.84222072867617,162.42949641207295,145.29112044180368,9.70840483205393e-05,0.0929468795657157,0,0,0
13552,471270.8132997936,2010-10-21 04:07:46,5582.824966243175,2,41,0.5501165986061096,4.194472789764404,40.68057269901165,39.84222072867617,162.4487254775129,145.29112044180368,9.70840483205393e-05,0.0929468795657157,0,0,0
13553,471300.8284629658,2010-10-21 04:08:16,5612.8401294152345,2,41,0.5501165986061096,4.198195934295654,40.68515923088068,39.84222072867617,162.4679719926533,145.29112044180368,9.70840483205393e-05,0.0929468795657157,0,0,0
13554,471314.10952841234,2010-10-21 04:08:29,5626.121194861809,2,41,0.5501165986061096,4.200138568878174,40.687188670322016,39.84222072867617,162.476493798151,145.29112044180368,0.0001295089750783,0.0929468795657157,0,0,0
13555,471344.1238515106,2010-10-21 04:09:00,30.0153107548814,3,41,0.0,4.115148544311523,40.687188670322016,39.84222072867617,162.476493798151,145.29112044180368,-0.0004209518374409,0.0929468795657157,0,0,0
13556,471374.1390157602,2010-10-21 04:09:30,60.03047503971437,3,41,0.0,4.104626178741455,40.687188670322016,39.84222072867617,162.476493798151,145.29112044180368,-0.0002266883820993,0.0929468795657157,0,0,0
13557,471404.1540407229,2010-10-21 04:10:00,90.04549995720103,3,41,0.0,4.098312854766846,40.687188670322016,39.84222072867617,162.476493798151,145.29112044180368,-0.0001618385285837,0.0929468795657157,0,0,0
13558,471434.1223681709,2010-10-21 04:10:30,120.01382743530029,3,41,0.0,4.094265460968018,40.687188670322016,39.84222072867617,162.476493798151,145.29112044180368,-9.71794142969884e-05,0.0929468795657157,0,0,0
13559,471434.1231780087,2010-10-21 04:10:30,0.015622350704834,4,41,0.989719569683075,4.199814796447754,40.687192987200646,39.84222072867617,162.47651192824176,145.29112044180368,0.0,0.0929468795657157,0,0,0
13560,471435.1075375556,2010-10-21 04:10:31,0.999981852463062,4,41,0.9393296241760254,4.199814796447754,40.68745521488372,39.84222072867617,162.47761321113884,145.29112044180368,0.0,0.0929468795657157,0,0,0
13561,471437.29502619535,2010-10-21 04:10:33,3.187470497239273,4,41,0.8891202211380005,4.199814796447754,40.68800952768591,39.84222072867617,162.47994116916317,145.29112044180368,0.0,0.0929468795657157,0,0,0
13562,471440.56065932295,2010-10-21 04:10:36,6.45310376515315,4,41,0.8383690118789673,4.199653148651123,40.68879186582637,39.84222072867617,162.48322678791445,145.29112044180368,-6.47544875391759e-05,0.0929468795657157,0,0,0
13563,471445.0292690984,2010-10-21 04:10:41,10.9217134003208,4,41,0.7883402705192566,4.199814796447754,40.68980020629287,39.84222072867617,162.48746155421708,145.29112044180368,0.0,0.0929468795657157,0,0,0
13564,471450.7948385516,2010-10-21 04:10:46,16.687282883494248,4,41,0.7381308674812317,4.199653148651123,40.69102108336002,39.84222072867617,162.49258893091047,145.29112044180368,0.0,0.0929468795657157,0,0,0
13565,471458.34172176657,2010-10-21 04:10:54,24.23416618379654,4,41,0.688102126121521,4.199814796447754,40.69251401981345,39.84222072867617,162.4988588980688,145.29112044180368,3.23295607813634e-05,0.0929468795657157,0,0,0
13566,471468.38832268736,2010-10-21 04:11:04,34.28076699929054,4,41,0.6378927230834961,4.199814796447754,40.69436107361904,39.84222072867617,162.50661607367044,145.29112044180368,3.23295607813634e-05,0.0929468795657157,0,0,0
13567,471482.3413366063,2010-10-21 04:11:18,48.233781013448905,4,41,0.5878639817237854,4.199653148651123,40.6967308764816,39.84222072867617,162.51656865536145,145.29112044180368,-3.23295607813634e-05,0.0929468795657157,0,0,0
13568,471503.43463978806,2010-10-21 04:11:39,69.32708407993769,4,41,0.5378351807594299,4.199653148651123,40.70001849466768,39.84222072867617,162.53037585348235,145.29112044180368,-3.23295607813634e-05,0.0929468795657157,0,0,0
13569,471539.2465795761,2010-10-21 04:12:15,105.1390238779728,4,41,0.4878064095973968,4.199814796447754,40.70509853402621,39.84222072867617,162.55171081508647,145.29112044180368,0.0,0.0929468795657157,0,0,0
13570,471603.94885242335,2010-10-21 04:13:20,169.84129674534995,4,41,0.4377776384353637,4.199653148651123,40.713379543702565,39.84222072867617,162.58648907661467,145.29112044180368,-3.23295607813634e-05,0.0929468795657157,0,0,0
13571,471701.806608256,2010-10-21 04:14:57,267.69905256292606,4,41,0.3877488672733307,4.199653148651123,40.72457224133351,39.84222072867617,162.63349577155537,145.29112044180368,-3.23295607813634e-05,0.0929468795657157,0,0,0
13572,471824.36718831246,2010-10-21 04:17:00,390.2596326193744,4,41,0.3377200961112976,4.199491024017334,40.73690389625972,39.84222072867617,162.6852858827624,145.29112044180368,-3.24249267578125e-05,0.0929468795657157,0,0,0
13573,471972.3337753455,2010-10-21 04:19:28,538.2262196875289,4,41,0.2876913249492645,4.199653148651123,40.74973752297398,39.84222072867617,162.73918421364428,145.29112044180368,0.0,0.0929468795657157,0,0,0
13574,472150.5027630943,2010-10-21 04:22:26,716.3952074161757,4,41,0.2376625686883926,4.199653148651123,40.76270888611056,39.84222072867617,162.7936609738155,145.29112044180368,0.0,0.0929468795657157,0,0,0
13575,472374.46825160907,2010-10-21 04:26:10,940.36069594605,4,41,0.1876337975263595,4.199653148651123,40.77588554492879,39.84222072867617,162.8489999233067,145.29112044180368,-3.23295607813634e-05,0.0929468795657157,0,0,0
13576,472675.838362204,2010-10-21 04:31:11,1241.7308065459297,4,41,0.1376050263643264,4.199653148651123,40.78940352817924,39.84222072867617,162.90577243962062,145.29112044180368,0.0,0.0929468795657157,0,0,0
13577,473143.0497109423,2010-10-21 04:38:59,1708.9421553544987,4,41,0.0875762552022934,4.199653148651123,40.803776429838834,39.84222072867617,162.96613541592671,145.29112044180368,-3.23295607813634e-05,0.0929468795657157,0,0,0
13578,473785.99250011647,2010-10-21 04:49:42,2351.884944413384,4,41,0.0498289167881011,4.199653148651123,40.81574373500839,39.84222072867617,163.01639531418894,145.29112044180368,-3.23295607813634e-05,0.0929468795657157,0,0,0
13579,473815.9985642564,2010-10-21 04:50:12,30.01517087124834,5,41,0.0,4.191720962524414,40.81574373500839,39.84222072867617,163.01639531418894,145.29112044180368,-3.23295607813634e-05,0.0929468795657157,0,0,0
13580,473845.99814431055,2010-10-21 04:50:42,60.01475091535828,5,41,0.0,4.190425872802734,40.81574373500839,39.84222072867617,163.01639531418894,145.29112044180368,-3.23295607813634e-05,0.0929468795657157,0,0,0
13581,473846.19291438913,2010-10-21 04:50:42,0.187378429701718,6,41,-1.9243103452026844e-05,4.190263748168945,40.81574373500839,39.84222072967776,163.01639531418894,145.29112044600063,0.0,0.0956302732229232,0,0,0
13582,473851.0210955572,2010-10-21 04:50:47,5.015559592754249,6,41,0.0007031940040178,4.190263748168945,40.815744759032654,39.842220729844776,163.01639960531628,145.29112044670046,-6.47544875391759e-05,0.0956302732229232,0,0,0
13583,473881.0436855266,2010-10-21 04:51:17,30.015175693266293,7,41,-1.099568486213684,4.008142471313477,40.815744759032654,39.85138805706643,163.01639960531628,145.328069078596,-0.0009713172912597,0.0956302732229232,0,0,0
13584,473911.05893177073,2010-10-21 04:51:47,60.030421907292016,7,41,-1.099568486213684,3.979650497436523,40.815744759032654,39.86055479678021,163.01639960531628,145.36467076947255,-0.0006475448608398,0.0956302732229232,0,0,0
13585,473941.07394260814,2010-10-21 04:52:17,90.04543273466177,7,41,-1.0993878841400146,3.959900379180908,40.815744759032654,39.86972108877853,163.01639960531628,145.4010544415964,-0.0004532813909463,0.0956302732229232,0,0,0
13586,473971.0890807478,2010-10-21 04:52:47,120.0605709094204,7,41,-1.0993878841400146,3.944683074951172,40.815744759032654,39.8788874172184,163.01639960531628,145.43727983627386,-0.0003561496851034,0.0956302732229232,0,0,0
13587,474001.1042280202,2010-10-21 04:53:17,150.07571815177826,7,41,-1.099568486213684,3.931894063949585,40.815744759032654,39.88805379942468,163.01639960531628,145.47337813657683,-0.0003237724304199,0.0956302732229232,0,0,0
13588,474031.1193679343,2010-10-21 04:53:47,180.0908581009593,7,41,-1.0993878841400146,3.920885801315308,40.815744759032654,39.897220729817285,163.01639960531628,145.5093697972001,-0.0002590179501567,0.0956302732229232,0,0,0
13589,474061.1347895053,2010-10-21 04:54:17,210.1062796720288,7,41,-1.099568486213684,3.910525321960449,40.815744759032654,39.90638801912282,163.01639960531628,145.5452657484514,-0.0003237724304199,0.0956302732229232,0,0,0
13590,474091.1496665895,2010-10-21 04:54:47,240.12115672098156,7,41,-1.0997490882873535,3.900812149047852,40.815744759032654,39.91555516722324,163.01639960531628,145.58107110740212,-0.0003237724304199,0.0956302732229232,0,0,0
13591,474121.1648366938,2010-10-21 04:55:17,270.1363268503809,7,41,-1.099568486213684,3.891908407211304,40.815744759032654,39.92472236145342,163.01639960531628,145.6167910395948,-0.0002590179501567,0.0956302732229232,0,0,0
13592,474151.18008544407,2010-10-21 04:55:47,300.1515756057405,7,41,-1.099568486213684,3.883166551589966,40.815744759032654,39.933889602472505,163.01639960531628,145.65242898665292,-0.0002266406954731,0.0956302732229232,0,0,0
13593,474181.1951028529,2010-10-21 04:56:17,330.1665930095006,7,41,-1.0993878841400146,3.874586582183838,40.815744759032654,39.943056771021936,163.01639960531628,145.68798732856,-0.0002266406954731,0.0956302732229232,0,0,0
13594,474211.2102609723,2010-10-21 04:56:47,360.1817511339801,7,41,-1.099568486213684,3.86616849899292,40.815744759032654,39.95222395583913,163.01639960531628,145.7234680536478,-0.0002590179501567,0.0956302732229232,0,0,0
13595,474241.2254106307,2010-10-21 04:57:17,390.1969008224344,7,41,-1.0993878841400146,3.858074188232422,40.815744759032654,39.961391194042,163.01639960531628,145.75887309742268,-0.0001942634553415,0.0956302732229232,0,0,0
13596,474271.2405487403,2010-10-21 04:57:47,420.21203886686817,7,41,-1.099568486213684,3.850141763687134,40.815744759032654,39.97055845863626,163.01639960531628,145.79420365885093,-0.0001295089750783,0.0956302732229232,0,0,0
13597,474301.2556972608,2010-10-21 04:58:17,450.2271873924242,7,41,-1.099568486213684,3.8422093391418457,40.815744759032654,39.97972574193327,163.01639960531628,145.8294611083674,-0.0001618862152099,0.0956302732229232,0,0,0
13598,474331.2708575908,2010-10-21 04:58:47,480.2423477424504,7,41,-1.0997490882873535,3.8342769145965576,40.815744759032654,39.98889304211493,163.01639960531628,145.86464750062592,-0.0002590179501567,0.0956302732229232,0,0,0
13599,474361.28614958393,2010-10-21 04:59:17,510.2576397205343,7,41,-1.0993878841400146,3.826668500900269,40.815744759032654,39.99806034516668,163.01639960531628,145.89976277913777,-0.0001942634553415,0.0956302732229232,0,0,0
13600,474391.3011400355,2010-10-21 04:59:47,540.2726301671089,7,41,-1.099568486213684,3.8190598487854,40.815744759032654,40.00722756897002,163.01639960531628,145.9348079925128,-0.0001942634553415,0.0956302732229232,0,0,0
13601,474421.3164067507,2010-10-21 05:00:17,570.2878969072921,7,41,-1.0993878841400146,3.811774969100952,40.815744759032654,40.016394826438784,163.01639960531628,145.9697850015168,-0.0001942634553415,0.0956302732229232,0,0,0
13602,474451.33143026463,2010-10-21 05:00:47,600.3029203962183,7,41,-1.099568486213684,3.804490089416504,40.815744759032654,40.02556199020671,163.01639960531628,146.0046947009437,-0.0002266406954731,0.0956302732229232,0,0,0
13603,474481.34658572753,2010-10-21 05:01:17,630.3180759142016,7,41,-1.0997490882873535,3.797205209732056,40.815744759032654,40.03472929778605,163.01639960531628,146.03953906625847,-0.0002266406954731,0.0956302732229232,0,0,0
13604,474511.361854217,2010-10-21 05:01:47,660.3333443786822,7,41,-1.0993878841400146,3.7905678749084473,40.815744759032654,40.04389656122434,163.01639960531628,146.07431859493835,-0.0001295089750783,0.0956302732229232,0,0,0
13605,474541.376892548,2010-10-21 05:02:17,690.3483826995744,7,41,-1.099568486213684,3.783606767654419,40.815744759032654,40.05306375628421,163.01639960531628,146.1090346814793,-0.0001618862152099,0.0956302732229232,0,0,0
13606,474571.39201479306,2010-10-21 05:02:47,720.3635049245813,7,41,-1.0997490882873535,3.7768075466156006,40.815744759032654,40.06223097627268,163.01639960531628,146.14368930728315,-0.0002266406954731,0.0956302732229232,0,0,0
13607,474601.4074835567,2010-10-21 05:03:17,750.3789737183444,7,41,-1.0993878841400146,3.770493984222412,40.815744759032654,40.07139831644077,163.01639960531628,146.17828448480176,-0.0001942634553415,0.0956302732229232,0,0,0
13608,474631.4223091624,2010-10-21 05:03:47,780.3937993040347,7,41,-1.099568486213684,3.7640185356140137,40.815744759032654,40.08056541320793,163.01639960531628,146.21281950428565,-0.0001942634553415,0.0956302732229232,0,0,0
13609,474661.4375899928,2010-10-21 05:04:17,810.4090801543847,7,41,-1.0997490882873535,3.757704973220825,40.815744759032654,40.0897326460864,163.01639960531628,146.24729657695545,-0.0001618862152099,0.0956302732229232,0,0,0
13610,474691.4527402426,2010-10-21 05:04:47,840.4242303741632,7,41,-1.0993878841400146,3.751715421676636,40.815744759032654,40.098899936703575,163.01639960531628,146.28171657105096,-0.0001295089750783,0.0956302732229232,0,0,0
13611,474721.46776269394,2010-10-21 05:05:17,870.4392528154788,7,41,-1.0992072820663452,3.745725631713867,40.815744759032654,40.10806718223736,163.01639960531628,146.3160802166992,-0.0001295089750783,0.0956302732229232,0,0,0
13612,474751.4830567272,2010-10-21 05:05:47,900.4545468687344,7,41,-1.0993878841400146,3.739412069320679,40.815744759032654,40.11723454029186,163.01639960531628,146.3503890009189,-0.0001618862152099,0.0956302732229232,0,0,0
13613,474781.4981824559,2010-10-21 05:06:17,930.4696725874486,7,41,-1.099568486213684,3.73358416557312,40.815744759032654,40.12640181005079,163.01639960531628,146.3846429666834,-0.0001618862152099,0.0956302732229232,0,0,0
13614,474811.5132039448,2010-10-21 05:06:47,960.4846942217526,7,41,-1.0997490882873535,3.727918148040772,40.815744759032654,40.1355690248098,163.01639960531628,146.41884393182218,-0.0001618862152099,0.0956302732229232,0,0,0
13615,474841.5283977282,2010-10-21 05:07:17,990.49988799508,7,41,-1.0993878841400146,3.7225759029388423,40.815744759032654,40.144736287864696,163.01639960531628,146.45299374341937,-0.0001295089750783,0.0956302732229232,0,0,0
13616,474871.5435076475,2010-10-21 05:07:47,1020.5149979244424,7,41,-1.099568486213684,3.716747999191284,40.815744759032654,40.15390348064502,163.01639960531628,146.487091855185,-0.0001942634553415,0.0956302732229232,0,0,0
13617,474901.5586514061,2010-10-21 05:08:18,1050.530141562818,7,41,-1.099568486213684,3.711081981658936,40.815744759032654,40.16307076378154,163.01639960531628,146.5211389842648,-0.0001618862152099,0.0956302732229232,0,0,0
13618,474931.5738120119,2010-10-21 05:08:48,1080.5453022737438,7,41,-1.0993878841400146,3.705901622772217,40.815744759032654,40.17223807225542,163.01639960531628,146.55513555523814,-9.713172767078504e-05,0.0956302732229232,0,0,0
13619,474961.58896111394,2010-10-21 05:09:18,1110.5604513606993,7,41,-1.099568486213684,3.700397491455078,40.815744759032654,40.18140534809679,163.01639960531628,146.58908262462614,-0.0001618862152099,0.0956302732229232,0,0,0
13620,474991.6040788176,2010-10-21 05:09:48,1140.5755690794747,7,41,-1.0993878841400146,3.69521713256836,40.815744759032654,40.19057263255356,163.01639960531628,146.62298118932307,-0.0001295089750783,0.0956302732229232,0,0,0
13621,475021.61922210007,2010-10-21 05:10:18,1170.5907124572009,7,41,-1.0992072820663452,3.6900367736816406,40.815744759032654,40.19973992143796,163.01639960531628,146.6568316641898,-0.0001295089750783,0.0956302732229232,0,0,0
13622,475051.6343618388,2010-10-21 05:10:48,1200.6058519702951,7,41,-1.099568486213684,3.685018301010132,40.815744759032654,40.20890711638221,163.01639960531628,146.69063490265225,-0.0001295089750783,0.0956302732229232,0,0,0
13623,475081.6495370508,2010-10-21 05:11:18,1230.6210272124372,7,41,-1.099568486213684,3.679837942123413,40.815744759032654,40.21807440059861,163.01639960531628,146.724392347407,-0.0001295089750783,0.0956302732229232,0,0,0
13624,475111.6646494213,2010-10-21 05:11:48,1260.6361395828835,7,41,-1.099568486213684,3.674819469451904,40.815744759032654,40.227241653763855,163.01639960531628,146.75810391793758,-0.0001295089750783,0.0956302732229232,0,0,0
13625,475141.6797981774,2010-10-21 05:12:18,1290.6512883289893,7,41,-1.099568486213684,3.6701250076293945,40.815744759032654,40.236408948510864,163.01639960531628,146.79177054280973,-0.0001295089750783,0.0956302732229232,0,0,0
13626,475171.6950927219,2010-10-21 05:12:48,1320.666582878482,7,41,-1.099568486213684,3.665268421173096,40.815744759032654,40.24557625484098,163.01639960531628,146.8253928403155,-0.0001295089750783,0.0956302732229232,0,0,0
13627,475201.7100987824,2010-10-21 05:13:18,1350.6815889389711,7,41,-1.099568486213684,3.660735607147217,40.815744759032654,40.25474343054995,163.01639960531628,146.8589715716029,-6.47544875391759e-05,0.0956302732229232,0,0,0
13628,475231.7252292128,2010-10-21 05:13:48,1380.696719344366,7,41,-1.099568486213684,3.656040906906128,40.815744759032654,40.26391075900164,163.01639960531628,146.89250826277717,-9.713172767078504e-05,0.0956302732229232,0,0,0
13629,475261.74037528224,2010-10-21 05:14:18,1410.711865408788,7,41,-1.099568486213684,3.651508092880249,40.815744759032654,40.27307803154886,163.01639960531628,146.9260030787624,-9.713172767078504e-05,0.0956302732229232,0,0,0
13630,475291.7555232815,2010-10-21 05:14:48,1440.7270134481323,7,41,-1.0997490882873535,3.64681339263916,40.815744759032654,40.28224530675937,163.01639960531628,146.95945619563267,-0.0001295089750783,0.0956302732229232,0,0,0
13631,475321.7706773809,2010-10-21 05:15:18,1470.7421675124926,7,41,-1.099568486213684,3.642604351043701,40.815744759032654,40.29141251582793,163.01639960531628,146.9928677380865,-6.47544875391759e-05,0.0956302732229232,0,0,0
13632,475351.7858085432,2010-10-21 05:15:48,1500.757298674774,7,41,-1.0993878841400146,3.638233423233032,40.815744759032654,40.30057963075719,163.01639960531628,147.02623892915574,-9.713172767078504e-05,0.0956302732229232,0,0,0
13633,475381.8009826224,2010-10-21 05:16:18,1530.7724728041426,7,41,-1.0997490882873535,3.633700609207153,40.815744759032654,40.30974681097699,163.01639960531628,147.05957046098237,-0.0001295089750783,0.0956302732229232,0,0,0
13634,475411.8161052285,2010-10-21 05:16:48,1560.7875953850366,7,41,-1.0993878841400146,3.629653453826904,40.815744759032654,40.31891398034461,163.01639960531628,147.0928630983878,-0.0001295089750783,0.0956302732229232,0,0,0
13635,475441.8312825207,2010-10-21 05:17:18,1590.802772657238,7,41,-1.099568486213684,3.625444412231445,40.815744759032654,40.32808120785265,163.01639960531628,147.1261177819106,-0.0001295089750783,0.0956302732229232,0,0,0
13636,475471.84639501147,2010-10-21 05:17:48,1620.8178851429718,7,41,-1.099568486213684,3.6215591430664062,40.815744759032654,40.337248424968834,163.01639960531628,147.15933501635135,-6.47544875391759e-05,0.0956302732229232,0,0,0
13637,475501.8615377726,2010-10-21 05:18:18,1650.8330279292236,7,41,-1.0993878841400146,3.617511987686157,40.815744759032654,40.34641563282652,163.01639960531628,147.19251536130332,-9.713172767078504e-05,0.0956302732229232,0,0,0
13638,475531.87673219753,2010-10-21 05:18:48,1680.8482224293623,7,41,-1.0993878841400146,3.613626718521118,40.815744759032654,40.35558293068871,163.01639960531628,147.22566009745793,-6.47544875391759e-05,0.0956302732229232,0,0,0
13639,475561.8920298298,2010-10-21 05:19:18,1710.8635199813382,7,41,-1.099568486213684,3.609741449356079,40.815744759032654,40.36475020783579,163.01639960531628,147.25876920996427,-9.713172767078504e-05,0.0956302732229232,0,0,0
13640,475591.9070449528,2010-10-21 05:19:48,1740.878535204664,7,41,-1.099568486213684,3.60601806640625,40.815744759032654,40.37391733667823,163.01639960531628,147.2918431663759,-0.0001295089750783,0.0956302732229232,0,0,0
13641,475621.9221274588,2010-10-21 05:20:18,1770.8936175853669,7,41,-1.0993878841400146,3.602294683456421,40.815744759032654,40.383084504855375,163.01639960531628,147.32488332965846,-0.0001295089750783,0.0956302732229232,0,0,0
13642,475651.9372690621,2010-10-21 05:20:48,1800.9087592839076,7,41,-1.099568486213684,3.5987331867218018,40.815744759032654,40.39225174068677,163.01639960531628,147.35789071584512,-9.713172767078504e-05,0.0956302732229232,0,0,0
13643,475681.9524597679,2010-10-21 05:21:18,1830.92394992944,7,41,-1.0993878841400146,3.5953335762023926,40.815744759032654,40.40141905041536,163.01639960531628,147.39086568421982,-6.47544875391759e-05,0.0956302732229232,0,0,0
13644,475711.96768949577,2010-10-21 05:21:48,1860.939179647352,7,41,-1.0993878841400146,3.5919342041015625,40.815744759032654,40.410586278452286,163.01639960531628,147.42380861824915,-6.470680091297254e-05,0.0956302732229232,0,0,0
13645,475741.98282772064,2010-10-21 05:22:18,1890.9543179123352,7,41,-1.099568486213684,3.5885345935821533,40.815744759032654,40.4197535210571,163.01639960531628,147.4567204843172,-6.47544875391759e-05,0.0956302732229232,0,0,0
13646,475771.9978418763,2010-10-21 05:22:48,1920.9693320078504,7,41,-1.099568486213684,3.585134983062744,40.815744759032654,40.42892075162385,163.01639960531628,147.48960169131587,-9.713172767078504e-05,0.0956302732229232,0,0,0
13647,475802.0130345518,2010-10-21 05:23:18,1950.9845247836915,7,41,-1.0993878841400146,3.581897258758545,40.815744759032654,40.43808803404178,163.01639960531628,147.52245295538006,-6.47544875391759e-05,0.0956302732229232,0,0,0
13648,475832.028262365,2010-10-21 05:23:48,1980.9997525116448,7,41,-1.0993878841400146,3.5786595344543457,40.815744759032654,40.44725542227373,163.01639960531628,147.5552747913517,-6.47544875391759e-05,0.0956302732229232,0,0,0
13649,475862.04334607406,2010-10-21 05:24:18,2011.0148363559947,7,41,-1.099568486213684,3.5754218101501465,40.815744759032654,40.456422780004594,163.01639960531628,147.5880670097073,-9.713172767078504e-05,0.0956302732229232,0,0,0
13650,475892.05844079045,2010-10-21 05:24:48,2041.0299309220677,7,41,-1.099568486213684,3.5721840858459477,40.815744759032654,40.46559002626822,163.01639960531628,147.62082944164584,-9.713172767078504e-05,0.0956302732229232,0,0,0
13651,475922.0736010002,2010-10-21 05:25:18,2071.045091216956,7,41,-1.0993878841400146,3.569108247756958,40.815744759032654,40.474757290587874,163.01639960531628,147.65356319482794,-0.0001295089750783,0.0956302732229232,0,0,0
13652,475952.0887145737,2010-10-21 05:25:48,2101.0602047051884,7,41,-1.0993878841400146,3.5661942958831787,40.815744759032654,40.48392462065208,163.01639960531628,147.68626884151968,-3.237724376958795e-05,0.0956302732229232,0,0,0
13653,475982.10412507714,2010-10-21 05:26:18,2131.075615243761,7,41,-1.099568486213684,3.563118457794189,40.815744759032654,40.493092023154254,163.01639960531628,147.7189463310471,-6.47544875391759e-05,0.0956302732229232,0,0,0
13654,476012.1190257048,2010-10-21 05:26:48,2161.090515856442,7,41,-1.0993878841400146,3.5600426197052,40.815744759032654,40.5022591696489,163.01639960531628,147.7515955030973,-6.47544875391759e-05,0.0956302732229232,0,0,0
13655,476042.1341312032,2010-10-21 05:27:18,2191.105621359773,7,41,-1.0993878841400146,3.556966781616211,40.815744759032654,40.51142650817434,163.01639960531628,147.7842168853682,-6.47544875391759e-05,0.0956302732229232,0,0,0
13656,476072.14926457097,2010-10-21 05:27:48,2221.120754712514,7,41,-1.099568486213684,3.553729057312012,40.815744759032654,40.52059379721591,163.01639960531628,147.81680977508628,-9.713172767078504e-05,0.0956302732229232,0,0,0
13657,476102.1644076429,2010-10-21 05:28:18,2251.135897789491,7,41,-1.0993878841400146,3.5508151054382324,40.815744759032654,40.52976106182977,163.01639960531628,147.8493741058314,-3.237724376958795e-05,0.0956302732229232,0,0,0
13658,476132.1795934213,2010-10-21 05:28:48,2281.151083587942,7,41,-1.099568486213684,3.547577381134033,40.815744759032654,40.53892842862609,163.01639960531628,147.88191050802325,-9.713172767078504e-05,0.0956302732229232,0,0,0
13659,476162.1947109947,2010-10-21 05:29:18,2311.1662012164934,7,41,-1.0993878841400146,3.544663429260254,40.815744759032654,40.54809573716109,163.01639960531628,147.91441837093626,-3.237724376958795e-05,0.0956302732229232,0,0,0
13660,476192.2098494301,2010-10-21 05:29:48,2341.181339591752,7,41,-1.099568486213684,3.5414257049560547,40.815744759032654,40.55726298580432,163.01639960531628,147.9468976461672,-6.47544875391759e-05,0.0956302732229232,0,0,0
13661,476222.2250028429,2010-10-21 05:30:18,2371.196492994463,7,41,-1.0992072820663452,3.538349866867065,40.815744759032654,40.566430292278845,163.01639960531628,147.9793480905194,-6.47544875391759e-05,0.0956302732229232,0,0,0
13662,476252.2401466818,2010-10-21 05:30:48,2401.2116369335886,7,41,-1.099568486213684,3.5347883701324463,40.815744759032654,40.57559758565586,163.01639960531628,148.01176914298108,-6.47544875391759e-05,0.0956302732229232,0,0,0
13663,476282.2552912324,2010-10-21 05:31:18,2431.226781363938,7,41,-1.099568486213684,3.531550645828247,40.815744759032654,40.58476483198298,163.01639960531628,148.0441598065133,-9.713172767078504e-05,0.0956302732229232,0,0,0
13664,476312.2704408256,2010-10-21 05:31:48,2461.241931082467,7,41,-1.099568486213684,3.528151035308838,40.815744759032654,40.59393213564903,163.01639960531628,148.0765198157963,-0.0001295089750783,0.0956302732229232,0,0,0
13665,476342.28554500063,2010-10-21 05:32:18,2491.257035152226,7,41,-1.0993878841400146,3.5247514247894287,40.815744759032654,40.60309939381787,163.01639960531628,148.10884790782043,-9.713172767078504e-05,0.0956302732229232,0,0,0
13666,476372.3006899272,2010-10-21 05:32:48,2521.2721802091364,7,41,-1.099568486213684,3.5210280418396,40.815744759032654,40.61226662438451,163.01639960531628,148.1411432850469,-0.0001295089750783,0.0956302732229232,0,0,0
13667,476402.3158877005,2010-10-21 05:33:18,2551.2873778571206,7,41,-1.099568486213684,3.5173046588897705,40.815744759032654,40.62143388552982,163.01639960531628,148.17340516222663,-0.0001295089750783,0.0956302732229232,0,0,0
13668,476432.3311573078,2010-10-21 05:33:48,2581.3026474744747,7,41,-1.099929690361023,3.513257503509521,40.815744759032654,40.6306012024104,163.01639960531628,148.20563201181986,-0.0001295089750783,0.0956302732229232,0,0,0
13669,476462.34615206014,2010-10-21 05:34:18,2611.317642221768,7,41,-1.099568486213684,3.509210586547852,40.815744759032654,40.63976842989624,163.01639960531628,148.23782182143063,-0.0001295089750783,0.0956302732229232,0,0,0
13670,476492.3612913928,2010-10-21 05:34:48,2641.3327816546625,7,41,-1.099568486213684,3.5050015449523926,40.815744759032654,40.648935726187766,163.01639960531628,148.26997348372134,-9.713172767078504e-05,0.0956302732229232,0,0,0
13671,476522.37669570587,2010-10-21 05:35:18,2671.348185922607,7,41,-1.099568486213684,3.500630617141724,40.815744759032654,40.65810311884545,163.01639960531628,148.30208506506128,-9.713172767078504e-05,0.0956302732229232,0,0,0
13672,476552.3916243483,2010-10-21 05:35:48,2701.363114494972,7,41,-1.099568486213684,3.495774030685425,40.815744759032654,40.667270353580726,163.01639960531628,148.3341531335535,-0.0001295089750783,0.0956302732229232,0,0,0
13673,476582.4067968537,2010-10-21 05:36:18,2731.3782870203427,7,41,-1.0993878841400146,3.490269899368286,40.815744759032654,40.67643772585141,163.01639960531628,148.36617496264145,-0.0001618862152099,0.0956302732229232,0,0,0
13674,476612.4219142917,2010-10-21 05:36:48,2761.393404453407,7,41,-1.099568486213684,3.484603881835937,40.815744759032654,40.68560504276298,163.01639960531628,148.39814600310896,-0.0001618862152099,0.0956302732229232,0,0,0
13675,476642.4371015889,2010-10-21 05:37:18,2791.408591775656,7,41,-1.099568486213684,3.478128433227539,40.815744759032654,40.69477234410216,163.01639960531628,148.43006057230895,-0.0001942634553415,0.0956302732229232,0,0,0
13676,476672.4523311365,2010-10-21 05:37:48,2821.423821293069,7,41,-1.0993878841400146,3.470681667327881,40.815744759032654,40.70393971852887,163.01639960531628,148.46191211446876,-0.0002266406954731,0.0956302732229232,0,0,0
13677,476702.4673480891,2010-10-21 05:38:18,2851.4388382507173,7,41,-1.099568486213684,3.462587356567383,40.815744759032654,40.7131069996952,163.01639960531628,148.4936924142651,-0.0002266406954731,0.0956302732229232,0,0,0
13678,476732.4825033614,2010-10-21 05:38:48,2881.4539934980257,7,41,-1.099568486213684,3.453197956085205,40.815744759032654,40.72227432057648,163.01639960531628,148.52539295176004,-0.0002590179501567,0.0956302732229232,0,0,0
13679,476762.4976663832,2010-10-21 05:39:18,2911.469156524723,7,41,-1.0993878841400146,3.442513465881348,40.815744759032654,40.73144169680402,163.01639960531628,148.55700148144868,-0.0002590179501567,0.0956302732229232,0,0,0
13680,476792.5127782624,2010-10-21 05:39:48,2941.484268408958,7,41,-1.099568486213684,3.42956280708313,40.815744759032654,40.74060903091064,163.01639960531628,148.58850175694656,-0.0003884792386088,0.0956302732229232,0,0,0
13681,476822.52791810624,2010-10-21 05:40:19,2971.499408237839,7,41,-1.0993878841400146,3.4143455028533936,40.815744759032654,40.7497763540884,163.01639960531628,148.6198731934264,-0.0004209041653666,0.0956302732229232,0,0,0
13682,476852.5432206959,2010-10-21 05:40:49,3001.514710842407,7,41,-1.099568486213684,3.395242929458618,40.815744759032654,40.758943751619846,163.01639960531628,148.6510883849275,-0.0004856586456298,0.0956302732229232,0,0,0
13683,476882.55823448056,2010-10-21 05:41:19,3031.529724637173,7,41,-1.0993878841400146,3.371445655822754,40.815744759032654,40.76811108578662,163.01639960531628,148.6821089304813,-0.0006799221155233,0.0956302732229232,0,0,0
13684,476912.5733794923,2010-10-21 05:41:49,3061.5448696389462,7,41,-1.099568486213684,3.3400399684906006,40.815744759032654,40.7772784691757,163.01639960531628,148.712878597392,-0.0009065627818927,0.0956302732229232,0,0,0
13685,476942.5884937926,2010-10-21 05:42:19,3091.55998395424,7,41,-1.099568486213684,3.297463893890381,40.815744759032654,40.786445815375146,163.01639960531628,148.74331256279365,-0.0012950897216796,0.0956302732229232,0,0,0
13686,476972.6036475311,2010-10-21 05:42:49,3121.575137667726,7,41,-1.099568486213684,3.2374043464660645,40.815744759032654,40.7956131038948,163.01639960531628,148.77328216293353,-0.0018455028766766,0.0956302732229232,0,0,0
13687,477002.61879634246,2010-10-21 05:43:19,3151.590286473981,7,41,-1.099568486213684,3.148852825164795,40.815744759032654,40.80478041905451,163.01639960531628,148.8025834414093,-0.0028491974808275,0.0956302732229232,0,0,0
13688,477032.6340725262,2010-10-21 05:43:49,3181.605562762963,7,41,-1.099568486213684,3.0067172050476074,40.815744759032654,40.81394781738554,163.01639960531628,148.83086161638022,-0.0048889159224927,0.0956302732229232,0,0,0
13689,477054.6337114504,2010-10-21 05:44:11,3203.60520162212,7,41,-1.0993878841400146,2.806626319885254,40.815744759032654,40.82066704268596,163.01639960531628,148.85046157429107,-0.0092275142669677,0.0956302732229232,0,0,0
13690,477062.789824594,2010-10-21 05:44:19,3211.761314740584,7,41,-1.0993878841400146,2.699781894683838,40.815744759032654,40.82315809787529,163.01639960531628,148.85732336402285,-0.0109110828489065,0.0956302732229232,0,0,0
13691,477122.8163693856,2010-10-21 05:45:19,60.01468156250965,8,41,0.0,3.366427183151245,40.815744759032654,40.82315809787529,163.01639960531628,148.85732336402285,0.0013274669181555,0.0956302732229232,0,0,0
13692,477123.01677528507,2010-10-21 05:45:19,0.187485165720719,9,41,-1.9243103452026844e-05,3.366589069366455,40.815744759032654,40.82315809887746,163.01639960531628,148.85732336739673,0.0,0.0923051163554191,0,0,0
13693,477127.8448678322,2010-10-21 05:45:24,5.015577722940251,9,41,0.0007031940040178,3.374683380126953,40.81574562913509,40.82315809896176,163.01640253879012,148.85732336768055,0.0011332035064697,0.0923051163554191,0,0,0
