Data_Point,Test_Time(s),Date_Time,Step_Time(s),Step_Index,Cycle_Index,Current(A),Voltage(V),Charge_Capacity(Ah),Discharge_Capacity(Ah),Charge_Energy(Wh),Discharge_Energy(Wh),dV/dt(V/s),Internal_Resistance(Ohm),Is_FC_Data,AC_Impedance(Ohm),ACI_Phase_Angle(Deg)
12375,430884.3725648041,2010-10-20 16:54:36,30.015147798744565,1,38,0.0,3.4195258617401123,36.8791863555298,36.883653287415605,147.28182144777892,134.5145612982493,0.0007770538213662,0.0931148082017898,0,0,0
12376,430914.3877255651,2010-10-20 16:55:06,60.03030861493261,1,38,0.0,3.4441323280334477,36.8791863555298,36.883653287415605,147.28182144777892,134.5145612982493,0.0005504131549969,0.0931148082017898,0,0,0
12377,430944.4029722904,2010-10-20 16:55:36,90.04555530514513,1,38,0.0,3.4627492427825928,36.8791863555298,36.883653287415605,147.28182144777892,134.5145612982493,0.0004856586456298,0.0931148082017898,0,0,0
12378,430974.37111594033,2010-10-20 16:56:06,120.0136989300256,1,38,0.0,3.477642774581909,36.8791863555298,36.883653287415605,147.28182144777892,134.5145612982493,0.0003885269106831,0.0931148082017898,0,0,0
12379,431004.38015498366,2010-10-20 16:56:36,30.01514262083963,2,38,0.5501165986061096,3.630786657333374,36.88377259517005,36.883653287415605,147.29832085375358,134.5145612982493,0.0014893531333655,0.0931148082017898,0,0,0
12380,431034.3953001308,2010-10-20 16:57:06,60.03028779303804,2,38,0.5501165986061096,3.674495697021485,36.88835889637114,36.883653287415605,147.31507917124014,134.5145612982493,0.001003646873869,0.0931148082017898,0,0,0
12381,431064.4104738191,2010-10-20 16:57:36,90.04546148631974,2,38,0.5501165986061096,3.705577850341797,36.89294511237111,36.883653287415605,147.33200542111658,134.5145612982493,0.0007446765666827,0.0931148082017898,0,0,0
12382,431094.42567823885,2010-10-20 16:58:06,120.0606660114439,2,38,0.5501165986061096,3.729537010192871,36.8975313647135,36.883653287415605,147.3490573049075,134.5145612982493,0.0005504131549969,0.0931148082017898,0,0,0
12383,431124.44072633423,2010-10-20 16:58:36,150.0757140014343,2,38,0.5501165986061096,3.7489633560180655,36.90211763117183,36.883653287415605,147.36620840503133,134.5145612982493,0.0004532813909463,0.0931148082017898,0,0,0
12384,431154.4558527496,2010-10-20 16:59:06,180.09084037678522,2,38,0.550297200679779,3.7643423080444336,36.90670390546742,36.883653287415605,147.38343903047547,134.5145612982493,0.0003885269106831,0.0931148082017898,0,0,0
12385,431184.4710060622,2010-10-20 16:59:36,210.1059936992967,2,38,0.5501165986061096,3.774379253387451,36.9112901777469,36.883653287415605,147.40072768056962,134.5145612982493,0.0002590179501567,0.0931148082017898,0,0,0
12386,431214.48626731365,2010-10-20 17:00:06,240.1212551061877,2,38,0.5499359965324402,3.78036904335022,36.915876450050426,36.883653287415605,147.41805226419342,134.5145612982493,0.0001618862152099,0.0931148082017898,0,0,0
12387,431244.50140247087,2010-10-20 17:00:36,270.1363901180635,2,38,0.5499359965324402,3.7847399711608887,36.92046272926049,36.883653287415605,147.43540039982682,134.5145612982493,9.713172767078504e-05,0.0931148082017898,0,0,0
12388,431274.5164223058,2010-10-20 17:01:06,300.15140993283256,2,38,0.5501165986061096,3.7887871265411377,36.92504904055132,36.883653287415605,147.45276773200513,134.5145612982493,6.47544875391759e-05,0.0931148082017898,0,0,0
12389,431304.5317045445,2010-10-20 17:01:36,330.1666921916932,2,38,0.5501165986061096,3.792510509490967,36.92963542775027,36.883653287415605,147.47015322716192,134.5145612982493,9.713172767078504e-05,0.0931148082017898,0,0,0
12390,431334.5467211112,2010-10-20 17:02:06,360.18170877340447,2,38,0.550297200679779,3.796557664871216,36.93422172313768,36.883653287415605,147.4875558982809,134.5145612982493,9.713172767078504e-05,0.0931148082017898,0,0,0
12391,431364.5618495116,2010-10-20 17:02:36,390.19683715876494,2,38,0.5501165986061096,3.800119161605835,36.93880806662981,36.883653287415605,147.5049759874607,134.5145612982493,6.47544875391759e-05,0.0931148082017898,0,0,0
12392,431394.5771549081,2010-10-20 17:03:06,420.2121425502792,2,38,0.5501165986061096,3.803680658340454,36.94339451438306,36.883653287415605,147.52241339565097,134.5145612982493,9.713172767078504e-05,0.0931148082017898,0,0,0
12393,431424.59213907406,2010-10-20 17:03:36,450.2271267412629,2,38,0.550297200679779,3.807565927505493,36.947980855559344,36.883653287415605,147.53986692851336,134.5145612982493,0.0001618862152099,0.0931148082017898,0,0,0
12394,431454.6072538003,2010-10-20 17:04:06,480.2422414525432,2,38,0.5501165986061096,3.810803651809693,36.952567208951294,36.883653287415605,147.55733696353124,134.5145612982493,6.47544875391759e-05,0.0931148082017898,0,0,0
12395,431484.6226729704,2010-10-20 17:04:36,510.2576606126038,2,38,0.5499359965324402,3.814365148544312,36.957153548869286,36.883653287415605,147.57482318005722,134.5145612982493,6.47544875391759e-05,0.0931148082017898,0,0,0
12396,431514.6375539893,2010-10-20 17:05:06,540.2725416565131,2,38,0.5499359965324402,3.817602872848511,36.96173980444885,36.883653287415605,147.59232496415473,134.5145612982493,3.237724376958795e-05,0.0931148082017898,0,0,0
12397,431544.652711778,2010-10-20 17:05:36,570.2876994401431,2,38,0.5499359965324402,3.82132625579834,36.96632607097831,36.883653287415605,147.60984227850147,134.5145612982493,9.713172767078504e-05,0.0931148082017898,0,0,0
12398,431574.6677838831,2010-10-20 17:06:06,600.3027715201735,2,38,0.5501165986061096,3.824563980102539,36.970912358092114,36.883653287415605,147.62737495138518,134.5145612982493,6.47544875391759e-05,0.0931148082017898,0,0,0
12399,431604.6829662529,2010-10-20 17:06:36,630.3179538900798,2,38,0.5501165986061096,3.8278017044067374,36.975498685986665,36.883653287415605,147.64492293013151,134.5145612982493,6.47544875391759e-05,0.0931148082017898,0,0,0
12400,431634.6981157208,2010-10-20 17:07:06,660.3331034682593,2,38,0.5499359965324402,3.8310394287109375,36.98008498190252,36.883653287415605,147.6624858981418,134.5145612982493,6.47544875391759e-05,0.0931148082017898,0,0,0
12401,431664.7132766573,2010-10-20 17:07:36,690.3482642944724,2,38,0.5501165986061096,3.8346006870269775,36.98467138457093,36.883653287415605,147.6800644678633,134.5145612982493,9.713172767078504e-05,0.0931148082017898,0,0,0
12402,431694.7284227368,2010-10-20 17:08:06,720.3634103689195,2,38,0.5499359965324402,3.837676525115967,36.98925768915022,36.883653287415605,147.6976579864286,134.5145612982493,6.47544875391759e-05,0.0931148082017898,0,0,0
12403,431724.7435328866,2010-10-20 17:08:36,750.3785205489065,2,38,0.550297200679779,3.841238021850586,36.99384403969669,36.883653287415605,147.7152671698468,134.5145612982493,9.713172767078504e-05,0.0931148082017898,0,0,0
12404,431754.75882245874,2010-10-20 17:09:06,780.3938101059563,2,38,0.5501165986061096,3.844637632369995,36.99843041789528,36.883653287415605,147.7328921834486,134.5145612982493,0.0001295089750783,0.0931148082017898,0,0,0
12405,431784.773960022,2010-10-20 17:09:36,810.4089476992659,2,38,0.5501165986061096,3.848037242889404,37.003016738858754,36.883653287415605,147.75053284497218,134.5145612982493,6.47544875391759e-05,0.0931148082017898,0,0,0
12406,431814.78898268886,2010-10-20 17:10:06,840.4239703410808,2,38,0.5501165986061096,3.8514368534088135,37.00760310924764,36.883653287415605,147.76818944592287,134.5145612982493,3.237724376958795e-05,0.0931148082017898,0,0,0
12407,431844.80412886856,2010-10-20 17:10:36,870.4391165408404,2,38,0.550297200679779,3.8549983501434326,37.01218944965273,36.883653287415605,147.78586145217307,134.5145612982493,0.0001295089750783,0.0931148082017898,0,0,0
12408,431874.8192538504,2010-10-20 17:11:06,900.4542414776057,2,38,0.5499359965324402,3.858074188232422,37.016775823183785,36.883653287415605,147.8035490663095,134.5145612982493,6.47544875391759e-05,0.0931148082017898,0,0,0
12409,431904.8344233032,2010-10-20 17:11:36,930.4694109403436,2,38,0.550297200679779,3.861473798751831,37.02136218909216,36.883653287415605,147.82125175696478,134.5145612982493,9.713172767078504e-05,0.0931148082017898,0,0,0
12410,431934.8497950903,2010-10-20 17:12:06,960.4847827373608,2,38,0.5499359965324402,3.86454963684082,37.02594856570905,36.883653287415605,147.83896930900022,134.5145612982493,6.47544875391759e-05,0.0931148082017898,0,0,0
12411,431964.8646971064,2010-10-20 17:12:36,990.4996848036644,2,38,0.5499359965324402,3.86778736114502,37.03053481999813,36.883653287415605,147.8567008778018,134.5145612982493,6.47544875391759e-05,0.0931148082017898,0,0,0
12412,431994.8798279729,2010-10-20 17:13:06,1020.5148156050464,2,38,0.550297200679779,3.870863199234009,37.0351211732276,36.883653287415605,147.87444701807115,134.5145612982493,6.47544875391759e-05,0.0931148082017898,0,0,0
12413,432024.8951778553,2010-10-20 17:13:36,1050.530165522533,2,38,0.5501165986061096,3.873777151107788,37.03970756303463,36.883653287415605,147.8922071675813,134.5145612982493,6.47544875391759e-05,0.0931148082017898,0,0,0
12414,432054.9101136156,2010-10-20 17:14:06,1080.5451012828128,2,38,0.5501165986061096,3.876691102981568,37.04429393006544,36.883653287415605,147.90998050181616,134.5145612982493,9.713172767078504e-05,0.0931148082017898,0,0,0
12415,432084.9252871685,2010-10-20 17:14:36,1110.560274930982,2,38,0.5501165986061096,3.8794431686401367,37.048880308762456,36.883653287415605,147.92776673490297,134.5145612982493,3.237724376958795e-05,0.0931148082017898,0,0,0
12416,432114.9403906418,2010-10-20 17:15:06,1140.5753782839538,2,38,0.5501165986061096,3.882033348083496,37.05346662086602,36.883653287415605,147.94556501725478,134.5145612982493,9.713172767078504e-05,0.0931148082017898,0,0,0
12417,432144.9555467011,2010-10-20 17:15:36,1170.5905343432864,2,38,0.5501165986061096,3.8844616413116455,37.05805298024879,36.883653287415605,147.9633752015258,134.5145612982493,6.47544875391759e-05,0.0931148082017898,0,0,0
12418,432174.9708264688,2010-10-20 17:16:06,1200.6058141159506,2,38,0.550297200679779,3.886889934539795,37.0626393383976,36.883653287415605,147.9811963835569,134.5145612982493,6.47544875391759e-05,0.0931148082017898,0,0,0
12419,432204.9858138528,2010-10-20 17:16:36,1230.6208014948795,2,38,0.5501165986061096,3.8891563415527344,37.06722563177022,36.883653287415605,147.9990277890127,134.5145612982493,6.47544875391759e-05,0.0931148082017898,0,0,0
12420,432235.0010890991,2010-10-20 17:17:06,1260.6360767362503,2,38,0.5499359965324402,3.890937089920044,37.071812009509735,36.883653287415605,148.0168692987549,134.5145612982493,0.0,0.0931148082017898,0,0,0
12421,432265.0161094001,2010-10-20 17:17:36,1290.6510970372312,2,38,0.5501165986061096,3.893203496932984,37.076398341460845,36.883653287415605,148.034719801012,134.5145612982493,9.713172767078504e-05,0.0931148082017898,0,0,0
12422,432295.03137206007,2010-10-20 17:18:06,1320.6663597072704,2,38,0.5501165986061096,3.894822359085083,37.08098473496846,36.883653287415605,148.0525790823631,134.5145612982493,3.237724376958795e-05,0.0931148082017898,0,0,0
12423,432325.0465050068,2010-10-20 17:18:37,1350.6814926439745,2,38,0.5499359965324402,3.896441221237183,37.08557107660575,36.883653287415605,148.07044556402252,134.5145612982493,6.47544875391759e-05,0.0931148082017898,0,0,0
12424,432355.0615192527,2010-10-20 17:19:07,1380.6965069149264,2,38,0.5499359965324402,3.897898197174072,37.09015734838682,36.883653287415605,148.0883193828795,134.5145612982493,6.47544875391759e-05,0.0931148082017898,0,0,0
12425,432385.076690921,2010-10-20 17:19:37,1410.7116785781486,2,38,0.5501165986061096,3.899517059326172,37.09474365930658,36.883653287415605,148.106200390983,134.5145612982493,6.47544875391759e-05,0.0931148082017898,0,0,0
12426,432415.0918054317,2010-10-20 17:20:07,1440.7267930688793,2,38,0.5501165986061096,3.900812149047852,37.099330034814685,36.883653287415605,148.1240882025144,134.5145612982493,0.0,0.0931148082017898,0,0,0
12427,432445.1069458971,2010-10-20 17:20:37,1470.7419335594095,2,38,0.5501165986061096,3.902269124984741,37.10391639010992,36.883653287415605,148.1419823262182,134.5145612982493,6.47544875391759e-05,0.0931148082017898,0,0,0
12428,432475.1221035003,2010-10-20 17:21:07,1500.7570911275025,2,38,0.5501165986061096,3.903564214706421,37.10850278313405,36.883653287415605,148.15988277250597,134.5145612982493,0.0,0.0931148082017898,0,0,0
12429,432505.1372545923,2010-10-20 17:21:37,1530.7722422395043,2,38,0.550297200679779,3.905021190643311,37.1130891981676,36.883653287415605,148.17778940137472,134.5145612982493,3.237724376958795e-05,0.0931148082017898,0,0,0
12430,432535.1523726269,2010-10-20 17:22:07,1560.7873602640427,2,38,0.5501165986061096,3.90615439414978,37.11767556929577,36.883653287415605,148.19570163650488,134.5145612982493,3.237724376958795e-05,0.0931148082017898,0,0,0
12431,432565.167517403,2010-10-20 17:22:37,1590.8025051254665,2,38,0.5501165986061096,3.90744948387146,37.12226188807488,36.883653287415605,148.21361959017665,134.5145612982493,0.0,0.0931148082017898,0,0,0
12432,432595.182687327,2010-10-20 17:23:07,1620.8176750142663,2,38,0.5499359965324402,3.90874457359314,37.12684824582948,36.883653287415605,148.23154346760836,134.5145612982493,3.237724376958795e-05,0.0931148082017898,0,0,0
12433,432625.19781046925,2010-10-20 17:23:37,1650.8327981415218,2,38,0.5499359965324402,3.90987777709961,37.131434636257744,36.883653287415605,148.24947338372257,134.5145612982493,3.237724376958795e-05,0.0931148082017898,0,0,0
12434,432655.2129580574,2010-10-20 17:24:07,1680.8479457197168,2,38,0.5499359965324402,3.911172866821289,37.136021032407,36.883653287415605,148.2674090592287,134.5145612982493,0.0,0.0931148082017898,0,0,0
12435,432685.2281027685,2010-10-20 17:24:37,1710.8630904057036,2,38,0.5499359965324402,3.9124679565429688,37.140607391846096,36.883653287415605,148.28535043539097,134.5145612982493,3.237724376958795e-05,0.0931148082017898,0,0,0
12436,432715.2433474737,2010-10-20 17:25:07,1740.8783351209938,2,38,0.5501165986061096,3.913762807846069,37.14519378447862,36.883653287415605,148.30329778920702,134.5145612982493,3.23295607813634e-05,0.0931148082017898,0,0,0
12437,432745.25837500783,2010-10-20 17:25:37,1770.8933627051267,2,38,0.5499359965324402,3.915057897567749,37.14977927687608,36.883653287415605,148.32124739720993,134.5145612982493,6.47544875391759e-05,0.0931148082017898,0,0,0
12438,432775.2735034784,2010-10-20 17:26:07,1800.908491130587,2,38,0.5499359965324402,3.9163529872894287,37.154364753773,36.883653287415605,148.33920274281002,134.5145612982493,3.237724376958795e-05,0.0931148082017898,0,0,0
12439,432805.2886613522,2010-10-20 17:26:37,1830.923648994417,2,38,0.5499359965324402,3.917648077011109,37.158950195622495,36.883653287415605,148.35716404106373,134.5145612982493,3.237724376958795e-05,0.0931148082017898,0,0,0
12440,432835.3037938729,2010-10-20 17:27:07,1860.938781620346,2,38,0.5499359965324402,3.918943166732788,37.16353560931861,36.883653287415605,148.37513131074985,134.5145612982493,0.0,0.0931148082017898,0,0,0
12441,432865.3189601828,2010-10-20 17:27:37,1890.953947829976,2,38,0.5501165986061096,3.920238256454468,37.168121837035216,36.883653287415605,148.3931080455778,134.5145612982493,-3.237724376958795e-05,0.0931148082017898,0,0,0
12442,432895.3342027628,2010-10-20 17:28:07,1920.9691904099448,2,38,0.5497553944587708,3.921533346176148,37.172708241581965,36.883653287415605,148.41109153976953,134.5145612982493,0.0,0.0931148082017898,0,0,0
12443,432925.3492168884,2010-10-20 17:28:37,1950.9842045555845,2,38,0.5501165986061096,3.922990322113037,37.17729457798506,36.883653287415605,148.42908098632404,134.5145612982493,0.0,0.0931148082017898,0,0,0
12444,432955.3643681407,2010-10-20 17:29:07,1980.999355923224,2,38,0.5499359965324402,3.924447298049927,37.18188092443834,36.883653287415605,148.44707666211335,134.5145612982493,3.237724376958795e-05,0.0931148082017898,0,0,0
12445,432985.3797209104,2010-10-20 17:29:37,2011.0147086677568,2,38,0.5499359965324402,3.925904273986816,37.18646732781996,36.883653287415605,148.46507887666968,134.5145612982493,3.237724376958795e-05,0.0931148082017898,0,0,0
12446,433015.381711016,2010-10-20 17:30:07,2041.016698768469,2,38,0.5499359965324402,3.927199363708496,37.191051696224456,36.883653287415605,148.48307929110408,134.5145612982493,3.237724376958795e-05,0.0931148082017898,0,0,0
12447,433045.3952137498,2010-10-20 17:30:37,2071.0302015222555,2,38,0.5499359965324402,3.928494453430176,37.1956377706697,36.883653287415605,148.5010928114181,134.5145612982493,0.0,0.0931148082017898,0,0,0
12448,433075.4093193911,2010-10-20 17:31:07,2101.044307028286,2,38,0.5501165986061096,3.9301133155822754,37.2002238943515,36.883653287415605,148.51911291897437,134.5145612982493,6.47544875391759e-05,0.0931148082017898,0,0,0
12449,433105.4244499218,2010-10-20 17:31:37,2131.059437558993,2,38,0.5499359965324402,3.931246519088745,37.204810321300606,36.883653287415605,148.53714069955225,134.5145612982493,3.237724376958795e-05,0.0931148082017898,0,0,0
12450,433135.4396005125,2010-10-20 17:32:07,2161.074588144684,2,38,0.5501165986061096,3.9327034950256343,37.209396711022336,36.883653287415605,148.55517479529257,134.5145612982493,6.47544875391759e-05,0.0931148082017898,0,0,0
12451,433165.4548778592,2010-10-20 17:32:37,2191.0898656015765,2,38,0.550297200679779,3.9343223571777344,37.21398309083498,36.883653287415605,148.573215471688,134.5145612982493,6.47544875391759e-05,0.0931148082017898,0,0,0
12452,433195.46986933326,2010-10-20 17:33:07,2221.104856960424,2,38,0.5499359965324402,3.935455560684204,37.21856944615927,36.883653287415605,148.5912627118216,134.5145612982493,-3.237724376958795e-05,0.0931148082017898,0,0,0
12453,433225.4850220192,2010-10-20 17:33:37,2251.1200096964744,2,38,0.5501165986061096,3.9372363090515137,37.22315583151546,36.883653287415605,148.6093165821243,134.5145612982493,3.237724376958795e-05,0.0931148082017898,0,0,0
12454,433255.5001861586,2010-10-20 17:34:07,2281.135173795845,2,38,0.550297200679779,3.9386932849884033,37.22774209575009,36.883653287415605,148.62737678215106,134.5145612982493,6.47544875391759e-05,0.0931148082017898,0,0,0
12455,433285.5153034113,2010-10-20 17:34:37,2311.150291048459,2,38,0.5497553944587708,3.939988374710083,37.23232840452183,36.883653287415605,148.64544392171837,134.5145612982493,3.237724376958795e-05,0.0931148082017898,0,0,0
12456,433315.5304336212,2010-10-20 17:35:07,2341.1654212884414,2,38,0.5499359965324402,3.9414453506469727,37.23691471249935,36.883653287415605,148.66351790642656,134.5145612982493,0.0,0.0931148082017898,0,0,0
12457,433345.5455901818,2010-10-20 17:35:37,2371.180577864061,2,38,0.5501165986061096,3.943226099014282,37.24150102499978,36.883653287415605,148.6815987360086,134.5145612982493,6.47544875391759e-05,0.0931148082017898,0,0,0
12458,433375.5607425319,2010-10-20 17:36:07,2401.195730189087,2,38,0.5499359965324402,3.944683074951172,37.24608731503672,36.883653287415605,148.69968644448977,134.5145612982493,6.47544875391759e-05,0.0931148082017898,0,0,0
12459,433405.57586212526,2010-10-20 17:36:37,2431.2108498777725,2,38,0.5501165986061096,3.9461400508880615,37.2506736500852,36.883653287415605,148.7177813542065,134.5145612982493,6.47544875391759e-05,0.0931148082017898,0,0,0
12460,433435.59126750106,2010-10-20 17:37:07,2461.2262551331783,2,38,0.5501165986061096,3.947597026824951,37.25526001532781,36.883653287415605,148.73588328441627,134.5145612982493,3.237724376958795e-05,0.0931148082017898,0,0,0
12461,433465.60615309625,2010-10-20 17:37:37,2491.241140733443,2,38,0.5501165986061096,3.949215888977051,37.2598462269246,36.883653287415605,148.75399178359666,134.5145612982493,3.237724376958795e-05,0.0931148082017898,0,0,0
12462,433495.6213005541,2010-10-20 17:38:07,2521.2562882113884,2,38,0.5501165986061096,3.9508347511291504,37.26443246174199,36.883653287415605,148.77210752141437,134.5145612982493,3.237724376958795e-05,0.0931148082017898,0,0,0
12463,433525.63642739074,2010-10-20 17:38:37,2551.271415027839,2,38,0.5499359965324402,3.95245361328125,37.269018821156514,36.883653287415605,148.79023096731203,134.5145612982493,6.47544875391759e-05,0.0931148082017898,0,0,0
12464,433555.6515686632,2010-10-20 17:39:07,2581.2865563253804,2,38,0.550297200679779,3.95391058921814,37.27360518591005,36.883653287415605,148.8083616996771,134.5145612982493,3.237724376958795e-05,0.0931148082017898,0,0,0
12465,433585.6668588468,2010-10-20 17:39:37,2611.301846493954,2,38,0.5501165986061096,3.9555294513702393,37.27819156088875,36.883653287415605,148.82649978798233,134.5145612982493,3.237724376958795e-05,0.0931148082017898,0,0,0
12466,433615.6818603409,2010-10-20 17:40:07,2641.316847973025,2,38,0.5501165986061096,3.957148313522339,37.28277790263062,36.883653287415605,148.84464514749993,134.5145612982493,3.237724376958795e-05,0.0931148082017898,0,0,0
12467,433645.6970007813,2010-10-20 17:40:37,2671.3319884184425,2,38,0.5501165986061096,3.958929061889648,37.28736428770132,36.883653287415605,148.86279802163904,134.5145612982493,6.47544875391759e-05,0.0931148082017898,0,0,0
12468,433675.7121294273,2010-10-20 17:41:07,2701.3471170644525,2,38,0.5499359965324402,3.960386037826538,37.29195058281088,36.883653287415605,148.88095804020895,134.5145612982493,0.0,0.0931148082017898,0,0,0
12469,433705.7274334654,2010-10-20 17:41:37,2731.362421207856,2,38,0.5499359965324402,3.9620048999786377,37.29653699210929,36.883653287415605,148.89912612294378,134.5145612982493,3.237724376958795e-05,0.0931148082017898,0,0,0
12470,433735.7424024886,2010-10-20 17:42:07,2761.377390150837,2,38,0.5501165986061096,3.9637856483459473,37.30112331750463,36.883653287415605,148.9173014276351,134.5145612982493,6.47544875391759e-05,0.0931148082017898,0,0,0
12471,433765.7574655311,2010-10-20 17:42:37,2791.392453168281,2,38,0.5497553944587708,3.965404510498047,37.30570963318224,36.883653287415605,148.9354843917129,134.5145612982493,0.0,0.0931148082017898,0,0,0
12472,433795.77287903207,2010-10-20 17:43:07,2821.4078666993123,2,38,0.5501165986061096,3.967185258865357,37.31029602477196,36.883653287415605,148.95367546174947,134.5145612982493,6.47544875391759e-05,0.0931148082017898,0,0,0
12473,433825.78786968417,2010-10-20 17:43:37,2851.422857381474,2,38,0.5501165986061096,3.968966007232666,37.3148823470032,36.883653287415605,148.97187392020044,134.5145612982493,6.47544875391759e-05,0.0931148082017898,0,0,0
12474,433855.8030237635,2010-10-20 17:44:07,2881.438011430797,2,38,0.5499359965324402,3.9705848693847656,37.31946861619896,36.883653287415605,148.99007999096213,134.5145612982493,3.237724376958795e-05,0.0931148082017898,0,0,0
12475,433885.8182543686,2010-10-20 17:44:37,2911.453242973256,2,38,0.5499359965324402,3.972203731536865,37.32405493067044,36.883653287415605,149.00829416254845,134.5145612982493,3.237724376958795e-05,0.0931148082017898,0,0,0
12476,433915.83328846906,2010-10-20 17:45:07,2941.4682761062186,2,38,0.5501165986061096,3.973984479904175,37.32864133674064,36.883653287415605,149.02651663021922,134.5145612982493,3.237724376958795e-05,0.0931148082017898,0,0,0
12477,433945.8484352102,2010-10-20 17:45:37,2971.483422877402,2,38,0.550297200679779,3.975765228271485,37.33322774534319,36.883653287415605,149.0447471441178,134.5145612982493,3.237724376958795e-05,0.0931148082017898,0,0,0
12478,433975.8637791327,2010-10-20 17:46:07,3001.498766860097,2,38,0.5501165986061096,3.977545976638794,37.33781415786287,36.883653287415605,149.0629857852702,134.5145612982493,6.47544875391759e-05,0.0931148082017898,0,0,0
12479,434005.87874071737,2010-10-20 17:46:37,3031.513728354514,2,38,0.5499359965324402,3.9791648387908936,37.3424004642925,36.883653287415605,149.08123161320432,134.5145612982493,3.237724376958795e-05,0.0931148082017898,0,0,0
12480,434035.89389229554,2010-10-20 17:47:07,3061.5288799577406,2,38,0.5501165986061096,3.981107473373413,37.34698676198289,36.883653287415605,149.0994861094808,134.5145612982493,6.47544875391759e-05,0.0931148082017898,0,0,0
12481,434065.9090127962,2010-10-20 17:47:37,3091.544000463463,2,38,0.5501165986061096,3.9830501079559326,37.35157303408072,36.883653287415605,149.11774882806154,134.5145612982493,6.47544875391759e-05,0.0931148082017898,0,0,0
12482,434095.9241922088,2010-10-20 17:48:07,3121.559179961211,2,38,0.5501165986061096,3.984830856323242,37.35615933249786,36.883653287415605,149.1360199760597,134.5145612982493,6.47544875391759e-05,0.0931148082017898,0,0,0
12483,434125.9394083277,2010-10-20 17:48:37,3151.574395959931,2,38,0.5499359965324402,3.986611604690552,37.36074557018278,36.883653287415605,149.15429926371985,134.5145612982493,6.47544875391759e-05,0.0931148082017898,0,0,0
12484,434155.95441708,2010-10-20 17:49:07,3181.5894047171414,2,38,0.5501165986061096,3.988392353057861,37.36533182094835,36.883653287415605,149.17258704588195,134.5145612982493,6.47544875391759e-05,0.0931148082017898,0,0,0
12485,434185.9695623424,2010-10-20 17:49:37,3211.604549979564,2,38,0.5501165986061096,3.990334987640381,37.36991808825946,36.883653287415605,149.1908834443944,134.5145612982493,3.237724376958795e-05,0.0931148082017898,0,0,0
12486,434215.9847414291,2010-10-20 17:50:07,3241.619729111401,2,38,0.5499359965324402,3.9921157360076895,37.37450430005181,36.883653287415605,149.2091882537982,134.5145612982493,3.237724376958795e-05,0.0931148082017898,0,0,0
12487,434245.9998656792,2010-10-20 17:50:37,3271.634853341405,2,38,0.5499359965324402,3.994058132171631,37.37909059179388,36.883653287415605,149.2275021131431,134.5145612982493,6.470680091297254e-05,0.0931148082017898,0,0,0
12488,434276.0149899142,2010-10-20 17:51:08,3301.649977541334,2,38,0.5501165986061096,3.9960007667541504,37.38367684932206,36.883653287415605,149.2458246481573,134.5145612982493,3.237724376958795e-05,0.0931148082017898,0,0,0
12489,434306.0301246805,2010-10-20 17:51:38,3331.6651123126094,2,38,0.5499359965324402,3.99794340133667,37.38826311490687,36.883653287415605,149.26415605019884,134.5145612982493,3.237724376958795e-05,0.0931148082017898,0,0,0
12490,434336.04528208816,2010-10-20 17:52:08,3361.680269750378,2,38,0.5501165986061096,3.9998860359191895,37.39284936970108,36.883653287415605,149.2824961600916,134.5145612982493,3.237724376958795e-05,0.0931148082017898,0,0,0
12491,434366.06041323545,2010-10-20 17:52:38,3391.6954008725597,2,38,0.5499359965324402,4.001828670501709,37.39743563886449,36.883653287415605,149.3008454161668,134.5145612982493,6.47544875391759e-05,0.0931148082017898,0,0,0
12492,434396.0755447937,2010-10-20 17:53:08,3421.7105324208023,2,38,0.5499359965324402,4.0037713050842285,37.402021935560846,36.883653287415605,149.31920395573627,134.5145612982493,3.23295607813634e-05,0.0931148082017898,0,0,0
12493,434426.090708883,2010-10-20 17:53:38,3451.7256965402235,2,38,0.5501165986061096,4.005876064300537,37.406608198327305,36.883653287415605,149.33757147800137,134.5145612982493,3.24249267578125e-05,0.0931148082017898,0,0,0
12494,434456.1059947208,2010-10-20 17:54:08,3481.7409823579537,2,38,0.5499359965324402,4.007980346679688,37.41119447314435,36.883653287415605,149.3559484771839,134.5145612982493,6.47544875391759e-05,0.0931148082017898,0,0,0
12495,434486.1209719695,2010-10-20 17:54:38,3511.755959606635,2,38,0.5501165986061096,4.010085105895996,37.415780679302536,36.883653287415605,149.37433473603042,134.5145612982493,3.24249267578125e-05,0.0931148082017898,0,0,0
12496,434516.13611772814,2010-10-20 17:55:08,3541.7711053552703,2,38,0.5501165986061096,4.0121893882751465,37.420366950788605,36.883653287415605,149.3927309668135,134.5145612982493,6.47544875391759e-05,0.0931148082017898,0,0,0
12497,434546.1512669103,2010-10-20 17:55:38,3571.7862545725498,2,38,0.550297200679779,4.014294147491455,37.42495322319712,36.883653287415605,149.411137048935,134.5145612982493,3.24249267578125e-05,0.0931148082017898,0,0,0
12498,434576.16640548606,2010-10-20 17:56:08,3601.801393118233,2,38,0.5497553944587708,4.0163984298706055,37.42953954392053,36.883653287415605,149.42955322913528,134.5145612982493,3.23295607813634e-05,0.0931148082017898,0,0,0
12499,434606.1815467334,2010-10-20 17:56:38,3631.8165343756746,2,38,0.5499359965324402,4.018664836883545,37.43412588759684,36.883653287415605,149.44797947573468,134.5145612982493,3.23295607813634e-05,0.0931148082017898,0,0,0
12500,434636.19670338935,2010-10-20 17:57:08,3661.831691066581,2,38,0.5499359965324402,4.020931243896484,37.43871212281865,36.883653287415605,149.4664151598987,134.5145612982493,6.47544875391759e-05,0.0931148082017898,0,0,0
12501,434666.2118264414,2010-10-20 17:57:38,3691.846814103613,2,38,0.5499359965324402,4.022873878479004,37.44329840718594,36.883653287415605,149.4848613135368,134.5145612982493,0.0,0.0931148082017898,0,0,0
12502,434696.226971423,2010-10-20 17:58:08,3721.8619590552607,2,38,0.5501165986061096,4.025626182556152,37.447884698632365,36.883653287415605,149.50331785892922,134.5145612982493,6.47544875391759e-05,0.0931148082017898,0,0,0
12503,434726.2421090416,2010-10-20 17:58:38,3751.8770966786456,2,38,0.5501165986061096,4.027568817138672,37.452470994201136,36.883653287415605,149.52178480403552,134.5145612982493,3.24249267578125e-05,0.0931148082017898,0,0,0
12504,434756.2573696865,2010-10-20 17:59:08,3781.892357323637,2,38,0.5499359965324402,4.029835224151611,37.45705728216034,36.883653287415605,149.54026220855826,134.5145612982493,3.24249267578125e-05,0.0931148082017898,0,0,0
12505,434786.27239152126,2010-10-20 17:59:38,3811.907379158441,2,38,0.5501165986061096,4.032425403594971,37.46164351269118,36.883653287415605,149.5587500423349,134.5145612982493,6.47544875391759e-05,0.0931148082017898,0,0,0
12506,434816.2875470593,2010-10-20 18:00:08,3841.922534716524,2,38,0.550297200679779,4.034691333770752,37.46622977895896,36.883653287415605,149.5772488391971,134.5145612982493,6.47544875391759e-05,0.0931148082017898,0,0,0
12507,434846.3028194888,2010-10-20 18:00:38,3871.9378071358615,2,38,0.5499359965324402,4.0371198654174805,37.47081605019406,36.883653287415605,149.5957584728678,134.5145612982493,6.47544875391759e-05,0.0931148082017898,0,0,0
12508,434876.3178161056,2010-10-20 18:01:08,3901.952803732765,2,38,0.550297200679779,4.039547920227051,37.47540230338032,36.883653287415605,149.6142789340548,134.5145612982493,9.70840483205393e-05,0.0931148082017898,0,0,0
12509,434906.3330942844,2010-10-20 18:01:38,3931.968081921481,2,38,0.5501165986061096,4.041976451873779,37.47998856153599,36.883653287415605,149.63281039386356,134.5145612982493,9.71794142969884e-05,0.0931148082017898,0,0,0
12510,434936.3484858456,2010-10-20 18:02:08,3961.9834734877695,2,38,0.5501165986061096,4.04440450668335,37.48457481548726,36.883653287415605,149.65135302116192,134.5145612982493,9.70840483205393e-05,0.0931148082017898,0,0,0
12511,434966.3633166493,2010-10-20 18:02:38,3991.998304286453,2,38,0.5499359965324402,4.046509265899658,37.4891610790026,36.883653287415605,149.6699068825826,134.5145612982493,3.24249267578125e-05,0.0931148082017898,0,0,0
12512,434996.37852348026,2010-10-20 18:03:08,4022.013511157423,2,38,0.5501165986061096,4.0494232177734375,37.49374733804903,36.883653287415605,149.68847202765932,134.5145612982493,0.0001295089750783,0.0931148082017898,0,0,0
12513,435026.39353333006,2010-10-20 18:03:38,4052.028520967257,2,38,0.5501165986061096,4.051689624786377,37.49833359653085,36.883653287415605,149.7070485574976,134.5145612982493,6.47544875391759e-05,0.0931148082017898,0,0,0
12514,435056.40924076864,2010-10-20 18:04:08,4082.0442284609335,2,38,0.5501165986061096,4.054441452026367,37.5029199655562,36.883653287415605,149.7256370957605,134.5145612982493,0.0001295089750783,0.0931148082017898,0,0,0
12515,435086.42432000645,2010-10-20 18:04:38,4112.059307809078,2,38,0.5499359965324402,4.056707859039307,37.507506255137606,36.883653287415605,149.74423701487115,134.5145612982493,3.23295607813634e-05,0.0931148082017898,0,0,0
12516,435116.438940506,2010-10-20 18:05:08,4142.073928183319,2,38,0.5499359965324402,4.059460163116455,37.51209247760063,36.883653287415605,149.7628483914769,134.5145612982493,9.71794142969884e-05,0.0931148082017898,0,0,0
12517,435146.45411988354,2010-10-20 18:05:38,4172.089107520667,2,38,0.5499359965324402,4.061888217926025,37.51667877585519,36.883653287415605,149.78147164820297,134.5145612982493,6.47544875391759e-05,0.0931148082017898,0,0,0
12518,435176.4692761984,2010-10-20 18:06:08,4202.104263830624,2,38,0.5501165986061096,4.064478397369385,37.521265032094206,36.883653287415605,149.8001065776452,134.5145612982493,6.47544875391759e-05,0.0931148082017898,0,0,0
12519,435206.48441354616,2010-10-20 18:06:38,4232.119401183334,2,38,0.5501165986061096,4.067068576812744,37.525851351607486,36.883653287415605,149.8187538302969,134.5145612982493,3.23295607813634e-05,0.0931148082017898,0,0,0
12520,435236.49956877343,2010-10-20 18:07:08,4262.13455640558,2,38,0.5499359965324402,4.069820880889893,37.53043758549856,36.883653287415605,149.8374128901172,134.5145612982493,3.24249267578125e-05,0.0931148082017898,0,0,0
12521,435266.5147046424,2010-10-20 18:07:38,4292.149692334742,2,38,0.5499359965324402,4.072572708129883,37.53502381991983,36.883653287415605,149.8560840993639,134.5145612982493,6.47544875391759e-05,0.0931148082017898,0,0,0
12522,435296.5298408824,2010-10-20 18:08:08,4322.164828549616,2,38,0.5499359965324402,4.075325012207031,37.53961010541308,36.883653287415605,149.87476783100698,134.5145612982493,9.71794142969884e-05,0.0931148082017898,0,0,0
12523,435326.5449666561,2010-10-20 18:08:38,4352.179954323467,2,38,0.5501165986061096,4.077915191650391,37.54419641856396,36.883653287415605,149.89346410204234,134.5145612982493,9.71794142969884e-05,0.0931148082017898,0,0,0
12524,435356.5603726083,2010-10-20 18:09:08,4382.19536027561,2,38,0.5501165986061096,4.08082914352417,37.54878274761282,36.883653287415605,149.91217306598423,134.5145612982493,9.71794142969884e-05,0.0931148082017898,0,0,0
12525,435386.5751706805,2010-10-20 18:09:38,4412.210158377803,2,38,0.5501165986061096,4.083419322967529,37.553368997021,36.883653287415605,149.93089433295947,134.5145612982493,9.71794142969884e-05,0.0931148082017898,0,0,0
12526,435416.5904156414,2010-10-20 18:10:08,4442.225403303619,2,38,0.5499359965324402,4.08617115020752,37.55795436377432,36.883653287415605,149.94962468945275,134.5145612982493,6.47544875391759e-05,0.0931148082017898,0,0,0
12527,435446.6054572003,2010-10-20 18:10:38,4472.240444867593,2,38,0.550297200679779,4.089085102081299,37.56253974305776,36.883653287415605,149.96836809580472,134.5145612982493,6.47544875391759e-05,0.0931148082017898,0,0,0
12528,435476.6209213375,2010-10-20 18:11:08,4502.255909039837,2,38,0.5499359965324402,4.091999053955078,37.56712605430175,36.883653287415605,149.98712867246374,134.5145612982493,9.70840483205393e-05,0.0931148082017898,0,0,0
12529,435506.6359672724,2010-10-20 18:11:38,4532.270954919569,2,38,0.5501165986061096,4.095075130462647,37.571712261719625,36.883653287415605,150.00590206175983,134.5145612982493,0.0001295089750783,0.0931148082017898,0,0,0
12530,435536.6509779593,2010-10-20 18:12:08,4562.285965591551,2,38,0.5501165986061096,4.097665309906006,37.57629853983613,36.883653287415605,150.024689143058,134.5145612982493,6.47544875391759e-05,0.0931148082017898,0,0,0
12531,435566.66612032463,2010-10-20 18:12:38,4592.301107961766,2,38,0.5501165986061096,4.100903034210205,37.58088476437499,36.883653287415605,150.0434894401512,134.5145612982493,0.0001295089750783,0.0931148082017898,0,0,0
12532,435596.6812085949,2010-10-20 18:13:08,4622.316196227135,2,38,0.550297200679779,4.103816986083984,37.58547114718154,36.883653287415605,150.06230395510636,134.5145612982493,9.71794142969884e-05,0.0931148082017898,0,0,0
12533,435626.69647661335,2010-10-20 18:13:38,4652.331464275579,2,38,0.550297200679779,4.1068925857543945,37.59005826279489,36.883653287415605,150.0811353419163,134.5145612982493,9.70840483205393e-05,0.0931148082017898,0,0,0
12534,435656.71150762605,2010-10-20 18:14:08,4682.3464952531685,2,38,0.5501165986061096,4.109806537628174,37.59464521948294,36.883653287415605,150.09997982702524,134.5145612982493,9.70840483205393e-05,0.0931148082017898,0,0,0
12535,435686.7266793444,2010-10-20 18:14:38,4712.361666981554,2,38,0.5501165986061096,4.112720489501953,37.59923225609853,36.883653287415605,150.11883853410205,134.5145612982493,6.47544875391759e-05,0.0931148082017898,0,0,0
12536,435716.7419214682,2010-10-20 18:15:08,4742.3769091053855,2,38,0.550297200679779,4.115958213806152,37.60381935847414,36.883653287415605,150.1377115429582,134.5145612982493,0.0001295089750783,0.0931148082017898,0,0,0
12537,435746.7570605903,2010-10-20 18:15:38,4772.392048227506,2,38,0.5499359965324402,4.118872165679932,37.60840641561024,36.883653287415605,150.1565985855995,134.5145612982493,6.47544875391759e-05,0.0931148082017898,0,0,0
12538,435776.7721024902,2010-10-20 18:16:08,4802.407090122305,2,38,0.5501165986061096,4.122271537780762,37.61299352086841,36.883653287415605,150.17550027371087,134.5145612982493,9.70840483205393e-05,0.0931148082017898,0,0,0
12539,435806.78735370166,2010-10-20 18:16:38,4832.422341368873,2,38,0.5499359965324402,4.125185489654541,37.61757992031585,36.883653287415605,150.19441343667282,134.5145612982493,9.70840483205393e-05,0.0931148082017898,0,0,0
12540,435836.8023699125,2010-10-20 18:17:08,4862.4373575696345,2,38,0.550297200679779,4.128585338592529,37.62216632325291,36.883653287415605,150.21334121129453,134.5145612982493,9.71794142969884e-05,0.0931148082017898,0,0,0
12541,435866.817506012,2010-10-20 18:17:38,4892.452493684259,2,38,0.5501165986061096,4.1318230628967285,37.62675263094473,36.883653287415605,150.23228320192464,134.5145612982493,0.0001295089750783,0.0931148082017898,0,0,0
12542,435896.8332995852,2010-10-20 18:18:08,4922.468287347698,2,38,0.5501165986061096,4.135060787200928,37.6313390931155,36.883653287415605,150.2512405241682,134.5145612982493,0.0001619339018361,0.0931148082017898,0,0,0
12543,435926.8477865068,2010-10-20 18:18:38,4952.4827741490335,2,38,0.5501165986061096,4.138298511505127,37.63592542187252,36.883653287415605,150.27021229346258,134.5145612982493,6.47544875391759e-05,0.0931148082017898,0,0,0
12544,435956.863057663,2010-10-20 18:19:08,4982.49804534031,2,38,0.5501165986061096,4.141536235809326,37.64051192385555,36.883653287415605,150.28919987455288,134.5145612982493,9.71794142969884e-05,0.0931148082017898,0,0,0
12545,435986.87806163833,2010-10-20 18:19:38,5012.513049285527,2,38,0.5499359965324402,4.144773960113525,37.6450983550419,36.883653287415605,150.3082024559695,134.5145612982493,6.47544875391759e-05,0.0931148082017898,0,0,0
12546,436016.89338780165,2010-10-20 18:20:08,5042.528375478886,2,38,0.5501165986061096,4.1483354568481445,37.6496847399171,36.883653287415605,150.32722053226993,134.5145612982493,9.71794142969884e-05,0.0931148082017898,0,0,0
12547,436046.9085961162,2010-10-20 18:20:38,5072.543583888692,2,38,0.5499359965324402,4.151734828948975,37.654271132236914,36.883653287415605,150.34625404179098,134.5145612982493,9.70840483205393e-05,0.0931148082017898,0,0,0
12548,436076.9234924382,2010-10-20 18:21:08,5102.558480095391,2,38,0.5499359965324402,4.154972553253174,37.65885746198891,36.883653287415605,150.36530276125646,134.5145612982493,6.47544875391759e-05,0.0931148082017898,0,0,0
12549,436106.93864972057,2010-10-20 18:21:38,5132.57363741286,2,38,0.5501165986061096,4.158534049987793,37.66344386237238,36.883653287415605,150.38436740195812,134.5145612982493,9.70840483205393e-05,0.0931148082017898,0,0,0
12550,436136.953784557,2010-10-20 18:22:08,5162.588772214211,2,38,0.5499359965324402,4.161771774291992,37.66803026888464,36.883653287415605,150.4034477748436,134.5145612982493,6.47544875391759e-05,0.0931148082017898,0,0,0
12551,436166.9689055138,2010-10-20 18:22:38,5192.603893151007,2,38,0.5501165986061096,4.1654953956604,37.67261670049753,36.883653287415605,150.4225440751278,134.5145612982493,9.71794142969884e-05,0.0931148082017898,0,0,0
12552,436196.984187883,2010-10-20 18:23:09,5222.619175520143,2,38,0.5499359965324402,4.1687331199646,37.67720310288318,36.883653287415605,150.44165625373847,134.5145612982493,6.47544875391759e-05,0.0931148082017898,0,0,0
12553,436226.9992377176,2010-10-20 18:23:39,5252.634225379793,2,38,0.5501165986061096,4.17213249206543,37.681789469031656,36.883653287415605,150.46078437900573,134.5145612982493,6.47544875391759e-05,0.0931148082017898,0,0,0
12554,436257.01447305945,2010-10-20 18:24:09,5282.649460736759,2,38,0.5501165986061096,4.175856113433838,37.68637588565978,36.883653287415605,150.47992892122258,134.5145612982493,9.71794142969884e-05,0.0931148082017898,0,0,0
12555,436287.0296026178,2010-10-20 18:24:39,5312.664590295043,2,38,0.5499359965324402,4.179579257965088,37.690962335279934,36.883653287415605,150.49908990183587,134.5145612982493,9.70840483205393e-05,0.0931148082017898,0,0,0
12556,436317.04469374026,2010-10-20 18:25:09,5342.679681377434,2,38,0.5499359965324402,4.182979106903076,37.69554876780664,36.883653287415605,150.51826727589554,134.5145612982493,6.47544875391759e-05,0.0931148082017898,0,0,0
12557,436347.059761279,2010-10-20 18:25:39,5372.69474894622,2,38,0.5501165986061096,4.186702251434326,37.70013514579106,36.883653287415605,150.53746102816797,134.5145612982493,6.47544875391759e-05,0.0931148082017898,0,0,0
12558,436377.07506532216,2010-10-20 18:26:09,5402.710052994386,2,38,0.5501165986061096,4.190425872802734,37.70472149791318,36.883653287415605,150.5566713077123,134.5145612982493,9.71794142969884e-05,0.0931148082017898,0,0,0
12559,436407.0900376586,2010-10-20 18:26:39,5432.725025330825,2,38,0.5501165986061096,4.1939873695373535,37.70930782822619,36.883653287415605,150.57589825298913,134.5145612982493,6.47544875391759e-05,0.0931148082017898,0,0,0
12560,436437.10517142736,2010-10-20 18:27:09,5462.740159109627,2,38,0.5499359965324402,4.197710514068604,37.71389416234856,36.883653287415605,150.59514195496416,134.5145612982493,9.71794142969884e-05,0.0931148082017898,0,0,0
12561,436454.7611747152,2010-10-20 18:27:26,5480.396162487661,2,38,0.550297200679779,4.200138568878174,37.71659205043529,36.883653287415605,150.60646986786048,134.5145612982493,0.0001942634553415,0.0931148082017898,0,0,0
12562,436484.7804002144,2010-10-20 18:27:56,30.015238113837565,3,38,0.0,4.110777854919434,37.71659205043529,36.883653287415605,150.60646986786048,134.5145612982493,-0.0003885269106831,0.0931148082017898,0,0,0
12563,436514.79545659525,2010-10-20 18:28:26,60.030294399503376,3,38,0.0,4.0992841720581055,37.71659205043529,36.883653287415605,150.60646986786048,134.5145612982493,-0.0002913475036621,0.0931148082017898,0,0,0
12564,436544.8107019021,2010-10-20 18:28:56,90.0455398015053,3,38,0.0,4.092484951019287,37.71659205043529,36.883653287415605,150.60646986786048,134.5145612982493,-0.0001942634553415,0.0931148082017898,0,0,0
12565,436574.7788196224,2010-10-20 18:29:26,120.0136574566612,3,38,0.0,4.088275909423828,37.71659205043529,36.883653287415605,150.60646986786048,134.5145612982493,-6.47544875391759e-05,0.0931148082017898,0,0,0
12566,436574.7847842358,2010-10-20 18:29:27,0.015626942148123,4,38,0.996040940284729,4.199814796447754,37.71659640543277,36.883653287415605,150.60648815839642,134.5145612982493,-3.24249267578125e-05,0.0931148082017898,0,0,0
12567,436575.7691384895,2010-10-20 18:29:28,0.999981220888985,4,38,0.9456509351730348,4.199653148651123,37.71686033525364,36.883653287415605,150.60759661045046,134.5145612982493,-6.47544875391759e-05,0.0931148082017898,0,0,0
12568,436578.01914072747,2010-10-20 18:29:30,3.249983554011537,4,38,0.8954415321350098,4.199814796447754,37.71743449490235,36.883653287415605,150.61000796216962,134.5145612982493,-3.24249267578125e-05,0.0931148082017898,0,0,0
12569,436581.3471596696,2010-10-20 18:29:33,6.578002340834079,4,38,0.844870924949646,4.199814796447754,37.718237633404144,36.883653287415605,150.6133809822782,134.5145612982493,0.0,0.0931148082017898,0,0,0
12570,436585.86273429095,2010-10-20 18:29:38,11.093577027360498,4,38,0.7948421835899353,4.199814796447754,37.7192646629596,36.883653287415605,150.6176943030943,134.5145612982493,3.23295607813634e-05,0.0931148082017898,0,0,0
12571,436591.73763032455,2010-10-20 18:29:44,16.968473055923994,4,38,0.7448134422302246,4.199814796447754,37.72051923910767,36.883653287415605,150.62296328742798,134.5145612982493,3.23295607813634e-05,0.0931148082017898,0,0,0
12572,436599.3624809734,2010-10-20 18:29:51,24.593323679786547,4,38,0.6947846412658691,4.199814796447754,37.72204156357774,36.883653287415605,150.62935676481845,134.5145612982493,0.0,0.0931148082017898,0,0,0
12573,436609.5654492998,2010-10-20 18:30:01,34.79629202126839,4,38,0.6445752382278442,4.199814796447754,37.72393595084809,36.883653287415605,150.63731282613006,134.5145612982493,0.0,0.0931148082017898,0,0,0
12574,436623.73708684114,2010-10-20 18:30:16,48.96792951240014,4,38,0.5945464968681335,4.199814796447754,37.72636900341909,36.883653287415605,150.64753120272508,134.5145612982493,0.0,0.0931148082017898,0,0,0
12575,436645.4086237343,2010-10-20 18:30:37,70.63946641051544,4,38,0.5445177555084229,4.199976921081543,37.72978667677832,36.883653287415605,150.66188482535796,134.5145612982493,0.0,0.0931148082017898,0,0,0
12576,436683.1424868967,2010-10-20 18:31:15,108.3733295829606,4,38,0.4944889545440674,4.199653148651123,37.73520598309461,36.883653287415605,150.68464493151774,134.5145612982493,-3.23295607813634e-05,0.0931148082017898,0,0,0
12577,436752.5477164442,2010-10-20 18:32:24,177.778559260773,4,38,0.4444601833820343,4.199653148651123,37.74421533982517,36.883653287415605,150.72248260094605,134.5145612982493,-3.23295607813634e-05,0.0931148082017898,0,0,0
12578,436858.79581459647,2010-10-20 18:34:11,284.0266573028162,4,38,0.3942508101463318,4.199653148651123,37.7565679629603,36.883653287415605,150.77436138110644,134.5145612982493,-6.47544875391759e-05,0.0931148082017898,0,0,0
12579,436993.0904607512,2010-10-20 18:36:25,418.3213034474383,4,38,0.3442220389842987,4.199814796447754,37.77032800162237,36.883653287415605,150.83215104301203,134.5145612982493,-3.24249267578125e-05,0.0931148082017898,0,0,0
12580,437151.4004320504,2010-10-20 18:39:03,576.6312747516888,4,38,0.2941932678222656,4.199814796447754,37.78434730047115,36.883653287415605,150.89102955945648,134.5145612982493,3.23295607813634e-05,0.0931148082017898,0,0,0
12581,437342.63171381486,2010-10-20 18:42:14,767.8625565112278,4,38,0.2441644966602325,4.199814796447754,37.79862740873675,36.883653287415605,150.95100338463405,134.5145612982493,0.0,0.0931148082017898,0,0,0
12582,437581.127905884,2010-10-20 18:46:13,1006.3587486655202,4,38,0.1941357254981994,4.199814796447754,37.81310711969402,36.883653287415605,151.01181551292723,134.5145612982493,-3.24249267578125e-05,0.0931148082017898,0,0,0
12583,437893.6696985781,2010-10-20 18:51:25,1318.900541274407,4,38,0.1441069543361663,4.199814796447754,37.82770913158931,36.883653287415605,151.07314122913823,134.5145612982493,-3.24249267578125e-05,0.0931148082017898,0,0,0
12584,438357.646605798,2010-10-20 18:59:09,1782.8774485594868,4,38,0.0940781906247139,4.199814796447754,37.84285601676293,36.883653287415605,151.13675535019624,134.5145612982493,0.0,0.0931148082017898,0,0,0
12585,439109.0407967752,2010-10-20 19:11:41,2534.271639586739,4,38,0.0498289167881011,4.199653148651123,37.85739540058661,36.883653287415605,151.19781809999722,134.5145612982493,-3.23295607813634e-05,0.0931148082017898,0,0,0
12586,439139.0714687155,2010-10-20 19:12:11,30.01513431012678,5,38,0.0,4.191558837890625,37.85739540058661,36.883653287415605,151.19781809999722,134.5145612982493,0.0,0.0931148082017898,0,0,0
12587,439169.07098225394,2010-10-20 19:12:41,60.01464784848392,5,38,0.0,4.1901021003723145,37.85739540058661,36.883653287415605,151.19781809999722,134.5145612982493,-3.23295607813634e-05,0.0931148082017898,0,0,0
12588,439169.244033462,2010-10-20 19:12:41,0.187659254603782,6,38,-1.9243103452026844e-05,4.1901021003723145,37.85739540058661,36.8836532884187,151.19781809999722,134.51456130245236,0.0,0.0971632748842239,0,0,0
12589,439174.0719210685,2010-10-20 19:12:46,5.015546830947901,6,38,0.0008838032954372,4.1901021003723145,37.85739639731833,36.88365328858636,151.1978222765106,134.5145613031549,0.0,0.0971632748842239,0,0,0
12590,439204.0881351649,2010-10-20 19:13:16,30.01512072125914,7,38,-1.0993878841400146,4.003447532653809,37.85739639731833,36.89282046322157,151.1978222765106,134.5514708088196,-0.0009713172912597,0.0971632748842239,0,0,0
12591,439234.1032882267,2010-10-20 19:13:46,60.03027383825843,7,38,-1.0997490882873535,3.973822593688965,37.85739639731833,36.90198751903211,151.1978222765106,134.5880260064997,-0.0007122993702068,0.0971632748842239,0,0,0
12592,439264.11841271736,2010-10-20 19:14:16,90.04539826876214,7,38,-1.099568486213684,3.95358681678772,37.85739639731833,36.91115447086317,151.1978222765106,134.624356978569,-0.0004532813909463,0.0971632748842239,0,0,0
12593,439294.1335822202,2010-10-20 19:14:46,120.06056780668744,7,38,-1.099568486213684,3.937721967697144,37.85739639731833,36.9203214193413,151.1978222765106,134.66052410342851,-0.0003885269106831,0.0971632748842239,0,0,0
12594,439324.1488775115,2010-10-20 19:15:16,150.07586309802892,7,38,-1.0993878841400146,3.925094842910767,37.85739639731833,36.92948846427563,151.1978222765106,134.69656138639195,-0.0002913951757363,0.0971632748842239,0,0,0
12595,439354.16385218885,2010-10-20 19:15:46,180.090837780314,7,38,-1.099568486213684,3.9136011600494394,37.85739639731833,36.93865537683882,151.1978222765106,134.7324877171794,-0.0002589702489785,0.0971632748842239,0,0,0
12596,439384.178996554,2010-10-20 19:16:16,210.1059821455011,7,38,-1.099568486213684,3.903402328491211,37.85739639731833,36.9478223981202,151.1978222765106,134.76831557201524,-0.0002266406954731,0.0971632748842239,0,0,0
12597,439414.1943251483,2010-10-20 19:16:46,240.12131078996885,7,38,-1.0992072820663452,3.8938510417938232,37.85739639731833,36.95698939382174,151.1978222765106,134.80405232756888,-0.0002266406954731,0.0971632748842239,0,0,0
12598,439444.20928999607,2010-10-20 19:17:16,270.13627555253095,7,38,-1.0993878841400146,3.884623527526856,37.85739639731833,36.9661562831579,151.1978222765106,134.83970401226776,-0.0002266406954731,0.0971632748842239,0,0,0
12599,439474.2244090031,2010-10-20 19:17:46,300.15139456453005,7,38,-1.0993878841400146,3.8758816719055176,37.85739639731833,36.975323307338165,151.1978222765106,134.87527452927907,-0.0002590179501567,0.0971632748842239,0,0,0
12600,439504.23953325313,2010-10-20 19:18:16,330.16651881458404,7,38,-1.0993878841400146,3.8673017024993896,37.85739639731833,36.984490294373884,151.1978222765106,134.91076599049018,-0.0002590179501567,0.0971632748842239,0,0,0
12601,439534.2550389088,2010-10-20 19:18:46,360.182024490268,7,38,-1.0993878841400146,3.859207391738892,37.85739639731833,36.99365742421433,151.1978222765106,134.94618105573386,-0.0002266406954731,0.0971632748842239,0,0,0
12602,439564.2699487244,2010-10-20 19:19:16,390.1969344011228,7,38,-1.099568486213684,3.850951194763184,37.85739639731833,37.002824353402055,151.1978222765106,134.98152009077927,-0.0002266406954731,0.0971632748842239,0,0,0
12603,439594.28496280994,2010-10-20 19:19:46,420.2119484064129,7,38,-1.099568486213684,3.843018770217896,37.85739639731833,37.0119913206289,151.1978222765106,135.01678553946698,-0.0001942634553415,0.0971632748842239,0,0,0
12604,439624.3001001175,2010-10-20 19:20:16,450.22708570398527,7,38,-1.0993878841400146,3.8352482318878174,37.85739639731833,37.02115838349116,151.1978222765106,135.05197893848728,-0.0001942634553415,0.0971632748842239,0,0,0
12605,439654.3152609888,2010-10-20 19:20:46,480.2422465702982,7,38,-1.0993878841400146,3.8274779319763184,37.85739639731833,37.03032541215956,151.1978222765106,135.08710072425137,-0.0001942634553415,0.0971632748842239,0,0,0
12606,439684.3303811989,2010-10-20 19:21:16,510.2573667852956,7,38,-1.099568486213684,3.81986927986145,37.85739639731833,37.039492420360205,151.1978222765106,135.12215279547135,-0.0001942634553415,0.0971632748842239,0,0,0
12607,439714.3455128172,2010-10-20 19:21:47,540.2724983686264,7,38,-1.0993878841400146,3.812422513961792,37.85739639731833,37.04865941585108,151.1978222765106,135.1571361756212,-0.0002266406954731,0.0971632748842239,0,0,0
12608,439744.36067203945,2010-10-20 19:22:17,570.2876576259292,7,38,-1.0993878841400146,3.8052995204925537,37.85739639731833,37.05782635253224,151.1978222765106,135.19205132217246,-0.0001618862152099,0.0971632748842239,0,0,0
12609,439774.3758315023,2010-10-20 19:22:47,600.3028170837317,7,38,-1.0992072820663452,3.798176527023315,37.85739639731833,37.06699337030272,151.1978222765106,135.22690088251332,-0.0001942634553415,0.0971632748842239,0,0,0
12610,439804.3909418176,2010-10-20 19:23:17,630.3179274090811,7,38,-1.0993878841400146,3.791215419769287,37.85739639731833,37.07616042097106,151.1978222765106,135.26168552019948,-0.0001618862152099,0.0971632748842239,0,0,0
12611,439834.4060739373,2010-10-20 19:23:47,660.3330594886487,7,38,-1.099568486213684,3.784092426300049,37.85739639731833,37.08532742733743,151.1978222765106,135.29640671913867,-0.0002266406954731,0.0971632748842239,0,0,0
12612,439864.421425544,2010-10-20 19:24:17,690.3484111053702,7,38,-1.0993878841400146,3.7776169776916495,37.85739639731833,37.0944944961764,151.1978222765106,135.3310661625093,-0.0001295089750783,0.0971632748842239,0,0,0
12613,439894.43637281295,2010-10-20 19:24:47,720.3633583893704,7,38,-1.0993878841400146,3.771141529083252,37.85739639731833,37.1036614750848,151.1978222765106,135.3656650261895,-0.0001295089750783,0.0971632748842239,0,0,0
12614,439924.4515030579,2010-10-20 19:25:17,750.3784886443906,7,38,-1.099568486213684,3.764504194259644,37.85739639731833,37.1128285119371,151.1978222765106,135.40020441026817,-0.0001942634553415,0.0971632748842239,0,0,0
12615,439954.4666418893,2010-10-20 19:25:47,780.3936274757857,7,38,-1.099568486213684,3.758352518081665,37.85739639731833,37.12199554668359,151.1978222765106,135.43468556480877,-0.0001618862152099,0.0971632748842239,0,0,0
12616,439984.4819211507,2010-10-20 19:26:17,810.4089067121133,7,38,-1.0993878841400146,3.7522010803222656,37.85739639731833,37.13116264362705,151.1978222765106,135.46910950596907,-0.0001295089750783,0.0971632748842239,0,0,0
12617,440014.4970604632,2010-10-20 19:26:47,840.4240460297202,7,38,-1.0993878841400146,3.745887517929077,37.85739639731833,37.1403296848625,151.1978222765106,135.50347610027427,-0.0001618862152099,0.0971632748842239,0,0,0
12618,440044.5120700274,2010-10-20 19:27:17,870.4390556240168,7,38,-1.0992072820663452,3.739735841751098,37.85739639731833,37.14949672983461,151.1978222765106,135.53778692542883,-0.0001942634553415,0.0971632748842239,0,0,0
12619,440074.5273480207,2010-10-20 19:27:47,900.4543335921835,7,38,-1.0993878841400146,3.73406982421875,37.85739639731833,37.15866382406311,151.1978222765106,135.57204350984375,-0.0001295089750783,0.0971632748842239,0,0,0
12620,440104.5422886933,2010-10-20 19:28:17,930.4692742596932,7,38,-1.099568486213684,3.728403806686402,37.85739639731833,37.16783079628339,151.1978222765106,135.606246500438,-0.0001295089750783,0.0971632748842239,0,0,0
12621,440134.5575209074,2010-10-20 19:28:47,960.484506584102,7,38,-1.099568486213684,3.7225759029388423,37.85739639731833,37.176997800651485,151.1978222765106,135.64039763584927,-0.0001942634553415,0.0971632748842239,0,0,0
12622,440164.57258433086,2010-10-20 19:29:17,990.4995698872574,7,38,-1.099568486213684,3.716909885406494,37.85739639731833,37.18616476408431,151.1978222765106,135.67449687103786,-0.0002266406954731,0.0971632748842239,0,0,0
12623,440194.587859091,2010-10-20 19:29:47,1020.5148447075788,7,38,-1.0997490882873535,3.711405754089356,37.85739639731833,37.195331925788594,151.1978222765106,135.70854606462524,-0.0001295089750783,0.0971632748842239,0,0,0
12624,440224.602927156,2010-10-20 19:30:17,1050.5299127074402,7,38,-1.099568486213684,3.7060635089874263,37.85739639731833,37.20449913616976,151.1978222765106,135.74254565205703,-0.0001618862152099,0.0971632748842239,0,0,0
12625,440254.6180814109,2010-10-20 19:30:47,1080.5450669672878,7,38,-1.0993878841400146,3.700721263885498,37.85739639731833,37.21366623202302,151.1978222765106,135.77649536677575,-0.0001618862152099,0.0971632748842239,0,0,0
12626,440284.6332245631,2010-10-20 19:31:17,1110.5602101695763,7,38,-1.099568486213684,3.6955409049987793,37.85739639731833,37.22283330929111,151.1978222765106,135.810396417207,-9.713172767078504e-05,0.0971632748842239,0,0,0
12627,440314.64834963006,2010-10-20 19:31:47,1140.5753353319042,7,38,-1.0993878841400146,3.690360546112061,37.85739639731833,37.23200036673799,151.1978222765106,135.84424976275366,-0.0001295089750783,0.0971632748842239,0,0,0
12628,440344.6636137888,2010-10-20 19:32:17,1170.5905994806287,7,38,-1.099568486213684,3.685180187225342,37.85739639731833,37.24116750661122,151.1978222765106,135.87805609572328,-0.0001295089750783,0.0971632748842239,0,0,0
12629,440374.67868228,2010-10-20 19:32:47,1200.6056679667015,7,38,-1.0993878841400146,3.680161714553833,37.85739639731833,37.250334556687626,151.1978222765106,135.91181572003066,-0.0001618862152099,0.0971632748842239,0,0,0
12630,440404.6938512715,2010-10-20 19:33:17,1230.62083694824,7,38,-1.0993878841400146,3.675467014312744,37.85739639731833,37.25950163505174,151.1978222765106,135.94552998726584,-9.713172767078504e-05,0.0971632748842239,0,0,0
12631,440434.70893446926,2010-10-20 19:33:47,1260.6359200557542,7,38,-1.0993878841400146,3.6704487800598153,37.85739639731833,37.2686688119036,151.1978222765106,135.97919999821588,-0.0001295089750783,0.0971632748842239,0,0,0
12632,440464.7241958661,2010-10-20 19:34:17,1290.6511814676578,7,38,-1.0993878841400146,3.6657540798187256,37.85739639731833,37.277835997637446,151.1978222765106,136.01282587030911,-0.0001295089750783,0.0971632748842239,0,0,0
12633,440494.7392419563,2010-10-20 19:34:47,1320.6662275178137,7,38,-1.0993878841400146,3.6610593795776367,37.85739639731833,37.2870031066897,151.1978222765106,136.04640788033834,-0.0001295089750783,0.0971632748842239,0,0,0
12634,440524.75459438015,2010-10-20 19:35:17,1350.681580096934,7,38,-1.099568486213684,3.656202793121338,37.85739639731833,37.29617032314108,151.1978222765106,136.0799473270501,-0.0001295089750783,0.0971632748842239,0,0,0
12635,440554.76949794014,2010-10-20 19:35:47,1380.6964835216231,7,38,-1.099568486213684,3.651831865310669,37.85739639731833,37.30533743163312,151.1978222765106,136.11344412186926,-6.47544875391759e-05,0.0971632748842239,0,0,0
12636,440584.784648571,2010-10-20 19:36:17,1410.7116341624512,7,38,-1.0993878841400146,3.64713716506958,37.85739639731833,37.31450453106068,151.1978222765106,136.14689842611386,-9.713172767078504e-05,0.0971632748842239,0,0,0
12637,440614.7997839537,2010-10-20 19:36:47,1440.7267695402386,7,38,-1.0993878841400146,3.642604351043701,37.85739639731833,37.32367164513216,151.1978222765106,136.18031044929575,-9.713172767078504e-05,0.0971632748842239,0,0,0
12638,440644.81491002336,2010-10-20 19:37:17,1470.74189561484,7,38,-1.099568486213684,3.6380715370178223,37.85739639731833,37.33283865762914,151.1978222765106,136.2136814294076,-0.0001295089750783,0.0971632748842239,0,0,0
12639,440674.8300477519,2010-10-20 19:37:47,1500.7570333083993,7,38,-1.0992072820663452,3.634024381637573,37.85739639731833,37.3420056615079,151.1978222765106,136.24701221833348,-6.47544875391759e-05,0.0971632748842239,0,0,0
12640,440704.8452100519,2010-10-20 19:38:17,1530.7721956383602,7,38,-1.0997490882873535,3.6294915676116943,37.85739639731833,37.351172744523645,151.1978222765106,136.28030428518747,-0.0001295089750783,0.0971632748842239,0,0,0
12641,440734.8603565624,2010-10-20 19:38:47,1560.7873421188192,7,38,-1.0993878841400146,3.625444412231445,37.85739639731833,37.36033985878334,151.1978222765106,136.3135574734654,-9.713172767078504e-05,0.0971632748842239,0,0,0
12642,440764.8756250519,2010-10-20 19:39:17,1590.80261064345,7,38,-1.099568486213684,3.6212353706359854,37.85739639731833,37.36950703863456,151.1978222765106,136.34677316994424,-0.0001295089750783,0.0971632748842239,0,0,0
12643,440794.8908878974,2010-10-20 19:39:47,1620.8178734939388,7,38,-1.099568486213684,3.6170263290405273,37.85739639731833,37.37867420920178,151.1978222765106,136.3799516229926,-0.0001942634553415,0.0971632748842239,0,0,0
12644,440824.9057615429,2010-10-20 19:40:17,1650.832747129384,7,38,-1.099568486213684,3.613302946090698,37.85739639731833,37.38784125311138,151.1978222765106,136.4130928797412,-9.713172767078504e-05,0.0971632748842239,0,0,0
12645,440854.920907898,2010-10-20 19:40:47,1680.8478934494433,7,38,-1.0993878841400146,3.609417676925659,37.85739639731833,37.39700832042128,151.1978222765106,136.44619851455047,-9.713172767078504e-05,0.0971632748842239,0,0,0
12646,440884.93603486987,2010-10-20 19:41:17,1710.863020421281,7,38,-1.099568486213684,3.60553240776062,37.85739639731833,37.40617547134213,151.1978222765106,136.4792698316264,-0.0001295089750783,0.0971632748842239,0,0,0
12647,440914.9511985131,2010-10-20 19:41:47,1740.8781840945896,7,38,-1.099568486213684,3.601970911026001,37.85739639731833,37.41534257338549,151.1978222765106,136.51230693486892,-9.713172767078504e-05,0.0971632748842239,0,0,0
12648,440944.966323916,2010-10-20 19:42:17,1770.8933094724546,7,38,-1.0993878841400146,3.598409414291382,37.85739639731833,37.42450969852848,151.1978222765106,136.54531119422728,-0.0001295089750783,0.0971632748842239,0,0,0
12649,440974.981613047,2010-10-20 19:42:47,1800.9085986184798,7,38,-1.099568486213684,3.5948479175567627,37.85739639731833,37.43367686408738,151.1978222765106,136.5782827437982,-0.0001295089750783,0.0971632748842239,0,0,0
12650,441004.9965992229,2010-10-20 19:43:17,1830.923584804436,7,38,-1.0993878841400146,3.5916104316711426,37.85739639731833,37.44284391289509,151.1978222765106,136.61122194843057,-3.237724376958795e-05,0.0971632748842239,0,0,0
12651,441035.011740716,2010-10-20 19:43:47,1860.9387262673897,7,38,-1.0993878841400146,3.5880489349365234,37.85739639731833,37.45201108295176,151.1978222765106,136.64412993387373,-9.713172767078504e-05,0.0971632748842239,0,0,0
12652,441065.02688419895,2010-10-20 19:44:17,1890.9538697553903,7,38,-1.0993878841400146,3.5846493244171143,37.85739639731833,37.46117829646925,151.1978222765106,136.67700691844698,-6.47544875391759e-05,0.0971632748842239,0,0,0
12653,441095.0420318975,2010-10-20 19:44:47,1920.9690174889724,7,38,-1.0993878841400146,3.581411600112915,37.85739639731833,37.47034540077089,151.1978222765106,136.7098526627032,-9.713172767078504e-05,0.0971632748842239,0,0,0
12654,441125.05717891926,2010-10-20 19:45:17,1950.9841644756937,7,38,-1.099568486213684,3.578011989593506,37.85739639731833,37.47951259988956,151.1978222765106,136.7426686428406,-0.0001295089750783,0.0971632748842239,0,0,0
12655,441155.0723068736,2010-10-20 19:45:47,1980.9992924550413,7,38,-1.0993878841400146,3.5749361515045166,37.85739639731833,37.488679815014585,151.1978222765106,136.77545469754986,-6.47544875391759e-05,0.0971632748842239,0,0,0
12656,441185.08743608097,2010-10-20 19:46:17,2011.0144216373888,7,38,-1.0997490882873535,3.5715365409851074,37.85739639731833,37.49784694230707,151.1978222765106,136.80821093817528,-0.0001295089750783,0.0971632748842239,0,0,0
12657,441215.10260840587,2010-10-20 19:46:47,2041.029593997347,7,38,-1.0993878841400146,3.568298816680908,37.85739639731833,37.5070141229256,151.1978222765106,136.8409378502937,-9.713172767078504e-05,0.0971632748842239,0,0,0
12658,441245.117851482,2010-10-20 19:47:17,2071.044837043478,7,38,-1.0993878841400146,3.565222978591919,37.85739639731833,37.5161813375418,151.1978222765106,136.87363579041954,-9.713172767078504e-05,0.0971632748842239,0,0,0
12659,441275.1328781289,2010-10-20 19:47:47,2101.0598638256115,7,38,-1.0997490882873535,3.5621471405029297,37.85739639731833,37.52534839454949,151.1978222765106,136.9063038641945,-6.47544875391759e-05,0.0971632748842239,0,0,0
12660,441305.1480131156,2010-10-20 19:48:17,2131.074998712175,7,38,-1.099568486213684,3.5589094161987305,37.85739639731833,37.53451548663108,151.1978222765106,136.9389433832288,-6.47544875391759e-05,0.0971632748842239,0,0,0
12661,441335.16340481234,2010-10-20 19:48:47,2161.0903903737008,7,38,-1.099568486213684,3.5556716918945312,37.85739639731833,37.543682351026014,151.1978222765106,136.97155267074103,-9.713172767078504e-05,0.0971632748842239,0,0,0
12662,441365.1783029638,2010-10-20 19:49:17,2191.1052885202357,7,38,-1.0993878841400146,3.552595853805542,37.85739639731833,37.55284870978764,151.1978222765106,137.0041309751427,-6.47544875391759e-05,0.0971632748842239,0,0,0
12663,441395.1934344619,2010-10-20 19:49:47,2221.1204200183533,7,38,-1.099568486213684,3.5493581295013428,37.85739639731833,37.562015160257495,151.1978222765106,137.03668086532966,-9.713172767078504e-05,0.0971632748842239,0,0,0
12664,441425.2086905606,2010-10-20 19:50:17,2251.135676122027,7,38,-1.099568486213684,3.546120405197144,37.85739639731833,37.57118165871387,151.1978222765106,137.06920213084229,-9.713172767078504e-05,0.0971632748842239,0,0,0
12665,441455.2240804877,2010-10-20 19:50:47,2281.1510660943427,7,38,-1.0993878841400146,3.5432064533233643,37.85739639731833,37.58034867695606,151.1978222765106,137.10169656128423,-6.47544875391759e-05,0.0971632748842239,0,0,0
12666,441485.2389778774,2010-10-20 19:51:17,2311.1659634890034,7,38,-1.099568486213684,3.539968729019165,37.85739639731833,37.58951578574621,151.1978222765106,137.13416209861623,-6.47544875391759e-05,0.0971632748842239,0,0,0
12667,441515.2539869805,2010-10-20 19:51:47,2341.1809725620005,7,38,-1.0993878841400146,3.536731004714966,37.85739639731833,37.59868296867327,151.1978222765106,137.16659861349572,-9.713172767078504e-05,0.0971632748842239,0,0,0
12668,441545.2691709695,2010-10-20 19:52:17,2371.1961566762548,7,38,-1.099568486213684,3.5333313941955566,37.85739639731833,37.60785023952234,151.1978222765106,137.19900579222514,-9.713172767078504e-05,0.0971632748842239,0,0,0
12669,441575.2842877409,2010-10-20 19:52:47,2401.2112733023077,7,38,-1.099568486213684,3.5300936698913574,37.85739639731833,37.617017416380016,151.1978222765106,137.23138275964277,-9.713172767078504e-05,0.0971632748842239,0,0,0
12670,441605.2994089834,2010-10-20 19:53:17,2431.2263945749405,7,38,-1.0993878841400146,3.526855945587158,37.85739639731833,37.62618460461977,151.1978222765106,137.26372880955782,-6.47544875391759e-05,0.0971632748842239,0,0,0
12671,441635.31454738375,2010-10-20 19:53:48,2461.2415329351616,7,38,-1.0992072820663452,3.523294448852539,37.85739639731833,37.63535184487209,151.1978222765106,137.2960436400332,-9.713172767078504e-05,0.0971632748842239,0,0,0
12672,441665.3296915184,2010-10-20 19:54:18,2491.2566771048614,7,38,-1.099568486213684,3.51957106590271,37.85739639731833,37.64451908717282,151.1978222765106,137.32832572803943,-0.0001295089750783,0.0971632748842239,0,0,0
12673,441695.3448440288,2010-10-20 19:54:48,2521.271829605324,7,38,-1.0993878841400146,3.516009569168091,37.85739639731833,37.65368631008035,151.1978222765106,137.36057434134594,-9.713172767078504e-05,0.0971632748842239,0,0,0
12674,441725.3600103788,2010-10-20 19:55:18,2551.2869960906414,7,38,-1.0993878841400146,3.5122861862182617,37.85739639731833,37.662853588464486,151.1978222765106,137.39278885276207,-6.47544875391759e-05,0.0971632748842239,0,0,0
12675,441755.3752779711,2010-10-20 19:55:48,2581.302263537586,7,38,-1.099568486213684,3.508239269256592,37.85739639731833,37.67202088498589,151.1978222765106,137.42496815367198,-9.713172767078504e-05,0.0971632748842239,0,0,0
12676,441785.3902670844,2010-10-20 19:56:18,2611.3172526759,7,38,-1.099568486213684,3.504030227661133,37.85739639731833,37.68118804192467,151.1978222765106,137.45710974687844,-9.713172767078504e-05,0.0971632748842239,0,0,0
12677,441815.4053965274,2010-10-20 19:56:48,2641.332382083809,7,38,-1.099568486213684,3.499659299850464,37.85739639731833,37.69035525183291,151.1978222765106,137.48921233963372,-0.0001295089750783,0.0971632748842239,0,0,0
12678,441845.4206527514,2010-10-20 19:57:18,2671.34763834287,7,38,-1.099568486213684,3.495126485824585,37.85739639731833,37.69952252005666,151.1978222765106,137.52127390244098,-9.713172767078504e-05,0.0971632748842239,0,0,0
12679,441875.4356703907,2010-10-20 19:57:48,2701.3626559421173,7,38,-1.0993878841400146,3.490108013153076,37.85739639731833,37.70868974770471,151.1978222765106,137.55329111172662,-0.0001295089750783,0.0971632748842239,0,0,0
12680,441905.450824435,2010-10-20 19:58:18,2731.377810026528,7,38,-1.099568486213684,3.484603881835937,37.85739639731833,37.71785703268476,151.1978222765106,137.585260502889,-0.0001942634553415,0.0971632748842239,0,0,0
12681,441935.46609353606,2010-10-20 19:58:48,2761.393079107545,7,38,-1.099568486213684,3.478614091873169,37.85739639731833,37.72702431848676,151.1978222765106,137.6171777690988,-0.0001942634553415,0.0971632748842239,0,0,0
12682,441965.481114594,2010-10-20 19:59:18,2791.4081002055123,7,38,-1.0993878841400146,3.4721386432647705,37.85739639731833,37.736191461768406,151.1978222765106,137.6490375445935,-0.0001618862152099,0.0971632748842239,0,0,0
12683,441995.49636096833,2010-10-20 19:59:48,2821.423346534825,7,38,-1.099568486213684,3.4646918773651123,37.85739639731833,37.74535871865712,151.1978222765106,137.68083413527458,-0.0002266406954731,0.0971632748842239,0,0,0
12684,442025.51137295866,2010-10-20 20:00:18,2851.438358525093,7,38,-1.0993878841400146,3.4561119079589844,37.85739639731833,37.75452590924398,151.1978222765106,137.71255763846125,-0.0002266406954731,0.0971632748842239,0,0,0
12685,442055.52652948414,2010-10-20 20:00:48,2881.4535150455754,7,38,-1.0993878841400146,3.4465606212615967,37.85739639731833,37.763693118954464,151.1978222765106,137.74419761798862,-0.0002913951757363,0.0971632748842239,0,0,0
12686,442085.5416646866,2010-10-20 20:01:18,2911.4686502980508,7,38,-1.099568486213684,3.4349048137664795,37.85739639731833,37.77286038478718,151.1978222765106,137.77574082736962,-0.0003561496851034,0.0971632748842239,0,0,0
12687,442115.556794756,2010-10-20 20:01:48,2941.4837803425457,7,38,-1.0993878841400146,3.421630382537842,37.85739639731833,37.78202761554925,151.1978222765106,137.8071700098668,-0.0003885269106831,0.0971632748842239,0,0,0
12688,442145.5719389809,2010-10-20 20:02:18,2971.4989245423208,7,38,-1.099568486213684,3.405603647232056,37.85739639731833,37.7911948435953,151.1978222765106,137.8384648830879,-0.0004532813909463,0.0971632748842239,0,0,0
12689,442175.5871131604,2010-10-20 20:02:48,3001.5140987418645,7,38,-1.099568486213684,3.3858535289764404,37.85739639731833,37.800362131746056,151.1978222765106,137.86959736812432,-0.0005827903514727,0.0971632748842239,0,0,0
12690,442205.60229833727,2010-10-20 20:03:18,3031.5292840340544,7,38,-1.0993878841400146,3.3607611656188965,37.85739639731833,37.80952949856336,151.1978222765106,137.90052654821295,-0.0007446765666827,0.0971632748842239,0,0,0
12691,442235.617238689,2010-10-20 20:03:48,3061.54422425044,7,38,-1.099568486213684,3.3275747299194336,37.85739639731833,37.81869744557493,151.1978222765106,137.93119245231486,-0.0010036944877356,0.0971632748842239,0,0,0
12692,442265.6325892482,2010-10-20 20:04:18,3091.5595748145374,7,38,-1.099568486213684,3.2819228172302246,37.85739639731833,37.82786557027656,151.1978222765106,137.96150212917246,-0.0014245987404137,0.0971632748842239,0,0,0
12693,442295.6485506596,2010-10-20 20:04:48,3121.575536356381,7,38,-1.099568486213684,3.2173304557800293,37.85739639731833,37.83703378929586,151.1978222765106,137.99131450255922,-0.0020397664047777,0.0971632748842239,0,0,0
12694,442325.6498618582,2010-10-20 20:05:18,3151.576847469848,7,38,-1.0993878841400146,3.121170282363892,37.85739639731833,37.84619768014413,151.1978222765106,138.0203886456155,-0.0030758380889892,0.0971632748842239,0,0,0
12695,442355.662413682,2010-10-20 20:05:48,3181.5893993387367,7,38,-1.0997490882873535,2.95718002319336,37.85739639731833,37.85536502804853,151.1978222765106,138.04833501990274,-0.005957412533462,0.0971632748842239,0,0,0
12696,442375.1466035735,2010-10-20 20:06:07,3201.0735891799563,7,38,-1.0997490882873535,2.756603717803955,37.85739639731833,37.86131647205114,151.1978222765106,138.0653891516026,-0.0099397655576467,0.0971632748842239,0,0,0
12697,442379.427525894,2010-10-20 20:06:12,3205.3545114554736,7,38,-1.099568486213684,2.699620008468628,37.85739639731833,37.86262407955348,151.1978222765106,138.06895700130275,-0.0106844427064061,0.0971632748842239,0,0,0
12698,442439.4481286876,2010-10-20 20:07:12,60.014666981168446,8,38,0.0,3.371121883392334,37.85739639731833,37.86262407955348,151.1978222765106,138.06895700130275,0.0013922214275225,0.0971632748842239,0,0,0
12699,442439.6268196252,2010-10-20 20:07:12,0.187427070930627,9,38,-1.9243103452026844e-05,3.371121883392334,37.85739639731833,37.862624080555335,151.1978222765106,138.06895700468013,0.0,0.0922218039631843,0,0,0
12700,442444.4550112292,2010-10-20 20:07:17,5.015618685030383,9,38,0.0008838032954372,3.379539966583252,37.85739734407692,37.86262408064001,151.19782547273505,138.06895700496557,0.0011655807029455,0.0922218039631843,0,0,0
