Data_Point,Test_Time(s),Date_Time,Step_Time(s),Step_Index,Cycle_Index,Current(A),Voltage(V),Charge_Capacity(Ah),Discharge_Capacity(Ah),Charge_Energy(Wh),Discharge_Energy(Wh),dV/dt(V/s),Internal_Resistance(Ohm),Is_FC_Data,AC_Impedance(Ohm),ACI_Phase_Angle(Deg)
6096,210342.47053991733,2010-10-18 03:38:30,30.015201552716,1,19,0.0,3.354123830795288,18.1168881212764,18.136574026879924,72.26264731402607,66.31598350830339,0.0008093834039755,0.0907677188515663,0,0,0
6097,210372.48577054252,2010-10-18 03:39:00,60.030432182902,1,19,0.0,3.379701852798462,18.1168881212764,18.136574026879924,72.26264731402607,66.31598350830339,0.0005827903514727,0.0907677188515663,0,0,0
6098,210402.50098412024,2010-10-18 03:39:30,90.04564578565038,1,19,0.0,3.399451971054077,18.1168881212764,18.136574026879924,72.26264731402607,66.31598350830339,0.0004532813909463,0.0907677188515663,0,0,0
6099,210432.4693437736,2010-10-18 03:40:00,120.01400541387764,1,19,0.0,3.415154933929444,18.1168881212764,18.136574026879924,72.26264731402607,66.31598350830339,0.0004209041653666,0.0907677188515663,0,0,0
6100,210462.48831271776,2010-10-18 03:40:30,30.01522771792776,2,19,0.550297200679779,3.570565223693848,18.121475455016345,18.136574026879924,72.2788552549518,66.31598350830339,0.0016512393485754,0.0907677188515663,0,0,0
6101,210492.5036381693,2010-10-18 03:41:00,60.03055314938771,2,19,0.5499359965324402,3.621397256851196,18.12606280314425,18.136574026879924,72.29535877069284,66.31598350830339,0.0011655807029455,0.0907677188515663,0,0,0
6102,210522.51885479456,2010-10-18 03:41:30,90.0457697546192,2,19,0.5501165986061096,3.6583073139190674,18.130650149824223,18.136574026879924,72.31206034610544,66.31598350830339,0.0008418083307333,0.0907677188515663,0,0,0
6103,210552.5339859719,2010-10-18 03:42:00,120.0609010472254,2,19,0.5501165986061096,3.6872847080230713,18.13523742303308,18.136574026879924,72.32891125586588,66.31598350830339,0.0006799221155233,0.0907677188515663,0,0,0
6104,210582.5491755297,2010-10-18 03:42:30,150.07609050479655,2,19,0.550297200679779,3.7109200954437256,18.139824735080936,18.136574026879924,72.34588208837839,66.31598350830339,0.0005180359003134,0.0907677188515663,0,0,0
6105,210612.56443152312,2010-10-18 03:43:00,180.09134662350783,2,19,0.5501165986061096,3.730346441268921,18.14441208344605,18.136574026879924,72.36295175700808,66.31598350830339,0.0004532813909463,0.0907677188515663,0,0,0
6106,210642.5796244343,2010-10-18 03:43:30,210.1065394093741,2,19,0.5501165986061096,3.746373176574707,18.148999358126098,18.136574026879924,72.38010243522254,66.31598350830339,0.0003561496851034,0.0907677188515663,0,0,0
6107,210672.594894994,2010-10-18 03:44:00,240.12180999413928,2,19,0.550297200679779,3.758028745651245,18.15358670170445,18.136574026879924,72.39731692980278,66.31598350830339,0.0002266406954731,0.0907677188515663,0,0,0
6108,210702.6100708627,2010-10-18 03:44:30,270.13698586785523,2,19,0.550297200679779,3.764827966690064,18.15817401215501,18.136574026879924,72.41457258942019,66.31598350830339,0.0001942634553415,0.0907677188515663,0,0,0
6109,210732.62541334663,2010-10-18 03:45:00,300.1523283267528,2,19,0.550297200679779,3.7690370082855225,18.16276134697297,18.136574026879924,72.43185293588421,66.31598350830339,9.713172767078504e-05,0.0907677188515663,0,0,0
6110,210762.64063506463,2010-10-18 03:45:30,330.16755004472685,2,19,0.5501165986061096,3.7725985050201416,18.1673486638762,18.136574026879924,72.44915106412547,66.31598350830339,6.47544875391759e-05,0.0907677188515663,0,0,0
6111,210792.6557497759,2010-10-18 03:46:00,360.1826647509948,2,19,0.5501165986061096,3.775998115539551,18.171935946517053,18.136574026879924,72.46646517189954,66.31598350830339,9.713172767078504e-05,0.0907677188515663,0,0,0
6112,210822.670956672,2010-10-18 03:46:30,390.19787174226536,2,19,0.550297200679779,3.77955961227417,18.17652324511553,18.136574026879924,72.48379494405873,66.31598350830339,9.713172767078504e-05,0.0907677188515663,0,0,0
6113,210852.6861577585,2010-10-18 03:47:00,420.2130727586446,2,19,0.550297200679779,3.782635450363159,18.181110479864188,18.136574026879924,72.50113969647381,66.31598350830339,6.47544875391759e-05,0.0907677188515663,0,0,0
6114,210882.7014005741,2010-10-18 03:47:30,450.2283155290879,2,19,0.5501165986061096,3.7858731746673584,18.185697731497697,18.136574026879924,72.5184994565599,66.31598350830339,9.713172767078504e-05,0.0907677188515663,0,0,0
6115,210912.716664006,2010-10-18 03:48:01,480.2435789810759,2,19,0.5501165986061096,3.7891108989715576,18.19028503065024,18.136574026879924,72.53587399988665,66.31598350830339,6.47544875391759e-05,0.0907677188515663,0,0,0
6116,210942.73189165373,2010-10-18 03:48:31,510.2588067290786,2,19,0.5501165986061096,3.792186737060547,18.194872340689848,18.136574026879924,72.55326290772399,66.31598350830339,9.713172767078504e-05,0.0907677188515663,0,0,0
6117,210972.7471015272,2010-10-18 03:49:01,540.2740165323576,2,19,0.5504778623580933,3.795262575149536,18.19945960028222,18.136574026879924,72.57066562614627,66.31598350830339,6.47544875391759e-05,0.0907677188515663,0,0,0
6118,211002.76250759963,2010-10-18 03:49:31,570.2894226047996,2,19,0.550297200679779,3.798338413238525,18.204046955388097,18.136574026879924,72.58808256121101,66.31598350830339,9.713172767078504e-05,0.0907677188515663,0,0,0
6119,211032.7775591736,2010-10-18 03:50:01,600.3044741536598,2,19,0.5501165986061096,3.801090478897095,18.208634317111944,18.136574026879924,72.60551327887454,66.31598350830339,6.47544875391759e-05,0.0907677188515663,0,0,0
6120,211062.79288946715,2010-10-18 03:50:31,630.3198044472377,2,19,0.5501165986061096,3.804166316986084,18.213221607061865,18.136574026879924,72.6229572431967,66.31598350830339,9.713172767078504e-05,0.0907677188515663,0,0,0
6121,211092.80813010223,2010-10-18 03:51:01,660.3350450673216,2,19,0.5501165986061096,3.807242155075073,18.217808971890825,18.136574026879924,72.64041505613588,66.31598350830339,9.713172767078504e-05,0.0907677188515663,0,0,0
6122,211122.82321118476,2010-10-18 03:51:31,690.3501261648262,2,19,0.550297200679779,3.810156106948853,18.22239625603233,18.136574026879924,72.65788616320094,66.31598350830339,9.713172767078504e-05,0.0907677188515663,0,0,0
6123,211152.83844828105,2010-10-18 03:52:01,720.3653632561152,2,19,0.550297200679779,3.813231945037842,18.226983582943788,18.136574026879924,72.67537127674595,66.31598350830339,3.237724376958795e-05,0.0907677188515663,0,0,0
6124,211182.85366673587,2010-10-18 03:52:31,750.3805817109564,2,19,0.550297200679779,3.816307783126831,18.23157083606447,18.136574026879924,72.69287051891529,66.31598350830339,9.713172767078504e-05,0.0907677188515663,0,0,0
6125,211212.868998844,2010-10-18 03:53:01,780.3959138090316,2,19,0.5501165986061096,3.8195455074310303,18.23615815793724,18.136574026879924,72.71038452674088,66.31598350830339,6.47544875391759e-05,0.0907677188515663,0,0,0
6126,211242.88409642252,2010-10-18 03:53:31,810.4110114026497,2,19,0.5501165986061096,3.8227832317352295,18.24074547014389,18.136574026879924,72.72791337898451,66.31598350830339,6.47544875391759e-05,0.0907677188515663,0,0,0
6127,211272.8997278767,2010-10-18 03:54:01,840.4266429570622,2,19,0.5501165986061096,3.826182842254639,18.245332772781797,18.136574026879924,72.74545751535285,66.31598350830339,0.0001295089750783,0.0907677188515663,0,0,0
6128,211302.9145666954,2010-10-18 03:54:31,870.4414816754835,2,19,0.550297200679779,3.829744338989258,18.24992003258996,18.136574026879924,72.76301711210853,66.31598350830339,9.713172767078504e-05,0.0907677188515663,0,0,0
6129,211332.92981247333,2010-10-18 03:55:01,900.4567274383847,2,19,0.550297200679779,3.833143949508667,18.25450735206686,18.136574026879924,72.78059261616713,66.31598350830339,9.713172767078504e-05,0.0907677188515663,0,0,0
6130,211362.94500513384,2010-10-18 03:55:31,930.4719201139764,2,19,0.5501165986061096,3.836219549179077,18.2590947035948,18.136574026879924,72.79818384191452,66.31598350830339,3.237724376958795e-05,0.0907677188515663,0,0,0
6131,211392.9602202905,2010-10-18 03:56:01,960.4871352705976,2,19,0.550297200679779,3.839781045913696,18.26368202402708,18.136574026879924,72.8157904521446,66.31598350830339,9.713172767078504e-05,0.0907677188515663,0,0,0
6132,211422.97542741208,2010-10-18 03:56:31,990.5023423921928,2,19,0.5501165986061096,3.843018770217896,18.268269312778106,18.136574026879924,72.83341215504049,66.31598350830339,6.47544875391759e-05,0.0907677188515663,0,0,0
6133,211452.99064927545,2010-10-18 03:57:01,1020.5175642555292,2,19,0.5501165986061096,3.846256494522095,18.272856620774963,18.136574026879924,72.85104881101259,66.31598350830339,9.713172767078504e-05,0.0907677188515663,0,0,0
6134,211483.00881988293,2010-10-18 03:57:31,1050.5357350585305,2,19,0.550297200679779,3.849332332611084,18.277444392088515,18.136574026879924,72.86870188690078,66.31598350830339,6.47544875391759e-05,0.0907677188515663,0,0,0
6135,211513.02126590803,2010-10-18 03:58:01,1080.5481808881366,2,19,0.550297200679779,3.852570056915283,18.28203136275926,18.136574026879924,72.8863662609717,66.31598350830339,9.713172767078504e-05,0.0907677188515663,0,0,0
6136,211543.03632428893,2010-10-18 03:58:31,1110.5632392940868,2,19,0.550297200679779,3.855645895004273,18.286618679100265,18.136574026879924,72.90404583521597,66.31598350830339,9.713172767078504e-05,0.0907677188515663,0,0,0
6137,211573.05155869853,2010-10-18 03:59:01,1140.5784736836422,2,19,0.5504778623580933,3.858559846878052,18.29120597443352,18.136574026879924,72.92173893177171,66.31598350830339,9.713172767078504e-05,0.0907677188515663,0,0,0
6138,211603.066905403,2010-10-18 03:59:31,1170.593820498396,2,19,0.550297200679779,3.861311912536621,18.295793271421186,18.136574026879924,72.93944509903999,66.31598350830339,9.713172767078504e-05,0.0907677188515663,0,0,0
6139,211633.0819988613,2010-10-18 04:00:01,1200.6089138364075,2,19,0.5501165986061096,3.8637402057647705,18.30038052752805,18.136574026879924,72.95716368715624,66.31598350830339,3.237724376958795e-05,0.0907677188515663,0,0,0
6140,211663.0973505031,2010-10-18 04:00:31,1230.6242654832042,2,19,0.550297200679779,3.86633038520813,18.304967820402723,18.136574026879924,72.97489430528952,66.31598350830339,6.47544875391759e-05,0.0907677188515663,0,0,0
6141,211693.1125532388,2010-10-18 04:01:01,1260.6394682188686,2,19,0.5501165986061096,3.868596792221069,18.309555178278757,18.136574026879924,72.99263660390069,66.31598350830339,0.0,0.0907677188515663,0,0,0
6142,211723.12779399412,2010-10-18 04:01:31,1290.6547089793023,2,19,0.550297200679779,3.871348857879639,18.31414253952644,18.136574026879924,73.01038965377,66.31598350830339,9.713172767078504e-05,0.0907677188515663,0,0,0
6143,211753.14288859032,2010-10-18 04:02:01,1320.669803565425,2,19,0.5504778623580933,3.873453378677368,18.31872981903824,18.136574026879924,73.02815252635185,66.31598350830339,6.47544875391759e-05,0.0907677188515663,0,0,0
6144,211783.15808841377,2010-10-18 04:02:31,1350.6850033888306,2,19,0.550297200679779,3.875396013259888,18.323317122338853,18.136574026879924,73.04592504734568,66.31598350830339,9.713172767078504e-05,0.0907677188515663,0,0,0
6145,211813.17330780596,2010-10-18 04:03:01,1380.7002227659705,2,19,0.5499359965324402,3.877176761627197,18.32790436055917,18.136574026879924,73.06370646980929,66.31598350830339,3.237724376958795e-05,0.0907677188515663,0,0,0
6146,211843.1886524302,2010-10-18 04:03:31,1410.7155673952775,2,19,0.550297200679779,3.879119396209717,18.332491630086512,18.136574026879924,73.08149667965833,66.31598350830339,6.47544875391759e-05,0.0907677188515663,0,0,0
6147,211873.20375544232,2010-10-18 04:04:01,1440.730670417425,2,19,0.550297200679779,3.8809001445770255,18.3370788800565,18.136574026879924,73.09929483166768,66.31598350830339,6.47544875391759e-05,0.0907677188515663,0,0,0
6148,211903.21897898987,2010-10-18 04:04:31,1470.7458939549338,2,19,0.5501165986061096,3.882519006729126,18.34166615055156,18.136574026879924,73.11710072020088,66.31598350830339,9.713172767078504e-05,0.0907677188515663,0,0,0
6149,211933.23420479303,2010-10-18 04:05:01,1500.7611198032018,2,19,0.5501165986061096,3.8838140964508057,18.346253375307253,18.136574026879924,73.13491365885069,66.31598350830339,3.237724376958795e-05,0.0907677188515663,0,0,0
6150,211963.2496369505,2010-10-18 04:05:31,1530.7765519556433,2,19,0.550297200679779,3.885432958602905,18.35084062016385,18.136574026879924,73.15273344173505,66.31598350830339,3.237724376958795e-05,0.0907677188515663,0,0,0
6151,211993.2648504029,2010-10-18 04:06:01,1560.7917653929794,2,19,0.5501165986061096,3.886889934539795,18.35542776815127,18.136574026879924,73.17055953496175,66.31598350830339,6.47544875391759e-05,0.0907677188515663,0,0,0
6152,212023.279813787,2010-10-18 04:06:31,1590.8067287520437,2,19,0.5499359965324402,3.8881850242614746,18.36001495779733,18.136574026879924,73.18839226721813,66.31598350830339,3.237724376958795e-05,0.0907677188515663,0,0,0
6153,212053.29505802103,2010-10-18 04:07:01,1620.8219730162098,2,19,0.5499359965324402,3.889642000198364,18.364602185591853,18.136574026879924,73.2062315329425,66.31598350830339,3.237724376958795e-05,0.0907677188515663,0,0,0
6154,212083.3101730281,2010-10-18 04:07:31,1650.837088003177,2,19,0.550297200679779,3.890937089920044,18.369189354322327,18.136574026879924,73.22407670595781,66.31598350830339,0.0,0.0907677188515663,0,0,0
6155,212113.32538619972,2010-10-18 04:08:01,1680.8523011598138,2,19,0.5501165986061096,3.892232179641724,18.373776520001567,18.136574026879924,73.24192811324366,66.31598350830339,3.237724376958795e-05,0.0907677188515663,0,0,0
6156,212143.34065210787,2010-10-18 04:08:31,1710.8675670929856,2,19,0.5499359965324402,3.8935272693634033,18.378363847781,18.136574026879924,73.25978632813028,66.31598350830339,3.237724376958795e-05,0.0907677188515663,0,0,0
6157,212173.3559542763,2010-10-18 04:09:01,1740.8828692414172,2,19,0.5501165986061096,3.894822359085083,18.38295122479797,18.136574026879924,73.27765092483735,66.31598350830339,0.0,0.0907677188515663,0,0,0
6158,212203.37101904812,2010-10-18 04:09:31,1770.897934023258,2,19,0.5501165986061096,3.8962793350219727,18.38753839262635,18.136574026879924,73.29552028925383,66.31598350830339,3.237724376958795e-05,0.0907677188515663,0,0,0
6159,212233.38635300088,2010-10-18 04:10:01,1800.9132679659306,2,19,0.5501165986061096,3.897574424743652,18.39212563088148,18.136574026879924,73.3133962582275,66.31598350830339,0.0,0.0907677188515663,0,0,0
6160,212263.40153473412,2010-10-18 04:10:31,1830.9284496992505,2,19,0.550297200679779,3.899031400680542,18.396712839975898,18.136574026879924,73.33127831319395,66.31598350830339,3.237724376958795e-05,0.0907677188515663,0,0,0
6161,212293.4167729032,2010-10-18 04:11:01,1860.9436878983004,2,19,0.5501165986061096,3.900164604187012,18.401300103706184,18.136574026879924,73.34916684715701,66.31598350830339,6.47544875391759e-05,0.0907677188515663,0,0,0
6162,212323.4318109283,2010-10-18 04:11:31,1890.9587259034056,2,19,0.550297200679779,3.901945352554321,18.40588726673705,18.136574026879924,73.36706118313343,66.31598350830339,0.0001295089750783,0.0907677188515663,0,0,0
6163,212353.44719809867,2010-10-18 04:12:01,1920.9741130637128,2,19,0.5501165986061096,3.902916669845581,18.41047449187065,18.136574026879924,73.38496205408882,66.31598350830339,0.0,0.0907677188515663,0,0,0
6164,212383.46218297133,2010-10-18 04:12:31,1950.9890979464203,2,19,0.5501165986061096,3.904373645782471,18.415061644981847,18.136574026879924,73.4028689912991,66.31598350830339,3.237724376958795e-05,0.0907677188515663,0,0,0
6165,212413.4773731507,2010-10-18 04:13:01,1981.0042881358152,2,19,0.5501165986061096,3.9056687355041504,18.41964888194559,18.136574026879924,73.42078255561704,66.31598350830339,3.237724376958795e-05,0.0907677188515663,0,0,0
6166,212443.4926892439,2010-10-18 04:13:31,2011.019604249052,2,19,0.5501165986061096,3.90712571144104,18.42423608880114,18.136574026879924,73.4387023762337,66.31598350830339,3.237724376958795e-05,0.0907677188515663,0,0,0
6167,212473.50776025627,2010-10-18 04:14:01,2041.034675241371,2,19,0.5501165986061096,3.9085826873779297,18.42882328084458,18.136574026879924,73.45662853923278,66.31598350830339,3.237724376958795e-05,0.0907677188515663,0,0,0
6168,212503.5229351977,2010-10-18 04:14:31,2071.049850197801,2,19,0.550297200679779,3.9100396633148193,18.43341048463413,18.136574026879924,73.47456127972725,66.31598350830339,6.47544875391759e-05,0.0907677188515663,0,0,0
6169,212533.5381153671,2010-10-18 04:15:01,2101.0650303421603,2,19,0.5501165986061096,3.911334753036499,18.437997689746545,18.136574026879924,73.4925004860958,66.31598350830339,0.0,0.0907677188515663,0,0,0
6170,212563.5534471193,2010-10-18 04:15:31,2131.0803620843485,2,19,0.550297200679779,3.912953615188599,18.442584824944408,18.136574026879924,73.51044600154,66.31598350830339,6.47544875391759e-05,0.0907677188515663,0,0,0
6171,212593.5685101317,2010-10-18 04:16:01,2161.0954251368794,2,19,0.550297200679779,3.914248466491699,18.44717200554413,18.136574026879924,73.52839828825141,66.31598350830339,3.237724376958795e-05,0.0907677188515663,0,0,0
6172,212623.5836655895,2010-10-18 04:16:31,2191.1105805496004,2,19,0.5501165986061096,3.915705442428589,18.451759195416503,18.136574026879924,73.54635724556262,66.31598350830339,3.237724376958795e-05,0.0907677188515663,0,0,0
6173,212653.59885296697,2010-10-18 04:17:01,2221.125767942025,2,19,0.5499359965324402,3.917000532150269,18.45634636378749,18.136574026879924,73.56432270289578,66.31598350830339,0.0,0.0907677188515663,0,0,0
6174,212683.61416007276,2010-10-18 04:17:31,2251.1410751280114,2,19,0.5501165986061096,3.918619394302368,18.4609335130746,18.136574026879924,73.58229487854989,66.31598350830339,3.237724376958795e-05,0.0907677188515663,0,0,0
6175,212713.6292509997,2010-10-18 04:18:01,2281.1561660099014,2,19,0.5501165986061096,3.920238256454468,18.465520637037027,18.136574026879924,73.60027377631786,66.31598350830339,6.47544875391759e-05,0.0907677188515663,0,0,0
6176,212743.64440424205,2010-10-18 04:18:31,2311.1713192020884,2,19,0.550297200679779,3.921857118606568,18.47010783872982,18.136574026879924,73.61825982418952,66.31598350830339,3.237724376958795e-05,0.0907677188515663,0,0,0
6177,212773.65959616075,2010-10-18 04:19:01,2341.186511120793,2,19,0.550297200679779,3.923152208328247,18.47469499861679,18.136574026879924,73.63625265856001,66.31598350830339,3.237724376958795e-05,0.0907677188515663,0,0,0
6178,212803.6747568065,2010-10-18 04:19:31,2371.201671791619,2,19,0.5499359965324402,3.9246091842651367,18.47928216114652,18.136574026879924,73.65425241208496,66.31598350830339,0.0,0.0907677188515663,0,0,0
6179,212833.68996330156,2010-10-18 04:20:02,2401.216878396928,2,19,0.5501165986061096,3.9260661602020255,18.48386936588388,18.136574026879924,73.67225929954824,66.31598350830339,3.237724376958795e-05,0.0907677188515663,0,0,0
6180,212863.70511106012,2010-10-18 04:20:32,2431.232026020235,2,19,0.550297200679779,3.927685022354126,18.48845654691062,18.136574026879924,73.69027302672421,66.31598350830339,0.0,0.0907677188515663,0,0,0
6181,212893.7203036255,2010-10-18 04:21:02,2461.2472186858017,2,19,0.550297200679779,3.9293038845062256,18.493043731501032,18.136574026879924,73.70829384870304,66.31598350830339,6.47544875391759e-05,0.0907677188515663,0,0,0
6182,212923.7356570016,2010-10-18 04:21:32,2491.2625720719334,2,19,0.550297200679779,3.930922746658325,18.49763090871209,18.136574026879924,73.72632182788473,66.31598350830339,6.47544875391759e-05,0.0907677188515663,0,0,0
6183,212953.75066464103,2010-10-18 04:22:02,2521.27757961612,2,19,0.5501165986061096,3.932379722595215,18.502218162814977,18.136574026879924,73.74435721662155,66.31598350830339,6.47544875391759e-05,0.0907677188515663,0,0,0
6184,212983.7658411864,2010-10-18 04:22:32,2551.2927561615106,2,19,0.5501165986061096,3.933836698532105,18.5068053262656,18.136574026879924,73.7623994548671,66.31598350830339,0.0,0.0907677188515663,0,0,0
6185,213013.78098973705,2010-10-18 04:23:02,2581.307904712129,2,19,0.550297200679779,3.935779333114624,18.511392479598733,18.136574026879924,73.78044893779632,66.31598350830339,6.47544875391759e-05,0.0907677188515663,0,0,0
6186,213043.7962891988,2010-10-18 04:23:32,2611.3232041939136,2,19,0.550297200679779,3.9372363090515137,18.51597972632252,18.136574026879924,73.79850596725927,66.31598350830339,6.47544875391759e-05,0.0907677188515663,0,0,0
6187,213073.8113505972,2010-10-18 04:24:02,2641.338265572272,2,19,0.5501165986061096,3.9386932849884033,18.520566907504,18.136574026879924,73.8165701741187,66.31598350830339,3.237724376958795e-05,0.0907677188515663,0,0,0
6188,213103.8265152379,2010-10-18 04:24:32,2671.3534302129924,2,19,0.5501165986061096,3.940312147140503,18.52515408393293,18.136574026879924,73.83464167030405,66.31598350830339,3.237724376958795e-05,0.0907677188515663,0,0,0
6189,213133.8417031817,2010-10-18 04:25:02,2701.368618181853,2,19,0.550297200679779,3.942092895507813,18.529741265237547,18.136574026879924,73.85272070869763,66.31598350830339,0.0,0.0907677188515663,0,0,0
6190,213163.8568756319,2010-10-18 04:25:32,2731.383790632037,2,19,0.5499359965324402,3.943549871444702,18.53432849607269,18.136574026879924,73.87080747080778,66.31598350830339,0.0,0.0907677188515663,0,0,0
6191,213193.8721044726,2010-10-18 04:26:02,2761.3990194777757,2,19,0.550297200679779,3.945330619812012,18.53891569676722,18.136574026879924,73.88890164543245,66.31598350830339,6.47544875391759e-05,0.0907677188515663,0,0,0
6192,213223.88722977528,2010-10-18 04:26:32,2791.414144750378,2,19,0.550297200679779,3.947111368179321,18.543502909171515,18.136574026879924,73.90700349849499,66.31598350830339,6.47544875391759e-05,0.0907677188515663,0,0,0
6193,213253.9023791079,2010-10-18 04:27:02,2821.4292941080075,2,19,0.550297200679779,3.948730230331421,18.548090143132416,18.136574026879924,73.92511309460478,66.31598350830339,6.47544875391759e-05,0.0907677188515663,0,0,0
6194,213283.91754983377,2010-10-18 04:27:32,2851.4444648088315,2,19,0.550297200679779,3.950349092483521,18.55267728944276,18.136574026879924,73.94323004725818,66.31598350830339,3.237724376958795e-05,0.0907677188515663,0,0,0
6195,213313.93274603813,2010-10-18 04:28:02,2881.4596610432923,2,19,0.550297200679779,3.95196795463562,18.55726448254553,18.136574026879924,73.96135492434952,66.31598350830339,3.237724376958795e-05,0.0907677188515663,0,0,0
6196,213343.94791120017,2010-10-18 04:28:32,2911.474826175237,2,19,0.550297200679779,3.95391058921814,18.561851663037142,18.136574026879924,73.97948755183155,66.31598350830339,6.47544875391759e-05,0.0907677188515663,0,0,0
6197,213373.96318532372,2010-10-18 04:29:02,2941.490100288797,2,19,0.5499359965324402,3.955367565155029,18.56643885773836,18.136574026879924,73.99762810891225,66.31598350830339,3.237724376958795e-05,0.0907677188515663,0,0,0
6198,213403.9812154812,2010-10-18 04:29:32,2971.5081304713285,2,19,0.5501165986061096,3.957148313522339,18.571026508963936,18.136574026879924,74.01577835480416,66.31598350830339,3.237724376958795e-05,0.0907677188515663,0,0,0
6199,213433.99346435996,2010-10-18 04:30:02,3001.5203793701226,2,19,0.5501165986061096,3.958929061889648,18.575613271550505,18.136574026879924,74.03393293410508,66.31598350830339,9.713172767078504e-05,0.0907677188515663,0,0,0
6200,213464.00858860492,2010-10-18 04:30:32,3031.5355035800767,2,19,0.5501165986061096,3.960547924041748,18.58020047321,18.136574026879924,74.05209721171956,66.31598350830339,3.237724376958795e-05,0.0907677188515663,0,0,0
6201,213494.0237509049,2010-10-18 04:31:02,3061.5506659050247,2,19,0.5501165986061096,3.9623286724090576,18.58478768082897,18.136574026879924,74.07026958846008,66.31598350830339,3.237724376958795e-05,0.0907677188515663,0,0,0
6202,213524.0389275856,2010-10-18 04:31:32,3091.565842545652,2,19,0.5501165986061096,3.964271306991577,18.589374922131032,18.136574026879924,74.08845019941803,66.31598350830339,3.237724376958795e-05,0.0907677188515663,0,0,0
6203,213554.05411291288,2010-10-18 04:32:02,3121.581027887967,2,19,0.5501165986061096,3.9658901691436768,18.593962153608416,18.136574026879924,74.10663896493284,66.31598350830339,6.47544875391759e-05,0.0907677188515663,0,0,0
6204,213584.06926407505,2010-10-18 04:32:32,3151.596179070144,2,19,0.5501165986061096,3.967509031295776,18.59854940519367,18.136574026879924,74.12483603720291,66.31598350830339,0.0,0.0907677188515663,0,0,0
6205,213614.08445528196,2010-10-18 04:33:02,3181.611370247,2,19,0.5501165986061096,3.969613552093506,18.60313662203832,18.136574026879924,74.14304121137414,66.31598350830339,6.47544875391759e-05,0.0907677188515663,0,0,0
6206,213644.09973815733,2010-10-18 04:33:32,3211.6266531223973,2,19,0.5501165986061096,3.971394300460816,18.60772383518788,18.136574026879924,74.16125474912144,66.31598350830339,6.47544875391759e-05,0.0907677188515663,0,0,0
6207,213674.11478431776,2010-10-18 04:34:02,3241.641699292853,2,19,0.550297200679779,3.973336935043335,18.612311067365688,18.136574026879924,74.17947681385164,66.31598350830339,6.47544875391759e-05,0.0907677188515663,0,0,0
6208,213704.1300712031,2010-10-18 04:34:32,3271.656986308569,2,19,0.5499359965324402,3.975117683410645,18.61689831119912,18.136574026879924,74.19770747102616,66.31598350830339,6.47544875391759e-05,0.0907677188515663,0,0,0
6209,213734.14510332863,2010-10-18 04:35:02,3301.672018403945,2,19,0.550297200679779,3.977060317993164,18.62148555508936,18.136574026879924,74.2159467383483,66.31598350830339,6.47544875391759e-05,0.0907677188515663,0,0,0
6210,213764.16027643543,2010-10-18 04:35:32,3331.6871913954774,2,19,0.5501165986061096,3.979002952575684,18.626072820434352,18.136574026879924,74.23419439576116,66.31598350830339,9.713172767078504e-05,0.0907677188515663,0,0,0
6211,213794.1754532214,2010-10-18 04:36:02,3361.702368196505,2,19,0.5501165986061096,3.980783700942993,18.630659951651733,18.136574026879924,74.25245068936748,66.31598350830339,6.47544875391759e-05,0.0907677188515663,0,0,0
6212,213824.1906285588,2010-10-18 04:36:32,3391.717543518847,2,19,0.5501165986061096,3.9827263355255127,18.635247093915517,18.136574026879924,74.2707158715604,66.31598350830339,3.237724376958795e-05,0.0907677188515663,0,0,0
6213,213854.2057799214,2010-10-18 04:37:02,3421.732694976711,2,19,0.5501165986061096,3.984668970108032,18.639834277278663,18.136574026879924,74.28899011940257,66.31598350830339,0.0,0.0907677188515663,0,0,0
6214,213884.2211432373,2010-10-18 04:37:32,3451.7480581973537,2,19,0.5501165986061096,3.986611604690552,18.644421410624936,18.136574026879924,74.30727318278655,66.31598350830339,3.237724376958795e-05,0.0907677188515663,0,0,0
6215,213914.2364841824,2010-10-18 04:38:02,3481.763399262778,2,19,0.5501165986061096,3.9885542392730713,18.64900863956725,18.136574026879924,74.32556568271339,66.31598350830339,3.237724376958795e-05,0.0907677188515663,0,0,0
6216,213944.25180019543,2010-10-18 04:38:32,3511.7787151654893,2,19,0.5501165986061096,3.990658760070801,18.653595683046813,18.136574026879924,74.34386662811545,66.31598350830339,3.237724376958795e-05,0.0907677188515663,0,0,0
6217,213974.26644707573,2010-10-18 04:39:02,3541.7933621510533,2,19,0.550297200679779,3.99292516708374,18.658182761715647,18.136574026879924,74.36217700892703,66.31598350830339,0.0001295089750783,0.0907677188515663,0,0,0
6218,214004.28161493444,2010-10-18 04:39:32,3571.8085299045315,2,19,0.5501165986061096,3.994705677032471,18.66276993618654,18.136574026879924,74.38049716286281,66.31598350830339,3.237724376958795e-05,0.0907677188515663,0,0,0
6219,214034.2968142115,2010-10-18 04:40:02,3601.8237292617755,2,19,0.5501165986061096,3.9968101978302,18.66735704723025,18.136574026879924,74.39882656472625,66.31598350830339,3.237724376958795e-05,0.0907677188515663,0,0,0
6220,214064.3119537797,2010-10-18 04:40:32,3631.8388687397824,2,19,0.550297200679779,3.9989147186279297,18.67194419008987,18.136574026879924,74.41716564106687,66.31598350830339,3.237724376958795e-05,0.0907677188515663,0,0,0
6221,214094.32715757305,2010-10-18 04:41:02,3661.854072673432,2,19,0.550297200679779,4.001181125640869,18.67653129695117,18.136574026879924,74.43551427783063,66.31598350830339,6.47544875391759e-05,0.0907677188515663,0,0,0
6222,214124.34229978285,2010-10-18 04:41:32,3691.869214772973,2,19,0.550297200679779,4.003285884857178,18.681118386545656,18.136574026879924,74.4538726610508,66.31598350830339,6.47544875391759e-05,0.0907677188515663,0,0,0
6223,214154.35757662824,2010-10-18 04:42:02,3721.884491623354,2,19,0.5501165986061096,4.005552291870117,18.685705456115578,18.136574026879924,74.47224082004536,66.31598350830339,9.71794142969884e-05,0.0907677188515663,0,0,0
6224,214184.3727073444,2010-10-18 04:42:32,3751.899622314461,2,19,0.550297200679779,4.007818698883057,18.690292571082093,18.136574026879924,74.4906192381685,66.31598350830339,6.47544875391759e-05,0.0907677188515663,0,0,0
6225,214214.38775000107,2010-10-18 04:43:02,3781.914664976171,2,19,0.5501165986061096,4.009761333465576,18.69487958760358,18.136574026879924,74.50900734330466,66.31598350830339,3.24249267578125e-05,0.0907677188515663,0,0,0
6226,214244.40294623552,2010-10-18 04:43:32,3811.929861200608,2,19,0.5499359965324402,4.012027740478516,18.699466617802717,18.136574026879924,74.52740563717843,66.31598350830339,6.47544875391759e-05,0.0907677188515663,0,0,0
6227,214274.4181001896,2010-10-18 04:44:02,3841.9450151647175,2,19,0.5504778623580933,4.014455795288086,18.704053730048525,18.136574026879924,74.54581450837796,66.31598350830339,0.0001295089750783,0.0907677188515663,0,0,0
6228,214304.43325846447,2010-10-18 04:44:32,3871.960173439573,2,19,0.5501165986061096,4.0165605545043945,18.70864079268265,18.136574026879924,74.56423353098509,66.31598350830339,6.47544875391759e-05,0.0907677188515663,0,0,0
6229,214334.448441872,2010-10-18 04:45:02,3901.975356882153,2,19,0.550297200679779,4.018826961517334,18.71322794390513,18.136574026879924,74.58266341456003,66.31598350830339,3.24249267578125e-05,0.0907677188515663,0,0,0
6230,214364.46369670748,2010-10-18 04:45:32,3931.9906116825778,2,19,0.5501165986061096,4.021093368530273,18.717815034783936,18.136574026879924,74.6011034720797,66.31598350830339,3.24249267578125e-05,0.0907677188515663,0,0,0
6231,214394.47887525288,2010-10-18 04:46:02,3962.005790217928,2,19,0.5501165986061096,4.023521423339844,18.722402153285188,18.136574026879924,74.6195543628673,66.31598350830339,9.70840483205393e-05,0.0907677188515663,0,0,0
6232,214424.49402722705,2010-10-18 04:46:32,3992.020942192079,2,19,0.5501165986061096,4.025787830352783,18.7269892795346,18.136574026879924,74.63801597792624,66.31598350830339,6.47544875391759e-05,0.0907677188515663,0,0,0
6233,214454.5092266996,2010-10-18 04:47:02,4022.03614180496,2,19,0.5501165986061096,4.028216361999512,18.731576450781265,18.136574026879924,74.656488546161,66.31598350830339,9.71794142969884e-05,0.0907677188515663,0,0,0
6234,214484.52435601724,2010-10-18 04:47:32,4052.051270982294,2,19,0.5501165986061096,4.030482769012451,18.736163606181098,18.136574026879924,74.67497184112376,66.31598350830339,6.47544875391759e-05,0.0907677188515663,0,0,0
6235,214514.5394226036,2010-10-18 04:48:02,4082.06633756362,2,19,0.550297200679779,4.0329108238220215,18.740750671623804,18.136574026879924,74.69346565858885,66.31598350830339,3.23295607813634e-05,0.0907677188515663,0,0,0
6236,214544.55455252776,2010-10-18 04:48:32,4112.081467502853,2,19,0.5501165986061096,4.035338878631592,18.745337827707623,18.136574026879924,74.7119708702493,66.31598350830339,6.47544875391759e-05,0.0907677188515663,0,0,0
6237,214574.5697217499,2010-10-18 04:49:02,4142.096636724992,2,19,0.550297200679779,4.037929058074951,18.74992490994093,18.136574026879924,74.73048683436689,66.31598350830339,9.70840483205393e-05,0.0907677188515663,0,0,0
6238,214604.58501448488,2010-10-18 04:49:32,4172.111929545175,2,19,0.5501165986061096,4.04003381729126,18.754512094897827,18.136574026879924,74.74901441906367,66.31598350830339,6.47544875391759e-05,0.0907677188515663,0,0,0
6239,214634.60019677453,2010-10-18 04:50:02,4202.127111739644,2,19,0.550297200679779,4.04278564453125,18.75909917173197,18.136574026879924,74.767552862231,66.31598350830339,9.70840483205393e-05,0.0907677188515663,0,0,0
6240,214664.61523112052,2010-10-18 04:50:32,4232.142146095654,2,19,0.5501165986061096,4.0452141761779785,18.763686279694145,18.136574026879924,74.78610294164586,66.31598350830339,6.47544875391759e-05,0.0907677188515663,0,0,0
6241,214694.63052835176,2010-10-18 04:51:02,4262.15744334688,2,19,0.550297200679779,4.047804355621338,18.76827339019524,18.136574026879924,74.8046644819432,66.31598350830339,6.47544875391759e-05,0.0907677188515663,0,0,0
6242,214724.64554099864,2010-10-18 04:51:32,4292.1724559887725,2,19,0.550297200679779,4.050232410430908,18.772860585164658,18.136574026879924,74.82323805430579,66.31598350830339,6.47544875391759e-05,0.0907677188515663,0,0,0
6243,214754.66071464683,2010-10-18 04:52:03,4322.187629621903,2,19,0.5501165986061096,4.052822589874268,18.777447735805364,18.136574026879924,74.84182308545412,66.31598350830339,6.47544875391759e-05,0.0907677188515663,0,0,0
6244,214784.6758562752,2010-10-18 04:52:33,4352.202771235232,2,19,0.5501165986061096,4.055251121520996,18.782034859471395,18.136574026879924,74.86041988482117,66.31598350830339,6.47544875391759e-05,0.0907677188515663,0,0,0
6245,214814.6910209259,2010-10-18 04:53:03,4382.217936016303,2,19,0.5501165986061096,4.058002948760986,18.78662204757479,18.136574026879924,74.87902895936546,66.31598350830339,6.47544875391759e-05,0.0907677188515663,0,0,0
6246,214844.7063763772,2010-10-18 04:53:33,4412.2332913573055,2,19,0.550297200679779,4.060593128204346,18.791209228170093,18.136574026879924,74.89765014420547,66.31598350830339,6.47544875391759e-05,0.0907677188515663,0,0,0
6247,214874.72138018208,2010-10-18 04:54:03,4442.248295177211,2,19,0.5501165986061096,4.063345432281494,18.79579628776638,18.136574026879924,74.9162825643709,66.31598350830339,3.24249267578125e-05,0.0907677188515663,0,0,0
6248,214904.73653614617,2010-10-18 04:54:33,4472.263451151331,2,19,0.5501165986061096,4.066097259521484,18.80038341901408,18.136574026879924,74.9349277668297,66.31598350830339,9.70840483205393e-05,0.0907677188515663,0,0,0
6249,214934.7516866968,2010-10-18 04:55:03,4502.278601696921,2,19,0.550297200679779,4.068687438964844,18.80497053251434,18.136574026879924,74.95358533093373,66.31598350830339,3.23295607813634e-05,0.0907677188515663,0,0,0
6250,214964.7668381195,2010-10-18 04:55:33,4532.293753094636,2,19,0.5501165986061096,4.071601390838623,18.809557622110532,18.136574026879924,74.97225531542067,66.31598350830339,9.70840483205393e-05,0.0907677188515663,0,0,0
6251,214994.78201386795,2010-10-18 04:56:03,4562.308928828002,2,19,0.5501165986061096,4.074353694915772,18.814144736103607,18.136574026879924,74.99093807371425,66.31598350830339,9.71794142969884e-05,0.0907677188515663,0,0,0
6252,215024.79716817796,2010-10-18 04:56:33,4592.324083137975,2,19,0.550297200679779,4.077105522155762,18.81873184771533,18.136574026879924,75.0096336798128,66.31598350830339,6.47544875391759e-05,0.0907677188515663,0,0,0
6253,215054.81259564872,2010-10-18 04:57:03,4622.339510739073,2,19,0.5499359965324402,4.07985782623291,18.82331902851084,18.136574026879924,75.02834253312332,66.31598350830339,3.24249267578125e-05,0.0907677188515663,0,0,0
6254,215084.82750877252,2010-10-18 04:57:33,4652.3544237326105,2,19,0.5501165986061096,4.0827717781066895,18.827906114164616,18.136574026879924,75.04706393400686,66.31598350830339,6.47544875391759e-05,0.0907677188515663,0,0,0
6255,215114.8426815536,2010-10-18 04:58:03,4682.369596633918,2,19,0.550297200679779,4.085685729980469,18.832493181198924,18.136574026879924,75.06579842019015,66.31598350830339,9.71794142969884e-05,0.0907677188515663,0,0,0
6256,215144.85781405412,2010-10-18 04:58:33,4712.384729054335,2,19,0.550297200679779,4.088599681854248,18.83708025498898,18.136574026879924,75.0845461984275,66.31598350830339,9.71794142969884e-05,0.0907677188515663,0,0,0
6257,215174.87309021284,2010-10-18 04:59:03,4742.400005177905,2,19,0.5499359965324402,4.091351509094238,18.84166740487106,18.136574026879924,75.10330776321747,66.31598350830339,3.23295607813634e-05,0.0907677188515663,0,0,0
6258,215204.8881295914,2010-10-18 04:59:33,4772.41504455142,2,19,0.550297200679779,4.094427585601807,18.84625449229433,18.136574026879924,75.12208249156764,66.31598350830339,6.47544875391759e-05,0.0907677188515663,0,0,0
6259,215234.90333066287,2010-10-18 05:00:03,4802.43024562795,2,19,0.5501165986061096,4.097503185272217,18.850841588433557,18.136574026879924,75.14087087256082,66.31598350830339,0.0001295089750783,0.0907677188515663,0,0,0
6260,215264.91839991088,2010-10-18 05:00:33,4832.445314981184,2,19,0.5501165986061096,4.100417137145996,18.855428688327606,18.136574026879924,75.1596729671173,66.31598350830339,6.47544875391759e-05,0.0907677188515663,0,0,0
6261,215294.93376051,2010-10-18 05:01:03,4862.460675490067,2,19,0.5501165986061096,4.103331089019775,18.86001583568865,18.136574026879924,75.17848904245017,66.31598350830339,6.47544875391759e-05,0.0907677188515663,0,0,0
6262,215324.95170609665,2010-10-18 05:01:33,4892.478621061723,2,19,0.5501165986061096,4.106407165527344,18.8646033694656,18.136574026879924,75.19732071549139,66.31598350830339,6.47544875391759e-05,0.0907677188515663,0,0,0
6263,215354.9639530055,2010-10-18 05:02:03,4922.490868000632,2,19,0.5501165986061096,4.109644889831543,18.86919008589282,18.136574026879924,75.21616318903541,66.31598350830339,9.71794142969884e-05,0.0907677188515663,0,0,0
6264,215384.9790761478,2010-10-18 05:02:33,4952.505991122876,2,19,0.550297200679779,4.112882614135742,18.8737772098741,18.136574026879924,75.23502161878268,66.31598350830339,0.0001295089750783,0.0907677188515663,0,0,0
6265,215414.99423491888,2010-10-18 05:03:03,4982.5211498789295,2,19,0.5501165986061096,4.115796089172363,18.87836436871964,18.136574026879924,75.25389460065836,66.31598350830339,9.70840483205393e-05,0.0907677188515663,0,0,0
6266,215445.00940487284,2010-10-18 05:03:33,5012.536319847928,2,19,0.5501165986061096,4.119195938110352,18.882951532523776,18.136574026879924,75.27278210146808,66.31598350830339,9.71794142969884e-05,0.0907677188515663,0,0,0
6267,215475.0245723757,2010-10-18 05:04:03,5042.551487350783,2,19,0.5501165986061096,4.122109889984131,18.88753871250247,18.136574026879924,75.29168430950732,66.31598350830339,6.47544875391759e-05,0.0907677188515663,0,0,0
6268,215505.0397394024,2010-10-18 05:04:33,5072.5666543974985,2,19,0.5501165986061096,4.12534761428833,18.892125902319385,18.136574026879924,75.31060118909207,66.31598350830339,6.47544875391759e-05,0.0907677188515663,0,0,0
6269,215535.05499967144,2010-10-18 05:05:03,5102.581914676579,2,19,0.550297200679779,4.12874698638916,18.896713055450316,18.136574026879924,75.32953275235863,66.31598350830339,9.70840483205393e-05,0.0907677188515663,0,0,0
6270,215565.0701696404,2010-10-18 05:05:33,5132.597084695703,2,19,0.550297200679779,4.131984710693359,18.90130023151671,18.136574026879924,75.34847935093465,66.31598350830339,9.70840483205393e-05,0.0907677188515663,0,0,0
6271,215595.0852931286,2010-10-18 05:06:03,5162.612208108671,2,19,0.5499359965324402,4.135384559631348,18.905887178203997,18.136574026879924,75.36743998156086,66.31598350830339,0.0001295089750783,0.0907677188515663,0,0,0
6272,215625.10030694332,2010-10-18 05:06:33,5192.627221918474,2,19,0.5501165986061096,4.138622283935547,18.910473550338885,18.136574026879924,75.38641327760517,66.31598350830339,6.47544875391759e-05,0.0907677188515663,0,0,0
6273,215655.11561841003,2010-10-18 05:07:03,5222.642533390142,2,19,0.5501165986061096,4.141860008239746,18.9150601424118,18.136574026879924,75.40540289957005,66.31598350830339,6.47544875391759e-05,0.0907677188515663,0,0,0
6274,215685.13064733247,2010-10-18 05:07:33,5252.657562307597,2,19,0.5501165986061096,4.145259380340576,18.91964652126225,18.136574026879924,75.42440707099911,66.31598350830339,9.70840483205393e-05,0.0907677188515663,0,0,0
6275,215715.14583582268,2010-10-18 05:08:03,5282.6727507977575,2,19,0.5501165986061096,4.148820877075195,18.9242328661388,18.136574026879924,75.4434270037161,66.31598350830339,9.70840483205393e-05,0.0907677188515663,0,0,0
6276,215745.16097010276,2010-10-18 05:08:33,5312.6878851078845,2,19,0.5501165986061096,4.152220726013184,18.928819252117577,18.136574026879924,75.4624627060931,66.31598350830339,6.47544875391759e-05,0.0907677188515663,0,0,0
6277,215775.17613650783,2010-10-18 05:09:03,5342.703051462877,2,19,0.550297200679779,4.155782222747803,18.93340575321852,18.136574026879924,75.48151464624682,66.31598350830339,0.0001295089750783,0.0907677188515663,0,0,0
6278,215805.19149908688,2010-10-18 05:09:33,5372.71841406197,2,19,0.5501165986061096,4.159019947052002,18.937992896260948,18.136574026879924,75.50058525528273,66.31598350830339,6.47544875391759e-05,0.0907677188515663,0,0,0
6279,215835.20670291528,2010-10-18 05:10:03,5402.733617920432,2,19,0.550297200679779,4.162743091583252,18.942580125021777,18.136574026879924,75.51967220399519,66.31598350830339,0.0001295089750783,0.0907677188515663,0,0,0
6280,215865.2216512469,2010-10-18 05:10:33,5432.748566237006,2,19,0.550297200679779,4.16614294052124,18.94716729012981,18.136574026879924,75.53877487852901,66.31598350830339,9.71794142969884e-05,0.0907677188515663,0,0,0
6281,215895.23679889523,2010-10-18 05:11:03,5462.763713905426,2,19,0.550297200679779,4.16954231262207,18.95175450991573,18.136574026879924,75.55789405040308,66.31598350830339,6.47544875391759e-05,0.0907677188515663,0,0,0
6282,215925.25211214137,2010-10-18 05:11:33,5492.779027106403,2,19,0.5501165986061096,4.1731038093566895,18.956341679597607,18.136574026879924,75.57702941456982,66.31598350830339,3.23295607813634e-05,0.0907677188515663,0,0,0
6283,215955.26714450732,2010-10-18 05:12:03,5522.79405948248,2,19,0.5501165986061096,4.176827430725098,18.960928825760806,18.136574026879924,75.59618121208217,66.31598350830339,9.71794142969884e-05,0.0907677188515663,0,0,0
6284,215985.2822784416,2010-10-18 05:12:33,5552.809193436719,2,19,0.550297200679779,4.180550575256348,18.96551604791208,18.136574026879924,75.61534996139049,66.31598350830339,9.70840483205393e-05,0.0907677188515663,0,0,0
6285,216015.29755712152,2010-10-18 05:13:03,5582.824472101623,2,19,0.5501165986061096,4.184274196624756,18.97010328056484,18.136574026879924,75.63453547506212,66.31598350830339,9.71794142969884e-05,0.0907677188515663,0,0,0
6286,216045.31259608903,2010-10-18 05:13:33,5612.839511054089,2,19,0.550297200679779,4.187835693359375,18.974690475793548,18.136574026879924,75.65373759023633,66.31598350830339,6.47544875391759e-05,0.0907677188515663,0,0,0
6287,216075.32785268396,2010-10-18 05:14:03,5642.854767774299,2,19,0.550297200679779,4.191558837890625,18.979277750006087,18.136574026879924,75.67295698718443,66.31598350830339,9.70840483205393e-05,0.0907677188515663,0,0,0
6288,216105.3429161174,2010-10-18 05:14:33,5672.8698311075295,2,19,0.5501165986061096,4.195281982421875,18.983864937116305,18.136574026879924,75.69219304703347,66.31598350830339,9.70840483205393e-05,0.0907677188515663,0,0,0
6289,216135.358091941,2010-10-18 05:15:03,5702.885006901045,2,19,0.5501165986061096,4.199005603790283,18.98845211878412,18.136574026879924,75.71144610037942,66.31598350830339,9.71794142969884e-05,0.0907677188515663,0,0,0
6290,216142.8892151874,2010-10-18 05:15:11,5710.416130147444,2,19,0.550297200679779,4.200138568878174,18.989603127914883,18.136574026879924,75.71627977454305,66.31598350830339,0.0001295089750783,0.0907677188515663,0,0,0
6291,216172.8982000048,2010-10-18 05:15:41,30.015123342792805,3,19,0.0,4.114986896514893,18.989603127914883,18.136574026879924,75.71627977454305,66.31598350830339,-0.0003561019839253,0.0907677188515663,0,0,0
6292,216202.91336571315,2010-10-18 05:16:11,60.03028909127363,3,19,0.0,4.104302406311035,18.989603127914883,18.136574026879924,75.71627977454305,66.31598350830339,-0.0001942634553415,0.0907677188515663,0,0,0
6293,216232.92863275908,2010-10-18 05:16:41,90.04555609210648,3,19,0.0,4.097989082336426,18.989603127914883,18.136574026879924,75.71627977454305,66.31598350830339,-0.0001295089750783,0.0907677188515663,0,0,0
6294,216262.89679025352,2010-10-18 05:17:11,120.01371361662912,3,19,0.0,4.093780040740967,18.989603127914883,18.136574026879924,75.71627977454305,66.31598350830339,-9.70840483205393e-05,0.0907677188515663,0,0,0
6295,216262.9081620251,2010-10-18 05:17:11,0.015633192726488,4,19,1.0009173154830933,4.199814796447754,18.98960747445201,18.136574026879924,75.716298029194,66.31598350830339,0.0,0.0907677188515663,0,0,0
6296,216263.7516571645,2010-10-18 05:17:12,0.859128332150899,4,19,0.9503467679023744,4.199814796447754,18.98983442152993,18.136574026879924,75.71725115410015,66.31598350830339,0.0,0.0907677188515663,0,0,0
6297,216265.82975649743,2010-10-18 05:17:14,2.93722767011629,4,19,0.9001373648643494,4.199814796447754,18.990367402757943,18.136574026879924,75.7194895408726,66.31598350830339,0.0,0.0907677188515663,0,0,0
6298,216268.97034363696,2010-10-18 05:17:17,6.077814824639871,4,19,0.8497474193572998,4.199653148651123,18.9911295085788,18.136574026879924,75.7226902014789,66.31598350830339,0.0,0.0907677188515663,0,0,0
6299,216273.2515209731,2010-10-18 05:17:21,10.358992145809555,4,19,0.7995380163192749,4.199814796447754,18.99210897041528,18.136574026879924,75.72680373248181,66.31598350830339,0.0,0.0907677188515663,0,0,0
6300,216278.7983024894,2010-10-18 05:17:27,15.90577365703754,4,19,0.7495092749595642,4.199653148651123,18.99330092214057,18.136574026879924,75.73180965498102,66.31598350830339,-3.23295607813634e-05,0.0907677188515663,0,0,0
6301,216286.0169390478,2010-10-18 05:17:34,23.12441021546007,4,19,0.6994804739952087,4.199814796447754,18.99475173178517,18.136574026879924,75.7379027475597,66.31598350830339,0.0,0.0907677188515663,0,0,0
6302,216295.50116894697,2010-10-18 05:17:44,32.60864012963077,4,19,0.649451732635498,4.199653148651123,18.99652564206858,18.136574026879924,75.7453528084887,66.31598350830339,-3.23295607813634e-05,0.0907677188515663,0,0,0
6303,216308.5478406372,2010-10-18 05:17:57,45.65531180981832,4,19,0.5994229316711426,4.199976921081543,18.99878408858043,18.136574026879924,75.75483781948562,66.31598350830339,3.24249267578125e-05,0.0907677188515663,0,0,0
6304,216328.20378437196,2010-10-18 05:18:16,65.31125555461304,4,19,0.549032986164093,4.199653148651123,19.00191045356231,18.136574026879924,75.76796793022073,66.31598350830339,-6.47544875391759e-05,0.0907677188515663,0,0,0
6305,216361.1251427116,2010-10-18 05:18:49,98.23261388421912,4,19,0.4988235831260681,4.199653148651123,19.00668277242599,18.136574026879924,75.78801072139201,66.31598350830339,-3.23295607813634e-05,0.0907677188515663,0,0,0
6306,216421.09297924183,2010-10-18 05:19:49,158.20045045960703,4,19,0.448794811964035,4.199653148651123,19.01454032238856,18.136574026879924,75.82101092634379,66.31598350830339,-3.23295607813634e-05,0.0907677188515663,0,0,0
6307,216515.87274546223,2010-10-18 05:21:24,252.9802166299084,4,19,0.3987660408020019,4.199814796447754,19.02566877299326,18.136574026879924,75.86774826395306,66.31598350830339,0.0,0.0907677188515663,0,0,0
6308,216638.1521180582,2010-10-18 05:23:26,375.2595892408772,4,19,0.3487372696399688,4.199653148651123,19.038345193880648,18.136574026879924,75.92098676535521,66.31598350830339,-3.23295607813634e-05,0.0907677188515663,0,0,0
6309,216783.4310974661,2010-10-18 05:25:52,520.5385686487863,4,19,0.2985278964042663,4.199976921081543,19.05138959453404,18.136574026879924,75.97577075547252,66.31598350830339,6.47544875391759e-05,0.0907677188515663,0,0,0
6310,216958.53776089032,2010-10-18 05:28:47,695.6452320579752,4,19,0.2484991252422332,4.199814796447754,19.064676012455003,18.136574026879924,76.0315711790418,66.31598350830339,0.0,0.0907677188515663,0,0,0
6311,217175.3156146428,2010-10-18 05:32:23,912.4230858404792,4,19,0.1982897371053695,4.199814796447754,19.07809608989396,18.136574026879924,76.08793293213358,66.31598350830339,-3.24249267578125e-05,0.0907677188515663,0,0,0
6312,217458.733047175,2010-10-18 05:37:07,1195.840518387751,4,19,0.1482609659433365,4.199814796447754,19.09166508792535,18.136574026879924,76.14492014582027,66.31598350830339,0.0,0.0907677188515663,0,0,0
6313,217870.66413128463,2010-10-18 05:43:59,1607.7716024522656,4,19,0.098232202231884,4.199814796447754,19.10560983394589,18.136574026879924,76.20348539961029,66.31598350830339,0.0,0.0907677188515663,0,0,0
6314,218619.87138810396,2010-10-18 05:56:28,2356.9788592966315,4,19,0.0498289167881011,4.199653148651123,19.120456050530755,18.136574026879924,76.26583670941483,66.31598350830339,-3.23295607813634e-05,0.0907677188515663,0,0,0
6315,218649.887596803,2010-10-18 05:56:58,30.01518424457879,5,19,0.0,4.191720962524414,19.120456050530755,18.136574026879924,76.26583670941483,66.31598350830339,-9.70840483205393e-05,0.0907677188515663,0,0,0
6316,218679.88723176892,2010-10-18 05:57:28,60.01481921057096,5,19,0.0,4.190749645233154,19.120456050530755,18.136574026879924,76.26583670941483,66.31598350830339,-3.23295607813634e-05,0.0907677188515663,0,0,0
6317,218680.0767681888,2010-10-18 05:57:29,0.1874739577871,6,19,-1.9243103452026844e-05,4.190749645233154,19.120456050530755,18.136574027882027,76.26583670941483,66.31598351250295,0.0,0.0947341993451118,0,0,0
6318,218684.9048238591,2010-10-18 05:57:33,5.015529597998087,6,19,0.0010644125286489,4.190587520599365,19.120457196166587,18.136574028050216,76.26584151045559,66.31598351320778,-6.47544875391759e-05,0.0947341993451118,0,0,0
6319,218714.92217652447,2010-10-18 05:58:03,30.01507624541164,7,19,-1.0993878841400146,4.012675285339356,19.120457196166587,18.14574105779811,76.26584151045559,66.35297006144135,-0.0009713172912597,0.0947341993451118,0,0,0
6320,218744.93744808168,2010-10-18 05:58:33,60.03034780761282,7,19,-1.099568486213684,3.985316514968872,19.120457196166587,18.154908102905903,76.26584151045559,66.38962050973974,-0.0005827903514727,0.0947341993451118,0,0,0
6321,218774.9524381573,2010-10-18 05:59:03,90.04533787825042,7,19,-1.099568486213684,3.9662139415740967,19.120457196166587,18.164074955524047,76.26584151045559,66.42606159176962,-0.0004856586456298,0.0947341993451118,0,0,0
6322,218804.96771226084,2010-10-18 05:59:33,120.06061197176038,7,19,-1.0993878841400146,3.9516441822052,19.120457196166587,18.173241860521628,76.26584151045559,66.4623506316345,-0.0003237724304199,0.0947341993451118,0,0,0
6323,218834.98276827583,2010-10-18 06:00:04,150.0756679967766,7,19,-1.0993878841400146,3.939502716064453,19.120457196166587,18.18240867106915,76.26584151045559,66.4985173331934,-0.0002913951757363,0.0947341993451118,0,0,0
6324,218864.99789692185,2010-10-18 06:00:34,180.09079664278664,7,19,-1.0993878841400146,3.928818225860596,19.120457196166587,18.191575548720323,76.26584151045559,66.53457968941629,-0.0002590179501567,0.0947341993451118,0,0,0
6325,218895.01317773716,2010-10-18 06:01:04,210.1060774480243,7,19,-1.099568486213684,3.918781280517578,19.120457196166587,18.20074249561742,76.26584151045559,66.57054812676012,-0.0002590179501567,0.0947341993451118,0,0,0
6326,218925.0284495349,2010-10-18 06:01:34,240.12134935608748,7,19,-1.0993878841400146,3.9095540046691895,19.120457196166587,18.20990950584049,76.26584151045559,66.60642874524318,-0.0002266406954731,0.0947341993451118,0,0,0
6327,218955.0434833295,2010-10-18 06:02:04,270.1363831406737,7,19,-1.0993878841400146,3.9006502628326416,19.120457196166587,18.219076374696087,76.26584151045559,66.64222550945455,-0.0002266406954731,0.0947341993451118,0,0,0
6328,218985.0585268484,2010-10-18 06:02:34,300.15142657932074,7,19,-1.099568486213684,3.891908407211304,19.120457196166587,18.22824320062595,76.26584151045559,66.67794190598083,-0.0002266406954731,0.0947341993451118,0,0,0
6329,219015.07367004565,2010-10-18 06:03:04,330.1665697515346,7,19,-1.099568486213684,3.8834903240203857,19.120457196166587,18.2374101049882,76.26584151045559,66.71358033685352,-0.0001942634553415,0.0947341993451118,0,0,0
6330,219045.08882883177,2010-10-18 06:03:34,360.18172856773805,7,19,-1.0993878841400146,3.8752341270446777,19.120457196166587,18.246577045898963,76.26584151045559,66.74914185634388,-0.0002266406954731,0.0947341993451118,0,0,0
6331,219075.10400754755,2010-10-18 06:04:04,390.1969072534625,7,19,-1.0993878841400146,3.8669779300689697,19.120457196166587,18.25574403139297,76.26584151045559,66.78462780785665,-0.0002266406954731,0.0947341993451118,0,0,0
6332,219105.1191437524,2010-10-18 06:04:34,420.21204347334896,7,19,-1.0993878841400146,3.858883619308472,19.120457196166587,18.26491100590736,76.26584151045559,66.82003946384583,-0.0001942634553415,0.0947341993451118,0,0,0
6333,219135.13429979671,2010-10-18 06:05:04,450.22719953769393,7,19,-1.099568486213684,3.850951194763184,19.120457196166587,18.27407793883985,76.26584151045559,66.85537754555708,-0.0001942634553415,0.0947341993451118,0,0,0
6334,219165.1494387384,2010-10-18 06:05:34,480.24233844427647,7,19,-1.0993878841400146,3.8431806564331055,19.120457196166587,18.28324491179556,76.26584151045559,66.89064398562897,-0.0002266406954731,0.0947341993451118,0,0,0
6335,219195.1646072738,2010-10-18 06:06:04,510.2575069997532,7,19,-1.0993878841400146,3.8357338905334473,19.120457196166587,18.292411874555217,76.26584151045559,66.92583928859221,-0.0001618862152099,0.0947341993451118,0,0,0
6336,219225.17972589983,2010-10-18 06:06:34,540.272625620778,7,19,-1.0997490882873535,3.827963590621948,19.120457196166587,18.301578878361088,76.26584151045559,66.96096529801507,-0.0002266406954731,0.0947341993451118,0,0,0
6337,219255.1948854178,2010-10-18 06:07:04,570.2877851387304,7,19,-1.099568486213684,3.8206787109375,19.120457196166587,18.31074585821193,76.26584151045559,66.99602294099789,-0.0001942634553415,0.0947341993451118,0,0,0
6338,219285.2101653358,2010-10-18 06:07:34,600.3030650467318,7,19,-1.099568486213684,3.813393831253052,19.120457196166587,18.31991283938113,76.26584151045559,67.03101367021505,-0.0001942634553415,0.0947341993451118,0,0,0
6339,219315.22520889976,2010-10-18 06:08:04,630.3181086056787,7,19,-1.0993878841400146,3.806108951568604,19.120457196166587,18.32907969745644,76.26584151045559,67.06593716664716,-0.0002266406954731,0.0947341993451118,0,0,0
6340,219345.24034730007,2010-10-18 06:08:34,660.333247021037,7,19,-1.099568486213684,3.799147844314575,19.120457196166587,18.33824657274571,76.26584151045559,67.10079537388468,-0.0001618862152099,0.0947341993451118,0,0,0
6341,219375.25564584456,2010-10-18 06:09:04,690.3485455704988,7,19,-1.099568486213684,3.792186737060547,19.120457196166587,18.347413461494128,76.26584151045559,67.13558981849559,-0.0001942634553415,0.0947341993451118,0,0,0
6342,219405.2736299723,2010-10-18 06:09:34,720.3665298085227,7,19,-1.0993878841400146,3.7855494022369385,19.120457196166587,18.35658118103359,76.26584151045559,67.17032469607452,-0.0001618862152099,0.0947341993451118,0,0,0
6343,219435.2859658328,2010-10-18 06:10:04,750.3788655437397,7,19,-1.0993878841400146,3.77875018119812,19.120457196166587,18.365747206138064,76.26584151045559,67.20499139003006,-0.0001942634553415,0.0947341993451118,0,0,0
6344,219465.3009582393,2010-10-18 06:10:34,780.3938579451866,7,19,-1.099568486213684,3.7722747325897217,19.120457196166587,18.37491398234197,76.26584151045559,67.23960043452142,-0.0001618862152099,0.0947341993451118,0,0,0
6345,219495.3161039478,2010-10-18 06:11:04,810.409003678784,7,19,-1.0993878841400146,3.765961170196533,19.120457196166587,18.384080830485967,76.26584151045559,67.27415072702729,-0.0001618862152099,0.0947341993451118,0,0,0
6346,219525.3312808591,2010-10-18 06:11:34,840.4241805650236,7,19,-1.0993878841400146,3.7598094940185542,19.120457196166587,18.393247665608943,76.26584151045559,67.30864305730175,-9.713172767078504e-05,0.0947341993451118,0,0,0
6347,219555.3464516552,2010-10-18 06:12:04,870.439351366097,7,19,-1.099568486213684,3.753334045410156,19.120457196166587,18.40241460435481,76.26584151045559,67.34307833975859,-0.0001295089750783,0.0947341993451118,0,0,0
6348,219585.3617150821,2010-10-18 06:12:34,900.4546148180851,7,19,-1.0993878841400146,3.7475063800811768,19.120457196166587,18.41158148945401,76.26584151045559,67.37745739629153,-9.713172767078504e-05,0.0947341993451118,0,0,0
6349,219615.3767196689,2010-10-18 06:13:04,930.469619389864,7,19,-1.0993878841400146,3.741516590118408,19.120457196166587,18.420748339068524,76.26584151045559,67.41178195955509,-0.0001618862152099,0.0947341993451118,0,0,0
6350,219645.392140448,2010-10-18 06:13:34,960.4850402441468,7,19,-1.0993878841400146,3.7356886863708496,19.120457196166587,18.429915328886462,76.26584151045559,67.44605333499814,-0.0001618862152099,0.0947341993451118,0,0,0
6351,219675.40703667977,2010-10-18 06:14:04,990.4999364057344,7,19,-1.099568486213684,3.729860782623291,19.120457196166587,18.439082137855657,76.26584151045559,67.48027099784619,-0.0001295089750783,0.0947341993451118,0,0,0
6352,219705.42218692965,2010-10-18 06:14:34,1020.5150866505752,7,19,-1.0993878841400146,3.724356651306152,19.120457196166587,18.44824891707712,76.26584151045559,67.51443644188289,-0.0001295089750783,0.0947341993451118,0,0,0
6353,219735.4373927831,2010-10-18 06:15:04,1050.5302925090225,7,19,-1.0993878841400146,3.718690633773804,19.120457196166587,18.45741584608415,76.26584151045559,67.54855104474616,-0.0001295089750783,0.0947341993451118,0,0,0
6354,219765.45260290217,2010-10-18 06:15:34,1080.545502613051,7,19,-1.099568486213684,3.713348388671875,19.120457196166587,18.46658273409976,76.26584151045559,67.58261516788087,-9.713172767078504e-05,0.0947341993451118,0,0,0
6355,219795.46765745347,2010-10-18 06:16:04,1110.5605571744193,7,19,-1.0993878841400146,3.708168029785156,19.120457196166587,18.47574961301576,76.26584151045559,67.61662943954103,-6.47544875391759e-05,0.0947341993451118,0,0,0
6356,219825.4827886809,2010-10-18 06:16:34,1140.5756884369505,7,19,-1.0997490882873535,3.702502012252808,19.120457196166587,18.48491645665,76.26584151045559,67.65059458594715,-0.0001618862152099,0.0947341993451118,0,0,0
6357,219855.49805681457,2010-10-18 06:17:04,1170.5909565405318,7,19,-1.0993878841400146,3.697483539581299,19.120457196166587,18.494083300121726,76.26584151045559,67.68451137063612,-9.713172767078504e-05,0.0947341993451118,0,0,0
6358,219885.5132922016,2010-10-18 06:17:34,1200.6061919325855,7,19,-1.0993878841400146,3.69230318069458,19.120457196166587,18.503250142624807,76.26584151045559,67.71838088238088,-0.0001295089750783,0.0947341993451118,0,0,0
6359,219915.528602746,2010-10-18 06:18:04,1230.6215024969924,7,19,-1.099568486213684,3.687122821807861,19.120457196166587,18.51241703743021,76.26584151045559,67.75220396817957,-9.713172767078504e-05,0.0947341993451118,0,0,0
6360,219945.5434193543,2010-10-18 06:18:34,1260.636319080246,7,19,-1.099568486213684,3.6822662353515625,19.120457196166587,18.52158371049881,76.26584151045559,67.78598065386917,-0.0001295089750783,0.0947341993451118,0,0,0
6361,219975.5585400856,2010-10-18 06:19:04,1290.6514398115305,7,19,-1.099568486213684,3.6772477626800537,19.120457196166587,18.53075056008049,76.26584151045559,67.81971234820548,-0.0001618862152099,0.0947341993451118,0,0,0
6362,220005.57386544187,2010-10-18 06:19:34,1320.6667651527655,7,19,-1.099568486213684,3.672229528427124,19.120457196166587,18.539917446461747,76.26584151045559,67.85339968481999,-0.0001942157687153,0.0947341993451118,0,0,0
6363,220035.5889437223,2010-10-18 06:20:04,1350.681843543524,7,19,-1.0993878841400146,3.667696714401245,19.120457196166587,18.54908430205285,76.26584151045559,67.88704289542493,-0.0001295089750783,0.0947341993451118,0,0,0
6364,220065.60412179647,2010-10-18 06:20:34,1380.697021552562,7,19,-1.099568486213684,3.663002014160156,19.120457196166587,18.558251187357627,76.26584151045559,67.92064286883765,-0.0001618862152099,0.0947341993451118,0,0,0
6365,220095.6191432404,2010-10-18 06:21:04,1410.712042991379,7,19,-1.0993878841400146,3.6581454277038574,19.120457196166587,18.567417997673942,76.26584151045559,67.95419950399186,-0.0001295089750783,0.0947341993451118,0,0,0
6366,220125.6343008185,2010-10-18 06:21:34,1440.7272005394211,7,19,-1.099568486213684,3.6536126136779785,19.120457196166587,18.576584827013058,76.26584151045559,67.98771358679744,-0.0001295089750783,0.0947341993451118,0,0,0
6367,220155.64946006075,2010-10-18 06:22:04,1470.742359781687,7,19,-1.0993878841400146,3.64940357208252,19.120457196166587,18.585751663149985,76.26584151045559,68.02118605583821,-9.713172767078504e-05,0.0947341993451118,0,0,0
6368,220185.66459989463,2010-10-18 06:22:34,1500.7574996456551,7,19,-1.099568486213684,3.6445469856262207,19.120457196166587,18.594918463597576,76.26584151045559,68.05461692857045,-0.0001618862152099,0.0947341993451118,0,0,0
6369,220215.67976915187,2010-10-18 06:23:04,1530.772668872806,7,19,-1.0993878841400146,3.640176057815552,19.120457196166587,18.60408523784317,76.26584151045559,68.0880072999583,-0.0001295089750783,0.0947341993451118,0,0,0
6370,220245.69491068,2010-10-18 06:23:34,1560.7878104059348,7,19,-1.099568486213684,3.6359670162200928,19.120457196166587,18.61325198880372,76.26584151045559,68.12135795061349,-0.0001618862152099,0.0947341993451118,0,0,0
6371,220275.71006494484,2010-10-18 06:24:04,1590.8029646657824,7,19,-1.0993878841400146,3.631757974624634,19.120457196166587,18.62241882876661,76.26584151045559,68.15466976355614,-0.0001295089750783,0.0947341993451118,0,0,0
6372,220305.72520250303,2010-10-18 06:24:34,1620.8181022540791,7,19,-1.099568486213684,3.6277108192443848,19.120457196166587,18.63158566465567,76.26584151045559,68.18794298726382,-6.47544875391759e-05,0.0947341993451118,0,0,0
6373,220335.74036000096,2010-10-18 06:25:04,1650.8332597219223,7,19,-1.0993878841400146,3.623663663864136,19.120457196166587,18.640752488775696,76.26584151045559,68.22117854220451,-9.713172767078504e-05,0.0947341993451118,0,0,0
6374,220365.75563161832,2010-10-18 06:25:34,1680.8485313392607,7,19,-1.0993878841400146,3.6197783946990967,19.120457196166587,18.64991929222942,76.26584151045559,68.2543776271973,-9.713172767078504e-05,0.0947341993451118,0,0,0
6375,220395.7706898839,2010-10-18 06:26:04,1710.8635897051113,7,19,-1.0993878841400146,3.6158931255340576,19.120457196166587,18.65908618583179,76.26584151045559,68.28754153871229,-9.713172767078504e-05,0.0947341993451118,0,0,0
6376,220425.7858391814,2010-10-18 06:26:34,1740.8787389073536,7,19,-1.0993878841400146,3.612169742584229,19.120457196166587,18.668252972248865,76.26584151045559,68.32067006531533,-9.713172767078504e-05,0.0947341993451118,0,0,0
6377,220455.80095827865,2010-10-18 06:27:04,1770.8938580296276,7,19,-1.0992072820663452,3.6084463596344,19.120457196166587,18.67741975359843,76.26584151045559,68.35376448719686,-9.713172767078504e-05,0.0947341993451118,0,0,0
6378,220485.81615827244,2010-10-18 06:27:34,1800.9090579833587,7,19,-1.0993878841400146,3.6047229766845694,19.120457196166587,18.686586533178257,76.26584151045559,68.38682518872747,-0.0001295089750783,0.0947341993451118,0,0,0
6379,220515.83133755467,2010-10-18 06:28:04,1830.924237310682,7,19,-1.099568486213684,3.601161479949951,19.120457196166587,18.695753123624367,76.26584151045559,68.41985245997898,-9.713172767078504e-05,0.0947341993451118,0,0,0
6380,220545.84641763463,2010-10-18 06:28:34,1860.939317385638,7,19,-1.099568486213684,3.597761869430542,19.120457196166587,18.704919674924728,76.26584151045559,68.45284724496832,-9.713172767078504e-05,0.0947341993451118,0,0,0
6381,220575.861554852,2010-10-18 06:29:04,1890.9544545629103,7,19,-1.0993878841400146,3.594362258911133,19.120457196166587,18.7140862229086,76.26584151045559,68.48581054134519,-6.47544875391759e-05,0.0947341993451118,0,0,0
6382,220605.87676355752,2010-10-18 06:29:34,1920.9696633486533,7,19,-1.0993878841400146,3.5909628868103027,19.120457196166587,18.72325290382429,76.26584151045559,68.51874361213908,-9.713172767078504e-05,0.0947341993451118,0,0,0
6383,220635.9074323644,2010-10-18 06:30:04,1951.0003320853511,7,19,-1.0997490882873535,3.5877251625061035,19.120457196166587,18.732424451837986,76.26584151045559,68.55166376440245,-6.47544875391759e-05,0.0947341993451118,0,0,0
6384,220665.9226272956,2010-10-18 06:30:34,1981.0155269864888,7,19,-1.0992072820663452,3.5844874382019043,19.120457196166587,18.741591308877265,76.26584151045559,68.58453686011049,-6.47544875391759e-05,0.0947341993451118,0,0,0
6385,220695.9379189128,2010-10-18 06:31:04,2011.030818623724,7,19,-1.099568486213684,3.581249713897705,19.120457196166587,18.75075808702337,76.26584151045559,68.61738000902218,-6.47544875391759e-05,0.0947341993451118,0,0,0
6386,220725.952939294,2010-10-18 06:31:35,2041.0458390149297,7,19,-1.0993878841400146,3.578173875808716,19.120457196166587,18.7599248343162,76.26584151045559,68.65019351970007,-6.47544875391759e-05,0.0947341993451118,0,0,0
6387,220755.9680816642,2010-10-18 06:32:05,2071.060981370107,7,19,-1.099568486213684,3.574774265289306,19.120457196166587,18.769091759071618,76.26584151045559,68.68297844230624,-9.713172767078504e-05,0.0947341993451118,0,0,0
6388,220785.9832257036,2010-10-18 06:32:35,2101.076125424519,7,19,-1.0992072820663452,3.5720221996307373,19.120457196166587,18.778258550233943,76.26584151045559,68.71573400499196,-3.237724376958795e-05,0.0947341993451118,0,0,0
6389,220815.99859114972,2010-10-18 06:33:05,2131.0914908606837,7,19,-1.099568486213684,3.568460702896118,19.120457196166587,18.787425462080208,76.26584151045559,68.7484609025799,-9.713172767078504e-05,0.0947341993451118,0,0,0
6390,220846.0136651396,2010-10-18 06:33:35,2161.1065648805484,7,19,-1.0993878841400146,3.565546751022339,19.120457196166587,18.79659226978542,76.26584151045559,68.78115888207205,-3.237724376958795e-05,0.0947341993451118,0,0,0
6391,220876.02880563508,2010-10-18 06:34:05,2191.121705361054,7,19,-1.0993878841400146,3.56230902671814,19.120457196166587,18.80575892750631,76.26584151045559,68.81382801542387,-9.713172767078504e-05,0.0947341993451118,0,0,0
6392,220906.04383933448,2010-10-18 06:34:35,2221.136739040377,7,19,-1.099568486213684,3.5592331886291504,19.120457196166587,18.81492567502192,76.26584151045559,68.84646939649843,-0.0001295089750783,0.0947341993451118,0,0,0
6393,220936.05910768863,2010-10-18 06:35:05,2251.152007444708,7,19,-1.099568486213684,3.555995464324951,19.120457196166587,18.824092498952588,76.26584151045559,68.87908221437058,-9.713172767078504e-05,0.0947341993451118,0,0,0
6394,220966.0741453579,2010-10-18 06:35:35,2281.167045078889,7,19,-1.0993878841400146,3.552919626235962,19.120457196166587,18.83325925359958,76.26584151045559,68.91166587694308,-6.47544875391759e-05,0.0947341993451118,0,0,0
6395,220996.0892726105,2010-10-18 06:36:05,2311.182172331426,7,19,-1.0993878841400146,3.5498437881469727,19.120457196166587,18.842425993586588,76.26584151045559,68.94422064600845,-6.47544875391759e-05,0.0947341993451118,0,0,0
6396,221026.10454487943,2010-10-18 06:36:35,2341.1974446054014,7,19,-1.0993878841400146,3.546606063842773,19.120457196166587,18.851592817650435,76.26584151045559,68.97674665021971,-6.47544875391759e-05,0.0947341993451118,0,0,0
6397,221056.119551356,2010-10-18 06:37:05,2371.2124510769145,7,19,-1.0993878841400146,3.543368339538574,19.120457196166587,18.860759617250977,76.26584151045559,69.00924309353509,-9.713172767078504e-05,0.0947341993451118,0,0,0
6398,221086.13471432755,2010-10-18 06:37:35,2401.2276140484746,7,19,-1.0992072820663452,3.540130615234375,19.120457196166587,18.869926392626475,76.26584151045559,69.04170967579974,-0.0001295089750783,0.0947341993451118,0,0,0
6399,221116.1499199504,2010-10-18 06:38:05,2431.242819696397,7,19,-1.0993878841400146,3.536731004714966,19.120457196166587,18.879093207392767,76.26584151045559,69.07414620183148,-6.47544875391759e-05,0.0947341993451118,0,0,0
6400,221146.16506777416,2010-10-18 06:38:35,2461.257967490129,7,19,-1.099568486213684,3.5333313941955566,19.120457196166587,18.88826005670661,76.26584151045559,69.10655221109097,-0.0001295089750783,0.0947341993451118,0,0,0
6401,221176.18018929748,2010-10-18 06:39:05,2491.2730890184,7,19,-1.099568486213684,3.5299317836761475,19.120457196166587,18.897426817054235,76.26584151045559,69.138926809727,-9.713172767078504e-05,0.0947341993451118,0,0,0
6402,221206.1954092861,2010-10-18 06:39:35,2521.288309122351,7,19,-1.099568486213684,3.5263702869415283,19.120457196166587,18.906593704386616,76.26584151045559,69.17126988583571,-0.0001295089750783,0.0947341993451118,0,0,0
6403,221236.21048508043,2010-10-18 06:40:05,2551.303384796339,7,19,-1.099568486213684,3.522808790206909,19.120457196166587,18.91576053065735,76.26584151045559,69.20357983281995,-0.0001295089750783,0.0947341993451118,0,0,0
6404,221266.22563681897,2010-10-18 06:40:35,2581.318536539915,7,19,-1.099568486213684,3.51908540725708,19.120457196166587,18.924927341965457,76.26584151045559,69.23585556234234,-9.713172767078504e-05,0.0947341993451118,0,0,0
6405,221296.24374879035,2010-10-18 06:41:05,2611.336648626577,7,19,-1.099568486213684,3.515038251876831,19.120457196166587,18.934095095222272,76.26584151045559,69.26809984687021,-9.713172767078504e-05,0.0947341993451118,0,0,0
6406,221326.2559735189,2010-10-18 06:41:35,2641.348873239844,7,19,-1.0993878841400146,3.511153221130371,19.120457196166587,18.943261108463645,76.26584151045559,69.30030114472108,-6.47544875391759e-05,0.0947341993451118,0,0,0
6407,221356.27108678155,2010-10-18 06:42:05,2671.363986502514,7,19,-1.099568486213684,3.506620407104492,19.120457196166587,18.95242796775128,76.26584151045559,69.33246706737548,-0.0001618862152099,0.0947341993451118,0,0,0
6408,221386.28623346257,2010-10-18 06:42:35,2701.37913317846,7,19,-1.0992072820663452,3.5022494792938232,19.120457196166587,18.96159490435813,76.26584151045559,69.3645925017263,-0.0001295089750783,0.0947341993451118,0,0,0
6409,221416.301782772,2010-10-18 06:43:05,2731.3946825330054,7,19,-1.099568486213684,3.4970691204071045,19.120457196166587,18.97076188652324,76.26584151045559,69.39667473928462,-0.0001942634553415,0.0947341993451118,0,0,0
6410,221446.31656220765,2010-10-18 06:43:35,2761.409461918551,7,19,-1.0993878841400146,3.492050647735596,19.120457196166587,18.979928637698936,76.26584151045559,69.42870949078043,-0.0001295089750783,0.0947341993451118,0,0,0
6411,221476.33168032745,2010-10-18 06:44:05,2791.4245800734134,7,19,-1.0992072820663452,3.486384630203247,19.120457196166587,18.98909547219279,76.26584151045559,69.46069453720597,-0.0001618862152099,0.0947341993451118,0,0,0
6412,221506.346826868,2010-10-18 06:44:35,2821.4397266140227,7,19,-1.0993878841400146,3.4799091815948486,19.120457196166587,18.998262332728824,76.26584151045559,69.49262381466927,-0.0001295089750783,0.0947341993451118,0,0,0
6413,221536.36220030911,2010-10-18 06:45:05,2851.4551000651622,7,19,-1.0993878841400146,3.4726243019104004,19.120457196166587,19.00742922948656,76.26584151045559,69.524490679283,-0.0001942634553415,0.0947341993451118,0,0,0
6414,221566.3771431621,2010-10-18 06:45:35,2881.4700428830315,7,19,-1.0993878841400146,3.4645299911499023,19.120457196166587,19.01659599827333,76.26584151045559,69.55628799703042,-0.0002913951757363,0.0947341993451118,0,0,0
6415,221596.39227532188,2010-10-18 06:46:05,2911.4851750427997,7,19,-1.099568486213684,3.4553024768829346,19.120457196166587,19.02576282391687,76.26584151045559,69.58800670508741,-0.0002913951757363,0.0947341993451118,0,0,0
6416,221626.40741780231,2010-10-18 06:46:35,2941.500317523289,7,19,-1.0993878841400146,3.444779872894287,19.120457196166587,19.034929705765663,76.26584151045559,69.61963417532493,-0.0002913951757363,0.0947341993451118,0,0,0
6417,221656.4225678567,2010-10-18 06:47:05,2971.515467577655,7,19,-1.099568486213684,3.4318289756774902,19.120457196166587,19.04409654154828,76.26584151045559,69.65115478242168,-0.0003885269106831,0.0947341993451118,0,0,0
6418,221686.437727505,2010-10-18 06:47:35,3001.530627225932,7,19,-1.099568486213684,3.416773796081543,19.120457196166587,19.053263490422417,76.26584151045559,69.68254883395814,-0.0004209041653666,0.0947341993451118,0,0,0
6419,221716.4528617249,2010-10-18 06:48:05,3031.545761475909,7,19,-1.0993878841400146,3.3983187675476074,19.120457196166587,19.062430862341216,76.26584151045559,69.71378917786267,-0.0004856586456298,0.0947341993451118,0,0,0
6420,221746.46816567783,2010-10-18 06:48:35,3061.5610654338507,7,19,-1.099568486213684,3.374845266342163,19.120457196166587,19.071598598938767,76.26584151045559,69.74483989287329,-0.0006475448608398,0.0947341993451118,0,0,0
6421,221776.48335154643,2010-10-18 06:49:05,3091.5762512673896,7,19,-1.0997490882873535,3.3440871238708496,19.120457196166587,19.08076625168987,76.26584151045559,69.77564488300875,-0.0009065627818927,0.0947341993451118,0,0,0
6422,221806.49855076327,2010-10-18 06:49:35,3121.5914505093465,7,19,-1.099568486213684,3.3026442527771,19.120457196166587,19.08993387906994,76.26584151045559,69.806123290307,-0.0012950897216796,0.0947341993451118,0,0,0
6423,221836.5134606742,2010-10-18 06:50:05,3151.606360395139,7,19,-1.0993878841400146,3.2448511123657227,19.120457196166587,19.09910090152368,76.26584151045559,69.83614970819448,-0.0018131255637854,0.0947341993451118,0,0,0
6424,221866.52860270857,2010-10-18 06:50:35,3181.621502429517,7,19,-1.0993878841400146,3.1600229740142822,19.120457196166587,19.108267753881307,76.26584151045559,69.86553149884362,-0.0026549338363111,0.0947341993451118,0,0,0
6425,221896.54374965013,2010-10-18 06:51:05,3211.6366494012,7,19,-1.099568486213684,3.0264673233032227,19.120457196166587,19.11743462974921,76.26584151045559,69.89393912756002,-0.0044356347061693,0.0947341993451118,0,0,0
6426,221920.37153569463,2010-10-18 06:51:29,3235.4644354155744,7,19,-1.099568486213684,2.826376438140869,19.120457196166587,19.124711827733893,76.26584151045559,69.91531500273112,-0.00870943069458,0.0947341993451118,0,0,0
6427,221930.24639493728,2010-10-18 06:51:39,3245.33929478855,7,19,-1.0993878841400146,2.699781894683838,19.120457196166587,19.12772764016509,76.26584151045559,69.92365442861332,-0.010846328921616,0.0947341993451118,0,0,0
6428,221990.2678069547,2010-10-18 06:52:39,60.014798819750766,8,19,0.0,3.3688554763793945,19.120457196166587,19.12772764016509,76.26584151045559,69.92365442861332,0.0013922214275225,0.0947341993451118,0,0,0
6429,221990.46281739773,2010-10-18 06:52:39,0.187521451155187,9,19,-1.9243103452026844e-05,3.3688554763793945,19.120457196166587,19.127727641167453,76.26584151045559,69.92365443199012,0.0,0.0922218039631843,0,0,0
6430,221995.2908366072,2010-10-18 06:52:44,5.015540660569419,9,19,0.0008838032954372,3.3767879009246826,19.12045830634306,19.12772764133507,76.26584525578374,69.9236544325548,0.0011332035064697,0.0922218039631843,0,0,0
