Data_Point,Test_Time(s),Date_Time,Step_Time(s),Step_Index,Cycle_Index,Current(A),Voltage(V),Charge_Capacity(Ah),Discharge_Capacity(Ah),Charge_Energy(Wh),Discharge_Energy(Wh),dV/dt(V/s),Internal_Resistance(Ohm),Is_FC_Data,AC_Impedance(Ohm),ACI_Phase_Angle(Deg)
3042,105461.56497152011,2010-10-16 22:30:18,30.01519280591628,1,10,0.0,3.358332872390747,9.054391131851784,9.072570779985693,36.13932781948289,33.14701659505763,0.0008418083307333,0.0906038731336593,0,0,0
3043,105491.580167113,2010-10-16 22:30:48,60.03038840379099,1,10,0.0,3.383749008178711,9.054391131851784,9.072570779985693,36.13932781948289,33.14701659505763,0.0006151676061563,0.0906038731336593,0,0,0
3044,105521.59539571812,2010-10-16 22:31:18,90.04561701895493,1,10,0.0,3.4030134677886963,9.054391131851784,9.072570779985693,36.13932781948289,33.14701659505763,0.0004532813909463,0.0906038731336593,0,0,0
3045,105551.56381106022,2010-10-16 22:31:48,120.01403244625064,1,10,0.0,3.4185545444488525,9.054391131851784,9.072570779985693,36.13932781948289,33.14701659505763,0.0003561496851034,0.0906038731336593,0,0,0
3046,105581.58250860633,2010-10-16 22:32:18,30.015133899102377,2,10,0.5501165986061096,3.573641061782837,9.058977715448378,9.072570779985693,36.15554941196248,33.14701659505763,0.0016836166614666,0.0906038731336593,0,0,0
3047,105611.59798040756,2010-10-16 22:32:48,60.03060583569821,2,10,0.5501165986061096,3.624311208724976,9.06356445672537,9.072570779985693,36.17206482745511,33.14701659505763,0.0011332035064697,0.0906038731336593,0,0,0
3048,105641.61302042769,2010-10-16 22:33:18,90.04564572048798,2,10,0.5501165986061096,3.6610593795776367,9.0681510200881,9.072570779985693,36.18877589107463,33.14701659505763,0.0008741855854168,0.0906038731336593,0,0,0
3049,105671.62823080742,2010-10-16 22:33:48,120.06085613027854,2,10,0.5501165986061096,3.6895511150360103,9.07273767129984,9.072570779985693,36.20563543517586,33.14701659505763,0.0006799221155233,0.0906038731336593,0,0,0
3050,105701.64359728618,2010-10-16 22:34:18,150.07622271430336,2,10,0.5501165986061096,3.712862730026245,9.077324335662151,9.072570779985693,36.22261355775318,33.14701659505763,0.0005827903514727,0.0906038731336593,0,0,0
3051,105731.65866195274,2010-10-16 22:34:48,180.0912872455196,2,10,0.5499359965324402,3.73228907585144,9.081910947191105,9.072570779985693,36.23968917690701,33.14701659505763,0.0004532813909463,0.0906038731336593,0,0,0
3052,105761.67384605194,2010-10-16 22:35:18,210.1064713748111,2,10,0.5499359965324402,3.747992038726807,9.0864975462326,9.072570779985693,36.256845138647954,33.14701659505763,0.0003885269106831,0.0906038731336593,0,0,0
3053,105791.68902344444,2010-10-16 22:35:48,240.1216487322249,2,10,0.5501165986061096,3.759161949157715,9.091084091515016,9.072570779985693,36.27406322562468,33.14701659505763,0.0002266406954731,0.0906038731336593,0,0,0
3054,105821.704229744,2010-10-16 22:36:18,270.13685506184646,2,10,0.5501165986061096,3.7657992839813232,9.095670668353376,9.072570779985693,36.29132153925991,33.14701659505763,0.0001295089750783,0.0906038731336593,0,0,0
3055,105851.71944424398,2010-10-16 22:36:49,300.1520695668435,2,10,0.5501165986061096,3.7700083255767822,9.100257232743864,9.072570779985693,36.30860381664283,33.14701659505763,6.47544875391759e-05,0.0906038731336593,0,0,0
3056,105881.7346360073,2010-10-16 22:37:19,330.1672613301613,2,10,0.5501165986061096,3.773569822311402,9.1048437879952,9.072570779985693,36.32590364507749,33.14701659505763,9.713172767078504e-05,0.0906038731336593,0,0,0
3057,105911.74987979028,2010-10-16 22:37:49,360.1825051331781,2,10,0.5501165986061096,3.7769694328308105,9.109430414346818,9.072570779985693,36.34321979341159,33.14701659505763,9.713172767078504e-05,0.0906038731336593,0,0,0
3058,105941.7652926396,2010-10-16 22:38:19,390.19791793739785,2,10,0.5504778623580933,3.78069281578064,9.114017109995862,9.072570779985693,36.36055178395637,33.14701659505763,9.713172767078504e-05,0.0906038731336593,0,0,0
3059,105971.78027455493,2010-10-16 22:38:49,420.2128998827848,2,10,0.550297200679779,3.783930540084839,9.1186037554939,9.072570779985693,36.377898773460366,33.14701659505763,0.0001295089750783,0.0906038731336593,0,0,0
3060,106001.79546316536,2010-10-16 22:39:19,450.2280884882322,2,10,0.5499359965324402,3.786844491958618,9.123190354902746,9.072570779985693,36.39526055102865,33.14701659505763,6.47544875391759e-05,0.0906038731336593,0,0,0
3061,106031.81066655264,2010-10-16 22:39:49,480.2432918504581,2,10,0.550297200679779,3.7902441024780273,9.127776952844316,9.072570779985693,36.412637010337214,33.14701659505763,9.713172767078504e-05,0.0906038731336593,0,0,0
3062,106061.82587435094,2010-10-16 22:40:19,510.2584996437274,2,10,0.550297200679779,3.7933199405670166,9.132363584201832,9.072570779985693,36.43002794935418,33.14701659505763,9.713172767078504e-05,0.0906038731336593,0,0,0
3063,106091.84112004867,2010-10-16 22:40:49,540.2737453765538,2,10,0.5501165986061096,3.796233892440796,9.13695027852261,9.072570779985693,36.44743331419794,33.14701659505763,6.47544875391759e-05,0.0906038731336593,0,0,0
3064,106121.85631475432,2010-10-16 22:41:19,570.2889400872174,2,10,0.5501165986061096,3.799147844314575,9.141536918583611,9.072570779985693,36.46485235473588,33.14701659505763,6.47544875391759e-05,0.0906038731336593,0,0,0
3065,106151.87149352526,2010-10-16 22:41:49,600.3041188180542,2,10,0.5501165986061096,3.8023855686187744,9.146123605250168,9.072570779985693,36.4822853834475,33.14701659505763,6.47544875391759e-05,0.0906038731336593,0,0,0
3066,106181.8867072032,2010-10-16 22:42:19,630.3193325912274,2,10,0.5501165986061096,3.805137634277344,9.150710189723524,9.072570779985693,36.49973170176244,33.14701659505763,6.47544875391759e-05,0.0906038731336593,0,0,0
3067,106211.9019185052,2010-10-16 22:42:49,660.3345438080293,2,10,0.5499359965324402,3.808051586151123,9.155296878462384,9.072570779985693,36.51719210091844,33.14701659505763,3.237724376958795e-05,0.0906038731336593,0,0,0
3068,106241.91720380666,2010-10-16 22:43:19,690.3498291395478,2,10,0.5501165986061096,3.811289310455322,9.159883586295184,9.072570779985693,36.53466632948355,33.14701659505763,9.713172767078504e-05,0.0906038731336593,0,0,0
3069,106271.93233335493,2010-10-16 22:43:49,720.364958682794,2,10,0.5501165986061096,3.814365148544312,9.164470239747407,9.072570779985693,36.552154353094686,33.14701659505763,9.713172767078504e-05,0.0906038731336593,0,0,0
3070,106301.94756114804,2010-10-16 22:44:19,750.3801864859341,2,10,0.5501165986061096,3.817440986633301,9.169056897668922,9.072570779985693,36.569656748653664,33.14701659505763,6.47544875391759e-05,0.0906038731336593,0,0,0
3071,106331.9628348205,2010-10-16 22:44:49,780.3954601634074,2,10,0.5501165986061096,3.82084059715271,9.173643589591792,9.072570779985693,36.58717382812534,33.14701659505763,9.713172767078504e-05,0.0906038731336593,0,0,0
3072,106361.97799077956,2010-10-16 22:45:19,810.4106162026899,2,10,0.5499359965324402,3.824078321456909,9.178230191229972,9.072570779985693,36.60470550835654,33.14701659505763,0.0001295089750783,0.0906038731336593,0,0,0
3073,106391.99312428269,2010-10-16 22:45:49,840.4257496055556,2,10,0.5501165986061096,3.8274779319763184,9.182816775193704,9.072570779985693,36.62225250551985,33.14701659505763,9.713172767078504e-05,0.0906038731336593,0,0,0
3074,106422.01011681408,2010-10-16 22:46:19,870.4427422973412,2,10,0.5501165986061096,3.830877542495728,9.18740365119886,9.072570779985693,36.63981625854316,33.14701659505763,9.713172767078504e-05,0.0906038731336593,0,0,0
3075,106452.01176678708,2010-10-16 22:46:49,900.4443922102008,2,10,0.5501165986061096,3.834438800811768,9.191988182960753,9.072570779985693,36.65738677471349,33.14701659505763,0.0001295089750783,0.0906038731336593,0,0,0
3076,106482.02320423348,2010-10-16 22:47:19,930.4558296816682,2,10,0.5501165986061096,3.837514638900757,9.19657419895448,9.072570779985693,36.6749786760083,33.14701659505763,6.47544875391759e-05,0.0906038731336593,0,0,0
3077,106512.03830412282,2010-10-16 22:47:49,960.470929420633,2,10,0.5501165986061096,3.840914249420166,9.201160820066072,9.072570779985693,36.69258833384061,33.14701659505763,6.47544875391759e-05,0.0906038731336593,0,0,0
3078,106542.05353383571,2010-10-16 22:48:19,990.4861592337828,2,10,0.5501165986061096,3.844475746154785,9.205747426830904,9.072570779985693,36.71021320553642,33.14701659505763,9.713172767078504e-05,0.0906038731336593,0,0,0
3079,106572.06875902234,2010-10-16 22:48:49,1020.501384425414,2,10,0.5499359965324402,3.8475515842437744,9.210334014373542,9.072570779985693,36.72785296564168,33.14701659505763,6.47544875391759e-05,0.0906038731336593,0,0,0
3080,106602.08398064006,2010-10-16 22:49:19,1050.516605937876,2,10,0.5501165986061096,3.8507893085479736,9.214920651357916,9.072570779985693,36.74550762165919,33.14701659505763,9.713172767078504e-05,0.0906038731336593,0,0,0
3081,106632.09919251352,2010-10-16 22:49:49,1080.5318178413893,2,10,0.550297200679779,3.853865146636963,9.219507294584922,9.072570779985693,36.763176640547925,33.14701659505763,9.713172767078504e-05,0.0906038731336593,0,0,0
3082,106662.11439576044,2010-10-16 22:50:19,1110.5470210883277,2,10,0.5501165986061096,3.856779098510742,9.224093899925334,9.072570779985693,36.78085954828768,33.14701659505763,9.713172767078504e-05,0.0906038731336593,0,0,0
3083,106692.12973329204,2010-10-16 22:50:49,1140.56235862997,2,10,0.5499359965324402,3.8596930503845215,9.228680552226663,9.072570779985693,36.79855629012332,33.14701659505763,6.47544875391759e-05,0.0906038731336593,0,0,0
3084,106722.14480214404,2010-10-16 22:51:19,1170.5774274819548,2,10,0.5499359965324402,3.862445116043091,9.23326713248337,9.072570779985693,36.81626590689262,33.14701659505763,3.237724376958795e-05,0.0906038731336593,0,0,0
3085,106752.15999758654,2010-10-16 22:51:49,1200.5926228843423,2,10,0.5499359965324402,3.86519718170166,9.237853664562946,9.072570779985693,36.83398788518584,33.14701659505763,6.47544875391759e-05,0.0906038731336593,0,0,0
3086,106782.1751995202,2010-10-16 22:52:19,1230.6078248129954,2,10,0.5501165986061096,3.86778736114502,9.242440338259756,9.072570779985693,36.85172247952063,33.14701659505763,6.47544875391759e-05,0.0906038731336593,0,0,0
3087,106812.19041135856,2010-10-16 22:52:49,1260.6230366814214,2,10,0.5501165986061096,3.870215654373169,9.247026987053117,9.072570779985693,36.869468386333935,33.14701659505763,6.47544875391759e-05,0.0906038731336593,0,0,0
3088,106842.20563125196,2010-10-16 22:53:19,1290.6382565598103,2,10,0.550297200679779,3.8726439476013184,9.251613677701544,9.072570779985693,36.88722530255675,33.14701659505763,9.713172767078504e-05,0.0906038731336593,0,0,0
3089,106872.220846965,2010-10-16 22:53:49,1320.6534722527686,2,10,0.5501165986061096,3.874586582183838,9.25620035221912,9.072570779985693,36.90499228992946,33.14701659505763,3.237724376958795e-05,0.0906038731336593,0,0,0
3090,106902.23603411682,2010-10-16 22:54:19,1350.6686594196303,2,10,0.5499359965324402,3.876529216766357,9.260786936786378,9.072570779985693,36.92276846452855,33.14701659505763,3.237724376958795e-05,0.0906038731336593,0,0,0
3091,106932.2514368359,2010-10-16 22:54:49,1380.6840621537524,2,10,0.5501165986061096,3.878633737564087,9.265373613448867,9.072570779985693,36.94055390130527,33.14701659505763,6.47544875391759e-05,0.0906038731336593,0,0,0
3092,106962.2667337563,2010-10-16 22:55:19,1410.6993590791665,2,10,0.5499359965324402,3.8802525997161865,9.269960164431948,9.072570779985693,36.95834705494793,33.14701659505763,3.237724376958795e-05,0.0906038731336593,0,0,0
3093,106992.28167162684,2010-10-16 22:55:49,1440.7142969597303,2,10,0.5501165986061096,3.881871461868286,9.27454668901416,9.072570779985693,36.97614783896244,33.14701659505763,3.237724376958795e-05,0.0906038731336593,0,0,0
3094,107022.29687983614,2010-10-16 22:56:19,1470.7295051339493,2,10,0.5501165986061096,3.8834903240203857,9.279133312969044,9.072570779985693,36.99395618056063,33.14701659505763,3.237724376958795e-05,0.0906038731336593,0,0,0
3095,107052.31206259702,2010-10-16 22:56:49,1500.7446878898177,2,10,0.5501165986061096,3.8847854137420654,9.283719953990913,9.072570779985693,37.01177129682683,33.14701659505763,3.237724376958795e-05,0.0906038731336593,0,0,0
3096,107082.32726798432,2010-10-16 22:57:19,1530.7598932821031,2,10,0.5499359965324402,3.886080503463745,9.288306552032209,9.072570779985693,37.02959259621758,33.14701659505763,0.0,0.0906038731336593,0,0,0
3097,107112.3426216862,2010-10-16 22:57:49,1560.7752470140967,2,10,0.5501165986061096,3.8875374794006343,9.292893213053432,9.072570779985693,37.04742024459312,33.14701659505763,0.0,0.0906038731336593,0,0,0
3098,107142.35767105463,2010-10-16 22:58:19,1590.7902963875351,2,10,0.5499359965324402,3.8888325691223145,9.297479805128354,9.072570779985693,37.06525355424215,33.14701659505763,3.237724376958795e-05,0.0906038731336593,0,0,0
3099,107172.37286819136,2010-10-16 22:58:49,1620.8054934891577,2,10,0.5501165986061096,3.889965772628784,9.302066515023467,9.072570779985693,37.083093071029154,33.14701659505763,3.237724376958795e-05,0.0906038731336593,0,0,0
3100,107202.38805601986,2010-10-16 22:59:19,1650.8206813226811,2,10,0.5501165986061096,3.891260862350464,9.306653111974349,9.072570779985693,37.10093779374952,33.14701659505763,3.237724376958795e-05,0.0906038731336593,0,0,0
3101,107232.40342860884,2010-10-16 22:59:49,1680.8360539367343,2,10,0.5501165986061096,3.8923940658569336,9.311239802324424,9.072570779985693,37.11878850399761,33.14701659505763,3.237724376958795e-05,0.0906038731336593,0,0,0
3102,107262.4185798963,2010-10-16 23:00:19,1710.8512052041242,2,10,0.5499359965324402,3.893689155578613,9.315826456173951,9.072570779985693,37.13664464282796,33.14701659505763,6.47544875391759e-05,0.0906038731336593,0,0,0
3103,107292.43365756526,2010-10-16 23:00:49,1740.8662828831086,2,10,0.5499359965324402,3.894822359085083,9.320413087645989,9.072570779985693,37.15450629341814,33.14701659505763,3.237724376958795e-05,0.0906038731336593,0,0,0
3104,107322.44890026053,2010-10-16 23:01:19,1770.881525613452,2,10,0.5501165986061096,3.895793676376343,9.324999757034844,9.072570779985693,37.172373112191806,33.14701659505763,0.0,0.0906038731336593,0,0,0
3105,107352.4641549256,2010-10-16 23:01:49,1800.8967803687651,2,10,0.5501165986061096,3.897250652313232,9.329586378361055,9.072570779985693,37.19024551408247,33.14701659505763,0.0,0.0906038731336593,0,0,0
3106,107382.47929762164,2010-10-16 23:02:19,1830.9119229144176,2,10,0.5499359965324402,3.898545742034912,9.334172977215692,9.072570779985693,37.2081233967843,33.14701659505763,3.237724376958795e-05,0.0906038731336593,0,0,0
3107,107412.49461267724,2010-10-16 23:02:49,1860.92723797503,2,10,0.5501165986061096,3.899840831756592,9.338759596049185,9.072570779985693,37.2260070153023,33.14701659505763,6.47544875391759e-05,0.0906038731336593,0,0,0
3108,107442.50971220566,2010-10-16 23:03:19,1890.9423375335448,2,10,0.550297200679779,3.9009740352630615,9.343346190269934,9.072570779985693,37.24389611621939,33.14701659505763,3.237724376958795e-05,0.0906038731336593,0,0,0
3109,107472.52492453024,2010-10-16 23:03:49,1920.957549853095,2,10,0.5499359965324402,3.9021072387695312,9.347932817193072,9.072570779985693,37.261791065077645,33.14701659505763,0.0,0.0906038731336593,0,0,0
3110,107502.54012311556,2010-10-16 23:04:19,1950.972748418366,2,10,0.5499359965324402,3.903240442276001,9.352519400158018,9.072570779985693,37.279691559366405,33.14701659505763,-3.237724376958795e-05,0.0906038731336593,0,0,0
3111,107532.55535057784,2010-10-16 23:04:49,1980.9879759257688,2,10,0.5499359965324402,3.9045355319976807,9.35710599963268,9.072570779985693,37.29759791374624,33.14701659505763,0.0,0.0906038731336593,0,0,0
3112,107562.57056267685,2010-10-16 23:05:19,2011.0031879846697,2,10,0.550297200679779,3.9059925079345694,9.361692692414604,9.072570779985693,37.31551033019118,33.14701659505763,3.237724376958795e-05,0.0906038731336593,0,0,0
3113,107592.58572792908,2010-10-16 23:05:49,2041.018353261976,2,10,0.5499359965324402,3.90712571144104,9.366279217239518,9.072570779985693,37.33342791505618,33.14701659505763,3.237724376958795e-05,0.0906038731336593,0,0,0
3114,107622.60092590288,2010-10-16 23:06:19,2071.0335512407846,2,10,0.5501165986061096,3.9085826873779297,9.370865803541058,9.072570779985693,37.3513515943443,33.14701659505763,6.47544875391759e-05,0.0906038731336593,0,0,0
3115,107652.61639671166,2010-10-16 23:06:49,2101.0490220345323,2,10,0.5501165986061096,3.90987777709961,9.375452479077817,9.072570779985693,37.36928160019972,33.14701659505763,3.237724376958795e-05,0.0906038731336593,0,0,0
3116,107682.63135405073,2010-10-16 23:07:19,2131.0639793786054,2,10,0.5501165986061096,3.911010980606079,9.380039076352048,9.072570779985693,37.38721722424504,33.14701659505763,0.0,0.0906038731336593,0,0,0
3117,107712.64666755746,2010-10-16 23:07:49,2161.079292865295,2,10,0.5499359965324402,3.912306070327759,9.384625718843562,9.072570779985693,37.40515911842071,33.14701659505763,0.0,0.0906038731336593,0,0,0
3118,107742.66177919108,2010-10-16 23:08:19,2191.0944045039173,2,10,0.5501165986061096,3.913762807846069,9.389212358855325,9.072570779985693,37.42310707659136,33.14701659505763,6.470680091297254e-05,0.0906038731336593,0,0,0
3119,107772.67695222273,2010-10-16 23:08:49,2221.1095775405624,2,10,0.550297200679779,3.915381669998169,9.393799073258998,9.072570779985693,37.44106152470851,33.14701659505763,9.713172767078504e-05,0.0906038731336593,0,0,0
3120,107802.6922967618,2010-10-16 23:09:20,2251.1249221147323,2,10,0.5501165986061096,3.916514873504639,9.398385796355454,9.072570779985693,37.45902205790895,33.14701659505763,3.237724376958795e-05,0.0906038731336593,0,0,0
3121,107832.70736989944,2010-10-16 23:09:50,2281.1399951972608,2,10,0.5501165986061096,3.9178099632263184,9.402972374476754,9.072570779985693,37.47698833510913,33.14701659505763,3.237724376958795e-05,0.0906038731336593,0,0,0
3122,107862.72271702498,2010-10-16 23:10:20,2311.155342377927,2,10,0.5501165986061096,3.919105052947998,9.407558993575105,9.072570779985693,37.49496104582369,33.14701659505763,0.0,0.0906038731336593,0,0,0
3123,107892.73813489184,2010-10-16 23:10:50,2341.1707602347387,2,10,0.5499359965324402,3.920562028884888,9.412145610916925,9.072570779985693,37.512940167871406,33.14701659505763,3.237724376958795e-05,0.0906038731336593,0,0,0
3124,107922.75301542446,2010-10-16 23:11:20,2371.185640747324,2,10,0.5499359965324402,3.922019004821777,9.41673212200938,9.072570779985693,37.53092519015439,33.14701659505763,3.237724376958795e-05,0.0906038731336593,0,0,0
3125,107952.76821644085,2010-10-16 23:11:50,2401.200841768716,2,10,0.5497553944587708,3.923314094543457,9.421318720685552,9.072570779985693,37.5489170808789,33.14701659505763,0.0,0.0906038731336593,0,0,0
3126,107982.78339197872,2010-10-16 23:12:20,2431.216017326645,2,10,0.5501165986061096,3.9247710704803462,9.425905311931812,9.072570779985693,37.56691545555943,33.14701659505763,3.237724376958795e-05,0.0906038731336593,0,0,0
3127,108012.7986044286,2010-10-16 23:12:50,2461.23122971637,2,10,0.5501165986061096,3.926228046417236,9.430491969666118,9.072570779985693,37.5849206112051,33.14701659505763,3.237724376958795e-05,0.0906038731336593,0,0,0
3128,108042.8138219912,2010-10-16 23:13:20,2491.246447284,2,10,0.5499359965324402,3.927685022354126,9.43507854174812,9.072570779985693,37.602932036490685,33.14701659505763,3.237724376958795e-05,0.0906038731336593,0,0,0
3129,108072.82901555402,2010-10-16 23:13:50,2521.2616408768777,2,10,0.550297200679779,3.9293038845062256,9.439665203470526,9.072570779985693,37.62095051303106,33.14701659505763,6.47544875391759e-05,0.0906038731336593,0,0,0
3130,108102.8442315778,2010-10-16 23:14:20,2551.2768569056725,2,10,0.5501165986061096,3.9307608604431152,9.44425181001174,9.072570779985693,37.63897551708521,33.14701659505763,6.47544875391759e-05,0.0906038731336593,0,0,0
3131,108132.85942163185,2010-10-16 23:14:50,2581.292046924643,2,10,0.5501165986061096,3.932217836380005,9.448838489258565,9.072570779985693,37.6570075421236,33.14701659505763,6.47544875391759e-05,0.0906038731336593,0,0,0
3132,108162.87465226203,2010-10-16 23:15:20,2611.307277574879,2,10,0.5499359965324402,3.933512926101685,9.453425111787892,9.072570779985693,37.67504619219799,33.14701659505763,0.0,0.0906038731336593,0,0,0
3133,108192.8898367422,2010-10-16 23:15:50,2641.32246206507,2,10,0.5501165986061096,3.935293674468994,9.458011745120809,9.072570779985693,37.69309176536197,33.14701659505763,6.47544875391759e-05,0.0906038731336593,0,0,0
3134,108222.90503602926,2010-10-16 23:16:20,2671.337661352139,2,10,0.5501165986061096,3.936588764190674,9.462598369437302,9.072570779985693,37.71114414277497,33.14701659505763,6.47544875391759e-05,0.0906038731336593,0,0,0
3135,108252.9202424391,2010-10-16 23:16:50,2701.352867726873,2,10,0.5501165986061096,3.938207626342773,9.467185012949283,9.072570779985693,37.729203634271016,33.14701659505763,3.237724376958795e-05,0.0906038731336593,0,0,0
3136,108282.9354660568,2010-10-16 23:17:20,2731.3680913596195,2,10,0.5501165986061096,3.939826488494873,9.471771646461368,9.072570779985693,37.74727016160879,33.14701659505763,6.47544875391759e-05,0.0906038731336593,0,0,0
3137,108312.95065188532,2010-10-16 23:17:50,2761.3832771731086,2,10,0.550297200679779,3.9414453506469727,9.476358291552517,9.072570779985693,37.76534385774573,33.14701659505763,6.47544875391759e-05,0.0906038731336593,0,0,0
3138,108342.96586182895,2010-10-16 23:18:20,2791.398487126762,2,10,0.550297200679779,3.943064212799072,9.480944881981715,9.072570779985693,37.783424431787545,33.14701659505763,9.713172767078504e-05,0.0906038731336593,0,0,0
3139,108372.98394819153,2010-10-16 23:18:50,2821.416573614624,2,10,0.5499359965324402,3.944359302520752,9.48553198566731,9.072570779985693,37.80151427547421,33.14701659505763,3.237724376958795e-05,0.0906038731336593,0,0,0
3140,108402.99630803682,2010-10-16 23:19:20,2851.428933329606,2,10,0.5501165986061096,3.9461400508880615,9.490118149880256,9.072570779985693,37.81960767866525,33.14701659505763,9.713172767078504e-05,0.0906038731336593,0,0,0
3141,108433.01149118868,2010-10-16 23:19:50,2881.444116516549,2,10,0.5501165986061096,3.947597026824951,9.49470474887346,9.072570779985693,37.83771004746233,33.14701659505763,3.237724376958795e-05,0.0906038731336593,0,0,0
3142,108463.02668934791,2010-10-16 23:20:20,2911.4593146707957,2,10,0.5501165986061096,3.9493777751922607,9.49929124606513,9.072570779985693,37.855819381454815,33.14701659505763,6.47544875391759e-05,0.0906038731336593,0,0,0
3143,108493.04188309118,2010-10-16 23:20:50,2941.4745083839725,2,10,0.5499359965324402,3.9508347511291504,9.50387782773324,9.072570779985693,37.87393650290846,33.14701659505763,3.237724376958795e-05,0.0906038731336593,0,0,0
3144,108523.0572627578,2010-10-16 23:21:20,2971.489888090703,2,10,0.5501165986061096,3.95245361328125,9.508464524009533,9.072570779985693,37.8920616187404,33.14701659505763,3.237724376958795e-05,0.0906038731336593,0,0,0
3145,108553.07231873272,2010-10-16 23:21:50,3001.504944055569,2,10,0.5501165986061096,3.9540724754333496,9.513051056651246,9.072570779985693,37.91019368259788,33.14701659505763,0.0,0.0906038731336593,0,0,0
3146,108583.08753150338,2010-10-16 23:22:20,3031.520156816219,2,10,0.5501165986061096,3.955853223800659,9.517637661968624,9.072570779985693,37.928333654258914,33.14701659505763,3.237724376958795e-05,0.0906038731336593,0,0,0
3147,108613.10285580202,2010-10-16 23:22:50,3061.535481129893,2,10,0.5501165986061096,3.957472085952759,9.522224343424234,9.072570779985693,37.9464815956281,33.14701659505763,3.237724376958795e-05,0.0906038731336593,0,0,0
3148,108643.11794854351,2010-10-16 23:23:20,3091.550573881443,2,10,0.5499359965324402,3.9590909481048575,9.526810949172418,9.072570779985693,37.96463703356394,33.14701659505763,0.0,0.0906038731336593,0,0,0
3149,108673.13313189088,2010-10-16 23:23:50,3121.565757213748,2,10,0.5501165986061096,3.961033582687378,9.531397471667765,9.072570779985693,37.98279991392399,33.14701659505763,6.47544875391759e-05,0.0906038731336593,0,0,0
3150,108703.14833196992,2010-10-16 23:24:20,3151.5809572927915,2,10,0.5501165986061096,3.9626524448394775,9.535984079343129,9.072570779985693,38.00097102691059,33.14701659505763,3.237724376958795e-05,0.0906038731336593,0,0,0
3151,108733.16353072568,2010-10-16 23:24:50,3181.596156023474,2,10,0.5499359965324402,3.964271306991577,9.540570606288922,9.072570779985693,38.01914976563777,33.14701659505763,0.0,0.0906038731336593,0,0,0
3152,108763.17871505546,2010-10-16 23:25:20,3211.6113403482527,2,10,0.5501165986061096,3.966052055358887,9.54515762893559,9.072570779985693,38.03733854385513,33.14701659505763,0.0,0.0906038731336593,0,0,0
3153,108793.1939242021,2010-10-16 23:25:50,3241.6265494948952,2,10,0.5501165986061096,3.9679946899414062,9.549745129780025,9.072570779985693,38.05553734108976,33.14701659505763,6.47544875391759e-05,0.0906038731336593,0,0,0
3154,108823.2091400354,2010-10-16 23:26:20,3271.64176538334,2,10,0.5504778623580933,3.969775438308716,9.554332446545658,9.072570779985693,38.07374354772704,33.14701659505763,6.47544875391759e-05,0.0906038731336593,0,0,0
3155,108853.22455525566,2010-10-16 23:26:50,3301.657180573506,2,10,0.5501165986061096,3.971394300460816,9.558919860004984,9.072570779985693,38.0919583328463,33.14701659505763,3.237724376958795e-05,0.0906038731336593,0,0,0
3156,108883.23981884298,2010-10-16 23:27:20,3331.672444286144,2,10,0.5501165986061096,3.973175048828125,9.563507404003827,9.072570779985693,38.11018199809852,33.14701659505763,3.237724376958795e-05,0.0906038731336593,0,0,0
3157,108913.25537840296,2010-10-16 23:27:50,3361.6880038260742,2,10,0.550297200679779,3.975117683410645,9.568094847204136,9.072570779985693,38.12841367653738,33.14701659505763,6.47544875391759e-05,0.0906038731336593,0,0,0
3158,108943.2555168638,2010-10-16 23:28:20,3391.688142221768,2,10,0.5501165986061096,3.977060317993164,9.57267975991862,9.072570779985693,38.146643796798095,33.14701659505763,6.47544875391759e-05,0.0906038731336593,0,0,0
3159,108973.26964539725,2010-10-16 23:28:50,3421.7022707050646,2,10,0.5501165986061096,3.9788410663604736,9.577266419853332,9.072570779985693,38.16488903739993,33.14701659505763,3.237724376958795e-05,0.0906038731336593,0,0,0
3160,109003.28498056796,2010-10-16 23:29:20,3451.7176059710355,2,10,0.5501165986061096,3.980945587158203,9.581853118808027,9.072570779985693,38.18314353126702,33.14701659505763,9.713172767078504e-05,0.0906038731336593,0,0,0
3161,109033.29995457357,2010-10-16 23:29:50,3481.7325798613465,2,10,0.5499359965324402,3.9827263355255127,9.586439763412285,9.072570779985693,38.20140663617945,33.14701659505763,3.237724376958795e-05,0.0906038731336593,0,0,0
3162,109063.3151329786,2010-10-16 23:30:20,3511.747758271384,2,10,0.550297200679779,3.984668970108032,9.591026434053331,9.072570779985693,38.21967865723559,33.14701659505763,6.47544875391759e-05,0.0906038731336593,0,0,0
3163,109093.33034000995,2010-10-16 23:30:50,3541.762965307767,2,10,0.5501165986061096,3.986611604690552,9.595613125496213,9.072570779985693,38.23795979590585,33.14701659505763,6.47544875391759e-05,0.0906038731336593,0,0,0
3164,109123.345549322,2010-10-16 23:31:20,3571.778174639872,2,10,0.5501165986061096,3.988716125488281,9.600199799352444,9.072570779985693,38.25624993637982,33.14701659505763,9.713172767078504e-05,0.0906038731336593,0,0,0
3165,109153.36079305486,2010-10-16 23:31:50,3601.793418377726,2,10,0.5499359965324402,3.990658760070801,9.604786469730753,9.072570779985693,38.27454924444462,33.14701659505763,6.47544875391759e-05,0.0906038731336593,0,0,0
3166,109183.37597171552,2010-10-16 23:32:20,3631.808597038388,2,10,0.5501165986061096,3.99260139465332,9.609373156602082,9.072570779985693,38.29285793087221,33.14701659505763,3.237724376958795e-05,0.0906038731336593,0,0,0
3167,109213.39129292146,2010-10-16 23:32:50,3661.823918219254,2,10,0.5501165986061096,3.994705677032471,9.613959867496709,9.072570779985693,38.31117614207819,33.14701659505763,6.47544875391759e-05,0.0906038731336593,0,0,0
3168,109243.40637486608,2010-10-16 23:33:20,3691.83900016387,2,10,0.5501165986061096,3.9968101978302,9.618546493120116,9.072570779985693,38.32950356511737,33.14701659505763,6.47544875391759e-05,0.0906038731336593,0,0,0
3169,109273.42159352642,2010-10-16 23:33:50,3721.8542188192114,2,10,0.5499359965324402,3.99875283241272,9.623133198188448,9.072570779985693,38.34784082778644,33.14701659505763,3.237724376958795e-05,0.0906038731336593,0,0,0
3170,109303.4367801018,2010-10-16 23:34:20,3751.8694053895865,2,10,0.5501165986061096,4.001181125640869,9.627719863553594,9.072570779985693,38.36618765979896,33.14701659505763,6.47544875391759e-05,0.0906038731336593,0,0,0
3171,109333.45198813568,2010-10-16 23:34:50,3781.884613423455,2,10,0.5501165986061096,4.003285884857178,9.632306559590608,9.072570779985693,38.384544471168006,33.14701659505763,9.71794142969884e-05,0.0906038731336593,0,0,0
3172,109363.46733338652,2010-10-16 23:35:20,3811.899958674311,2,10,0.5501165986061096,4.005552291870117,9.636893293501664,9.072570779985693,38.40291132466891,33.14701659505763,9.71794142969884e-05,0.0906038731336593,0,0,0
3173,109393.48242224337,2010-10-16 23:35:50,3841.915047536166,2,10,0.5499359965324402,4.007656574249268,9.641479946188468,9.072570779985693,38.4212879252426,33.14701659505763,3.23295607813634e-05,0.0906038731336593,0,0,0
3174,109423.49762407178,2010-10-16 23:36:20,3871.9302493946448,2,10,0.550297200679779,4.009922981262207,9.646066643039374,9.072570779985693,38.43967475801364,33.14701659505763,6.47544875391759e-05,0.0906038731336593,0,0,0
3175,109453.51293142316,2010-10-16 23:36:50,3901.945556741032,2,10,0.550297200679779,4.0121893882751465,9.6506533971919,9.072570779985693,38.45807198932986,33.14701659505763,9.70840483205393e-05,0.0906038731336593,0,0,0
3176,109483.52800865604,2010-10-16 23:37:20,3931.9606339488414,2,10,0.5501165986061096,4.014294147491455,9.655240113721202,9.072570779985693,38.47647935613512,33.14701659505763,6.47544875391759e-05,0.0906038731336593,0,0,0
3177,109513.5432646344,2010-10-16 23:37:50,3961.975889932215,2,10,0.5501165986061096,4.0165605545043945,9.659826858997707,9.072570779985693,38.49489719390901,33.14701659505763,6.47544875391759e-05,0.0906038731336593,0,0,0
3178,109543.558504252,2010-10-16 23:38:20,3991.991129675113,2,10,0.5501165986061096,4.018826961517334,9.664413551201944,9.072570779985693,38.51332520927173,33.14701659505763,6.47544875391759e-05,0.0906038731336593,0,0,0
3179,109573.57364960964,2010-10-16 23:38:50,4022.006274927512,2,10,0.5501165986061096,4.021255016326904,9.669000248456856,9.072570779985693,38.53176364170808,33.14701659505763,9.70840483205393e-05,0.0906038731336593,0,0,0
3180,109603.58898134182,2010-10-16 23:39:20,4052.0216067799743,2,10,0.550297200679779,4.023521423339844,9.673586899153053,9.072570779985693,38.55021252973562,33.14701659505763,6.47544875391759e-05,0.0906038731336593,0,0,0
3181,109633.60413704024,2010-10-16 23:39:50,4082.036762393195,2,10,0.5501165986061096,4.025787830352783,9.678173064555487,9.072570779985693,38.56867000706104,33.14701659505763,9.70840483205393e-05,0.0906038731336593,0,0,0
3182,109663.619195762,2010-10-16 23:40:20,4112.051821074832,2,10,0.5499359965324402,4.028054237365723,9.682758934081892,9.072570779985693,38.587136944214365,33.14701659505763,3.23295607813634e-05,0.0906038731336593,0,0,0
3183,109693.63442222176,2010-10-16 23:40:50,4142.067047519588,2,10,0.5499359965324402,4.030482769012451,9.687344952493651,9.072570779985693,38.60561528483609,33.14701659505763,9.71794142969884e-05,0.0906038731336593,0,0,0
3184,109723.64962947872,2010-10-16 23:41:20,4172.082254806595,2,10,0.5501165986061096,4.032749176025391,9.691930777814685,9.072570779985693,38.62410373160225,33.14701659505763,6.47544875391759e-05,0.0906038731336593,0,0,0
3185,109753.66484974309,2010-10-16 23:41:51,4202.097475156158,2,10,0.5501165986061096,4.035338878631592,9.696516658626637,9.072570779985693,38.6426034563531,33.14701659505763,6.47544875391759e-05,0.0906038731336593,0,0,0
3186,109783.68012794682,2010-10-16 23:42:21,4232.112753400012,2,10,0.5499359965324402,4.037605285644531,9.701102488666733,9.072570779985693,38.6611141476852,33.14701659505763,6.47544875391759e-05,0.0906038731336593,0,0,0
3187,109813.6952475553,2010-10-16 23:42:51,4262.127872843086,2,10,0.5501165986061096,4.040195465087891,9.705688794281984,9.072570779985693,38.6796380938179,33.14701659505763,6.47544875391759e-05,0.0906038731336593,0,0,0
3188,109843.71064012912,2010-10-16 23:43:21,4292.143265522148,2,10,0.5501165986061096,4.042623996734619,9.710275547461872,9.072570779985693,38.69817526033216,33.14701659505763,3.24249267578125e-05,0.0906038731336593,0,0,0
3189,109873.72567164803,2010-10-16 23:43:51,4322.158297031062,2,10,0.5501165986061096,4.0452141761779785,9.714862243407625,9.072570779985693,38.71672375281549,33.14701659505763,3.24249267578125e-05,0.0906038731336593,0,0,0
3190,109903.74084514084,2010-10-16 23:44:21,4352.173470438631,2,10,0.5501165986061096,4.047804355621338,9.719448999977152,9.072570779985693,38.735284145191166,33.14701659505763,3.24249267578125e-05,0.0906038731336593,0,0,0
3191,109933.75620045676,2010-10-16 23:44:51,4382.188825759585,2,10,0.5501165986061096,4.050232410430908,9.72403577374608,9.072570779985693,38.75385638783104,33.14701659505763,3.23295607813634e-05,0.0906038731336593,0,0,0
3192,109963.77125541914,2010-10-16 23:45:21,4412.203880721952,2,10,0.550297200679779,4.053146362304688,9.728622543126024,9.072570779985693,38.77244041841018,33.14701659505763,9.70840483205393e-05,0.0906038731336593,0,0,0
3193,109993.78649277108,2010-10-16 23:45:51,4442.219118093942,2,10,0.5501165986061096,4.055574893951416,9.733209342066898,9.072570779985693,38.79103658255868,33.14701659505763,6.47544875391759e-05,0.0906038731336593,0,0,0
3194,110023.80167998806,2010-10-16 23:46:21,4472.234305315941,2,10,0.5501165986061096,4.058165073394775,9.737796082496844,9.072570779985693,38.80964452032508,33.14701659505763,3.24249267578125e-05,0.0906038731336593,0,0,0
3195,110053.816876814,2010-10-16 23:46:51,4502.249502136864,2,10,0.550297200679779,4.060755252838135,9.742382940453291,9.072570779985693,38.82826519238294,33.14701659505763,6.47544875391759e-05,0.0906038731336593,0,0,0
3196,110083.8320790033,2010-10-16 23:47:21,4532.264704326167,2,10,0.5501165986061096,4.063507080078125,9.746969753888132,9.072570779985693,38.84689762171934,33.14701659505763,6.47544875391759e-05,0.0906038731336593,0,0,0
3197,110113.84729975888,2010-10-16 23:47:51,4562.279925051666,2,10,0.5501165986061096,4.066259384155273,9.751556522880255,9.072570779985693,38.86554239952723,33.14701659505763,9.71794142969884e-05,0.0906038731336593,0,0,0
3198,110143.86248493576,2010-10-16 23:48:21,4592.295110258645,2,10,0.550297200679779,4.069011211395264,9.7561432418138,9.072570779985693,38.88419948806103,33.14701659505763,9.70840483205393e-05,0.0906038731336593,0,0,0
3199,110173.87769521023,2010-10-16 23:48:51,4622.31032053811,2,10,0.550297200679779,4.071763515472412,9.760729985371515,9.072570779985693,38.902869349455976,33.14701659505763,6.47544875391759e-05,0.0906038731336593,0,0,0
3200,110203.89291835176,2010-10-16 23:49:21,4652.325543679633,2,10,0.5501165986061096,4.074515342712402,9.765316708790502,9.072570779985693,38.92155197843856,33.14701659505763,6.47544875391759e-05,0.0906038731336593,0,0,0
3201,110233.90812288188,2010-10-16 23:49:51,4682.340748204757,2,10,0.550297200679779,4.077429294586182,9.769903477797126,9.072570779985693,38.94024776118941,33.14701659505763,6.47544875391759e-05,0.0906038731336593,0,0,0
3202,110263.9233035726,2010-10-16 23:50:21,4712.355928895478,2,10,0.5501165986061096,4.08050537109375,9.774490264505587,9.072570779985693,38.95895664516575,33.14701659505763,9.71794142969884e-05,0.0906038731336593,0,0,0
3203,110293.938511005,2010-10-16 23:50:51,4742.371136322836,2,10,0.5501165986061096,4.08325719833374,9.779077089855726,9.072570779985693,38.977678779413466,33.14701659505763,6.47544875391759e-05,0.0906038731336593,0,0,0
3204,110323.95470108642,2010-10-16 23:51:21,4772.387326534594,2,10,0.5501165986061096,4.086009502410889,9.783664026737291,9.072570779985693,38.99641463786757,33.14701659505763,6.47544875391759e-05,0.0906038731336593,0,0,0
3205,110353.96897521772,2010-10-16 23:51:51,4802.401600540578,2,10,0.550297200679779,4.088923454284668,9.788250636681726,9.072570779985693,39.015162525527984,33.14701659505763,6.47544875391759e-05,0.0906038731336593,0,0,0
3206,110383.98413994364,2010-10-16 23:52:21,4832.416765241448,2,10,0.5501165986061096,4.091837406158447,9.792837398841844,9.072570779985693,39.03392449888542,33.14701659505763,6.47544875391759e-05,0.0906038731336593,0,0,0
3207,110413.99937523044,2010-10-16 23:52:51,4862.432000583377,2,10,0.5501165986061096,4.094913005828857,9.797424225518393,9.072570779985693,39.05270031912114,33.14701659505763,9.70840483205393e-05,0.0906038731336593,0,0,0
3208,110444.01453942504,2010-10-16 23:53:21,4892.447164752923,2,10,0.5501165986061096,4.097826957702637,9.802011048487827,9.072570779985693,39.07148987880296,33.14701659505763,6.47544875391759e-05,0.0906038731336593,0,0,0
3209,110474.02975563932,2010-10-16 23:53:51,4922.46238092708,2,10,0.550297200679779,4.101064682006836,9.806597855527627,9.072570779985693,39.0902931756897,33.14701659505763,9.70840483205393e-05,0.0906038731336593,0,0,0
3210,110504.04494928732,2010-10-16 23:54:21,4952.47757458512,2,10,0.5501165986061096,4.103978633880615,9.811184711364296,9.072570779985693,39.10911064003836,33.14701659505763,9.70840483205393e-05,0.0906038731336593,0,0,0
3211,110534.06016889504,2010-10-16 23:54:51,4982.4927941928345,2,10,0.5501165986061096,4.107054710388184,9.815771482311243,9.072570779985693,39.12794184587524,33.14701659505763,6.47544875391759e-05,0.0906038731336593,0,0,0
3212,110564.07549221625,2010-10-16 23:55:21,5012.508117509023,2,10,0.5501165986061096,4.110130310058594,9.820358316086788,9.072570779985693,39.1467875341728,33.14701659505763,6.47544875391759e-05,0.0906038731336593,0,0,0
3213,110594.09058289262,2010-10-16 23:55:51,5042.523208185401,2,10,0.5501165986061096,4.113368034362793,9.824945112159728,9.072570779985693,39.16564743423697,33.14701659505763,9.70840483205393e-05,0.0906038731336593,0,0,0
3214,110624.10579070591,2010-10-16 23:56:21,5072.538416028795,2,10,0.5501165986061096,4.116443634033203,9.829531913775286,9.072570779985693,39.184521828869215,33.14701659505763,6.47544875391759e-05,0.0906038731336593,0,0,0
3215,110654.12101606798,2010-10-16 23:56:51,5102.553641395863,2,10,0.5501165986061096,4.119681358337402,9.834118710986566,9.072570779985693,39.20341090353748,33.14701659505763,6.47544875391759e-05,0.0906038731336593,0,0,0
3216,110684.13617254337,2010-10-16 23:57:21,5132.568797841158,2,10,0.5501165986061096,4.122919082641602,9.838705488984688,9.072570779985693,39.22231461640417,33.14701659505763,6.47544875391759e-05,0.0906038731336593,0,0,0
3217,110714.15142893276,2010-10-16 23:57:51,5162.584054260619,2,10,0.550297200679779,4.126156806945801,9.843292292985687,9.072570779985693,39.241233161100325,33.14701659505763,9.70840483205393e-05,0.0906038731336593,0,0,0
3218,110744.16658823517,2010-10-16 23:58:21,5192.599213558022,2,10,0.550297200679779,4.129556655883789,9.847879143064572,9.072570779985693,39.260166889834494,33.14701659505763,9.71794142969884e-05,0.0906038731336593,0,0,0
3219,110774.18179655472,2010-10-16 23:58:51,5222.614421847527,2,10,0.5501165986061096,4.132794380187988,9.85246595338272,9.072570779985693,39.27911556035722,33.14701659505763,6.47544875391759e-05,0.0906038731336593,0,0,0
3220,110804.19720052191,2010-10-16 23:59:21,5252.629825935023,2,10,0.550297200679779,4.136032104492188,9.857052757453198,9.072570779985693,39.2980793125888,33.14701659505763,9.71794142969884e-05,0.0906038731336593,0,0,0
3221,110834.21251469532,2010-10-16 23:59:51,5282.645140023212,2,10,0.5501165986061096,4.139431476593018,9.861639579133923,9.072570779985693,39.31705845301366,33.14701659505763,6.47544875391759e-05,0.0906038731336593,0,0,0
3222,110864.22758040448,2010-10-17 00:00:21,5312.660205702289,2,10,0.5499359965324402,4.142831325531006,9.866226400664962,9.072570779985693,39.33605293607857,33.14701659505763,9.71794142969884e-05,0.0906038731336593,0,0,0
3223,110894.2426229058,2010-10-17 00:00:51,5342.675248228663,2,10,0.5501165986061096,4.146069049835205,9.870813220338912,9.072570779985693,39.3550630012476,33.14701659505763,6.47544875391759e-05,0.0906038731336593,0,0,0
3224,110924.2578183182,2010-10-17 00:01:21,5372.690443616012,2,10,0.5501165986061096,4.149630546569824,9.87539999183826,9.072570779985693,39.37408870693987,33.14701659505763,6.47544875391759e-05,0.0906038731336593,0,0,0
3225,110954.2730436502,2010-10-17 00:01:51,5402.705668942981,2,10,0.5501165986061096,4.153192043304443,9.879986742443847,9.072570779985693,39.393130096927806,33.14701659505763,9.71794142969884e-05,0.0906038731336593,0,0,0
3226,110984.2882439498,2010-10-17 00:02:21,5432.720869377911,2,10,0.5501165986061096,4.156591415405273,9.884573554198164,9.072570779985693,39.412187559494434,33.14701659505763,0.0001295089750783,0.0906038731336593,0,0,0
3227,111014.30344363784,2010-10-17 00:02:51,5462.736068930642,2,10,0.5501165986061096,4.159991264343262,9.889160326781882,9.072570779985693,39.43126089698839,33.14701659505763,6.47544875391759e-05,0.0906038731336593,0,0,0
3228,111044.31867817276,2010-10-17 00:03:21,5492.751303495636,2,10,0.5501165986061096,4.163552761077881,9.893747139399611,9.072570779985693,39.450350487903805,33.14701659505763,6.47544875391759e-05,0.0906038731336593,0,0,0
3229,111074.33389322914,2010-10-17 00:03:51,5522.766518536969,2,10,0.5501165986061096,4.166952133178711,9.89833392564505,9.072570779985693,39.46945604308748,33.14701659505763,3.23295607813634e-05,0.0906038731336593,0,0,0
3230,111104.34906794498,2010-10-17 00:04:21,5552.781693267837,2,10,0.5499359965324402,4.170675754547119,9.90292071197743,9.072570779985693,39.48857792388512,33.14701659505763,9.71794142969884e-05,0.0906038731336593,0,0,0
3231,111134.36438346173,2010-10-17 00:04:51,5582.797008789599,2,10,0.5501165986061096,4.174237251281738,9.907507544869151,9.072570779985693,39.50771647319576,33.14701659505763,9.71794142969884e-05,0.0906038731336593,0,0,0
3232,111164.37946494018,2010-10-17 00:05:21,5612.812090237978,2,10,0.5501165986061096,4.177960395812988,9.912094353319157,9.072570779985693,39.52687147603766,33.14701659505763,9.70840483205393e-05,0.0906038731336593,0,0,0
3233,111194.39481671728,2010-10-17 00:05:51,5642.827442035149,2,10,0.5501165986061096,4.1816840171813965,9.916681160840996,9.072570779985693,39.546043178230775,33.14701659505763,0.0001295089750783,0.0906038731336593,0,0,0
3234,111224.40988675725,2010-10-17 00:06:21,5672.842512055045,2,10,0.5501165986061096,4.185245513916016,9.9212679900873,9.072570779985693,39.56523179547855,33.14701659505763,9.71794142969884e-05,0.0906038731336593,0,0,0
3235,111254.425107989,2010-10-17 00:06:51,5702.857733276783,2,10,0.550297200679779,4.189130783081055,9.925854804580386,9.072570779985693,39.58443723372041,33.14701659505763,0.0001295089750783,0.0906038731336593,0,0,0
3236,111284.44042501452,2010-10-17 00:07:21,5732.873050312317,2,10,0.550297200679779,4.192692279815674,9.930441644071848,9.072570779985693,39.60365982848968,33.14701659505763,6.47544875391759e-05,0.0906038731336593,0,0,0
3237,111314.45564002576,2010-10-17 00:07:51,5762.888265323576,2,10,0.5499359965324402,4.196253299713135,9.93502844016166,9.072570779985693,39.62289925424418,33.14701659505763,6.47544875391759e-05,0.0906038731336593,0,0,0
3238,111342.0019893992,2010-10-17 00:08:19,5790.434614722077,2,10,0.550297200679779,4.200138568878174,9.939237941244672,9.072570779985693,39.6405712165818,33.14701659505763,0.0001618385285837,0.0906038731336593,0,0,0
3239,111372.01606461965,2010-10-17 00:08:49,30.015320589392022,3,10,0.0,4.118386268615723,9.939237941244672,9.072570779985693,39.6405712165818,33.14701659505763,-0.0003561973571777,0.0906038731336593,0,0,0
3240,111402.0311688498,2010-10-17 00:09:19,60.030424799500295,3,10,0.0,4.108187675476074,9.939237941244672,9.072570779985693,39.6405712165818,33.14701659505763,-0.0002266883820993,0.0906038731336593,0,0,0
3241,111432.04639888852,2010-10-17 00:09:49,90.04565484823715,3,10,0.0,4.102198123931885,9.939237941244672,9.072570779985693,39.6405712165818,33.14701659505763,-0.0001295089750783,0.0906038731336593,0,0,0
3242,111462.0147422061,2010-10-17 00:10:19,120.0139982159382,3,10,0.0,4.098312854766846,9.939237941244672,9.072570779985693,39.6405712165818,33.14701659505763,-9.70840483205393e-05,0.0906038731336593,0,0,0
3243,111462.01511253158,2010-10-17 00:10:19,2.882183288e-06,4,10,1.0012786388397217,4.199814796447754,9.939237942046304,9.072570779985693,39.6405712199485,33.14701659505763,0.0,0.0906038731336593,0,0,0
3244,111462.76514228647,2010-10-17 00:10:20,0.750032647135939,4,10,0.9510692358016968,4.199653148651123,9.939439718468186,9.072570779985693,39.64141860990381,33.14701659505763,-3.23295607813634e-05,0.0906038731336593,0,0,0
3245,111464.71818109514,2010-10-17 00:10:22,2.703071395632191,4,10,0.9010404348373412,4.199814796447754,9.939940981040598,9.072570779985693,39.64352374290343,33.14701659505763,0.0,0.0906038731336593,0,0,0
3246,111467.76502871692,2010-10-17 00:10:25,5.749918992334743,4,10,0.8504698276519775,4.199814796447754,9.940680934310974,9.072570779985693,39.64663129222764,33.14701659505763,3.23295607813634e-05,0.0906038731336593,0,0,0
3247,111471.88996355372,2010-10-17 00:10:29,9.874853799083873,4,10,0.8004410862922668,4.199653148651123,9.941625663478645,9.072570779985693,39.65059885396556,33.14701659505763,0.0,0.0906038731336593,0,0,0
3248,111477.35860502592,2010-10-17 00:10:34,15.343495271291529,4,10,0.7504122853279114,4.199814796447754,9.94280218242178,9.072570779985693,39.65553986674357,33.14701659505763,3.23295607813634e-05,0.0906038731336593,0,0,0
3249,111484.37416454892,2010-10-17 00:10:42,22.35905480428144,4,10,0.7003835439682007,4.199653148651123,9.944213548814618,9.072570779985693,39.66146716794217,33.14701659505763,-3.23295607813634e-05,0.0906038731336593,0,0,0
3250,111493.60858734688,2010-10-17 00:10:51,31.593477747617136,4,10,0.6503547430038452,4.199653148651123,9.945942949936496,9.072570779985693,39.66873010507848,33.14701659505763,0.0,0.0906038731336593,0,0,0
3251,111506.21759054756,2010-10-17 00:11:03,44.20248078287424,4,10,0.6003260016441345,4.199653148651123,9.948129089351564,9.072570779985693,39.67791123284571,33.14701659505763,0.0,0.0906038731336593,0,0,0
3252,111525.20169355348,2010-10-17 00:11:22,63.18658381890249,4,10,0.5501165986061096,4.199653148651123,9.951153701038807,9.072570779985693,39.69061364580149,33.14701659505763,0.0,0.0906038731336593,0,0,0
3253,111556.10751102513,2010-10-17 00:11:53,94.0924012704741,4,10,0.5000878572463989,4.199491024017334,9.95564387816998,9.072570779985693,39.70947102786032,33.14701659505763,-3.24249267578125e-05,0.0906038731336593,0,0,0
3254,111611.37240347668,2010-10-17 00:12:49,149.35729376715815,4,10,0.4500590860843658,4.199814796447754,9.962904611054295,9.072570779985693,39.73996385918611,33.14701659505763,3.23295607813634e-05,0.0906038731336593,0,0,0
3255,111699.58988124512,2010-10-17 00:14:17,237.574771480459,4,10,0.4000303149223327,4.199653148651123,9.973292124807342,9.072570779985693,39.783588265872346,33.14701659505763,0.0,0.0906038731336593,0,0,0
3256,111813.47891726068,2010-10-17 00:16:11,351.46380753107746,4,10,0.3500015437602997,4.199653148651123,9.985137875240236,9.072570779985693,39.8333368724443,33.14701659505763,0.0,0.0906038731336593,0,0,0
3257,111949.4459252706,2010-10-17 00:18:27,487.4308155460532,4,10,0.2999727725982666,4.199653148651123,9.997393827788244,9.072570779985693,39.88480820097369,33.14701659505763,0.0,0.0906038731336593,0,0,0
3258,112111.53728400083,2010-10-17 00:21:09,649.5221742913106,4,10,0.2499440014362335,4.199491024017334,10.0097545666518,9.072570779985693,39.936719672353725,33.14701659505763,-6.47544875391759e-05,0.0906038731336593,0,0,0
3259,112311.50322752509,2010-10-17 00:24:29,849.4881177604183,4,10,0.1999152302742004,4.199491024017334,10.022221188135898,9.072570779985693,39.98907574872475,33.14701659505763,-3.24249267578125e-05,0.0906038731336593,0,0,0
3260,112574.79655805812,2010-10-17 00:28:52,1112.7814483134891,4,10,0.1498864591121673,4.199491024017334,10.034948716716825,9.072570779985693,40.04252756431542,33.14701659505763,-3.24249267578125e-05,0.0906038731336593,0,0,0
3261,112959.8067985922,2010-10-17 00:35:17,1497.7916888927018,4,10,0.0998576879501342,4.199814796447754,10.04813414586838,9.072570779985693,40.09790240270454,33.14701659505763,0.0,0.0906038731336593,0,0,0
3262,113669.8280188662,2010-10-17 00:47:07,2207.8129091065425,4,10,0.0498289167881011,4.199491024017334,10.062338842054864,9.072570779985693,40.157557903285806,33.14701659505763,-6.47544875391759e-05,0.0906038731336593,0,0,0
3263,113699.84317277333,2010-10-17 00:47:37,30.01519427457664,5,10,0.0,4.192044734954834,10.062338842054864,9.072570779985693,40.157557903285806,33.14701659505763,-6.47544875391759e-05,0.0906038731336593,0,0,0
3264,113729.84275456176,2010-10-17 00:48:07,60.01477606303402,5,10,0.0,4.190749645233154,10.062338842054864,9.072570779985693,40.157557903285806,33.14701659505763,-6.47544875391759e-05,0.0906038731336593,0,0,0
3265,113730.03131339783,2010-10-17 00:48:07,0.187745193790678,6,10,-1.9243103452026844e-05,4.190749645233154,10.062338842054864,9.072570780989247,40.157557903285806,33.147016599263445,-6.47544875391759e-05,0.0915781408548355,0,0,0
3266,113734.85913485942,2010-10-17 00:48:12,5.01556658518153,6,10,0.0007031940040178,4.190911293029785,10.0623397010977,9.072570781154909,40.15756150355329,33.14701659995769,-3.24249267578125e-05,0.0915781408548355,0,0,0
3267,113764.87520607142,2010-10-17 00:48:42,30.01521477065918,7,10,-1.099568486213684,4.022388458251953,10.0623397010977,9.081739652284956,40.15756150355329,33.184086600107726,-0.0008741378551349,0.0915781408548355,0,0,0
3268,113794.8904701249,2010-10-17 00:49:12,60.03047882414633,7,10,-1.0993878841400146,3.99713397026062,10.0623397010977,9.090908426511488,40.15756150355329,33.220841125472404,-0.0004856586456298,0.0915781408548355,0,0,0
3269,113824.9058161878,2010-10-17 00:49:42,90.04582488702613,7,10,-1.0997490882873535,3.9794886112213135,10.0623397010977,9.10007727120806,40.15756150355329,33.25740356542383,-0.0003885269106831,0.0915781408548355,0,0,0
3270,113854.92080991754,2010-10-17 00:50:12,120.06081861678337,7,10,-1.0997490882873535,3.965728282928467,10.0623397010977,9.109245904048098,40.15756150355329,33.293823834402524,-0.0003237724304199,0.0915781408548355,0,0,0
3271,113884.93606310396,2010-10-17 00:50:42,150.0760718232364,7,10,-1.099568486213684,3.9540724754333496,10.0623397010977,9.118414615186724,40.15756150355329,33.33012918255471,-0.0002913951757363,0.0915781408548355,0,0,0
3272,113914.95147612372,2010-10-17 00:51:12,180.09148482294333,7,10,-1.099568486213684,3.943711757659912,10.0623397010977,9.127583409073436,40.15756150355329,33.36633512050239,-0.0002913951757363,0.0915781408548355,0,0,0
3273,113944.96645809416,2010-10-17 00:51:42,210.1064667933928,7,10,-1.0997490882873535,3.934160470962525,10.0623397010977,9.13675197834284,40.15756150355329,33.402449639661775,-0.0002913951757363,0.0915781408548355,0,0,0
3274,113974.98164428858,2010-10-17 00:52:12,240.12165298783123,7,10,-1.099568486213684,3.925256729125977,10.0623397010977,9.145920618216437,40.15756150355329,33.438479070887844,-0.0001942634553415,0.0915781408548355,0,0,0
3275,114004.99687072833,2010-10-17 00:52:42,270.1368794275734,7,10,-1.099568486213684,3.916514873504639,10.0623397010977,9.155089310218244,40.15756150355329,33.474427196592295,-0.0002266406954731,0.0915781408548355,0,0,0
3276,114035.01206334878,2010-10-17 00:53:12,300.15207195279004,7,10,-1.0997490882873535,3.90793514251709,10.0623397010977,9.164258003772856,40.15756150355329,33.51029689534389,-0.0002266406954731,0.0915781408548355,0,0,0
3277,114065.02746737112,2010-10-17 00:53:43,330.16747607036,7,10,-1.099568486213684,3.899517059326172,10.0623397010977,9.173426729021328,40.15756150355329,33.54608933356628,-0.0002266406954731,0.0915781408548355,0,0,0
3278,114095.0425111857,2010-10-17 00:54:13,360.1825198197816,7,10,-1.0997490882873535,3.891422748565674,10.0623397010977,9.182595370553512,40.15756150355329,33.58180554653866,-0.0002266406954731,0.0915781408548355,0,0,0
3279,114125.0576723678,2010-10-17 00:54:43,390.197681067044,7,10,-1.0997490882873535,3.8834903240203857,10.0623397010977,9.191764041148804,40.15756150355329,33.617447341447246,-0.0001618862152099,0.0915781408548355,0,0,0
3280,114155.07309119204,2010-10-17 00:55:13,420.2130999163299,7,10,-1.0997490882873535,3.875396013259888,10.0623397010977,9.200932873494956,40.15756150355329,33.65301669013011,-0.0002266406954731,0.0915781408548355,0,0,0
3281,114185.0882370359,2010-10-17 00:55:43,450.2282457351399,7,10,-1.0997490882873535,3.8676254749298096,10.0623397010977,9.210101552666089,40.15756150355329,33.68851387594381,-0.0002266406954731,0.0915781408548355,0,0,0
3282,114215.10329072009,2010-10-17 00:56:13,480.243299409297,7,10,-1.0993878841400146,3.860178709030152,10.0623397010977,9.219270235298945,40.15756150355329,33.7239404372656,-0.0001295089750783,0.0915781408548355,0,0,0
3283,114245.11847995712,2010-10-17 00:56:43,510.2584886563435,7,10,-1.099568486213684,3.852570056915283,10.0623397010977,9.228438936893088,40.15756150355329,33.75929707665921,-0.0001295089750783,0.0915781408548355,0,0,0
3284,114275.13371340932,2010-10-17 00:57:13,540.2737221085629,7,10,-1.0997490882873535,3.844961404800415,10.0623397010977,9.237607633468077,40.15756150355329,33.79458473919264,-0.0001942634553415,0.0915781408548355,0,0,0
3285,114305.14894811466,2010-10-17 00:57:43,570.2889568289429,7,10,-1.0997490882873535,3.837676525115967,10.0623397010977,9.246776370286195,40.15756150355329,33.829804625175434,-0.0001618862152099,0.0915781408548355,0,0,0
3286,114335.16411778792,2010-10-17 00:58:13,600.3041265122305,7,10,-1.099568486213684,3.8303918838500977,10.0623397010977,9.255945125769871,40.15756150355329,33.864957650943104,-0.0001942634553415,0.0915781408548355,0,0,0
3287,114365.17946887833,2010-10-17 00:58:43,630.3194776026404,7,10,-1.099568486213684,3.823430776596069,10.0623397010977,9.265113965441362,40.15756150355329,33.90004501992071,-0.0001618862152099,0.0915781408548355,0,0,0
3288,114395.19452903864,2010-10-17 00:59:13,660.3345377579506,7,10,-1.099568486213684,3.816307783126831,10.0623397010977,9.274282622006554,40.15756150355329,33.93506695114029,-0.0001618862152099,0.0915781408548355,0,0,0
3289,114425.20978305714,2010-10-17 00:59:43,690.3497917563774,7,10,-1.0997490882873535,3.8091847896575928,10.0623397010977,9.28345129783466,40.15756150355329,33.970024812349735,-0.0002266406954731,0.0915781408548355,0,0,0
3290,114455.22495833437,2010-10-17 01:00:13,720.3649670336068,7,10,-1.099568486213684,3.802547454833984,10.0623397010977,9.2926199560233,40.15756150355329,34.00491970184811,-0.0001618862152099,0.0915781408548355,0,0,0
3291,114485.24016484444,2010-10-17 01:00:43,750.3801735436781,7,10,-1.1001102924346924,3.795910120010376,10.0623397010977,9.30178859281416,40.15756150355329,34.039753661563964,-0.0001942634553415,0.0915781408548355,0,0,0
3292,114515.2553906125,2010-10-17 01:01:13,780.3953993368089,7,10,-1.0997490882873535,3.789596557617188,10.0623397010977,9.310957316131844,40.15756150355329,34.074528191430765,-0.0001618862152099,0.0915781408548355,0,0,0
3293,114545.27075173792,2010-10-17 01:01:43,810.4107604371663,7,10,-1.099568486213684,3.783121109008789,10.0623397010977,9.320126133218022,40.15756150355329,34.109244076659216,-0.0001942634553415,0.0915781408548355,0,0,0
3294,114575.28575846006,2010-10-17 01:02:13,840.4257671793547,7,10,-1.0997490882873535,3.7768075466156006,10.0623397010977,9.329294866483792,40.15756150355329,34.143901738056854,-0.0001942634553415,0.0915781408548355,0,0,0
3295,114605.30096600772,2010-10-17 01:02:43,870.4409747320245,7,10,-1.0997490882873535,3.770655870437622,10.0623397010977,9.338463540524478,40.15756150355329,34.17850242790459,-0.0001942634553415,0.0915781408548355,0,0,0
3296,114635.31900910244,2010-10-17 01:03:13,900.4590177064376,7,10,-1.099568486213684,3.764827966690064,10.0623397010977,9.34763289711581,40.15756150355329,34.21305063923832,-0.0001295089750783,0.0915781408548355,0,0,0
3297,114665.3313799702,2010-10-17 01:03:43,930.4713886694532,7,10,-1.099568486213684,3.759000062942505,10.0623397010977,9.35680009700012,40.15756150355329,34.247537026055234,-0.0001618862152099,0.0915781408548355,0,0,0
3298,114695.34650554856,2010-10-17 01:04:13,960.4865142077176,7,10,-1.0997490882873535,3.753334045410156,10.0623397010977,9.36596820462242,40.15756150355329,34.28197378913556,-0.0001295089750783,0.0915781408548355,0,0,0
3299,114725.36185759136,2010-10-17 01:04:43,990.5018661652888,7,10,-1.099568486213684,3.7476682662963863,10.0623397010977,9.375136285860776,40.15756150355329,34.31635854688701,-0.0001618862152099,0.0915781408548355,0,0,0
3300,114755.3769188845,2010-10-17 01:05:13,1020.51692744841,7,10,-1.0997490882873535,3.742002248764038,10.0623397010977,9.38430452504795,40.15756150355329,34.35069281002418,-0.0001618862152099,0.0915781408548355,0,0,0
3301,114785.39226039604,2010-10-17 01:05:43,1050.532268974984,7,10,-1.099568486213684,3.7368218898773193,10.0623397010977,9.39347320668678,40.15756150355329,34.38497818091322,-0.0001295089750783,0.0915781408548355,0,0,0
3302,114815.40735269646,2010-10-17 01:06:13,1080.5473612854346,7,10,-1.0997490882873535,3.7313177585601807,10.0623397010977,9.402641818892668,40.15756150355329,34.41921371754122,-0.0001295089750783,0.0915781408548355,0,0,0
3303,114845.42254497106,2010-10-17 01:06:43,1110.562553595114,7,10,-1.0997490882873535,3.725975513458252,10.0623397010977,9.411810410960356,40.15756150355329,34.453400632920456,-0.0001618862152099,0.0915781408548355,0,0,0
3304,114875.43788226208,2010-10-17 01:07:13,1140.5778908360066,7,10,-1.0997490882873535,3.720795154571533,10.0623397010977,9.42097911168464,40.15756150355329,34.487540083355775,-0.0001618862152099,0.0915781408548355,0,0,0
3305,114905.45294198632,2010-10-17 01:07:43,1170.5929505802924,7,10,-1.099568486213684,3.715776681900024,10.0623397010977,9.430147729129423,40.15756150355329,34.521631962970616,-0.0001295089750783,0.0915781408548355,0,0,0
3306,114935.46827927732,2010-10-17 01:08:13,1200.6082878462478,7,10,-1.099568486213684,3.710758209228516,10.0623397010977,9.439316453059494,40.15756150355329,34.55567781090501,-0.0001295089750783,0.0915781408548355,0,0,0
3307,114965.4834919678,2010-10-17 01:08:43,1230.6235006820846,7,10,-1.0997490882873535,3.705739736557007,10.0623397010977,9.448485134070292,40.15756150355329,34.58967761489119,-0.0001295089750783,0.0915781408548355,0,0,0
3308,114995.4985846642,2010-10-17 01:09:13,1260.6385932281223,7,10,-1.099929690361023,3.700721263885498,10.0623397010977,9.457653765895314,40.15756150355329,34.623631963572315,-0.0001295089750783,0.0915781408548355,0,0,0
3309,115025.51397824052,2010-10-17 01:09:43,1290.6539868395078,7,10,-1.0997490882873535,3.696188449859619,10.0623397010977,9.466822505289464,40.15756150355329,34.6575422044439,-9.713172767078504e-05,0.0915781408548355,0,0,0
3310,115055.52902870168,2010-10-17 01:10:13,1320.6690372956446,7,10,-1.0997490882873535,3.69133186340332,10.0623397010977,9.475991094465366,40.15756150355329,34.691408135257,-0.0001295089750783,0.0915781408548355,0,0,0
3311,115085.54420790868,2010-10-17 01:10:43,1350.6842165076807,7,10,-1.0997490882873535,3.686637163162232,10.0623397010977,9.485159754801511,40.15756150355329,34.725231081154426,-0.0001295089750783,0.0915781408548355,0,0,0
3312,115115.55963420152,2010-10-17 01:11:13,1380.6996427754557,7,10,-1.0997490882873535,3.681942462921143,10.0623397010977,9.4943284677804,40.15756150355329,34.759011678177856,-9.713172767078504e-05,0.0915781408548355,0,0,0
3313,115145.57492919212,2010-10-17 01:11:43,1410.7149378913598,7,10,-1.0997490882873535,3.677409648895264,10.0623397010977,9.503497183308086,40.15756150355329,34.79275011947449,-0.0001295089750783,0.0915781408548355,0,0,0
3314,115175.58993904707,2010-10-17 01:12:13,1440.729947641044,7,10,-1.0997490882873535,3.6728768348693848,10.0623397010977,9.512665786112112,40.15756150355329,34.82644698822502,-0.0001295089750783,0.0915781408548355,0,0,0
3315,115205.60503891634,2010-10-17 01:12:43,1470.745047535396,7,10,-1.099929690361023,3.668506145477295,10.0623397010977,9.521834471176648,40.15756150355329,34.86010338105909,-9.713172767078504e-05,0.0915781408548355,0,0,0
3316,115235.62024125102,2010-10-17 01:13:13,1500.7602498449985,7,10,-1.099568486213684,3.664297103881836,10.0623397010977,9.531003165500946,40.15756150355329,34.893719611657104,-6.47544875391759e-05,0.0915781408548355,0,0,0
3317,115265.63546966069,2010-10-17 01:13:43,1530.7754782897375,7,10,-1.099929690361023,3.659926176071167,10.0623397010977,9.540171898483852,40.15756150355329,34.92729656486848,-0.0001295089750783,0.0915781408548355,0,0,0
3318,115295.65066457684,2010-10-17 01:14:13,1560.7906731758385,7,10,-1.099568486213684,3.655879020690918,10.0623397010977,9.549340618427957,40.15756150355329,34.96083461114085,-9.713172767078504e-05,0.0915781408548355,0,0,0
3319,115325.66598351212,2010-10-17 01:14:43,1590.8059920810329,7,10,-1.0997490882873535,3.651508092880249,10.0623397010977,9.558509388246993,40.15756150355329,34.9943348400882,-0.0001295089750783,0.0915781408548355,0,0,0
3320,115355.6810926896,2010-10-17 01:15:13,1620.821101308646,7,10,-1.099929690361023,3.64729905128479,10.0623397010977,9.567678051201314,40.15756150355329,35.02779711133017,-0.0001618862152099,0.0915781408548355,0,0,0
3321,115385.69628166597,2010-10-17 01:15:43,1650.836290244918,7,10,-1.099929690361023,3.643413782119751,10.0623397010977,9.57684665563561,40.15756150355329,35.06122156293032,-9.713172767078504e-05,0.0915781408548355,0,0,0
3322,115415.71151515328,2010-10-17 01:16:13,1680.851523732225,7,10,-1.0997490882873535,3.639690399169922,10.0623397010977,9.5860153112336,40.15756150355329,35.09461001989616,-9.713172767078504e-05,0.0915781408548355,0,0,0
3323,115445.72680452988,2010-10-17 01:16:43,1710.866813128875,7,10,-1.0997490882873535,3.635643243789673,10.0623397010977,9.595183979218444,40.15756150355329,35.12796298266756,-0.0001295089750783,0.0915781408548355,0,0,0
3324,115475.74227905791,2010-10-17 01:17:13,1740.8822876769796,7,10,-1.0997490882873535,3.631919860839844,10.0623397010977,9.604352738828842,40.15756150355329,35.161281834972485,-0.0001295089750783,0.0915781408548355,0,0,0
3325,115505.75711792172,2010-10-17 01:17:43,1770.8971265257258,7,10,-1.099568486213684,3.6285202503204346,10.0623397010977,9.613521263498754,40.15756150355329,35.194566090865145,-9.713172767078504e-05,0.0915781408548355,0,0,0
3326,115535.77231205594,2010-10-17 01:18:13,1800.91232067499,7,10,-1.0997490882873535,3.624958753585816,10.0623397010977,9.622689918803118,40.15756150355329,35.22781796030068,-9.713172767078504e-05,0.0915781408548355,0,0,0
3327,115565.78752933787,2010-10-17 01:18:43,1830.9275379619205,7,10,-1.099568486213684,3.6215591430664062,10.0623397010977,9.631858603072118,40.15756150355329,35.26103774906395,-6.47544875391759e-05,0.0915781408548355,0,0,0
3328,115595.8029689188,2010-10-17 01:19:13,1860.9429774927512,7,10,-1.099568486213684,3.617997646331787,10.0623397010977,9.641027313883892,40.15756150355329,35.29422611962364,-9.713172767078504e-05,0.0915781408548355,0,0,0
3329,115625.81793596208,2010-10-17 01:19:43,1890.9579446512848,7,10,-1.099568486213684,3.614759922027588,10.0623397010977,9.650195931146497,40.15756150355329,35.3273831147241,-6.47544875391759e-05,0.0915781408548355,0,0,0
3330,115655.83314700345,2010-10-17 01:20:13,1920.9731556024244,7,10,-1.0997490882873535,3.6115221977233887,10.0623397010977,9.659364587259171,40.15756150355329,35.36051050230204,-6.47544875391759e-05,0.0915781408548355,0,0,0
3331,115685.84833267656,2010-10-17 01:20:43,1950.9883412505017,7,10,-1.099929690361023,3.6082844734191895,10.0623397010977,9.668533249914915,40.15756150355329,35.39360853624304,-9.713172767078504e-05,0.0915781408548355,0,0,0
3332,115715.863542936,2010-10-17 01:21:13,1981.0035515049049,7,10,-1.099568486213684,3.60537052154541,10.0623397010977,9.677701978514431,40.15756150355329,35.4266781276395,-9.713172767078504e-05,0.0915781408548355,0,0,0
3333,115745.8789349534,2010-10-17 01:21:43,2011.018943532342,7,10,-1.0997490882873535,3.602294683456421,10.0623397010977,9.68687067425124,40.15756150355329,35.45971966680287,-6.47544875391759e-05,0.0915781408548355,0,0,0
3334,115775.89397711886,2010-10-17 01:22:13,2041.0339856827784,7,10,-1.099568486213684,3.599218845367432,10.0623397010977,9.696039244029455,40.15756150355329,35.49273320573192,-9.713172767078504e-05,0.0915781408548355,0,0,0
3335,115805.90916026072,2010-10-17 01:22:43,2071.049168864709,7,10,-1.0997490882873535,3.5964667797088623,10.0623397010977,9.705207940186268,40.15756150355329,35.525720105817605,-6.47544875391759e-05,0.0915781408548355,0,0,0
3336,115835.9245244638,2010-10-17 01:23:13,2101.064533153012,7,10,-1.0997490882873535,3.593552827835083,10.0623397010977,9.71437666591766,40.15756150355329,35.558680273506255,-6.47544875391759e-05,0.0915781408548355,0,0,0
3337,115865.93958876444,2010-10-17 01:23:43,2131.0795973333534,7,10,-1.0997490882873535,3.590477228164673,10.0623397010977,9.723545521094142,40.15756150355329,35.591614369030964,-9.713172767078504e-05,0.0915781408548355,0,0,0
3338,115895.95490314334,2010-10-17 01:24:13,2161.0949117423424,7,10,-1.0997490882873535,3.5875632762908936,10.0623397010977,9.732715083014083,40.15756150355329,35.62452429262802,-9.713172767078504e-05,0.0915781408548355,0,0,0
3339,115925.96999956404,2010-10-17 01:24:43,2191.1100081379745,7,10,-1.099929690361023,3.5846493244171143,10.0623397010977,9.741884587280389,40.15756150355329,35.65740777026369,-9.713172767078504e-05,0.0915781408548355,0,0,0
3340,115955.98519088126,2010-10-17 01:25:13,2221.125199450168,7,10,-1.0997490882873535,3.582059144973755,10.0623397010977,9.751053990231023,40.15756150355329,35.69026471453621,-6.47544875391759e-05,0.0915781408548355,0,0,0
3341,115986.00043200258,2010-10-17 01:25:44,2251.140440596564,7,10,-1.0997490882873535,3.5789833068847656,10.0623397010977,9.760223213528814,40.15756150355329,35.72309498501843,-6.47544875391759e-05,0.0915781408548355,0,0,0
3342,116016.01559718966,2010-10-17 01:26:14,2281.155605768608,7,10,-1.0997490882873535,3.5762312412261963,10.0623397010977,9.7693918223874,40.15756150355329,35.755896985769496,-6.47544875391759e-05,0.0915781408548355,0,0,0
3343,116046.03093884655,2010-10-17 01:26:44,2311.170947430519,7,10,-1.0997490882873535,3.573155403137207,10.0623397010977,9.778560268533116,40.15756150355329,35.78867180026201,-9.713172767078504e-05,0.0915781408548355,0,0,0
3344,116076.04621677464,2010-10-17 01:27:14,2341.186225348561,7,10,-1.0997490882873535,3.5704033374786377,10.0623397010977,9.787728777227226,40.15756150355329,35.821420093996295,-6.47544875391759e-05,0.0915781408548355,0,0,0
3345,116106.06139477863,2010-10-17 01:27:44,2371.2014033826613,7,10,-1.0997490882873535,3.5673274993896484,10.0623397010977,9.796897474830654,40.15756150355329,35.85414176443601,-6.47544875391759e-05,0.0915781408548355,0,0,0
3346,116136.07647311428,2010-10-17 01:28:14,2401.2164817182825,7,10,-1.0997490882873535,3.564251661300659,10.0623397010977,9.806066153124313,40.15756150355329,35.88683590368028,-9.713172767078504e-05,0.0915781408548355,0,0,0
3347,116166.09166709812,2010-10-17 01:28:44,2431.2316756971222,7,10,-1.099568486213684,3.56133770942688,10.0623397010977,9.815234804487496,40.15756150355329,35.91950229931348,-6.47544875391759e-05,0.0915781408548355,0,0,0
3348,116196.10689253036,2010-10-17 01:29:14,2461.246901119328,7,10,-1.099929690361023,3.5580999851226807,10.0623397010977,9.82440348892158,40.15756150355329,35.95214086315683,-9.713172767078504e-05,0.0915781408548355,0,0,0
3349,116226.12214459898,2010-10-17 01:29:44,2491.2621532029825,7,10,-1.0997490882873535,3.5550241470336914,10.0623397010977,9.833572255024883,40.15756150355329,35.984750705641616,-6.47544875391759e-05,0.0915781408548355,0,0,0
3350,116256.13729465834,2010-10-17 01:30:14,2521.2773032272744,7,10,-1.0997490882873535,3.551786422729492,10.0623397010977,9.842740980373067,40.15756150355329,36.01733088059514,-9.713172767078504e-05,0.0915781408548355,0,0,0
3351,116286.1524947424,2010-10-17 01:30:44,2551.2925033163424,7,10,-1.099568486213684,3.548386812210083,10.0623397010977,9.851909735193274,40.15756150355329,36.04988090400026,-9.713172767078504e-05,0.0915781408548355,0,0,0
3352,116316.16770267604,2010-10-17 01:31:14,2581.307711244949,7,10,-1.0997490882873535,3.544987201690674,10.0623397010977,9.861078496512476,40.15756150355329,36.08239980707367,-9.713172767078504e-05,0.0915781408548355,0,0,0
3353,116346.18292163212,2010-10-17 01:31:44,2611.3229302010395,7,10,-1.0997490882873535,3.5412638187408447,10.0623397010977,9.870247263560898,40.15756150355329,36.11488654489498,-0.0001295089750783,0.0915781408548355,0,0,0
3354,116376.19811286913,2010-10-17 01:32:14,2641.3381214380456,7,10,-1.099568486213684,3.5377023220062256,10.0623397010977,9.879415916238411,40.15756150355329,36.14733971534833,-9.713172767078504e-05,0.0915781408548355,0,0,0
3355,116406.21346599962,2010-10-17 01:32:44,2671.3534745835773,7,10,-1.0997490882873535,3.5339789390563965,10.0623397010977,9.88858467264888,40.15756150355329,36.179758664277536,-9.713172767078504e-05,0.0915781408548355,0,0,0
3356,116436.22852053092,2010-10-17 01:33:14,2701.368529094821,7,10,-1.0997490882873535,3.5299317836761475,10.0623397010977,9.89775339771026,40.15756150355329,36.21214166834589,-9.713172767078504e-05,0.0915781408548355,0,0,0
3357,116466.24386777672,2010-10-17 01:33:44,2731.383876380749,7,10,-1.0997490882873535,3.5257227420806885,10.0623397010977,9.906922233707077,40.15756150355329,36.24448774860274,-0.0001295089750783,0.0915781408548355,0,0,0
3358,116496.25893603225,2010-10-17 01:34:14,2761.398944596147,7,10,-1.099568486213684,3.5213518142700195,10.0623397010977,9.916090923582423,40.15756150355329,36.276794151008446,-9.713172767078504e-05,0.0915781408548355,0,0,0
3359,116526.2741417754,2010-10-17 01:34:44,2791.414150349332,7,10,-1.0997490882873535,3.5168190002441406,10.0623397010977,9.925259612887906,40.15756150355329,36.309059686364776,-9.713172767078504e-05,0.0915781408548355,0,0,0
3360,116556.29252461184,2010-10-17 01:35:14,2821.432533321124,7,10,-1.0997490882873535,3.511962413787842,10.0623397010977,9.934429325108994,40.15756150355329,36.341285076241306,-9.713172767078504e-05,0.0915781408548355,0,0,0
3361,116586.3047061227,2010-10-17 01:35:44,2851.4447148219406,7,10,-1.0997490882873535,3.506620407104492,10.0623397010977,9.943597138472706,40.15756150355329,36.37345708140049,-9.713172767078504e-05,0.0915781408548355,0,0,0
3362,116616.31979618756,2010-10-17 01:36:14,2881.459804811608,7,10,-1.099568486213684,3.5007925033569336,10.0623397010977,9.952765863618907,40.15756150355329,36.40558107017594,-0.0001295089750783,0.0915781408548355,0,0,0
3363,116646.334976768,2010-10-17 01:36:44,2911.474985341929,7,10,-1.0997490882873535,3.494155168533325,10.0623397010977,9.961934654691335,40.15756150355329,36.43764865501672,-0.0001618862152099,0.0915781408548355,0,0,0
3364,116676.35018217532,2010-10-17 01:37:14,2941.4901907542644,7,10,-1.099929690361023,3.486708402633667,10.0623397010977,9.9711033894975,40.15756150355329,36.46965256573269,-0.0002266406954731,0.0915781408548355,0,0,0
3365,116706.36551933602,2010-10-17 01:37:44,2971.5055279249823,7,10,-1.099568486213684,3.478290319442749,10.0623397010977,9.980272194142817,40.15756150355329,36.50158457198273,-0.0002590179501567,0.0915781408548355,0,0,0
3366,116736.3807131394,2010-10-17 01:38:14,3001.520721723372,7,10,-1.0997490882873535,3.4684152603149414,10.0623397010977,9.989440893844376,40.15756150355329,36.533433105563134,-0.0003237724304199,0.0915781408548355,0,0,0
3367,116766.39579395122,2010-10-17 01:38:44,3031.5358025251394,7,10,-1.0997490882873535,3.457245111465454,10.0623397010977,9.998609587181928,40.15756150355329,36.56518520518458,-0.0003237724304199,0.0915781408548355,0,0,0
3368,116796.41114045016,2010-10-17 01:39:14,3061.5511490190934,7,10,-1.099568486213684,3.4436466693878174,10.0623397010977,10.007778414993956,40.15756150355329,36.59682321527727,-0.0003561496851034,0.0915781408548355,0,0,0
3369,116826.42624457006,2010-10-17 01:39:44,3091.5662531740645,7,10,-1.099568486213684,3.4264869689941406,10.0623397010977,10.016947123304712,40.15756150355329,36.62832060119606,-0.0004856586456298,0.0915781408548355,0,0,0
3370,116856.4414243034,2010-10-17 01:40:14,3121.5814329926125,7,10,-1.099568486213684,3.404470443725586,10.0623397010977,10.026115904301442,40.15756150355329,36.65964015705342,-0.0006151676061563,0.0915781408548355,0,0,0
3371,116886.4566413046,2010-10-17 01:40:44,3151.5966498785438,7,10,-1.099568486213684,3.3740358352661133,10.0623397010977,10.035284669547998,40.15756150355329,36.69072178597449,-0.0009065627818927,0.0915781408548355,0,0,0
3372,116916.47182640132,2010-10-17 01:41:14,3181.6118349702333,7,10,-1.099568486213684,3.330650568008423,10.0623397010977,10.044453392302602,40.15756150355329,36.72147006353704,-0.0013274669181555,0.0915781408548355,0,0,0
3373,116946.48717552684,2010-10-17 01:41:44,3211.6271841007588,7,10,-1.0997490882873535,3.268162727355957,10.0623397010977,10.053622204907091,40.15756150355329,36.75173982827888,-0.0019749640487134,0.0915781408548355,0,0,0
3374,116976.50223656934,2010-10-17 01:42:14,3241.642245133255,7,10,-1.0997490882873535,3.1758878231048584,10.0623397010977,10.062790935060631,40.15756150355329,36.78131177432847,-0.0029462813399732,0.0915781408548355,0,0,0
3375,117006.517596186,2010-10-17 01:42:44,3271.6576047950275,7,10,-1.099929690361023,3.0280861854553223,10.0623397010977,10.071959719291051,40.15756150355329,36.80981772294355,-0.0050831795670092,0.0915781408548355,0,0,0
3376,117026.67355140323,2010-10-17 01:43:04,3291.8135600172736,7,10,-1.0997490882873535,2.827671527862549,10.0623397010977,10.078116822059544,40.15756150355329,36.82792456805766,-0.0106196878477931,0.0915781408548355,0,0,0
3377,117034.84517899354,2010-10-17 01:43:12,3299.985187562463,7,10,-1.0997490882873535,2.699943780899048,10.0623397010977,10.080613022829835,40.15756150355329,36.83482783905946,-0.012983227148652,0.0915781408548355,0,0,0
3378,117094.86012690932,2010-10-17 01:44:13,60.014926262377,8,10,0.0,3.313004970550537,10.0623397010977,10.080613022829835,40.15756150355329,36.83482783905946,0.0013274669181555,0.0915781408548355,0,0,0
3379,117095.0483609282,2010-10-17 01:44:13,0.187516393550079,9,10,-1.9243103452026844e-05,3.313328742980957,10.0623397010977,10.080613023832168,40.15756150355329,36.83482784238052,0.0,0.0899572893977165,0,0,0
3380,117099.87638991198,2010-10-17 01:44:18,5.015545342237576,9,10,0.0008838032954372,3.321584939956665,10.062340535964736,10.080613023999057,40.15756427373616,36.83482784293348,0.0011979580158367,0.0899572893977165,0,0,0
