Data_Point,Test_Time(s),Date_Time,Step_Time(s),Step_Index,Cycle_Index,Current(A),Voltage(V),Charge_Capacity(Ah),Discharge_Capacity(Ah),Charge_Energy(Wh),Discharge_Energy(Wh),dV/dt(V/s),Internal_Resistance(Ohm),Is_FC_Data,AC_Impedance(Ohm),ACI_Phase_Angle(Deg)
8085,280078.5434627332,2010-10-18 23:00:54,30.01525527661248,1,25,0.0,3.370150566101074,24.057314759680505,24.07114218440138,96.0117121346809,87.90636667659419,0.0008094310760498,0.0914128422737121,0,0,0
8086,280108.55857729906,2010-10-18 23:01:24,60.03036984253061,1,25,0.0,3.395566701889038,24.057314759680505,24.07114218440138,96.0117121346809,87.90636667659419,0.0005827903514727,0.0914128422737121,0,0,0
8087,280138.57375032565,2010-10-18 23:01:54,90.04554283406335,1,25,0.0,3.4149930477142334,24.057314759680505,24.07114218440138,96.0117121346809,87.90636667659419,0.0004532813909463,0.0914128422737121,0,0,0
8088,280168.5420624505,2010-10-18 23:02:24,120.01385501904748,1,25,0.0,3.4308578968048096,24.057314759680505,24.07114218440138,96.0117121346809,87.90636667659419,0.0004209041653666,0.0914128422737121,0,0,0
8089,280198.54571942805,2010-10-18 23:02:54,30.01529634897745,2,25,0.5501165986061096,3.586106300354004,24.061901359213,24.07114218440138,96.02799272476192,87.90636667659419,0.0016512393485754,0.0914128422737121,0,0,0
8090,280228.5607652928,2010-10-18 23:03:24,60.030342253770925,2,25,0.550297200679779,3.635643243789673,24.06648787446136,24.07114218440138,96.04456092638944,87.90636667659419,0.0011655807029455,0.0914128422737121,0,0,0
8091,280258.5759364748,2010-10-18 23:03:54,90.04551337564392,2,25,0.5501165986061096,3.670934438705444,24.07107442433215,24.07114218440138,96.06132081610636,87.90636667659419,0.0008094310760498,0.0914128422737121,0,0,0
8092,280288.59114467405,2010-10-18 23:04:24,120.06072156991272,2,25,0.5501165986061096,3.6987786293029785,24.075660994061565,24.07114218440138,96.0782247138387,87.90636667659419,0.0006475448608398,0.0914128422737121,0,0,0
8093,280318.60638569016,2010-10-18 23:04:54,150.07596262608345,2,25,0.550297200679779,3.721442699432373,24.08024754083787,24.07114218440138,96.09524346845164,87.90636667659419,0.0005504131549969,0.0914128422737121,0,0,0
8094,280348.62148914335,2010-10-18 23:05:24,180.09106606928034,2,25,0.5501165986061096,3.740059614181519,24.084834144015733,24.07114218440138,96.11235669685644,87.90636667659419,0.0004532813909463,0.0914128422737121,0,0,0
8095,280378.6366743303,2010-10-18 23:05:54,210.1062512311453,2,25,0.550297200679779,3.754952907562256,24.08942073942749,24.07114218440138,96.12954655967955,87.90636667659419,0.0003561496851034,0.0914128422737121,0,0,0
8096,280408.65186937177,2010-10-18 23:06:24,240.12144626762085,2,25,0.5501165986061096,3.764504194259644,24.094007299536493,24.07114218440138,96.1467925416254,87.90636667659419,0.0001618862152099,0.0914128422737121,0,0,0
8097,280438.66699859424,2010-10-18 23:06:54,270.13657547001753,2,25,0.5501165986061096,3.770332098007202,24.09859389257796,24.07114218440138,96.16407300763645,87.90636667659419,0.0001618862152099,0.0914128422737121,0,0,0
8098,280468.68489231163,2010-10-18 23:07:24,300.1544693077362,2,25,0.5501165986061096,3.774217367172241,24.10318089591591,24.07114218440138,96.1813766921448,87.90636667659419,6.47544875391759e-05,0.0914128422737121,0,0,0
8099,280498.6974450577,2010-10-18 23:07:54,330.1670219535612,2,25,0.5501165986061096,3.7779407501220703,24.10776710925436,24.07114218440138,96.19869495102142,87.90636667659419,9.713172767078504e-05,0.0914128422737121,0,0,0
8100,280528.71260049543,2010-10-18 23:08:24,360.182177426432,2,25,0.550297200679779,3.7815022468566895,24.112353656685137,24.07114218440138,96.21603088057356,87.90636667659419,9.713172767078504e-05,0.0914128422737121,0,0,0
8101,280558.7277290563,2010-10-18 23:08:54,390.1973059571547,2,25,0.550297200679779,3.785225629806519,24.11694018797901,24.07114218440138,96.23338293762832,87.90636667659419,0.0001618862152099,0.0914128422737121,0,0,0
8102,280588.7430401871,2010-10-18 23:09:24,420.2126170829607,2,25,0.5501165986061096,3.788625240325928,24.12152680877705,24.07114218440138,96.2507512300503,87.90636667659419,0.0001618862152099,0.0914128422737121,0,0,0
8103,280618.75815764023,2010-10-18 23:09:54,450.22773452103706,2,25,0.5501165986061096,3.791862964630127,24.126113400487903,24.07114218440138,96.26813490583658,87.90636667659419,0.0001295089750783,0.0914128422737121,0,0,0
8104,280648.7733345415,2010-10-18 23:10:24,480.24291141228906,2,25,0.5501165986061096,3.794938802719116,24.130699955678825,24.07114218440138,96.28553366758344,87.90636667659419,6.47544875391759e-05,0.0914128422737121,0,0,0
8105,280678.78864926123,2010-10-18 23:10:54,510.25822617215215,2,25,0.550297200679779,3.798338413238525,24.13528657762353,24.07114218440138,96.30294761461236,87.90636667659419,9.713172767078504e-05,0.0914128422737121,0,0,0
8106,280708.8039663068,2010-10-18 23:11:24,540.2735433129493,2,25,0.5501165986061096,3.8015761375427246,24.13987321895267,24.07114218440138,96.3203763812004,87.90636667659419,0.0001295089750783,0.0914128422737121,0,0,0
8107,280738.81888137554,2010-10-18 23:11:54,570.2884582713841,2,25,0.5499359965324402,3.804328203201294,24.1444597641297,24.07114218440138,96.33781914897422,87.90636667659419,3.237724376958795e-05,0.0914128422737121,0,0,0
8108,280768.83419218054,2010-10-18 23:12:24,600.3037691014529,2,25,0.5501165986061096,3.807727813720703,24.14904635864374,24.07114218440138,96.35527639409533,87.90636667659419,6.47544875391759e-05,0.0914128422737121,0,0,0
8109,280798.84928266145,2010-10-18 23:12:54,630.3188595522688,2,25,0.5501165986061096,3.810803651809693,24.15363298213836,24.07114218440138,96.37274790364047,87.90636667659419,9.713172767078504e-05,0.0914128422737121,0,0,0
8110,280828.8644585903,2010-10-18 23:13:24,660.3340355162097,2,25,0.550297200679779,3.814041376113892,24.15821958015472,24.07114218440138,96.39023359129514,87.90636667659419,0.0001295089750783,0.0914128422737121,0,0,0
8111,280858.87963127607,2010-10-18 23:13:54,690.3492081769178,2,25,0.5501165986061096,3.817117214202881,24.162806227025957,24.07114218440138,96.40773401469735,87.90636667659419,9.713172767078504e-05,0.0914128422737121,0,0,0
8112,280888.8948051949,2010-10-18 23:14:24,720.3643821208242,2,25,0.550297200679779,3.82035493850708,24.16739281192987,24.07114218440138,96.4252485671237,87.90636667659419,9.713172767078504e-05,0.0914128422737121,0,0,0
8113,280918.9101413732,2010-10-18 23:14:54,750.379718284031,2,25,0.5499359965324402,3.823430776596069,24.171979429059213,24.07114218440138,96.4427779272974,87.90636667659419,6.47544875391759e-05,0.0914128422737121,0,0,0
8114,280948.9253032921,2010-10-18 23:15:24,780.3948802079799,2,25,0.5501165986061096,3.8268303871154794,24.176565969071184,24.07114218440138,96.46032205246452,87.90636667659419,9.713172767078504e-05,0.0914128422737121,0,0,0
8115,280978.9407530183,2010-10-18 23:15:54,810.4103299342206,2,25,0.5499359965324402,3.8300681114196777,24.18115264513873,24.07114218440138,96.47788214492472,87.90636667659419,3.237724376958795e-05,0.0914128422737121,0,0,0
8116,281008.9555448649,2010-10-18 23:16:24,840.4251217858355,2,25,0.5501165986061096,3.8336293697357178,24.18573926695481,24.07114218440138,96.49545772844596,87.90636667659419,9.70840483205393e-05,0.0914128422737121,0,0,0
8117,281038.9708749931,2010-10-18 23:16:54,870.4404518789136,2,25,0.5501165986061096,3.837190866470337,24.19032587314449,24.07114218440138,96.51304908128095,87.90636667659419,9.713172767078504e-05,0.0914128422737121,0,0,0
8118,281068.9859106924,2010-10-18 23:17:24,900.455487568247,2,25,0.550297200679779,3.840590476989746,24.19491248905591,24.07114218440138,96.53065628827396,87.90636667659419,9.713172767078504e-05,0.0914128422737121,0,0,0
8119,281099.001099749,2010-10-18 23:17:54,930.470676740106,2,25,0.5501165986061096,3.8439900875091553,24.19949910699328,24.07114218440138,96.5482791204139,87.90636667659419,0.0001295089750783,0.0914128422737121,0,0,0
8120,281129.0157537069,2010-10-18 23:18:24,960.485330317098,2,25,0.550297200679779,3.847389698028565,24.20408560852941,24.07114218440138,96.5659169077082,87.90636667659419,0.0001295089750783,0.0914128422737121,0,0,0
8121,281159.03099629696,2010-10-18 23:18:54,990.5005728770168,2,25,0.550297200679779,3.8504655361175537,24.208672263603216,24.07114218440138,96.58357037601604,87.90636667659419,6.47544875391759e-05,0.0914128422737121,0,0,0
8122,281189.03111936443,2010-10-18 23:19:24,1020.5006963555322,2,25,0.550297200679779,3.853703260421753,24.21325664877228,24.07114218440138,96.60122989267776,87.90636667659419,9.713172767078504e-05,0.0914128422737121,0,0,0
8123,281219.0462410631,2010-10-18 23:19:54,1050.5158179690152,2,25,0.5501165986061096,3.856779098510742,24.21784316690696,24.07114218440138,96.61891214609756,87.90636667659419,6.47544875391759e-05,0.0914128422737121,0,0,0
8124,281249.0613960097,2010-10-18 23:20:24,1080.5309729105616,2,25,0.5501165986061096,3.860016822814941,24.222429742506243,24.07114218440138,96.63660886789184,87.90636667659419,0.0001295089750783,0.0914128422737121,0,0,0
8125,281279.07660404855,2010-10-18 23:20:54,1110.5461809494432,2,25,0.5501165986061096,3.8629307746887207,24.22701638070585,24.07114218440138,96.6543196529673,87.90636667659419,9.713172767078504e-05,0.0914128422737121,0,0,0
8126,281309.091783035,2010-10-18 23:21:24,1140.5613599359172,2,25,0.5501165986061096,3.8658447265625,24.23160298911433,24.07114218440138,96.67204366327589,87.90636667659419,0.0001295089750783,0.0914128422737121,0,0,0
8127,281339.1069463224,2010-10-18 23:21:54,1170.576523223264,2,25,0.5501165986061096,3.8684349060058594,24.236189592223564,24.07114218440138,96.68978047578544,87.90636667659419,6.47544875391759e-05,0.0914128422737121,0,0,0
8128,281369.1221494942,2010-10-18 23:22:24,1200.5917263950157,2,25,0.550297200679779,3.8711869716644287,24.24077620284405,24.07114218440138,96.70752954096558,87.90636667659419,9.713172767078504e-05,0.0914128422737121,0,0,0
8129,281399.1373433928,2010-10-18 23:22:54,1230.6069202635802,2,25,0.5499359965324402,3.873453378677368,24.24536284374348,24.07114218440138,96.7252904279534,87.90636667659419,6.47544875391759e-05,0.0914128422737121,0,0,0
8130,281429.15270201693,2010-10-18 23:23:24,1260.6222788977914,2,25,0.5499359965324402,3.875719785690308,24.24994949450327,24.07114218440138,96.74306224784496,87.90636667659419,3.237724376958795e-05,0.0914128422737121,0,0,0
8131,281459.1678199964,2010-10-18 23:23:54,1290.637396997517,2,25,0.550297200679779,3.878148078918457,24.254536059792045,24.07114218440138,96.76084416680244,87.90636667659419,6.47544875391759e-05,0.0914128422737121,0,0,0
8132,281489.18286704406,2010-10-18 23:24:24,1320.652443944909,2,25,0.5501165986061096,3.8802525997161865,24.259122657124347,24.07114218440138,96.7786359339448,87.90636667659419,6.47544875391759e-05,0.0914128422737121,0,0,0
8133,281519.1981634331,2010-10-18 23:24:54,1350.6677403339863,2,25,0.5501165986061096,3.882033348083496,24.263709133451737,24.07114218440138,96.79643627165578,87.90636667659419,6.47544875391759e-05,0.0914128422737121,0,0,0
8134,281549.21340268984,2010-10-18 23:25:24,1380.6829795906722,2,25,0.5501165986061096,3.883652210235596,24.26829577177368,24.07114218440138,96.81424575386647,87.90636667659419,3.237724376958795e-05,0.0914128422737121,0,0,0
8135,281579.2284593263,2010-10-18 23:25:54,1410.6980362222,2,25,0.5501165986061096,3.885432958602905,24.272882373680822,24.07114218440138,96.83206293564768,87.90636667659419,6.47544875391759e-05,0.0914128422737121,0,0,0
8136,281609.24366110464,2010-10-18 23:26:24,1440.7132380355654,2,25,0.5501165986061096,3.887051820755005,24.277468969160893,24.07114218440138,96.8498874440306,87.90636667659419,0.0,0.0914128422737121,0,0,0
8137,281639.25884150463,2010-10-18 23:26:54,1470.7284184405753,2,25,0.5501165986061096,3.888346910476685,24.28205558312201,24.07114218440138,96.86771892306116,87.90636667659419,3.237724376958795e-05,0.0914128422737121,0,0,0
8138,281669.2740237141,2010-10-18 23:27:24,1500.7436006300318,2,25,0.5501165986061096,3.889642000198364,24.286642158342502,24.07114218440138,96.885556825779,87.90636667659419,3.237724376958795e-05,0.0914128422737121,0,0,0
8139,281699.2893376169,2010-10-18 23:27:54,1530.7589144976712,2,25,0.5501165986061096,3.891098976135254,24.29122883856501,24.07114218440138,96.90340140278396,87.90636667659419,3.237724376958795e-05,0.0914128422737121,0,0,0
8140,281729.3043941131,2010-10-18 23:28:24,1560.7739710339615,2,25,0.5499359965324402,3.8923940658569336,24.29581550411427,24.07114218440138,96.92125200039824,87.90636667659419,3.237724376958795e-05,0.0914128422737121,0,0,0
8141,281759.3195824127,2010-10-18 23:28:54,1590.789159323622,2,25,0.550297200679779,3.8938510417938232,24.30040219629183,24.07114218440138,96.93910864141324,87.90636667659419,3.237724376958795e-05,0.0914128422737121,0,0,0
8142,281789.3348927215,2010-10-18 23:29:24,1620.8044696323916,2,25,0.5501165986061096,3.894822359085083,24.30498891232789,24.07114218440138,96.95697118734424,87.90636667659419,0.0,0.0914128422737121,0,0,0
8143,281819.34993204987,2010-10-18 23:29:54,1650.819508945757,2,25,0.5501165986061096,3.8961174488067623,24.309575499279937,24.07114218440138,96.97483847919489,87.90636667659419,0.0,0.0914128422737121,0,0,0
8144,281849.3651249861,2010-10-18 23:30:25,1680.8347018920233,2,25,0.5501165986061096,3.897574424743652,24.31416205221124,24.07114218440138,96.99271161870126,87.90636667659419,3.237724376958795e-05,0.0914128422737121,0,0,0
8145,281879.38030447386,2010-10-18 23:30:55,1710.849881344659,2,25,0.5499359965324402,3.898869514465332,24.318748644094185,24.07114218440138,97.01059062219016,87.90636667659419,6.47544875391759e-05,0.0914128422737121,0,0,0
8146,281909.3955230139,2010-10-18 23:31:25,1740.8650999348376,2,25,0.5501165986061096,3.900164604187012,24.323335238195465,24.07114218440138,97.02847541521466,87.90636667659419,6.47544875391759e-05,0.0914128422737121,0,0,0
8147,281939.41059499874,2010-10-18 23:31:55,1770.880172004843,2,25,0.5499359965324402,3.901135921478272,24.327921809534025,24.07114218440138,97.04636579406002,87.90636667659419,3.237724376958795e-05,0.0914128422737121,0,0,0
8148,281969.4259456029,2010-10-18 23:32:25,1800.8955225037785,2,25,0.550297200679779,3.902592897415161,24.332509188994685,24.07114218440138,97.06426519993468,87.90636667659419,6.47544875391759e-05,0.0914128422737121,0,0,0
8149,281999.4411045795,2010-10-18 23:32:55,1830.9106814653444,2,25,0.5501165986061096,3.903726100921631,24.337096568261444,24.07114218440138,97.0821703622336,87.90636667659419,0.0,0.0914128422737121,0,0,0
8150,282029.456245045,2010-10-18 23:33:25,1860.9258219759245,2,25,0.5501165986061096,3.905021190643311,24.34168315333753,24.07114218440138,97.10007822624068,87.90636667659419,3.237724376958795e-05,0.0914128422737121,0,0,0
8151,282059.4714927126,2010-10-18 23:33:55,1890.9410696134985,2,25,0.5501165986061096,3.9063162803649902,24.34626975529249,24.07114218440138,97.11799189640384,87.90636667659419,0.0,0.0914128422737121,0,0,0
8152,282089.4866523258,2010-10-18 23:34:25,1920.9562292266885,2,25,0.5501165986061096,3.90761137008667,24.350856303277443,24.07114218440138,97.1359113462038,87.90636667659419,3.237724376958795e-05,0.0914128422737121,0,0,0
8153,282119.501857678,2010-10-18 23:34:55,1950.9714345688485,2,25,0.5497553944587708,3.90874457359314,24.355442759332917,24.07114218440138,97.15383634790209,87.90636667659419,0.0,0.0914128422737121,0,0,0
8154,282149.5170300279,2010-10-18 23:35:25,1980.9866069288075,2,25,0.5501165986061096,3.910201549530029,24.360029251799265,24.07114218440138,97.17176753830122,87.90636667659419,3.237724376958795e-05,0.0914128422737121,0,0,0
8155,282179.5322355455,2010-10-18 23:35:55,2011.0018124263547,2,25,0.5501165986061096,3.911496639251709,24.364615800887684,24.07114218440138,97.18970492430104,87.90636667659419,0.0,0.0914128422737121,0,0,0
8156,282209.5473995547,2010-10-18 23:36:25,2041.016976470588,2,25,0.5499359965324402,3.9127917289733887,24.369202346460057,24.07114218440138,97.20764838602328,87.90636667659419,0.0,0.0914128422737121,0,0,0
8157,282239.56257425045,2010-10-18 23:36:55,2071.0321511262687,2,25,0.5497553944587708,3.9139246940612793,24.37378883292745,24.07114218440138,97.22559768461755,87.90636667659419,-3.237724376958795e-05,0.0914128422737121,0,0,0
8158,282269.5777701641,2010-10-18 23:37:25,2101.04734703993,2,25,0.5501165986061096,3.915543556213379,24.37837533107509,24.07114218440138,97.2435532554821,87.90636667659419,0.0,0.0914128422737121,0,0,0
8159,282299.59294291004,2010-10-18 23:37:55,2131.0625198008884,2,25,0.5501165986061096,3.9168386459350586,24.38296191093809,24.07114218440138,97.261515182722,87.90636667659419,3.237724376958795e-05,0.0914128422737121,0,0,0
8160,282329.6081549539,2010-10-18 23:38:25,2161.0777319249514,2,25,0.5501165986061096,3.918295621871948,24.387548502992267,24.07114218440138,97.2794835417778,87.90636667659419,3.237724376958795e-05,0.0914128422737121,0,0,0
8161,282359.6233267224,2010-10-18 23:38:55,2191.092903603211,2,25,0.5501165986061096,3.919752597808838,24.392135033596663,24.07114218440138,97.29745793368204,87.90636667659419,6.47544875391759e-05,0.0914128422737121,0,0,0
8162,282389.63873176224,2010-10-18 23:39:25,2221.108308788442,2,25,0.5501165986061096,3.920885801315308,24.39672162855816,24.07114218440138,97.31543893675224,87.90636667659419,0.0,0.0914128422737121,0,0,0
8163,282419.6563643739,2010-10-18 23:39:55,2251.12594128983,2,25,0.5501165986061096,3.9225046634674072,24.401308494790484,24.07114218440138,97.3334273613508,87.90636667659419,9.713172767078504e-05,0.0914128422737121,0,0,0
8164,282449.66888129566,2010-10-18 23:40:25,2281.138458296832,2,25,0.5499359965324402,3.923799753189087,24.40589470465316,24.07114218440138,97.35141967285436,87.90636667659419,3.237724376958795e-05,0.0914128422737121,0,0,0
8165,282479.68411625165,2010-10-18 23:40:55,2311.153693157562,2,25,0.5501165986061096,3.925256729125977,24.410481290964157,24.07114218440138,97.36941998967572,87.90636667659419,6.47544875391759e-05,0.0914128422737121,0,0,0
8166,282509.69926375966,2010-10-18 23:41:25,2341.168840640519,2,25,0.5501165986061096,3.926713705062866,24.415067805606245,24.07114218440138,97.38742644359324,87.90636667659419,3.237724376958795e-05,0.0914128422737121,0,0,0
8167,282539.7144537286,2010-10-18 23:41:55,2371.18403065949,2,25,0.5501165986061096,3.928008794784546,24.419654292818677,24.07114218440138,97.4054394369401,87.90636667659419,0.0,0.0914128422737121,0,0,0
8168,282569.72974837327,2010-10-18 23:42:25,2401.1993252941948,2,25,0.5501165986061096,3.9296276569366455,24.424240786757,24.07114218440138,97.42345909854922,87.90636667659419,6.47544875391759e-05,0.0914128422737121,0,0,0
8169,282599.74479851866,2010-10-18 23:42:55,2431.214375399458,2,25,0.5501165986061096,3.931084632873535,24.42882728713235,24.07114218440138,97.44148558814814,87.90636667659419,6.47544875391759e-05,0.0914128422737121,0,0,0
8170,282629.75999564026,2010-10-18 23:43:25,2461.2295725111044,2,25,0.5501165986061096,3.932541608810425,24.433413842371515,24.07114218440138,97.45951896887937,87.90636667659419,3.237724376958795e-05,0.0914128422737121,0,0,0
8171,282659.7754130911,2010-10-18 23:43:55,2491.2449900771926,2,25,0.5499359965324402,3.9339985847473145,24.438000442108404,24.07114218440138,97.47755934492106,87.90636667659419,3.237724376958795e-05,0.0914128422737121,0,0,0
8172,282689.7903642999,2010-10-18 23:44:25,2521.2599411907368,2,25,0.5501165986061096,3.935455560684204,24.44258695766121,24.07114218440138,97.4956062868209,87.90636667659419,3.237724376958795e-05,0.0914128422737121,0,0,0
8173,282719.805671125,2010-10-18 23:44:55,2551.275248005799,2,25,0.5501165986061096,3.937074422836304,24.44717364622054,24.07114218440138,97.51366073398668,87.90636667659419,6.47544875391759e-05,0.0914128422737121,0,0,0
8174,282749.8207609843,2010-10-18 23:45:25,2581.2903378801784,2,25,0.5497553944587708,3.938369512557984,24.4517601988698,24.07114218440138,97.53172168004804,87.90636667659419,0.0,0.0914128422737121,0,0,0
8175,282779.83592092834,2010-10-18 23:45:55,2611.3054978041428,2,25,0.5501165986061096,3.939988374710083,24.456346782211583,24.07114218440138,97.54978976125037,87.90636667659419,0.0,0.0914128422737121,0,0,0
8176,282809.8511083208,2010-10-18 23:46:25,2641.3206851915543,2,25,0.5501165986061096,3.941607236862183,24.4609333494304,24.07114218440138,97.56786487451186,87.90636667659419,3.237724376958795e-05,0.0914128422737121,0,0,0
8177,282839.8662948961,2010-10-18 23:46:55,2671.335871766942,2,25,0.5499359965324402,3.943064212799072,24.465519915008027,24.07114218440138,97.58594705895838,87.90636667659419,0.0,0.0914128422737121,0,0,0
8178,282869.88150218315,2010-10-18 23:47:25,2701.3510790840246,2,25,0.5501165986061096,3.944844961166382,24.47010646794465,24.07114218440138,97.60403638384204,87.90636667659419,9.713172767078504e-05,0.0914128422737121,0,0,0
8179,282899.89677838696,2010-10-18 23:47:55,2731.366355393057,2,25,0.5501165986061096,3.9464638233184814,24.474693050866797,24.07114218440138,97.62213308119291,87.90636667659419,6.47544875391759e-05,0.0914128422737121,0,0,0
8180,282929.91212427936,2010-10-18 23:48:25,2761.3817011902743,2,25,0.5501165986061096,3.947920799255371,24.4792796600061,24.07114218440138,97.6402370490096,87.90636667659419,3.237724376958795e-05,0.0914128422737121,0,0,0
8181,282959.9270630572,2010-10-18 23:48:55,2791.396639993137,2,25,0.5497553944587708,3.949539661407471,24.48386615499913,24.07114218440138,97.65834791122478,87.90636667659419,3.237724376958795e-05,0.0914128422737121,0,0,0
8182,282989.9422422191,2010-10-18 23:49:25,2821.411819114948,2,25,0.550297200679779,3.95132040977478,24.488452674707663,24.07114218440138,97.67646625260318,87.90636667659419,9.713172767078504e-05,0.0914128422737121,0,0,0
8183,283019.9574056167,2010-10-18 23:49:55,2851.42698251257,2,25,0.5499359965324402,3.95277738571167,24.4930392916187,24.07114218440138,97.69459242703772,87.90636667659419,3.237724376958795e-05,0.0914128422737121,0,0,0
8184,283049.9725991344,2010-10-18 23:50:25,2881.442176005198,2,25,0.5501165986061096,3.9543962478637695,24.49762584457488,24.07114218440138,97.71272584763464,87.90636667659419,6.47544875391759e-05,0.0914128422737121,0,0,0
8185,283079.98780018085,2010-10-18 23:50:55,2911.4573770967645,2,25,0.5499359965324402,3.956015110015869,24.50221248789192,24.07114218440138,97.73086718824187,87.90636667659419,3.237724376958795e-05,0.0914128422737121,0,0,0
8186,283110.0029785107,2010-10-18 23:51:25,2941.4725554165766,2,25,0.5499359965324402,3.9576339721679688,24.506799054092458,24.07114218440138,97.74901577858124,87.90636667659419,3.237724376958795e-05,0.0914128422737121,0,0,0
8187,283140.0181799431,2010-10-18 23:51:55,2971.48775694423,2,25,0.5499359965324402,3.959252834320069,24.51138560659508,24.07114218440138,97.76717203944594,87.90636667659419,0.0,0.0914128422737121,0,0,0
8188,283170.0334048641,2010-10-18 23:52:25,3001.502982677211,2,25,0.550297200679779,3.961033582687378,24.51597222045207,24.07114218440138,97.78533631973195,87.90636667659419,0.0,0.0914128422737121,0,0,0
8189,283200.04853243235,2010-10-18 23:52:55,3031.518109368349,2,25,0.5499359965324402,3.962814331054688,24.520558762408537,24.07114218440138,97.803508070904,87.90636667659419,6.47544875391759e-05,0.0914128422737121,0,0,0
8190,283230.0637232183,2010-10-18 23:53:25,3061.533300119143,2,25,0.5501165986061096,3.964595079421997,24.52514534018882,24.07114218440138,97.82168788319814,87.90636667659419,6.47544875391759e-05,0.0914128422737121,0,0,0
8191,283260.0789028764,2010-10-18 23:53:55,3091.548479807366,2,25,0.5499359965324402,3.9662139415740967,24.52973185825661,24.07114218440138,97.83987533103064,87.90636667659419,3.237724376958795e-05,0.0914128422737121,0,0,0
8192,283290.09408208844,2010-10-18 23:54:25,3121.5636589642645,2,25,0.5501165986061096,3.9679946899414062,24.53431849031641,24.07114218440138,97.85807121595556,87.90636667659419,6.47544875391759e-05,0.0914128422737121,0,0,0
8193,283320.10927211243,2010-10-18 23:54:55,3151.5788489832357,2,25,0.5499359965324402,3.969775438308716,24.538905059296056,24.07114218440138,97.87627487910828,87.90636667659419,3.237724376958795e-05,0.0914128422737121,0,0,0
8194,283350.1247012774,2010-10-18 23:55:25,3181.594278303618,2,25,0.5499359965324402,3.9715561866760254,24.543491653060737,24.07114218440138,97.89448672072788,87.90636667659419,3.237724376958795e-05,0.0914128422737121,0,0,0
8195,283380.139815703,2010-10-18 23:55:55,3211.609392633949,2,25,0.550297200679779,3.973336935043335,24.54807827390685,24.07114218440138,97.91270686753434,87.90636667659419,3.237724376958795e-05,0.0914128422737121,0,0,0
8196,283410.154828776,2010-10-18 23:56:25,3241.624405646766,2,25,0.5499359965324402,3.975117683410645,24.552664828571704,24.07114218440138,97.93093497227044,87.90636667659419,6.47544875391759e-05,0.0914128422737121,0,0,0
8197,283440.17001641897,2010-10-18 23:56:55,3271.6395932898145,2,25,0.550297200679779,3.977060317993164,24.557251505144677,24.07114218440138,97.94917186631496,87.90636667659419,9.713172767078504e-05,0.0914128422737121,0,0,0
8198,283470.18524025223,2010-10-18 23:57:25,3301.6548172233106,2,25,0.5499359965324402,3.9788410663604736,24.561838159522424,24.07114218440138,97.96741667287144,87.90636667659419,3.237724376958795e-05,0.0914128422737121,0,0,0
8199,283500.2003905823,2010-10-18 23:57:55,3331.669967463139,2,25,0.5501165986061096,3.980621814727783,24.56642459929747,24.07114218440138,97.98566958344544,87.90636667659419,6.47544875391759e-05,0.0914128422737121,0,0,0
8200,283530.2156891318,2010-10-18 23:58:25,3361.685266037663,2,25,0.5501165986061096,3.982564449310303,24.571011061638067,24.07114218440138,98.00393122800725,87.90636667659419,6.47544875391759e-05,0.0914128422737121,0,0,0
8201,283560.2307574224,2010-10-18 23:58:55,3391.7003342931616,2,25,0.550297200679779,3.984668970108032,24.575597455387072,24.07114218440138,98.02220125232932,87.90636667659419,6.47544875391759e-05,0.0914128422737121,0,0,0
8202,283590.2460045236,2010-10-18 23:59:25,3421.715581454548,2,25,0.5501165986061096,3.986449718475342,24.58018395579868,24.07114218440138,98.04048055198122,87.90636667659419,6.47544875391759e-05,0.0914128422737121,0,0,0
8203,283620.2612874541,2010-10-18 23:59:55,3451.730864334957,2,25,0.5501165986061096,3.988392353057861,24.584770472712265,24.07114218440138,98.05876878773825,87.90636667659419,3.237724376958795e-05,0.0914128422737121,0,0,0
8204,283650.27635667706,2010-10-19 00:00:25,3481.745933577917,2,25,0.5501165986061096,3.990173101425171,24.58935692622888,24.07114218440138,98.07706570273136,87.90636667659419,0.0,0.0914128422737121,0,0,0
8205,283680.29157282616,2010-10-19 00:00:55,3511.7611497270123,2,25,0.5499359965324402,3.992277622222901,24.59394335760016,24.07114218440138,98.0953715941467,87.90636667659419,6.47544875391759e-05,0.0914128422737121,0,0,0
8206,283710.30673536664,2010-10-19 00:01:25,3541.77631227251,2,25,0.5501165986061096,3.994381904602051,24.598529861706098,24.07114218440138,98.11368700110822,87.90636667659419,6.47544875391759e-05,0.0914128422737121,0,0,0
8207,283740.321906268,2010-10-19 00:01:55,3571.791483148771,2,25,0.5501165986061096,3.9963245391845694,24.603116381842177,24.07114218440138,98.13201178794012,87.90636667659419,3.237724376958795e-05,0.0914128422737121,0,0,0
8208,283770.3372143562,2010-10-19 00:02:26,3601.806791237006,2,25,0.5501165986061096,3.9984290599823,24.607702894441417,24.07114218440138,98.15034602368831,87.90636667659419,6.47544875391759e-05,0.0914128422737121,0,0,0
8209,283800.3523020652,2010-10-19 00:02:56,3631.821878961026,2,25,0.5501165986061096,4.000533580780029,24.61228926613319,24.07114218440138,98.16868909149208,87.90636667659419,3.23295607813634e-05,0.0914128422737121,0,0,0
8210,283830.367479994,2010-10-19 00:03:26,3661.8370568648015,2,25,0.5501165986061096,4.002799987792969,24.616875653118985,24.07114218440138,98.18704194470295,87.90636667659419,9.70840483205393e-05,0.0914128422737121,0,0,0
8211,283860.3826647148,2010-10-19 00:03:56,3691.8522416256674,2,25,0.5499359965324402,4.004580974578857,24.62146216644648,24.07114218440138,98.20540506944376,87.90636667659419,-3.23295607813634e-05,0.0914128422737121,0,0,0
8212,283890.39784511976,2010-10-19 00:04:26,3721.867422025664,2,25,0.5501165986061096,4.007009029388428,24.626048627278667,24.07114218440138,98.2237778243924,87.90636667659419,6.47544875391759e-05,0.0914128422737121,0,0,0
8213,283920.4130128231,2010-10-19 00:04:56,3751.882589718992,2,25,0.5501165986061096,4.008951663970947,24.63063516170927,24.07114218440138,98.24216083899788,87.90636667659419,6.47544875391759e-05,0.0914128422737121,0,0,0
8214,283950.4283355228,2010-10-19 00:05:26,3781.8979124537314,2,25,0.5501165986061096,4.011380195617676,24.63522163100041,24.07114218440138,98.26055359696782,87.90636667659419,6.47544875391759e-05,0.0914128422737121,0,0,0
8215,283980.4434314974,2010-10-19 00:05:56,3811.913008398239,2,25,0.5501165986061096,4.013646602630615,24.639808086337837,24.07114218440138,98.27895648489311,87.90636667659419,6.47544875391759e-05,0.0914128422737121,0,0,0
8216,284010.45864054875,2010-10-19 00:06:26,3841.9282174596688,2,25,0.5501165986061096,4.015750885009766,24.644394566643687,24.07114218440138,98.2973696955221,87.90636667659419,6.47544875391759e-05,0.0914128422737121,0,0,0
8217,284040.47380941006,2010-10-19 00:06:56,3871.943386280808,2,25,0.5501165986061096,4.018017292022705,24.648980988178742,24.07114218440138,98.3157929864377,87.90636667659419,3.23295607813634e-05,0.0914128422737121,0,0,0
8218,284070.4890021207,2010-10-19 00:07:26,3901.958579001511,2,25,0.5499359965324402,4.0202836990356445,24.6535674834283,24.07114218440138,98.33422690570475,87.90636667659419,3.23295607813634e-05,0.0914128422737121,0,0,0
8219,284100.50418402447,2010-10-19 00:07:56,3931.9737609303183,2,25,0.5499359965324402,4.022550106048584,24.65815393819189,24.07114218440138,98.35267111447789,87.90636667659419,6.47544875391759e-05,0.0914128422737121,0,0,0
8220,284130.5193589057,2010-10-19 00:08:26,3961.9889357915113,2,25,0.550297200679779,4.0249786376953125,24.66274042054229,24.07114218440138,98.37112597361748,87.90636667659419,9.71794142969884e-05,0.0914128422737121,0,0,0
8221,284160.53468757024,2010-10-19 00:08:56,3992.004264481091,2,25,0.5499359965324402,4.027082920074463,24.667326907293475,24.07114218440138,98.3895914277842,87.90636667659419,3.23295607813634e-05,0.0914128422737121,0,0,0
8222,284190.5497784922,2010-10-19 00:09:26,4022.0193554030816,2,25,0.550297200679779,4.029511451721191,24.67191338258005,24.07114218440138,98.40806760757413,87.90636667659419,3.24249267578125e-05,0.0914128422737121,0,0,0
8223,284220.56512951246,2010-10-19 00:09:56,4052.034706433341,2,25,0.5499359965324402,4.031939506530762,24.676499444030096,24.07114218440138,98.42655286052556,87.90636667659419,3.23295607813634e-05,0.0914128422737121,0,0,0
8224,284250.5801193274,2010-10-19 00:10:26,4082.049696208242,2,25,0.5497553944587708,4.034367561340332,24.68108494754553,24.07114218440138,98.44504677627656,87.90636667659419,9.70840483205393e-05,0.0914128422737121,0,0,0
8225,284280.59529955697,2010-10-19 00:10:56,4112.064876457865,2,25,0.5499359965324402,4.0367960929870605,24.6856704898064,24.07114218440138,98.4635518506911,87.90636667659419,6.47544875391759e-05,0.0914128422737121,0,0,0
8226,284310.6106885018,2010-10-19 00:11:26,4142.080265402618,2,25,0.5501165986061096,4.039224147796631,24.69025614878955,24.07114218440138,98.48206860782302,87.90636667659419,6.47544875391759e-05,0.0914128422737121,0,0,0
8227,284340.6283522159,2010-10-19 00:11:56,4172.097929222061,2,25,0.5501165986061096,4.041652679443359,24.694842540614125,24.07114218440138,98.50059955006266,87.90636667659419,6.47544875391759e-05,0.0914128422737121,0,0,0
8228,284370.64093704696,2010-10-19 00:12:26,4202.110513972902,2,25,0.5501165986061096,4.04408073425293,24.69942855556615,24.07114218440138,98.51914042966048,87.90636667659419,6.47544875391759e-05,0.0914128422737121,0,0,0
8229,284400.65606669546,2010-10-19 00:12:56,4232.125643616398,2,25,0.5501165986061096,4.046670913696289,24.704015056514397,24.07114218440138,98.53769468904107,87.90636667659419,6.47544875391759e-05,0.0914128422737121,0,0,0
8230,284430.6712893107,2010-10-19 00:13:26,4262.140866221584,2,25,0.550297200679779,4.0494232177734375,24.70860147931269,24.07114218440138,98.55626017670322,87.90636667659419,9.71794142969884e-05,0.0914128422737121,0,0,0
8231,284460.6864651994,2010-10-19 00:13:56,4292.156042115349,2,25,0.5501165986061096,4.051851272583008,24.713187940301925,24.07114218440138,98.57483747860964,87.90636667659419,6.47544875391759e-05,0.0914128422737121,0,0,0
8232,284490.70174295205,2010-10-19 00:14:26,4322.171319837904,2,25,0.5501165986061096,4.054279804229736,24.717774447529035,24.07114218440138,98.5934267907116,87.90636667659419,3.24249267578125e-05,0.0914128422737121,0,0,0
8233,284520.7168057389,2010-10-19 00:14:56,4352.186382614747,2,25,0.5501165986061096,4.057031631469727,24.72236092019152,24.07114218440138,98.61202790486008,87.90636667659419,9.70840483205393e-05,0.0914128422737121,0,0,0
8234,284550.7320169407,2010-10-19 00:15:26,4382.2015938115,2,25,0.5499359965324402,4.059621810913086,24.72694741980565,24.07114218440138,98.63064118502687,87.90636667659419,9.70840483205393e-05,0.0914128422737121,0,0,0
8235,284580.7474537948,2010-10-19 00:15:56,4412.217030921296,2,25,0.5501165986061096,4.062211990356445,24.73153393386714,24.07114218440138,98.64926637172344,87.90636667659419,9.70840483205393e-05,0.0914128422737121,0,0,0
8236,284610.7623638561,2010-10-19 00:16:26,4442.231940736913,2,25,0.5501165986061096,4.064964294433594,24.736120381174093,24.07114218440138,98.6679035662516,87.90636667659419,9.71794142969884e-05,0.0914128422737121,0,0,0
8237,284640.77757486235,2010-10-19 00:16:56,4472.24715174319,2,25,0.5501165986061096,4.067554473876953,24.740706895435057,24.07114218440138,98.68655342577824,87.90636667659419,3.24249267578125e-05,0.0914128422737121,0,0,0
8238,284670.7927544553,2010-10-19 00:17:26,4502.262331326151,2,25,0.5501165986061096,4.070306301116943,24.74529332519964,24.07114218440138,98.7052154721672,87.90636667659419,6.47544875391759e-05,0.0914128422737121,0,0,0
8239,284700.80793077016,2010-10-19 00:17:56,4532.277507671041,2,25,0.5501165986061096,4.073058605194092,24.749879755247036,24.07114218440138,98.7238900044573,87.90636667659419,6.47544875391759e-05,0.0914128422737121,0,0,0
8240,284730.82324509893,2010-10-19 00:18:26,4562.292821984793,2,25,0.5501165986061096,4.075810432434082,24.754466152632773,24.07114218440138,98.74257712203725,87.90636667659419,6.47544875391759e-05,0.0914128422737121,0,0,0
8241,284760.8383057906,2010-10-19 00:18:56,4592.307882671427,2,25,0.5499359965324402,4.078724384307861,24.75905250748809,24.07114218440138,98.761276871145,87.90636667659419,9.70840483205393e-05,0.0914128422737121,0,0,0
8242,284790.8535038145,2010-10-19 00:19:26,4622.323080695349,2,25,0.5501165986061096,4.08147668838501,24.76363895814386,24.07114218440138,98.7799899909606,87.90636667659419,6.47544875391759e-05,0.0914128422737121,0,0,0
8243,284820.86868469074,2010-10-19 00:19:56,4652.338261571532,2,25,0.5499359965324402,4.084228515625,24.76822535375157,24.07114218440138,98.79871589491124,87.90636667659419,6.47544875391759e-05,0.0914128422737121,0,0,0
8244,284850.88428287697,2010-10-19 00:20:26,4682.353859873068,2,25,0.550297200679779,4.087304592132568,24.772811812329465,24.07114218440138,98.8174553312576,87.90636667659419,9.71794142969884e-05,0.0914128422737121,0,0,0
8245,284880.8990750443,2010-10-19 00:20:56,4712.368651925183,2,25,0.5501165986061096,4.090218544006348,24.7773982069606,24.07114218440138,98.83620791191672,87.90636667659419,9.71794142969884e-05,0.0914128422737121,0,0,0
8246,284910.9142658804,2010-10-19 00:21:26,4742.383842756178,2,25,0.5501165986061096,4.092970371246338,24.781984639695988,24.07114218440138,98.8549740457943,87.90636667659419,6.47544875391759e-05,0.0914128422737121,0,0,0
8247,284940.9294418794,2010-10-19 00:21:56,4772.3990187852805,2,25,0.550297200679779,4.096208095550537,24.786571104456463,24.07114218440138,98.87375382978456,87.90636667659419,9.70840483205393e-05,0.0914128422737121,0,0,0
8248,284970.94464183814,2010-10-19 00:22:26,4802.414218839261,2,25,0.5501165986061096,4.099122047424316,24.791157590370556,24.07114218440138,98.89254734075342,87.90636667659419,6.47544875391759e-05,0.0914128422737121,0,0,0
8249,285000.95981771685,2010-10-19 00:22:56,4832.42939459769,2,25,0.5501165986061096,4.102035999298096,24.79574410477269,24.07114218440138,98.911354718855,87.90636667659419,9.70840483205393e-05,0.0914128422737121,0,0,0
8250,285030.9750130792,2010-10-19 00:23:26,4862.444589959977,2,25,0.5501165986061096,4.104949951171875,24.80033060409041,24.07114218440138,98.93017585983732,87.90636667659419,6.47544875391759e-05,0.0914128422737121,0,0,0
8251,285060.99021252163,2010-10-19 00:23:56,4892.459789452559,2,25,0.5499359965324402,4.108026027679443,24.804917023251218,24.07114218440138,98.94901070945453,87.90636667659419,6.47544875391759e-05,0.0914128422737121,0,0,0
8252,285091.00537527265,2010-10-19 00:24:26,4922.474952148432,2,25,0.5501165986061096,4.111263751983643,24.80950347965982,24.07114218440138,98.96785981335024,87.90636667659419,9.71794142969884e-05,0.0914128422737121,0,0,0
8253,285121.0205641588,2010-10-19 00:24:56,4952.490141059641,2,25,0.5499359965324402,4.114339351654053,24.81408993592854,24.07114218440138,98.98672310232578,87.90636667659419,6.47544875391759e-05,0.0914128422737121,0,0,0
8254,285151.0358977556,2010-10-19 00:25:26,4982.505474636401,2,25,0.5501165986061096,4.117577075958252,24.818676410452586,24.07114218440138,99.00560085110762,87.90636667659419,9.71794142969884e-05,0.0914128422737121,0,0,0
8255,285181.0509492794,2010-10-19 00:25:56,5012.5205261602,2,25,0.5501165986061096,4.120814800262451,24.82326289037933,24.07114218440138,99.02449299579612,87.90636667659419,0.0001295089750783,0.0914128422737121,0,0,0
8256,285211.066257122,2010-10-19 00:26:26,5042.535834002822,2,25,0.550297200679779,4.123890399932861,24.82784937224384,24.07114218440138,99.043399675559,87.90636667659419,0.0001295089750783,0.0914128422737121,0,0,0
8257,285241.0812961747,2010-10-19 00:26:56,5072.550873070576,2,25,0.5501165986061096,4.1271281242370605,24.832435830697264,24.07114218440138,99.06232093543323,87.90636667659419,9.70840483205393e-05,0.0914128422737121,0,0,0
8258,285271.0964305951,2010-10-19 00:27:26,5102.566007470928,2,25,0.5501165986061096,4.13036584854126,24.837022404123207,24.07114218440138,99.08125756056752,87.90636667659419,9.70840483205393e-05,0.0914128422737121,0,0,0
8259,285301.11180292343,2010-10-19 00:27:56,5132.581379834357,2,25,0.5501165986061096,4.133603572845459,24.841608873891357,24.07114218440138,99.10020866109798,87.90636667659419,9.70840483205393e-05,0.0914128422737121,0,0,0
8260,285331.12687126413,2010-10-19 00:28:26,5162.596448175067,2,25,0.5501165986061096,4.136841297149658,24.8461953159287,24.07114218440138,99.11917468500243,87.90636667659419,6.47544875391759e-05,0.0914128422737121,0,0,0
8261,285361.1422017032,2010-10-19 00:28:56,5192.611778583932,2,25,0.550297200679779,4.140241146087647,24.850781820246752,24.07114218440138,99.1381561624544,87.90636667659419,9.71794142969884e-05,0.0914128422737121,0,0,0
8262,285391.1573213617,2010-10-19 00:29:26,5222.626898252568,2,25,0.5501165986061096,4.143478870391846,24.855368383934067,24.07114218440138,99.15715327338503,87.90636667659419,6.47544875391759e-05,0.0914128422737121,0,0,0
8263,285421.17242792767,2010-10-19 00:29:56,5252.642004813535,2,25,0.5499359965324402,4.146878242492676,24.85995492269116,24.07114218440138,99.17616598529312,87.90636667659419,6.47544875391759e-05,0.0914128422737121,0,0,0
8264,285451.1876249892,2010-10-19 00:30:26,5282.65720186002,2,25,0.5501165986061096,4.150601863861084,24.86454147770665,24.07114218440138,99.19519445075152,87.90636667659419,0.0001295089750783,0.0914128422737121,0,0,0
8265,285481.20282926376,2010-10-19 00:30:56,5312.672406164595,2,25,0.5501165986061096,4.154001235961914,24.869128003537288,24.07114218440138,99.21423846143504,87.90636667659419,9.70840483205393e-05,0.0914128422737121,0,0,0
8266,285511.21800945315,2010-10-19 00:31:26,5342.687586329005,2,25,0.5501165986061096,4.157401084899902,24.87371450002236,24.07114218440138,99.23329806258909,87.90636667659419,9.71794142969884e-05,0.0914128422737121,0,0,0
8267,285541.2333102382,2010-10-19 00:31:56,5372.702887134088,2,25,0.550297200679779,4.1609625816345215,24.87830106648397,24.07114218440138,99.2523738693402,87.90636667659419,0.0001295089750783,0.0914128422737121,0,0,0
8268,285571.24837335094,2010-10-19 00:32:26,5402.717950276844,2,25,0.5501165986061096,4.164200305938721,24.882887589757253,24.07114218440138,99.27146546999012,87.90636667659419,6.47544875391759e-05,0.0914128422737121,0,0,0
8269,285601.26359765534,2010-10-19 00:32:56,5432.733174561214,2,25,0.5501165986061096,4.16776180267334,24.887474108478155,24.07114218440138,99.29057309571324,87.90636667659419,9.71794142969884e-05,0.0914128422737121,0,0,0
8270,285631.27883705235,2010-10-19 00:33:26,5462.7484140585,2,25,0.5499359965324402,4.17116117477417,24.892060654992445,24.07114218440138,99.30969706598626,87.90636667659419,6.47544875391759e-05,0.0914128422737121,0,0,0
8271,285661.2939590317,2010-10-19 00:33:56,5492.763535947669,2,25,0.5499359965324402,4.174884796142578,24.896647161038345,24.07114218440138,99.32883719677405,87.90636667659419,6.47544875391759e-05,0.0914128422737121,0,0,0
8272,285691.3091639879,2010-10-19 00:34:27,5522.778740989081,2,25,0.5497553944587708,4.178446292877197,24.901233664714876,24.07114218440138,99.3479937883788,87.90636667659419,6.47544875391759e-05,0.0914128422737121,0,0,0
8273,285721.32435432274,2010-10-19 00:34:57,5552.793931203538,2,25,0.5501165986061096,4.182169437408447,24.905820161823573,24.07114218440138,99.36716695625844,87.90636667659419,9.70840483205393e-05,0.0914128422737121,0,0,0
8274,285751.3395229884,2010-10-19 00:35:27,5582.809099864277,2,25,0.5499359965324402,4.185893058776856,24.910406772360307,24.07114218440138,99.38635726473282,87.90636667659419,0.0001295089750783,0.0914128422737121,0,0,0
8275,285781.35469875194,2010-10-19 00:35:57,5612.824275632731,2,25,0.5501165986061096,4.1896162033081055,24.91499328084241,24.07114218440138,99.4055639124263,87.90636667659419,9.70840483205393e-05,0.0914128422737121,0,0,0
8276,285811.3698864,2010-10-19 00:36:27,5642.839463310867,2,25,0.5501165986061096,4.193177700042725,24.91957993514792,24.07114218440138,99.42478807921135,87.90636667659419,9.70840483205393e-05,0.0914128422737121,0,0,0
8277,285841.38507867954,2010-10-19 00:36:57,5672.854655560396,2,25,0.550297200679779,4.197062969207764,24.92416650054102,24.07114218440138,99.44402886381644,87.90636667659419,0.0001295089750783,0.0914128422737121,0,0,0
8278,285865.16598071967,2010-10-19 00:37:20,5696.635557600482,2,25,0.550297200679779,4.200138568878174,24.92780043810904,24.07114218440138,99.45928553408322,87.90636667659419,0.0001618385285837,0.0914128422737121,0,0,0
8279,285895.1901965657,2010-10-19 00:37:51,30.01519599887412,3,25,0.0,4.116767406463623,24.92780043810904,24.07114218440138,99.45928553408322,87.90636667659419,-0.0003885269106831,0.0914128422737121,0,0,0
8280,285925.20536740683,2010-10-19 00:38:21,60.03036679994756,3,25,0.0,4.106407165527344,24.92780043810904,24.07114218440138,99.45928553408322,87.90636667659419,-0.0001942634553415,0.0914128422737121,0,0,0
8281,285955.22114876966,2010-10-19 00:38:51,90.04614838829082,3,25,0.0,4.100093364715576,24.92780043810904,24.07114218440138,99.45928553408322,87.90636667659419,-0.0001942634553415,0.0914128422737121,0,0,0
8282,285985.1889215904,2010-10-19 00:39:21,120.013921023551,3,25,0.0,4.096208095550537,24.92780043810904,24.07114218440138,99.45928553408322,87.90636667659419,-9.71794142969884e-05,0.0914128422737121,0,0,0
8283,285985.1997544396,2010-10-19 00:39:21,0.01574435477652,4,25,0.9927899241447448,4.199814796447754,24.927804795808925,24.07114218440138,99.45930383526238,87.90636667659419,3.23295607813634e-05,0.0914128422737121,0,0,0
8284,285986.23099919385,2010-10-19 00:39:22,1.046989114022641,4,25,0.9423999786376952,4.199653148651123,24.92808071806588,24.07114218440138,99.46046262958856,87.90636667659419,0.0,0.0914128422737121,0,0,0
8285,285988.4026962211,2010-10-19 00:39:24,3.218686131203924,4,25,0.8923711776733398,4.199653148651123,24.928633129885657,24.07114218440138,99.46278259239982,87.90636667659419,0.0,0.0914128422737121,0,0,0
8286,285991.6371991476,2010-10-19 00:39:27,6.453189087803448,4,25,0.8421618342399597,4.199653148651123,24.929411264145603,24.07114218440138,99.46605050994305,87.90636667659419,0.0,0.0914128422737121,0,0,0
8287,285996.0588504531,2010-10-19 00:39:32,10.874840363290046,4,25,0.7919524312019348,4.199653148651123,24.93041360894546,24.07114218440138,99.47026007413584,87.90636667659419,0.0,0.0914128422737121,0,0,0
8288,286001.8246605309,2010-10-19 00:39:37,16.64065054134921,4,25,0.7419236898422241,4.199653148651123,24.931640185318656,24.07114218440138,99.47541135297172,87.90636667659419,0.0,0.0914128422737121,0,0,0
8289,286009.168150307,2010-10-19 00:39:45,23.984140257256545,4,25,0.6918948888778687,4.199491024017334,24.933100438108955,24.07114218440138,99.48154399630438,87.90636667659419,-3.24249267578125e-05,0.0914128422737121,0,0,0
8290,286019.0272715457,2010-10-19 00:39:55,33.84326148593418,4,25,0.641866147518158,4.199653148651123,24.93492405437076,24.07114218440138,99.48920268957738,87.90636667659419,-3.23295607813634e-05,0.0914128422737121,0,0,0
8291,286032.66780944326,2010-10-19 00:40:08,47.48379936341343,4,25,0.5918373465538025,4.199653148651123,24.93725647942193,24.07114218440138,99.4989982532957,87.90636667659419,-3.23295607813634e-05,0.0914128422737121,0,0,0
8292,286053.4955263874,2010-10-19 00:40:29,68.31151634265399,4,25,0.5418086051940918,4.199814796447754,24.94052531443717,24.07114218440138,99.51272648369044,87.90636667659419,3.23295607813634e-05,0.0914128422737121,0,0,0
8293,286088.4637510978,2010-10-19 00:41:04,103.27974100797373,4,25,0.4917798042297363,4.199653148651123,24.94552275909688,24.07114218440138,99.5337143969159,87.90636667659419,-3.23295607813634e-05,0.0914128422737121,0,0,0
8294,286151.0253661322,2010-10-19 00:42:07,165.84135607745458,4,25,0.4417510628700256,4.199653148651123,24.95359936277813,24.07114218440138,99.56763394772472,87.90636667659419,0.0,0.0914128422737121,0,0,0
8295,286246.99271189625,2010-10-19 00:43:42,261.8087018014127,4,25,0.3917222917079925,4.199653148651123,24.964686405343624,24.07114218440138,99.61419645731164,87.90636667659419,0.0,0.0914128422737121,0,0,0
8296,286367.5065916658,2010-10-19 00:45:43,382.32258160106727,4,25,0.3415128886699676,4.199491024017334,24.97695136598811,24.07114218440138,99.66570599838133,87.90636667659419,-3.24249267578125e-05,0.0914128422737121,0,0,0
8297,286512.47322501126,2010-10-19 00:48:08,527.2892150316944,4,25,0.2914841175079345,4.199653148651123,24.989683990599623,24.07114218440138,99.71917956049153,87.90636667659419,-3.23295607813634e-05,0.0914128422737121,0,0,0
8298,286684.9552144253,2010-10-19 00:51:00,699.7712043404331,4,25,0.2414553612470626,4.199653148651123,25.00242719382534,24.07114218440138,99.77269751520926,87.90636667659419,3.24249267578125e-05,0.0914128422737121,0,0,0
8299,286900.4364798205,2010-10-19 00:54:36,915.2524698359758,4,25,0.1908847689628601,4.199491024017334,25.015334664075443,24.07114218440138,99.8269051786936,87.90636667659419,-6.47544875391759e-05,0.0914128422737121,0,0,0
8300,287187.77591140114,2010-10-19 00:59:23,1202.5919013263829,4,25,0.140855997800827,4.199653148651123,25.028508138029668,24.07114218440138,99.88223020522072,87.90636667659419,-6.47544875391759e-05,0.0914128422737121,0,0,0
8301,287618.7855036584,2010-10-19 01:06:34,1633.601493658811,4,25,0.0908272266387939,4.199814796447754,25.04217510740049,24.07114218440138,99.93962776858754,87.90636667659419,0.0,0.0914128422737121,0,0,0
8302,288262.7917203211,2010-10-19 01:17:18,2277.6077102262566,4,25,0.0498289167881011,4.199491024017334,25.05440356820771,24.07114218440138,99.99098404058522,87.90636667659419,-6.47544875391759e-05,0.0914128422737121,0,0,0
8303,288292.81932556763,2010-10-19 01:17:48,30.015189552808536,5,25,0.0,4.192044734954834,25.05440356820771,24.07114218440138,99.99098404058522,87.90636667659419,-3.23295607813634e-05,0.0914128422737121,0,0,0
8304,288322.8188423841,2010-10-19 01:18:18,60.01470634928592,5,25,0.0,4.190911293029785,25.05440356820771,24.07114218440138,99.99098404058522,87.90636667659419,0.0,0.0914128422737121,0,0,0
8305,288323.0042917738,2010-10-19 01:18:19,0.187627390187853,6,25,-1.9243103452026844e-05,4.190911293029785,25.05440356820771,24.07114218540431,99.99098404058522,87.90636668079736,0.0,0.0916610211133956,0,0,0
8306,288327.8322157459,2010-10-19 01:18:24,5.015551367253771,6,25,0.0007031940040178,4.190749645233154,25.054404430118577,24.07114218557068,99.9909876527812,87.9063666814946,-3.23295607813634e-05,0.0916610211133956,0,0,0
8307,288357.8454483141,2010-10-19 01:18:54,30.01532937127919,7,25,-1.0997490882873535,4.018179416656494,25.054404430118577,24.080310859938425,99.9909876527812,87.94340451553822,-0.0009713172912597,0.0916610211133956,0,0,0
8308,288387.86060445354,2010-10-19 01:19:24,60.03048553587402,7,25,-1.099568486213684,3.9921157360076895,25.054404430118577,24.089479359092987,99.9909876527812,87.98011791412324,-0.0005827426793985,0.0916610211133956,0,0,0
8309,288417.87566885946,2010-10-19 01:19:54,90.04554993175299,7,25,-1.099568486213684,3.973984479904175,25.054404430118577,24.098647840987752,99.9909876527812,88.01663189144071,-0.0004209041653666,0.0916610211133956,0,0,0
8310,288447.8908524424,2010-10-19 01:20:24,120.0607336049076,7,25,-1.099568486213684,3.959900379180908,25.054404430118577,24.10781626410329,99.9909876527812,88.0529996332378,-0.0003561496851034,0.0916610211133956,0,0,0
8311,288477.9060693184,2010-10-19 01:20:54,150.0759503755514,7,25,-1.0997490882873535,3.947920799255371,25.054404430118577,24.11698473208548,99.9909876527812,88.08924897116236,-0.0002913951757363,0.0916610211133956,0,0,0
8312,288507.92123451544,2010-10-19 01:21:24,180.09111560273297,7,25,-1.0997490882873535,3.937398195266724,25.054404430118577,24.126153168163544,99.9909876527812,88.1253960678802,-0.0002913951757363,0.0916610211133956,0,0,0
8313,288537.93657239794,2010-10-19 01:21:54,210.10645346016224,7,25,-1.0997490882873535,3.927523136138916,25.054404430118577,24.13532163677153,99.9909876527812,88.16145019982709,-0.0002913951757363,0.0916610211133956,0,0,0
8314,288567.9516187087,2010-10-19 01:22:24,240.12149975593016,7,25,-1.0997490882873535,3.918295621871948,25.054404430118577,24.14448999536323,99.9909876527812,88.19741744921065,-0.0002590179501567,0.0916610211133956,0,0,0
8315,288597.9669491677,2010-10-19 01:22:54,270.1368302199328,7,25,-1.099568486213684,3.9095540046691895,25.054404430118577,24.153658545458427,99.9909876527812,88.2333025968171,-0.0002266406954731,0.0916610211133956,0,0,0
8316,288627.9848009908,2010-10-19 01:23:24,300.15468208303776,7,25,-1.099568486213684,3.9009740352630615,25.054404430118577,24.16282780857804,99.9909876527812,88.26911081437486,-0.0002590179501567,0.0916610211133956,0,0,0
8317,288657.9973302132,2010-10-19 01:23:54,330.1672114007218,7,25,-1.0997490882873535,3.8927178382873535,25.054404430118577,24.17199545610893,99.9909876527812,88.30483518654674,-0.0001942634553415,0.0916610211133956,0,0,0
8318,288688.01241503493,2010-10-19 01:24:24,360.18229608717115,7,25,-1.0997490882873535,3.884299755096436,25.054404430118577,24.181163984210876,99.9909876527812,88.34048667085108,-0.0002266406954731,0.0916610211133956,0,0,0
8319,288718.0276218959,2010-10-19 01:24:54,390.1975029681668,7,25,-1.099568486213684,3.876367330551148,25.054404430118577,24.19033246555655,99.9909876527812,88.37606284054057,-0.0001618862152099,0.0916610211133956,0,0,0
8320,288748.0428152833,2010-10-19 01:25:24,420.2126963555322,7,25,-1.0997490882873535,3.8684349060058594,25.054404430118577,24.199500967582665,99.9909876527812,88.4115659741992,-0.0002266406954731,0.0916610211133956,0,0,0
8321,288778.0579830517,2010-10-19 01:25:54,450.22786410901017,7,25,-1.099568486213684,3.8605024814605713,25.054404430118577,24.2086695404538,99.9909876527812,88.44699731280974,-0.0002266406954731,0.0916610211133956,0,0,0
8322,288808.07317795296,2010-10-19 01:26:24,480.2430590051358,7,25,-1.0997490882873535,3.853055715560913,25.054404430118577,24.217838097396385,99.9909876527812,88.4823574886155,-0.0001295089750783,0.0916610211133956,0,0,0
8323,288838.08838796173,2010-10-19 01:26:54,510.2582690991394,7,25,-1.0997490882873535,3.845285177230835,25.054404430118577,24.227006687929773,99.9909876527812,88.51764818347442,-0.0002266406954731,0.0916610211133956,0,0,0
8324,288868.1036894034,2010-10-19 01:27:24,540.2735704906845,7,25,-1.099568486213684,3.8378384113311768,25.054404430118577,24.23617525906987,99.9909876527812,88.55287022395677,-0.0001942634553415,0.0916610211133956,0,0,0
8325,288898.11874677177,2010-10-19 01:27:54,570.2886278490237,7,25,-1.0997490882873535,3.830553770065308,25.054404430118577,24.245343803248623,99.9909876527812,88.58802417985507,-0.0001942634553415,0.0916610211133956,0,0,0
8326,288928.1338972221,2010-10-19 01:28:24,600.3037782943644,7,25,-1.0997490882873535,3.8232688903808594,25.054404430118577,24.254511834890376,99.9909876527812,88.62310961637496,-0.0001942634553415,0.0916610211133956,0,0,0
8327,288958.14910946647,2010-10-19 01:28:54,630.3189905086523,7,25,-1.099568486213684,3.816145896911621,25.054404430118577,24.263679671929356,99.9909876527812,88.65812863427021,-0.0001942634553415,0.0916610211133956,0,0,0
8328,288988.16429483885,2010-10-19 01:29:24,660.3341758860545,7,25,-1.0997490882873535,3.8091847896575928,25.054404430118577,24.27284754448311,99.9909876527812,88.69308238215437,-0.0001618862152099,0.0916610211133956,0,0,0
8329,289018.17961487686,2010-10-19 01:29:54,690.3494959290848,7,25,-1.099568486213684,3.8023855686187744,25.054404430118577,24.28201539735489,99.9909876527812,88.72797254149529,-0.0001942634553415,0.0916610211133956,0,0,0
8330,289048.1947017488,2010-10-19 01:30:24,720.3645828009809,7,25,-1.0993878841400146,3.795586347579956,25.054404430118577,24.29118313182733,99.9909876527812,88.76280043183462,-0.0001618862152099,0.0916610211133956,0,0,0
8331,289078.21002237324,2010-10-19 01:30:54,750.3799034254603,7,25,-1.099568486213684,3.7891108989715576,25.054404430118577,24.300350981083195,99.9909876527812,88.79756799419773,-0.0001618862152099,0.0916610211133956,0,0,0
8332,289108.2250626841,2010-10-19 01:31:24,780.3949437312995,7,25,-1.099568486213684,3.782635450363159,25.054404430118577,24.309519092853037,99.9909876527812,88.83227658259038,-0.0001295089750783,0.0916610211133956,0,0,0
8333,289138.24054587376,2010-10-19 01:31:54,810.4104269760788,7,25,-1.0997490882873535,3.7763218879699703,25.054404430118577,24.318687631607,99.9909876527812,88.86692813434627,-0.0001295089750783,0.0916610211133956,0,0,0
8334,289168.2554777042,2010-10-19 01:32:24,840.4253587815016,7,25,-1.099568486213684,3.770170211791992,25.054404430118577,24.327855999319315,99.9909876527812,88.9015218788166,-0.0001618862152099,0.0916610211133956,0,0,0
8335,289198.27065738745,2010-10-19 01:32:54,870.440538464712,7,25,-1.099568486213684,3.764180421829224,25.054404430118577,24.33702436249304,99.9909876527812,88.93605974507425,-0.0001295089750783,0.0916610211133956,0,0,0
8336,289228.2858363038,2010-10-19 01:33:24,900.4557173559487,7,25,-1.0997490882873535,3.758190631866455,25.054404430118577,24.34619278004768,99.9909876527812,88.97054277394247,-0.0001618862152099,0.0916610211133956,0,0,0
8337,289258.3010279969,2010-10-19 01:33:54,930.4709090490916,7,25,-1.099568486213684,3.7522010803222656,25.054404430118577,24.35536126202472,99.9909876527812,89.00497174485731,-0.0001618385285837,0.0916610211133956,0,0,0
8338,289288.3162130836,2010-10-19 01:34:24,960.4860941357692,7,25,-1.099568486213684,3.746535062789917,25.054404430118577,24.36452967221718,99.9909876527812,89.03934732556206,-0.0001295089750783,0.0916610211133956,0,0,0
8339,289318.3314260447,2010-10-19 01:34:54,990.501307091906,7,25,-1.099568486213684,3.740869045257568,25.054404430118577,24.37369812543227,99.9909876527812,89.07367113935662,-0.0001618862152099,0.0916610211133956,0,0,0
8340,289348.3467499674,2010-10-19 01:35:24,1020.516631019618,7,25,-1.0997490882873535,3.73520302772522,25.054404430118577,24.3828665892406,99.9909876527812,89.10794374114194,-0.0001618862152099,0.0916610211133956,0,0,0
8341,289378.3618156966,2010-10-19 01:35:54,1050.5316967989452,7,25,-1.099568486213684,3.730022668838501,25.054404430118577,24.39203497638568,99.9909876527812,89.14216569614901,-0.0001295089750783,0.0916610211133956,0,0,0
8342,289408.3769818812,2010-10-19 01:36:24,1080.546862963463,7,25,-1.099568486213684,3.724680423736572,25.054404430118577,24.401203343930927,99.9909876527812,89.17633861532096,-0.0001295089750783,0.0916610211133956,0,0,0
8343,289438.39218336873,2010-10-19 01:36:54,1110.5620644159287,7,25,-1.0997490882873535,3.719338178634644,25.054404430118577,24.41037185396383,99.9909876527812,89.21046392792141,-0.0001618862152099,0.0916610211133956,0,0,0
8344,289468.40736573865,2010-10-19 01:37:24,1140.577246790848,7,25,-1.099568486213684,3.714319705963135,25.054404430118577,24.41954029559067,99.9909876527812,89.24454150772947,-9.713172767078504e-05,0.0916610211133956,0,0,0
8345,289498.422679491,2010-10-19 01:37:54,1170.5925605432,7,25,-1.0997490882873535,3.709139347076416,25.054404430118577,24.42870878051897,99.9909876527812,89.27857192850568,-0.0001618862152099,0.0916610211133956,0,0,0
8346,289528.4377440773,2010-10-19 01:38:24,1200.6076251345662,7,25,-1.099568486213684,3.703958988189697,25.054404430118577,24.43787722973607,99.9909876527812,89.31255575626352,-0.0001618862152099,0.0916610211133956,0,0,0
8347,289558.4531516435,2010-10-19 01:38:54,1230.6230327809308,7,25,-1.099568486213684,3.699264287948608,25.054404430118577,24.447045831196192,99.9909876527812,89.34649437292293,-0.0001295089750783,0.0916610211133956,0,0,0
8348,289588.4682849812,2010-10-19 01:39:24,1260.6381660634966,7,25,-1.099568486213684,3.6944077014923096,25.054404430118577,24.456214297809964,99.9909876527812,89.38038730345804,-9.713172767078504e-05,0.0916610211133956,0,0,0
8349,289618.4833424197,2010-10-19 01:39:54,1290.653223492011,7,25,-1.0997490882873535,3.6895511150360103,25.054404430118577,24.46538278398789,99.9909876527812,89.4142365273947,-0.0001295089750783,0.0916610211133956,0,0,0
8350,289648.498644468,2010-10-19 01:40:24,1320.6685255502173,7,25,-1.0997490882873535,3.684856414794922,25.054404430118577,24.474551329652744,99.9909876527812,89.44804270436704,-0.0001295089750783,0.0916610211133956,0,0,0
8351,289678.5137197559,2010-10-19 01:40:54,1350.683600808168,7,25,-1.0997490882873535,3.679999828338623,25.054404430118577,24.48371973505506,99.9909876527812,89.48180570059625,-0.0001942634553415,0.0916610211133956,0,0,0
8352,289708.5288957901,2010-10-19 01:41:24,1380.6987768723588,7,25,-1.099568486213684,3.675628900527954,25.054404430118577,24.492888220753837,99.9909876527812,89.51552663751674,-0.0001295089750783,0.0916610211133956,0,0,0
8353,289738.5441160194,2010-10-19 01:41:54,1410.7139970815724,7,25,-1.099568486213684,3.671258211135864,25.054404430118577,24.502056739628387,99.9909876527812,89.54920635872195,-9.713172767078504e-05,0.0916610211133956,0,0,0
8354,289768.5592780486,2010-10-19 01:42:24,1440.7291591358462,7,25,-1.0997490882873535,3.666563510894776,25.054404430118577,24.511225226088083,99.9909876527812,89.58284473819667,-0.0001295089750783,0.0916610211133956,0,0,0
8355,289798.5746232443,2010-10-19 01:42:54,1470.7445043065024,7,25,-1.0997490882873535,3.6621925830841056,25.054404430118577,24.52039381721315,99.9909876527812,89.61644301763292,-0.0001295089750783,0.0916610211133956,0,0,0
8356,289828.5898985508,2010-10-19 01:43:24,1500.7597796130356,7,25,-1.0997490882873535,3.657983541488648,25.054404430118577,24.52956238091012,99.9909876527812,89.65000111394365,-0.0001295089750783,0.0916610211133956,0,0,0
8357,289858.60484816565,2010-10-19 01:43:54,1530.77472921782,7,25,-1.099568486213684,3.653774499893189,25.054404430118577,24.53873077545927,99.9909876527812,89.68351943460195,-9.713172767078504e-05,0.0916610211133956,0,0,0
8358,289888.6202188248,2010-10-19 01:44:24,1560.790099937151,7,25,-1.099568486213684,3.6495654582977295,25.054404430118577,24.547899313233305,99.9909876527812,89.7169997375357,-0.0001295089750783,0.0916610211133956,0,0,0
8359,289918.63526985736,2010-10-19 01:44:54,1590.8051509296247,7,25,-1.099568486213684,3.6453564167022714,25.054404430118577,24.55706774018128,99.9909876527812,89.75044114265957,-9.713172767078504e-05,0.0916610211133956,0,0,0
8360,289948.6504405331,2010-10-19 01:45:24,1620.820321620423,7,25,-1.0997490882873535,3.6413092613220215,25.054404430118577,24.566236170989644,99.9909876527812,89.78384506886027,-9.713172767078504e-05,0.0916610211133956,0,0,0
8361,289978.665748887,2010-10-19 01:45:55,1650.8356299743205,7,25,-1.0997490882873535,3.637262105941773,25.054404430118577,24.57540463890088,99.9909876527812,89.81721254280968,-0.0001618862152099,0.0916610211133956,0,0,0
8362,290008.6808493328,2010-10-19 01:46:25,1680.850730410022,7,25,-1.0997490882873535,3.633538722991944,25.054404430118577,24.58457304287388,99.9909876527812,89.85054396930283,-9.713172767078504e-05,0.0916610211133956,0,0,0
8363,290038.6961464186,2010-10-19 01:46:55,1710.8660274958356,7,25,-1.099568486213684,3.629815340042114,25.054404430118577,24.59374153363095,99.9909876527812,89.88384072262444,-9.713172767078504e-05,0.0916610211133956,0,0,0
8364,290068.71121874923,2010-10-19 01:47:25,1740.8810998114532,7,25,-1.099568486213684,3.626091957092285,25.054404430118577,24.602909927464506,99.9909876527812,89.91710290265068,-9.713172767078504e-05,0.0916610211133956,0,0,0
8365,290098.72653144394,2010-10-19 01:47:55,1770.8964124961442,7,25,-1.0997490882873535,3.622368574142456,25.054404430118577,24.612078398678925,99.9909876527812,89.95033186292902,-9.713172767078504e-05,0.0916610211133956,0,0,0
8366,290128.74181401863,2010-10-19 01:48:25,1800.9116951961043,7,25,-1.0993878841400146,3.618968963623047,25.054404430118577,24.621246867340467,99.9909876527812,89.98352793134106,-9.713172767078504e-05,0.0916610211133956,0,0,0
8367,290158.7567943951,2010-10-19 01:48:55,1830.9266754472687,7,25,-1.099568486213684,3.615407466888428,25.054404430118577,24.630415267512618,99.9909876527812,90.01669183720168,-9.713172767078504e-05,0.0916610211133956,0,0,0
8368,290188.7719612864,2010-10-19 01:49:25,1860.9418423736847,7,25,-1.0997490882873535,3.612169742584229,25.054404430118577,24.639583697687325,99.9909876527812,90.04982454733694,-6.47544875391759e-05,0.0916610211133956,0,0,0
8369,290218.7872998456,2010-10-19 01:49:55,1890.957180907801,7,25,-1.099568486213684,3.608932018280029,25.054404430118577,24.64875223657467,99.9909876527812,90.08292697620914,-6.47544875391759e-05,0.0916610211133956,0,0,0
8370,290248.8023555548,2010-10-19 01:50:25,1920.972236607005,7,25,-1.099568486213684,3.60569429397583,25.054404430118577,24.657920695485785,99.9909876527812,90.11599925007307,-6.47544875391759e-05,0.0916610211133956,0,0,0
8371,290278.8175613581,2010-10-19 01:50:55,1950.987442410315,7,25,-1.099568486213684,3.602456569671631,25.054404430118577,24.66708913405312,99.9909876527812,90.14904215441952,-9.713172767078504e-05,0.0916610211133956,0,0,0
8372,290308.8328749952,2010-10-19 01:51:25,1981.002756057405,7,25,-1.0997490882873535,3.5993807315826416,25.054404430118577,24.676257571494023,99.9909876527812,90.1820564329582,-6.47544875391759e-05,0.0916610211133956,0,0,0
8373,290338.8479508196,2010-10-19 01:51:55,2011.0178319018169,7,25,-1.0997490882873535,3.5961430072784424,25.054404430118577,24.685425994390016,99.9909876527812,90.21504252280128,-9.713172767078504e-05,0.0916610211133956,0,0,0
8374,290368.8632462011,2010-10-19 01:52:25,2041.0331272583207,7,25,-1.0997490882873535,3.593067169189453,25.054404430118577,24.69459451800133,99.9909876527812,90.24800108297084,-0.0001295089750783,0.0916610211133956,0,0,0
8375,290398.87847781373,2010-10-19 01:52:55,2071.0483589060427,7,25,-1.0997490882873535,3.590153455734253,25.054404430118577,24.70376303952272,99.9909876527812,90.28093229372656,-9.713172767078504e-05,0.0916610211133956,0,0,0
8376,290428.89352714707,2010-10-19 01:53:25,2101.0634081992816,7,25,-1.0997490882873535,3.587401390075684,25.054404430118577,24.71293147633367,99.9909876527812,90.31383634294949,-6.47544875391759e-05,0.0916610211133956,0,0,0
8377,290458.90869410353,2010-10-19 01:53:55,2131.078575145748,7,25,-1.099568486213684,3.5844874382019043,25.054404430118577,24.722099948894986,99.9909876527812,90.34671383733895,-6.47544875391759e-05,0.0916610211133956,0,0,0
8378,290488.92388706986,2010-10-19 01:54:25,2161.093768142139,7,25,-1.099568486213684,3.581735372543335,25.054404430118577,24.73126837905185,99.9909876527812,90.37956465082712,-3.237724376958795e-05,0.0916610211133956,0,0,0
8379,290518.93929022003,2010-10-19 01:54:55,2191.1091712922976,7,25,-1.099568486213684,3.5786595344543457,25.054404430118577,24.740436915126896,99.9909876527812,90.41238944495645,-9.713172767078504e-05,0.0916610211133956,0,0,0
8380,290548.9570931111,2010-10-19 01:55:25,2221.1269742184363,7,25,-1.099568486213684,3.5759074687957764,25.054404430118577,24.749606176207006,99.9909876527812,90.44519041885054,-6.47544875391759e-05,0.0916610211133956,0,0,0
8381,290578.9694682796,2010-10-19 01:55:55,2251.1393493217715,7,25,-1.0997490882873535,3.572831630706787,25.054404430118577,24.758773811553507,99.9909876527812,90.47795890259953,-9.713172767078504e-05,0.0916610211133956,0,0,0
8382,290608.9847907888,2010-10-19 01:56:25,2281.154671850998,7,25,-1.0997490882873535,3.569917678833008,25.054404430118577,24.767942266180096,99.9909876527812,90.51070370607844,-9.713172767078504e-05,0.0916610211133956,0,0,0
8383,290638.9998846932,2010-10-19 01:56:55,2311.1697657704585,7,25,-1.0997490882873535,3.5670037269592285,25.054404430118577,24.77711067070636,99.9909876527812,90.54342113776744,-6.47544875391759e-05,0.0916610211133956,0,0,0
8384,290669.0150416297,2010-10-19 01:57:25,2341.184922681915,7,25,-1.099929690361023,3.5639278888702397,25.054404430118577,24.78627915739121,99.9909876527812,90.57611146496984,-9.713172767078504e-05,0.0916610211133956,0,0,0
8385,290699.030356951,2010-10-19 01:57:55,2371.200238003177,7,25,-1.0997490882873535,3.56101393699646,25.054404430118577,24.79544761923549,99.9909876527812,90.60877474726142,-0.0001295089750783,0.0916610211133956,0,0,0
8386,290729.0454320736,2010-10-19 01:58:25,2401.2153131257905,7,25,-1.099568486213684,3.5580999851226807,25.054404430118577,24.80461604435717,99.9909876527812,90.6414101913206,-6.47544875391759e-05,0.0916610211133956,0,0,0
8387,290759.0606470197,2010-10-19 01:58:55,2431.2305281069744,7,25,-1.099568486213684,3.5547003746032715,25.054404430118577,24.813784511582305,99.9909876527812,90.67401728291505,-9.713172767078504e-05,0.0916610211133956,0,0,0
8388,290789.075947529,2010-10-19 01:59:25,2461.245828606296,7,25,-1.099568486213684,3.5516245365142822,25.054404430118577,24.82295290625999,99.9909876527812,90.70659508714158,-9.713172767078504e-05,0.0916610211133956,0,0,0
8389,290819.09101038106,2010-10-19 01:59:55,2491.260891458327,7,25,-1.099568486213684,3.548548698425293,25.054404430118577,24.832121344048407,99.9909876527812,90.7391434263742,-6.47544875391759e-05,0.0916610211133956,0,0,0
8390,290849.106343627,2010-10-19 02:00:25,2521.2762246892257,7,25,-1.099568486213684,3.5453109741210938,25.054404430118577,24.841289827078587,99.9909876527812,90.77166182839524,0.0,0.0916610211133956,0,0,0
8391,290879.1214029252,2010-10-19 02:00:55,2551.2912839773744,7,25,-1.0997490882873535,3.5414257049560547,25.054404430118577,24.850458207385763,99.9909876527812,90.80414881638885,-0.0001295089750783,0.0916610211133956,0,0,0
8392,290909.13658921985,2010-10-19 02:01:25,2581.30647030715,7,25,-1.099568486213684,3.538349866867065,25.054404430118577,24.85962665417006,99.9909876527812,90.83660421187088,-6.47544875391759e-05,0.0916610211133956,0,0,0
8393,290939.1517869079,2010-10-19 02:01:55,2611.321667960147,7,25,-1.0997490882873535,3.5344645977020264,25.054404430118577,24.868795144066723,99.9909876527812,90.86902682880353,-6.47544875391759e-05,0.0916610211133956,0,0,0
8394,290969.16697666125,2010-10-19 02:02:25,2641.33685774353,7,25,-1.099929690361023,3.5304174423217773,25.054404430118577,24.877963676970698,99.9909876527812,90.90141540633708,-0.0001295089750783,0.0916610211133956,0,0,0
8395,290999.1821760336,2010-10-19 02:02:55,2671.352057075712,7,25,-1.0997490882873535,3.526694059371948,25.054404430118577,24.887132171023943,99.9909876527812,90.93376834735572,-9.713172767078504e-05,0.0916610211133956,0,0,0
8396,291029.19735588215,2010-10-19 02:03:25,2701.3672369243345,7,25,-1.099568486213684,3.522646903991699,25.054404430118577,24.89630071462124,99.9909876527812,90.96608434748389,-9.713172767078504e-05,0.0916610211133956,0,0,0
8397,291059.2128386407,2010-10-19 02:03:55,2731.38271973804,7,25,-1.099568486213684,3.5182759761810303,25.054404430118577,24.905469280751785,99.9909876527812,90.99836147961491,-9.713172767078504e-05,0.0916610211133956,0,0,0
8398,291089.2277685113,2010-10-19 02:04:25,2761.39764956854,7,25,-1.099929690361023,3.5134193897247314,25.054404430118577,24.91463773286801,99.9909876527812,91.03059716236736,-0.0001618862152099,0.0916610211133956,0,0,0
8399,291119.2429751367,2010-10-19 02:04:55,2791.4128562139485,7,25,-1.099568486213684,3.5087249279022217,25.054404430118577,24.92380622314281,99.9909876527812,91.06278917799646,-9.713172767078504e-05,0.0916610211133956,0,0,0
8400,291149.2581413062,2010-10-19 02:05:25,2821.428022353404,7,25,-1.099568486213684,3.503220796585083,25.054404430118577,24.932974710279236,99.9909876527812,91.09493364140732,-0.0001295089750783,0.0916610211133956,0,0,0
8401,291179.27339413174,2010-10-19 02:05:55,2851.443275213995,7,25,-1.0997490882873535,3.4972310066223145,25.054404430118577,24.94214319802433,99.9909876527812,91.12702604114756,-0.0001618862152099,0.0916610211133956,0,0,0
8402,291209.28852101334,2010-10-19 02:06:25,2881.45840206052,7,25,-1.0997490882873535,3.490431785583496,25.054404430118577,24.95131165829484,99.9909876527812,91.159060687103,-0.0002266406954731,0.0916610211133956,0,0,0
8403,291239.30384824425,2010-10-19 02:06:55,2911.473729296478,7,25,-1.0997490882873535,3.482985019683838,25.054404430118577,24.960480138320047,99.9909876527812,91.19103092404758,-0.0002266406954731,0.0916610211133956,0,0,0
8404,291269.3190500827,2010-10-19 02:07:25,2941.4889311349057,7,25,-1.099568486213684,3.47440505027771,25.054404430118577,24.96964855707857,99.9909876527812,91.22292669200108,-0.0002590179501567,0.0916610211133956,0,0,0
8405,291299.33410808264,2010-10-19 02:07:55,2971.503989134844,7,25,-1.1001102924346924,3.4643681049346924,25.054404430118577,24.978816941392058,99.9909876527812,91.25473760159778,-0.0003237724304199,0.0916610211133956,0,0,0
8406,291329.3493129185,2010-10-19 02:08:25,3001.519193960717,7,25,-1.099568486213684,3.452874183654785,25.054404430118577,24.98798540741704,99.9909876527812,91.28645025135611,-0.0003237724304199,0.0916610211133956,0,0,0
8407,291359.36449926335,2010-10-19 02:08:55,3031.5343803456303,7,25,-1.0997490882873535,3.4387900829315186,25.054404430118577,24.99715389116077,99.9909876527812,91.3180457130631,-0.0004209041653666,0.0916610211133956,0,0,0
8408,291389.37967672106,2010-10-19 02:09:25,3061.549557798282,7,25,-1.0997490882873535,3.421306610107422,25.054404430118577,25.00632238501608,99.9909876527812,91.34949795949592,-0.0005504131549969,0.0916610211133956,0,0,0
8409,291419.39487354696,2010-10-19 02:09:55,3091.5647545891297,7,25,-1.0997490882873535,3.398642539978028,25.054404430118577,25.015490877888848,99.9909876527812,91.38076805060896,-0.0006799221155233,0.0916610211133956,0,0,0
8410,291449.4100640722,2010-10-19 02:10:25,3121.5799451193743,7,25,-1.099929690361023,3.3678841590881348,25.054404430118577,25.02465936081783,99.9909876527812,91.41179619997186,-0.0009389400365762,0.0916610211133956,0,0,0
8411,291479.4254837536,2010-10-19 02:10:55,3151.595364825797,7,25,-1.099568486213684,3.3244988918304443,25.054404430118577,25.03382792778428,99.9909876527812,91.44248766185734,-0.0013274669181555,0.0916610211133956,0,0,0
8412,291509.4405794073,2010-10-19 02:11:25,3181.61046045953,7,25,-1.099568486213684,3.261849164962769,25.054404430118577,25.04299633510861,99.9909876527812,91.47269773484652,-0.0019425868522375,0.0916610211133956,0,0,0
8413,291539.4556599184,2010-10-19 02:11:55,3211.625540995635,7,25,-1.099568486213684,3.16908860206604,25.054404430118577,25.052164758231875,99.9909876527812,91.5022084071577,-0.0029463290702551,0.0916610211133956,0,0,0
8414,291569.47084156144,2010-10-19 02:12:25,3241.640722608656,7,25,-1.0997490882873535,3.0190205574035645,25.054404430118577,25.061333201688463,99.9909876527812,91.53064363677892,-0.0052450657822191,0.0916610211133956,0,0,0
8415,291589.3455860852,2010-10-19 02:12:45,3261.5154671674018,7,25,-1.099929690361023,2.818767786026001,25.054404430118577,25.067404216358103,99.9909876527812,91.54843955580736,-0.0106196878477931,0.0916610211133956,0,0,0
8416,291597.1579417943,2010-10-19 02:12:53,3269.3278228365307,7,25,-1.0997490882873535,2.699620008468628,25.054404430118577,25.069790581735496,99.9909876527812,91.55502762257392,-0.0126594547182321,0.0916610211133956,0,0,0
8417,291657.171009324,2010-10-19 02:13:53,60.014899851553096,8,25,0.0,3.3202898502349854,25.054404430118577,25.069790581735496,99.9909876527812,91.55502762257392,0.0013598442310467,0.0916610211133956,0,0,0
8418,291657.3730494973,2010-10-19 02:13:53,0.187529250593788,9,25,-1.9243103452026844e-05,3.3202898502349854,25.054404430118577,25.06979058273789,99.9909876527812,91.55502762590216,0.0,0.0915781408548355,0,0,0
8419,291662.20106915286,2010-10-19 02:13:58,5.015548906119868,9,25,0.0008838032954372,3.3288698196411133,25.05440531063453,25.069790582904705,99.99099058073756,91.555027626456,0.0012303352123126,0.0915781408548355,0,0,0
