Data_Point,Test_Time(s),Date_Time,Step_Time(s),Step_Index,Cycle_Index,Current(A),Voltage(V),Charge_Capacity(Ah),Discharge_Capacity(Ah),Charge_Energy(Wh),Discharge_Energy(Wh),dV/dt(V/s),Internal_Resistance(Ohm),Is_FC_Data,AC_Impedance(Ohm),ACI_Phase_Angle(Deg)
9084,314884.6956013124,2010-10-19 08:41:03,30.01525200345476,1,28,0.0,3.421468496322632,27.039156134965097,27.04288318233867,107.91888324565078,98.72977366222251,0.0007446765666827,0.0907677188515663,0,0,0
9085,314914.71064759814,2010-10-19 08:41:33,60.0302981488479,1,28,0.0,3.445913076400757,27.039156134965097,27.04288318233867,107.91888324565078,98.72977366222251,0.0005504131549969,0.0907677188515663,0,0,0
9086,314944.7258102038,2010-10-19 08:42:03,90.04546073444585,1,28,0.0,3.4642062187194824,27.039156134965097,27.04288318233867,107.91888324565078,98.72977366222251,0.0004209041653666,0.0907677188515663,0,0,0
9087,314974.69406952703,2010-10-19 08:42:33,120.01372011281964,1,28,0.0,3.479099750518799,27.039156134965097,27.04288318233867,107.91888324565078,98.72977366222251,0.0003561496851034,0.0907677188515663,0,0,0
9088,315004.7072042608,2010-10-19 08:43:04,30.01522848483913,2,28,0.5501165986061096,3.631434202194214,27.043742583122,27.04288318233867,107.93538816476445,98.72977366222251,0.0014245987404137,0.0907677188515663,0,0,0
9089,315034.72223133873,2010-10-19 08:43:34,60.03025555769764,2,28,0.5499359965324402,3.674981355667114,27.04832889871454,27.04288318233867,107.95214953892214,98.72977366222251,0.0009712696191854,0.0907677188515663,0,0,0
9090,315064.7374853171,2010-10-19 08:44:04,90.04550954108701,2,28,0.5501165986061096,3.705901622772217,27.052915247656724,27.04288318233867,107.96907820751288,98.72977366222251,0.0007446765666827,0.0907677188515663,0,0,0
9091,315094.75250263565,2010-10-19 08:44:34,120.0605268496098,2,28,0.5501165986061096,3.729860782623291,27.05750160517194,27.04288318233867,107.98613174871343,98.72977366222251,0.0005504131549969,0.0907677188515663,0,0,0
9092,315124.76779567136,2010-10-19 08:45:04,150.07581989034207,2,28,0.5501165986061096,3.749125242233277,27.06208794808897,27.04288318233867,108.0032838358163,98.72977366222251,0.0004209041653666,0.0907677188515663,0,0,0
9093,315154.782774088,2010-10-19 08:45:34,180.09079830192172,2,28,0.5501165986061096,3.764180421829224,27.066674255566905,27.04288318233867,108.0205145759431,98.72977366222251,0.0003561496851034,0.0907677188515663,0,0,0
9094,315184.79793578136,2010-10-19 08:46:04,210.1059600454209,2,28,0.5499359965324402,3.7740554809570312,27.07126022943367,27.04288318233867,108.03780115379298,98.72977366222251,0.0002266406954731,0.0907677188515663,0,0,0
9095,315214.8130687481,2010-10-19 08:46:34,240.12109308237456,2,28,0.5499359965324402,3.7800452709198,27.075845656979883,27.04288318233867,108.05512119126006,98.72977366222251,0.0001618862152099,0.0907677188515663,0,0,0
9096,315244.82834414486,2010-10-19 08:47:04,270.13636837387025,2,28,0.5497553944587708,3.7844161987304688,27.080431096875422,27.04288318233867,108.0724646275406,98.72977366222251,9.713172767078504e-05,0.0907677188515663,0,0,0
9097,315274.8433545963,2010-10-19 08:47:34,300.1513788202906,2,28,0.5499359965324402,3.7884633541107178,27.08501653071232,27.04288318233867,108.08982709895648,98.72977366222251,9.713172767078504e-05,0.0907677188515663,0,0,0
9098,315304.85862462467,2010-10-19 08:48:04,330.16664885368147,2,28,0.5501165986061096,3.792186737060547,27.0896023887182,27.04288318233867,108.10720896040732,98.72977366222251,9.713172767078504e-05,0.0907677188515663,0,0,0
9099,315334.8736765645,2010-10-19 08:48:34,360.1817008085536,2,28,0.5501165986061096,3.795910120010376,27.09418873430405,27.04288318233867,108.1246099112964,98.72977366222251,6.47544875391759e-05,0.0907677188515663,0,0,0
9100,315364.8887952056,2010-10-19 08:49:04,390.19681941955326,2,28,0.5501165986061096,3.799471616744995,27.098775067988843,27.04288318233867,108.14202762465132,98.72977366222251,6.47544875391759e-05,0.0907677188515663,0,0,0
9101,315394.9039437061,2010-10-19 08:49:34,420.2119679701718,2,28,0.5501165986061096,3.803194999694824,27.10336140141083,27.04288318233867,108.1594620660442,98.72977366222251,9.713172767078504e-05,0.0907677188515663,0,0,0
9102,315424.9190704073,2010-10-19 08:50:04,450.2270946462722,2,28,0.5499359965324402,3.8065946102142334,27.107947776169446,27.04288318233867,108.17691315124569,98.72977366222251,6.47544875391759e-05,0.0907677188515663,0,0,0
9103,315454.93423316325,2010-10-19 08:50:34,480.2422574273574,2,28,0.5499359965324402,3.8103179931640634,27.112534176608605,27.04288318233867,108.19438054980134,98.72977366222251,9.713172767078504e-05,0.0907677188515663,0,0,0
9104,315484.949624504,2010-10-19 08:51:04,510.25764875304606,2,28,0.5501165986061096,3.8135557174682617,27.1171205949404,27.04288318233867,108.21186394138036,98.72977366222251,6.47544875391759e-05,0.0907677188515663,0,0,0
9105,315514.96718116134,2010-10-19 08:51:34,540.2752055056447,2,28,0.5501165986061096,3.817117214202881,27.121707281424506,27.04288318233867,108.22936407023758,98.72977366222251,9.713172767078504e-05,0.0907677188515663,0,0,0
9106,315544.9796551161,2010-10-19 08:52:04,570.2876793550851,2,28,0.550297200679779,3.82051682472229,27.12629324777137,27.04288318233867,108.24687677216774,98.72977366222251,9.713172767078504e-05,0.0907677188515663,0,0,0
9107,315574.9948051955,2010-10-19 08:52:34,600.3028294044387,2,28,0.5499359965324402,3.823754549026489,27.130879544458686,27.04288318233867,108.26440589615362,98.72977366222251,9.713172767078504e-05,0.0907677188515663,0,0,0
9108,315605.0099744527,2010-10-19 08:53:04,630.3179987218143,2,28,0.5501165986061096,3.826992273330689,27.13546587830921,27.04288318233867,108.28195025679726,98.72977366222251,9.713172767078504e-05,0.0907677188515663,0,0,0
9109,315635.02508550487,2010-10-19 08:53:34,660.3331097138253,2,28,0.5501165986061096,3.830229997634888,27.14005217651125,27.04288318233867,108.29950949736634,98.72977366222251,9.713172767078504e-05,0.0907677188515663,0,0,0
9110,315665.040232236,2010-10-19 08:54:04,690.3482564549338,2,28,0.5501165986061096,3.833467483520508,27.144638527107315,27.04288318233867,108.3170840868708,98.72977366222251,6.470680091297254e-05,0.0907677188515663,0,0,0
9111,315695.0553784307,2010-10-19 08:54:34,720.3634026647183,2,28,0.5501165986061096,3.837028980255127,27.149224840994258,27.04288318233867,108.33467375585602,98.72977366222251,0.0001295089750783,0.0907677188515663,0,0,0
9112,315725.0705282795,2010-10-19 08:55:04,750.3785524935222,2,28,0.5499359965324402,3.840428590774536,27.15381107525641,27.04288318233867,108.35227846197024,98.72977366222251,9.713172767078504e-05,0.0907677188515663,0,0,0
9113,315755.08579264884,2010-10-19 08:55:34,780.393816897884,2,28,0.550297200679779,3.843666315078736,27.15839743860557,27.04288318233867,108.36989910952398,98.72977366222251,6.47544875391759e-05,0.0907677188515663,0,0,0
9114,315785.1008076416,2010-10-19 08:56:04,810.4088318605601,2,28,0.5499359965324402,3.847065925598145,27.16298370230293,27.04288318233867,108.38753504374026,98.72977366222251,6.47544875391759e-05,0.0907677188515663,0,0,0
9115,315815.1159676508,2010-10-19 08:56:34,840.4239919198618,2,28,0.5499359965324402,3.850303649902344,27.16757009165623,27.04288318233867,108.40518716622198,98.72977366222251,3.237724376958795e-05,0.0907677188515663,0,0,0
9116,315845.1311836796,2010-10-19 08:57:04,870.4392079436442,2,28,0.5501165986061096,3.853541374206543,27.17215647425304,27.04288318233867,108.42285475984664,98.72977366222251,3.237724376958795e-05,0.0907677188515663,0,0,0
9117,315875.1462589676,2010-10-19 08:57:34,900.4542832116197,2,28,0.550297200679779,3.857264757156372,27.17674280103235,27.04288318233867,108.44053747683763,98.72977366222251,0.0001295089750783,0.0907677188515663,0,0,0
9118,315905.16139113234,2010-10-19 08:58:04,930.4694153663744,2,28,0.5499359965324402,3.8605024814605713,27.181329098889293,27.04288318233867,108.45823507950406,98.72977366222251,0.0001295089750783,0.0907677188515663,0,0,0
9119,315935.1765251217,2010-10-19 08:58:34,960.4845493657268,2,28,0.5501165986061096,3.863416433334351,27.185915414982965,27.04288318233867,108.47594755625174,98.72977366222251,6.47544875391759e-05,0.0907677188515663,0,0,0
9120,315965.191675943,2010-10-19 08:59:04,990.499700161942,2,28,0.5501165986061096,3.86665415763855,27.19050172641796,27.04288318233867,108.49367426749404,98.72977366222251,9.713172767078504e-05,0.0907677188515663,0,0,0
9121,315995.20681709016,2010-10-19 08:59:34,1020.5148413040964,2,28,0.5499359965324402,3.869729995727539,27.19508805073859,27.04288318233867,108.5114150920629,98.72977366222251,0.0001295089750783,0.0907677188515663,0,0,0
9122,316025.2222404757,2010-10-19 09:00:04,1050.530264739813,2,28,0.550297200679779,3.8726439476013184,27.19967444332285,27.04288318233867,108.52916979432884,98.72977366222251,6.47544875391759e-05,0.0907677188515663,0,0,0
9123,316055.23719832103,2010-10-19 09:00:34,1080.5452225350105,2,28,0.5501165986061096,3.875396013259888,27.20426074921543,27.04288318233867,108.54693739875792,98.72977366222251,9.713172767078504e-05,0.0907677188515663,0,0,0
9124,316085.2522338099,2010-10-19 09:01:04,1110.5602580238442,2,28,0.5501165986061096,3.878309965133667,27.20884702962161,27.04288318233867,108.56471762743055,98.72977366222251,9.713172767078504e-05,0.0907677188515663,0,0,0
9125,316115.26735858124,2010-10-19 09:01:34,1140.5753828002098,2,28,0.5501165986061096,3.880738258361816,27.213433361938968,27.04288318233867,108.5825102176982,98.72977366222251,6.47544875391759e-05,0.0907677188515663,0,0,0
9126,316145.282629156,2010-10-19 09:02:04,1170.590653395,2,28,0.5501165986061096,3.883328437805176,27.21801963895497,27.04288318233867,108.60031423262193,98.72977366222251,6.47544875391759e-05,0.0907677188515663,0,0,0
9127,316175.2976461738,2010-10-19 09:02:34,1200.6056703877357,2,28,0.5499359965324402,3.8852710723876953,27.22260596208461,27.04288318233867,108.61812938884728,98.72977366222251,0.0,0.0907677188515663,0,0,0
9128,316205.3129222171,2010-10-19 09:03:04,1230.6209464561675,2,28,0.5501165986061096,3.887861251831055,27.227192275461228,27.04288318233867,108.63595483758571,98.72977366222251,6.47544875391759e-05,0.0907677188515663,0,0,0
9129,316235.32808511355,2010-10-19 09:03:34,1260.636109362565,2,28,0.5499359965324402,3.889642000198364,27.23177844722801,27.04288318233867,108.65378944289256,98.72977366222251,6.47544875391759e-05,0.0907677188515663,0,0,0
9130,316265.3431008932,2010-10-19 09:04:04,1290.65112514729,2,28,0.5499359965324402,3.8917465209960938,27.236364663764665,27.04288318233867,108.67163330073195,98.72977366222251,6.47544875391759e-05,0.0907677188515663,0,0,0
9131,316295.3582293137,2010-10-19 09:04:34,1320.666253527638,2,28,0.5499359965324402,3.8935272693634033,27.240950962506624,27.04288318233867,108.68948597428036,98.72977366222251,6.47544875391759e-05,0.0907677188515663,0,0,0
9132,316325.3733936135,2010-10-19 09:05:04,1350.6814178676086,2,28,0.5499359965324402,3.894822359085083,27.24553737130407,27.04288318233867,108.70734689718184,98.72977366222251,-3.237724376958795e-05,0.0907677188515663,0,0,0
9133,316355.3885127809,2010-10-19 09:05:34,1380.6965369898826,2,28,0.5501165986061096,3.8967649936676025,27.250123777457013,27.04288318233867,108.7252148314576,98.72977366222251,6.47544875391759e-05,0.0907677188515663,0,0,0
9134,316385.4036575221,2010-10-19 09:06:04,1410.7116817310066,2,28,0.550297200679779,3.898221969604492,27.254710158032967,27.04288318233867,108.74308969977488,98.72977366222251,6.47544875391759e-05,0.0907677188515663,0,0,0
9135,316415.4188051904,2010-10-19 09:06:34,1440.7268294044388,2,28,0.5501165986061096,3.899517059326172,27.259296538450972,27.04288318233867,108.76097119647967,98.72977366222251,0.0,0.0907677188515663,0,0,0
9136,316445.4341907468,2010-10-19 09:07:04,1470.7422150158857,2,28,0.5501165986061096,3.9009740352630615,27.26388299702597,27.04288318233867,108.77885918704608,98.72977366222251,3.237724376958795e-05,0.0907677188515663,0,0,0
9137,316475.44924784946,2010-10-19 09:07:34,1500.7572720634505,2,28,0.5501165986061096,3.902269124984741,27.268469334847232,27.04288318233867,108.79675278810646,98.72977366222251,0.0,0.0907677188515663,0,0,0
9138,316505.46425908286,2010-10-19 09:08:04,1530.7722834271567,2,28,0.5501165986061096,3.903402328491211,27.273055712149976,27.04288318233867,108.81465242941728,98.72977366222251,3.237724376958795e-05,0.0907677188515663,0,0,0
9139,316535.4793853981,2010-10-19 09:08:34,1560.7874096571454,2,28,0.5501165986061096,3.90469741821289,27.277642113427564,27.04288318233867,108.83255797472437,98.72977366222251,0.0,0.0907677188515663,0,0,0
9140,316565.4945393622,2010-10-19 09:09:04,1590.8025635761437,2,28,0.5501165986061096,3.90583062171936,27.28222845923787,27.04288318233867,108.85046890413652,98.72977366222251,0.0,0.0907677188515663,0,0,0
9141,316595.50966739666,2010-10-19 09:09:34,1620.8176916106297,2,28,0.5501165986061096,3.90712571144104,27.286814783234693,27.04288318233867,108.86838554306196,98.72977366222251,3.237724376958795e-05,0.0907677188515663,0,0,0
9142,316625.52482816274,2010-10-19 09:10:04,1650.8328523967427,2,28,0.5501165986061096,3.90842080116272,27.29140117018152,27.04288318233867,108.88630810795662,98.72977366222251,6.47544875391759e-05,0.0907677188515663,0,0,0
9143,316655.5399735454,2010-10-19 09:10:34,1680.847997759416,2,28,0.5501165986061096,3.9097158908844,27.29598752638177,27.04288318233867,108.90423631545194,98.72977366222251,6.47544875391759e-05,0.0907677188515663,0,0,0
9144,316685.55523343856,2010-10-19 09:11:04,1710.8632576775965,2,28,0.5499359965324402,3.910687208175659,27.30057388698784,27.04288318233867,108.92217017980484,98.72977366222251,0.0,0.0907677188515663,0,0,0
9145,316715.5704796827,2010-10-19 09:11:34,1740.8785040069097,2,28,0.5497553944587708,3.911982297897339,27.30516015096012,27.04288318233867,108.94010944079116,98.72977366222251,0.0,0.0907677188515663,0,0,0
9146,316745.5853856086,2010-10-19 09:12:04,1770.8934098225575,2,28,0.5501165986061096,3.913439273834229,27.309746376869064,27.04288318233867,108.95805427537928,98.72977366222251,3.237724376958795e-05,0.0907677188515663,0,0,0
9147,316775.6005343096,2010-10-19 09:12:34,1800.9085585235512,2,28,0.5501165986061096,3.914734125137329,27.3143327462448,27.04288318233867,108.97600552430735,98.72977366222251,6.47544875391759e-05,0.0907677188515663,0,0,0
9148,316805.61572260427,2010-10-19 09:13:04,1830.9237468482988,2,28,0.550297200679779,3.915867328643799,27.31891913716756,27.04288318233867,108.99396269659476,98.72977366222251,0.0,0.0907677188515663,0,0,0
9149,316835.6308179974,2010-10-19 09:13:34,1860.9388422113573,2,28,0.5501165986061096,3.917324304580689,27.323505473019768,27.04288318233867,109.01192552452312,98.72977366222251,3.237724376958795e-05,0.0907677188515663,0,0,0
9150,316865.6459857158,2010-10-19 09:14:05,1890.9540099247351,2,28,0.5501165986061096,3.918619394302368,27.32809178962351,27.04288318233867,109.02989421871156,98.72977366222251,6.47544875391759e-05,0.0907677188515663,0,0,0
9151,316895.6611082616,2010-10-19 09:14:35,1920.9691324755545,2,28,0.5499359965324402,3.919914484024048,27.33267808195216,27.04288318233867,109.0478688700968,98.72977366222251,6.47544875391759e-05,0.0907677188515663,0,0,0
9152,316925.6762664913,2010-10-19 09:15:05,1950.9842907554207,2,28,0.5501165986061096,3.921209573745728,27.337264435719057,27.04288318233867,109.06584978225818,98.72977366222251,3.237724376958795e-05,0.0907677188515663,0,0,0
9153,316955.6914040245,2010-10-19 09:15:35,1980.999428238456,2,28,0.550297200679779,3.922666549682617,27.3418507667524,27.04288318233867,109.08383673441358,98.72977366222251,3.237724376958795e-05,0.0907677188515663,0,0,0
9154,316985.70654064533,2010-10-19 09:16:05,2011.0145648894168,2,28,0.5499359965324402,3.923799753189087,27.34643712336596,27.04288318233867,109.10182988347984,98.72977366222251,3.237724376958795e-05,0.0907677188515663,0,0,0
9155,317015.7217043688,2010-10-19 09:16:35,2041.029728667988,2,28,0.5501165986061096,3.925256729125977,27.351023554958772,27.04288318233867,109.1198295899533,98.72977366222251,3.237724376958795e-05,0.0907677188515663,0,0,0
9156,317045.7368425435,2010-10-19 09:17:05,2071.0448667575342,2,28,0.5499359965324402,3.926551818847656,27.355609983309677,27.04288318233867,109.13783543835706,98.72977366222251,3.237724376958795e-05,0.0907677188515663,0,0,0
9157,317075.75199717435,2010-10-19 09:17:35,2101.060021383294,2,28,0.5501165986061096,3.928008794784546,27.360196307784985,27.04288318233867,109.15584716873524,98.72977366222251,6.47544875391759e-05,0.0907677188515663,0,0,0
9158,317105.7671165122,2010-10-19 09:18:05,2131.07514075118,2,28,0.5501165986061096,3.9293038845062256,27.364782671869357,27.04288318233867,109.1738654719184,98.72977366222251,-3.237724376958795e-05,0.0907677188515663,0,0,0
9159,317135.782265163,2010-10-19 09:18:35,2161.0902893669604,2,28,0.5499359965324402,3.930598974227905,27.369369022443852,27.04288318233867,109.19189014719504,98.72977366222251,0.0,0.0907677188515663,0,0,0
9160,317165.7974263652,2010-10-19 09:19:05,2191.105450579136,2,28,0.5501165986061096,3.932217836380005,27.37395544930049,27.04288318233867,109.20992144614236,98.72977366222251,6.47544875391759e-05,0.0907677188515663,0,0,0
9161,317195.81255895604,2010-10-19 09:19:35,2221.1205832050646,2,28,0.5501165986061096,3.9336748123168954,27.378541777853616,27.04288318233867,109.22795883344877,98.72977366222251,6.47544875391759e-05,0.0907677188515663,0,0,0
9162,317225.82769679994,2010-10-19 09:20:05,2251.135721008899,2,28,0.5501165986061096,3.934969902038574,27.383128173917747,27.04288318233867,109.24600302037042,98.72977366222251,6.47544875391759e-05,0.0907677188515663,0,0,0
9163,317255.8428479972,2010-10-19 09:20:35,2281.1508722111266,2,28,0.5501165986061096,3.936426877975464,27.38771465266913,27.04288318233867,109.26405408767914,98.72977366222251,3.237724376958795e-05,0.0907677188515663,0,0,0
9164,317285.85801730456,2010-10-19 09:21:05,2311.1660415385268,2,28,0.5501165986061096,3.938045740127564,27.39230107107559,27.04288318233867,109.28211150183164,98.72977366222251,6.47544875391759e-05,0.0907677188515663,0,0,0
9165,317315.873127705,2010-10-19 09:21:35,2341.181151944076,2,28,0.5501165986061096,3.939502716064453,27.396887438957293,27.04288318233867,109.30017555837274,98.72977366222251,6.47544875391759e-05,0.0907677188515663,0,0,0
9166,317345.888293654,2010-10-19 09:22:05,2371.196317893057,2,28,0.5501165986061096,3.940959692001343,27.401473787903363,27.04288318233867,109.31824638814636,98.72977366222251,6.47544875391759e-05,0.0907677188515663,0,0,0
9167,317375.9034493925,2010-10-19 09:22:35,2401.211473656652,2,28,0.550297200679779,3.942416667938232,27.40606013632214,27.04288318233867,109.33632399977236,98.72977366222251,6.47544875391759e-05,0.0907677188515663,0,0,0
9168,317405.9187229648,2010-10-19 09:23:05,2431.2267472038,2,28,0.5499359965324402,3.943711757659912,27.41064653612349,27.04288318233867,109.35440875658796,98.72977366222251,0.0,0.0907677188515663,0,0,0
9169,317435.93652483827,2010-10-19 09:23:35,2461.244549207641,2,28,0.5501165986061096,3.9454925060272217,27.415233263836623,27.04288318233867,109.37250182632609,98.72977366222251,3.237724376958795e-05,0.0907677188515663,0,0,0
9170,317465.9488767939,2010-10-19 09:24:05,2491.256901002884,2,28,0.5501165986061096,3.9469494819641113,27.419819215469538,27.04288318233867,109.39059892410845,98.72977366222251,3.237724376958795e-05,0.0907677188515663,0,0,0
9171,317495.9641519752,2010-10-19 09:24:35,2521.272176179092,2,28,0.550297200679779,3.948730230331421,27.42440561764152,27.04288318233867,109.40870487898184,98.72977366222251,6.47544875391759e-05,0.0907677188515663,0,0,0
9172,317525.9791468678,2010-10-19 09:25:05,2551.287171076761,2,28,0.5501165986061096,3.9500253200531006,27.42899193962557,27.04288318233867,109.42681769303452,98.72977366222251,0.0,0.0907677188515663,0,0,0
9173,317555.9942755038,2010-10-19 09:25:35,2581.302299712745,2,28,0.550297200679779,3.95180606842041,27.433578256123884,27.04288318233867,109.44493772533126,98.72977366222251,6.47544875391759e-05,0.0907677188515663,0,0,0
9174,317586.0094279541,2010-10-19 09:26:05,2611.3174521630835,2,28,0.5501165986061096,3.9532630443573,27.438164610074143,27.04288318233867,109.46306509420894,98.72977366222251,3.237724376958795e-05,0.0907677188515663,0,0,0
9175,317616.024568174,2010-10-19 09:26:35,2641.332592382939,2,28,0.5499359965324402,3.9548819065094,27.442750956111443,27.04288318233867,109.48119977063855,98.72977366222251,6.47544875391759e-05,0.0907677188515663,0,0,0
9176,317646.039723712,2010-10-19 09:27:05,2671.347747951047,2,28,0.550297200679779,3.956500768661499,27.44733731303024,27.04288318233867,109.49934190060684,98.72977366222251,6.47544875391759e-05,0.0907677188515663,0,0,0
9177,317676.05498152494,2010-10-19 09:27:35,2701.363005743931,2,28,0.5501165986061096,3.9577958583831783,27.451923751457304,27.04288318233867,109.51749166562192,98.72977366222251,-3.237724376958795e-05,0.0907677188515663,0,0,0
9178,317706.07001527445,2010-10-19 09:28:05,2731.3780395385425,2,28,0.550297200679779,3.959738492965698,27.456510111566036,27.04288318233867,109.5356485669414,98.72977366222251,6.47544875391759e-05,0.0907677188515663,0,0,0
9179,317736.0854066553,2010-10-19 09:28:35,2761.3934308993184,2,28,0.5501165986061096,3.961357355117798,27.461096503831616,27.04288318233867,109.55381305825333,98.72977366222251,6.47544875391759e-05,0.0907677188515663,0,0,0
9180,317766.10029382445,2010-10-19 09:29:05,2791.408318043432,2,28,0.5501165986061096,3.9629762172698975,27.465682794812786,27.04288318233867,109.57198471136964,98.72977366222251,3.237724376958795e-05,0.0907677188515663,0,0,0
9181,317796.11543684633,2010-10-19 09:29:35,2821.423461075295,2,28,0.5501165986061096,3.964595079421997,27.47026905801572,27.04288318233867,109.5901639093488,98.72977366222251,3.237724376958795e-05,0.0907677188515663,0,0,0
9182,317826.13070081454,2010-10-19 09:30:05,2851.4387250435702,2,28,0.5499359965324402,3.9662139415740967,27.47485539850899,27.04288318233867,109.60835110141151,98.72977366222251,3.237724376958795e-05,0.0907677188515663,0,0,0
9183,317856.1457207146,2010-10-19 09:30:35,2881.453744928514,2,28,0.5501165986061096,3.968156576156616,27.47944109098638,27.04288318233867,109.62654333470766,98.72977366222251,6.47544875391759e-05,0.0907677188515663,0,0,0
9184,317886.16087709466,2010-10-19 09:31:05,2911.4689013537586,2,28,0.5499359965324402,3.969613552093506,27.484026573654138,27.04288318233867,109.64474245167465,98.72977366222251,0.0,0.0907677188515663,0,0,0
9185,317916.1760478757,2010-10-19 09:31:35,2941.4840721047067,2,28,0.5501165986061096,3.971394300460816,27.48861291573775,27.04288318233867,109.66295293137792,98.72977366222251,3.237724376958795e-05,0.0907677188515663,0,0,0
9186,317946.19144936674,2010-10-19 09:32:05,2971.4994737009933,2,28,0.5501165986061096,3.973336935043335,27.49319942383597,27.04288318233867,109.68117197084872,98.72977366222251,9.713172767078504e-05,0.0907677188515663,0,0,0
9187,317976.20644805883,2010-10-19 09:32:35,3001.5144722627933,2,28,0.5501165986061096,3.9749557971954346,27.497785739134606,27.04288318233867,109.69939806928951,98.72977366222251,6.47544875391759e-05,0.0907677188515663,0,0,0
9188,318006.2214727758,2010-10-19 09:33:05,3031.529496989805,2,28,0.5501165986061096,3.976574659347534,27.502372070618243,27.04288318233867,109.71763217102692,98.72977366222251,3.237724376958795e-05,0.0907677188515663,0,0,0
9189,318036.2366111611,2010-10-19 09:33:35,3061.544635405164,2,28,0.5501165986061096,3.977869749069214,27.506958517107705,27.04288318233867,109.73587441888012,98.72977366222251,0.0,0.0907677188515663,0,0,0
9190,318066.25175851875,2010-10-19 09:34:05,3091.559782727721,2,28,0.5501165986061096,3.9802980422973633,27.51154475983454,27.04288318233867,109.75412422542972,98.72977366222251,9.713172767078504e-05,0.0907677188515663,0,0,0
9191,318096.2669026484,2010-10-19 09:34:35,3121.5749268573213,2,28,0.5499359965324402,3.981916904449463,27.51613108736768,27.04288318233867,109.77238264209817,98.72977366222251,3.237724376958795e-05,0.0907677188515663,0,0,0
9192,318126.2820797,2010-10-19 09:35:05,3151.590103929024,2,28,0.5501165986061096,3.9838595390319824,27.52071739823475,27.04288318233867,109.79064918825152,98.72977366222251,3.237724376958795e-05,0.0907677188515663,0,0,0
9193,318156.2979640996,2010-10-19 09:35:35,3181.605988463941,2,28,0.5501165986061096,3.985478401184082,27.525303816982916,27.04288318233867,109.80892446752893,98.72977366222251,3.237724376958795e-05,0.0907677188515663,0,0,0
9194,318186.3123359595,2010-10-19 09:36:05,3211.6203602035075,2,28,0.5499359965324402,3.9874210357666016,27.529889996854067,27.04288318233867,109.8272071891654,98.72977366222251,6.47544875391759e-05,0.0907677188515663,0,0,0
9195,318216.3274808259,2010-10-19 09:36:35,3241.635505029843,2,28,0.5501165986061096,3.989201784133911,27.53447632886556,27.04288318233867,109.8454990173308,98.72977366222251,3.237724376958795e-05,0.0907677188515663,0,0,0
9196,318246.3426381835,2010-10-19 09:37:05,3271.650662397437,2,28,0.5501165986061096,3.9913063049316406,27.53906264059508,27.04288318233867,109.86379932190286,98.72977366222251,9.713172767078504e-05,0.0907677188515663,0,0,0
9197,318276.3577689397,2010-10-19 09:37:35,3301.665793143681,2,28,0.5501165986061096,3.99308705329895,27.54364896461392,27.04288318233867,109.88210840037831,98.72977366222251,6.47544875391759e-05,0.0907677188515663,0,0,0
9198,318306.37303399073,2010-10-19 09:38:05,3331.6810582347543,2,28,0.5501165986061096,3.99502944946289,27.54823534761784,27.04288318233867,109.90042642114273,98.72977366222251,6.47544875391759e-05,0.0907677188515663,0,0,0
9199,318336.38807826646,2010-10-19 09:38:35,3361.6961025305377,2,28,0.5501165986061096,3.99697208404541,27.552821674048943,27.04288318233867,109.91875315047308,98.72977366222251,6.47544875391759e-05,0.0907677188515663,0,0,0
9200,318366.4034327002,2010-10-19 09:39:05,3391.7114569091427,2,28,0.5501165986061096,3.99875283241272,27.557408055654875,27.04288318233867,109.93708908050016,98.72977366222251,3.237724376958795e-05,0.0907677188515663,0,0,0
9201,318396.418472595,2010-10-19 09:39:35,3421.726496834033,2,28,0.5501165986061096,4.001019477844238,27.56199433354009,27.04288318233867,109.9554336504673,98.72977366222251,6.47544875391759e-05,0.0907677188515663,0,0,0
9202,318426.433512164,2010-10-19 09:40:05,3451.7415364080475,2,28,0.5501165986061096,4.002799987792969,27.56658060024643,27.04288318233867,109.97378734102249,98.72977366222251,3.23295607813634e-05,0.0907677188515663,0,0,0
9203,318456.4486648951,2010-10-19 09:40:35,3481.756689103998,2,28,0.5501165986061096,4.005066394805908,27.571166864726717,27.04288318233867,109.99215029993064,98.72977366222251,0.0001295089750783,0.0907677188515663,0,0,0
9204,318486.4637954208,2010-10-19 09:41:05,3511.77181966478,2,28,0.5501165986061096,4.007171154022217,27.575753189468987,27.04288318233867,110.01052293244608,98.72977366222251,9.71794142969884e-05,0.0907677188515663,0,0,0
9205,318516.47893509927,2010-10-19 09:41:35,3541.786959343286,2,28,0.5501165986061096,4.009113788604736,27.580339508376163,27.04288318233867,110.02890516891026,98.72977366222251,3.24249267578125e-05,0.0907677188515663,0,0,0
9206,318546.4941019204,2010-10-19 09:42:05,3571.8021261644403,2,28,0.5501165986061096,4.011380195617676,27.584925801065616,27.04288318233867,110.04729703575556,98.72977366222251,6.47544875391759e-05,0.0907677188515663,0,0,0
9207,318576.50921529834,2010-10-19 09:42:35,3601.8172395073107,2,28,0.5501165986061096,4.013484477996826,27.58951202563241,27.04288318233867,110.06569842629273,98.72977366222251,9.70840483205393e-05,0.0907677188515663,0,0,0
9208,318606.524476615,2010-10-19 09:43:05,3631.832500859064,2,28,0.5499359965324402,4.015589237213135,27.59409829568952,27.04288318233867,110.0841098467458,98.72977366222251,6.47544875391759e-05,0.0907677188515663,0,0,0
9209,318636.5396189551,2010-10-19 09:43:35,3661.8476431691297,2,28,0.5501165986061096,4.017855644226074,27.598684671506778,27.04288318233867,110.1025317483738,98.72977366222251,6.47544875391759e-05,0.0907677188515663,0,0,0
9210,318666.55469160667,2010-10-19 09:44:05,3691.862715855671,2,28,0.5501165986061096,4.020122051239014,27.60327091380977,27.04288318233867,110.12096312080864,98.72977366222251,0.0001295089750783,0.0907677188515663,0,0,0
9211,318696.5698192551,2010-10-19 09:44:35,3721.8778434640953,2,28,0.5499359965324402,4.022064685821533,27.60785709565935,27.04288318233867,110.13940447289325,98.72977366222251,3.24249267578125e-05,0.0907677188515663,0,0,0
9212,318726.5851062357,2010-10-19 09:45:05,3751.893130469786,2,28,0.5501165986061096,4.024492740631104,27.61244333511784,27.04288318233867,110.15785625966464,98.72977366222251,6.47544875391759e-05,0.0907677188515663,0,0,0
9213,318756.6001784912,2010-10-19 09:45:35,3781.908202725253,2,28,0.5501165986061096,4.026597499847412,27.61702959286425,27.04288318233867,110.17631831817393,98.72977366222251,3.24249267578125e-05,0.0907677188515663,0,0,0
9214,318786.61538348754,2010-10-19 09:46:06,3811.923407721552,2,28,0.5501165986061096,4.028863906860352,27.6216157876992,27.04288318233867,110.19479038361628,98.72977366222251,6.47544875391759e-05,0.0907677188515663,0,0,0
9215,318816.6304123599,2010-10-19 09:46:36,3841.938436568833,2,28,0.5501165986061096,4.031130313873291,27.62620204339882,27.04288318233867,110.21327305476468,98.72977366222251,6.47544875391759e-05,0.0907677188515663,0,0,0
9216,318846.64557427383,2010-10-19 09:47:06,3871.953598492782,2,28,0.5501165986061096,4.033558368682861,27.63078826891311,27.04288318233867,110.23176617396878,98.72977366222251,6.47544875391759e-05,0.0907677188515663,0,0,0
9217,318876.660707386,2010-10-19 09:47:36,3901.968731624973,2,28,0.5501165986061096,4.035824775695801,27.63537454979262,27.04288318233867,110.25027017595436,98.72977366222251,6.47544875391759e-05,0.0907677188515663,0,0,0
9218,318906.67588120955,2010-10-19 09:48:06,3931.98390544858,2,28,0.5499359965324402,4.03809118270874,27.639960774600407,27.04288318233867,110.26878473756796,98.72977366222251,3.24249267578125e-05,0.0907677188515663,0,0,0
9219,318936.69100000605,2010-10-19 09:48:36,3961.999024214967,2,28,0.5501165986061096,4.040519237518311,27.64454702953118,27.04288318233867,110.28731018190884,98.72977366222251,9.70840483205393e-05,0.0907677188515663,0,0,0
9220,318966.7062515333,2010-10-19 09:49:06,3992.0142758926095,2,28,0.5499359965324402,4.042947769165039,27.64913325467433,27.04288318233867,110.30584650477682,98.72977366222251,6.47544875391759e-05,0.0907677188515663,0,0,0
9221,318996.7212828217,2010-10-19 09:49:36,4022.0293070306,2,28,0.5501165986061096,4.045537948608398,27.653719443583917,27.04288318233867,110.32439384160462,98.72977366222251,9.71794142969884e-05,0.0907677188515663,0,0,0
9222,319026.7365526144,2010-10-19 09:50:06,4052.044576858478,2,28,0.5499359965324402,4.047804355621338,27.658305636133772,27.04288318233867,110.34295232937102,98.72977366222251,6.47544875391759e-05,0.0907677188515663,0,0,0
9223,319056.7515874516,2010-10-19 09:50:36,4082.0596116606,2,28,0.5501165986061096,4.050232410430908,27.66289180949673,27.04288318233867,110.36152204280197,98.72977366222251,3.23295607813634e-05,0.0907677188515663,0,0,0
9224,319086.7667408944,2010-10-19 09:51:06,4112.074765113437,2,28,0.5499359965324402,4.052660942077637,27.667478061158704,27.04288318233867,110.38010345143064,98.72977366222251,3.24249267578125e-05,0.0907677188515663,0,0,0
9225,319116.78187127976,2010-10-19 09:51:36,4142.089895518831,2,28,0.5499359965324402,4.055412769317627,27.672064336777566,27.04288318233867,110.3986965617682,98.72977366222251,9.70840483205393e-05,0.0907677188515663,0,0,0
9226,319146.79701154976,2010-10-19 09:52:06,4172.105035758737,2,28,0.5501165986061096,4.057841300964356,27.67665059011307,27.04288318233867,110.41730118956552,98.72977366222251,6.47544875391759e-05,0.0907677188515663,0,0,0
9227,319176.81217098254,2010-10-19 09:52:36,4202.120195246615,2,28,0.5499359965324402,4.060431480407715,27.68123685983205,27.04288318233867,110.43591760015192,98.72977366222251,6.47544875391759e-05,0.0907677188515663,0,0,0
9228,319206.82731895166,2010-10-19 09:53:06,4232.135343160647,2,28,0.5499359965324402,4.062859535217285,27.68582307207225,27.04288318233867,110.45454525216746,98.72977366222251,3.23295607813634e-05,0.0907677188515663,0,0,0
9229,319236.84245422424,2010-10-19 09:53:36,4262.150478463246,2,28,0.5501165986061096,4.0657734870910645,27.690409231068976,27.04288318233867,110.47318481636772,98.72977366222251,9.70840483205393e-05,0.0907677188515663,0,0,0
9230,319266.8576047297,2010-10-19 09:54:06,4292.165628943675,2,28,0.5497553944587708,4.068039894104004,27.69499542543224,27.04288318233867,110.4918366079478,98.72977366222251,3.23295607813634e-05,0.0907677188515663,0,0,0
9231,319296.8727371401,2010-10-19 09:54:36,4322.180761349055,2,28,0.5501165986061096,4.070953845977783,27.699581599879497,27.04288318233867,110.51050056827472,98.72977366222251,3.23295607813634e-05,0.0907677188515663,0,0,0
9232,319326.8882062647,2010-10-19 09:55:06,4352.196230568879,2,28,0.5499359965324402,4.073544025421143,27.70416783888211,27.04288318233867,110.5291770437986,98.72977366222251,3.23295607813634e-05,0.0907677188515663,0,0,0
9233,319356.9058489314,2010-10-19 09:55:36,4382.213873300765,2,28,0.5501165986061096,4.076296329498291,27.70875445575995,27.04288318233867,110.54786761766732,98.72977366222251,3.24249267578125e-05,0.0907677188515663,0,0,0
9234,319386.91819856124,2010-10-19 09:56:06,4412.226222800286,2,28,0.550297200679779,4.079371929168701,27.713340192624795,27.04288318233867,110.56656721799364,98.72977366222251,0.0001295089750783,0.0907677188515663,0,0,0
9235,319416.93334164325,2010-10-19 09:56:36,4442.241365882275,2,28,0.5501165986061096,4.08180046081543,27.717926433087985,27.04288318233867,110.58528152820772,98.72977366222251,9.71794142969884e-05,0.0907677188515663,0,0,0
9236,319446.9485090258,2010-10-19 09:57:06,4472.256533239767,2,28,0.5499359965324402,4.084714412689209,27.722512557333125,27.04288318233867,110.604008082646,98.72977366222251,3.24249267578125e-05,0.0907677188515663,0,0,0
9237,319476.9636466492,2010-10-19 09:57:36,4502.271670903251,2,28,0.5501165986061096,4.087466239929199,27.727098794691184,27.04288318233867,110.62274798895218,98.72977366222251,6.47544875391759e-05,0.0907677188515663,0,0,0
9238,319506.9787644381,2010-10-19 09:58:06,4532.286788682177,2,28,0.5501165986061096,4.0903801918029785,27.731685022192707,27.04288318233867,110.64150081359968,98.72977366222251,6.47544875391759e-05,0.0907677188515663,0,0,0
9239,319536.99393316905,2010-10-19 09:58:36,4562.301957388028,2,28,0.550297200679779,4.093294143676758,27.736271282824607,27.04288318233867,110.66026674211328,98.72977366222251,9.70840483205393e-05,0.0907677188515663,0,0,0
9240,319567.00906842656,2010-10-19 09:59:06,4592.317092640505,2,28,0.5501165986061096,4.096208095550537,27.740857512675927,27.04288318233867,110.6790456351006,98.72977366222251,9.70840483205393e-05,0.0907677188515663,0,0,0
9241,319597.0243414023,2010-10-19 09:59:36,4622.332365676378,2,28,0.5501165986061096,4.099122047424316,27.745443763922733,27.04288318233867,110.69783793877404,98.72977366222251,9.70840483205393e-05,0.0907677188515663,0,0,0
9242,319627.03933730244,2010-10-19 10:00:06,4652.347361511383,2,28,0.5501165986061096,4.101874351501465,27.750029930866763,27.04288318233867,110.7166434711406,98.72977366222251,9.71794142969884e-05,0.0907677188515663,0,0,0
9243,319657.0545130408,2010-10-19 10:00:36,4682.362537274824,2,28,0.5501165986061096,4.104949951171875,27.75461609460168,27.04288318233867,110.73546254441445,98.72977366222251,9.70840483205393e-05,0.0907677188515663,0,0,0
9244,319687.0696440477,2010-10-19 10:01:06,4712.377668261668,2,28,0.5501165986061096,4.108187675476074,27.759202342407075,27.04288318233867,110.7542958303254,98.72977366222251,9.70840483205393e-05,0.0907677188515663,0,0,0
9245,319717.0848976652,2010-10-19 10:01:36,4742.392921919245,2,28,0.5501165986061096,4.110939979553223,27.76378854113912,27.04288318233867,110.77314280916907,98.72977366222251,6.47544875391759e-05,0.0907677188515663,0,0,0
9246,319747.0999147331,2010-10-19 10:02:06,4772.407938947069,2,28,0.5501165986061096,4.114177703857422,27.768374752004757,27.04288318233867,110.79200386924082,98.72977366222251,6.47544875391759e-05,0.0907677188515663,0,0,0
9247,319777.11509046145,2010-10-19 10:02:36,4802.423114735571,2,28,0.5497553944587708,4.117091178894043,27.77296093385696,27.04288318233867,110.81087897283447,98.72977366222251,6.47544875391759e-05,0.0907677188515663,0,0,0
9248,319807.1303356329,2010-10-19 10:03:06,4832.438359891961,2,28,0.5499359965324402,4.120167255401611,27.77754702717741,27.04288318233867,110.82976787953824,98.72977366222251,6.47544875391759e-05,0.0907677188515663,0,0,0
9249,319837.14533715206,2010-10-19 10:03:36,4862.453361406119,2,28,0.5499359965324402,4.1232428550720215,27.78213316830498,27.04288318233867,110.84867143707083,98.72977366222251,6.47544875391759e-05,0.0907677188515663,0,0,0
9250,319867.16089480225,2010-10-19 10:04:06,4892.46891905634,2,28,0.5501165986061096,4.12664270401001,27.786719409893088,27.04288318233867,110.86758997858723,98.72977366222251,6.47544875391759e-05,0.0907677188515663,0,0,0
9251,319897.17570476903,2010-10-19 10:04:36,4922.483729018091,2,28,0.550297200679779,4.129880428314209,27.79130558540563,27.04288318233867,110.88652277650009,98.72977366222251,9.71794142969884e-05,0.0907677188515663,0,0,0
9252,319927.1908475804,2010-10-19 10:05:06,4952.498871829405,2,28,0.5499359965324402,4.132956027984619,27.795891816417782,27.04288318233867,110.90547048913454,98.72977366222251,6.47544875391759e-05,0.0907677188515663,0,0,0
9253,319957.2059772389,2010-10-19 10:05:36,4982.514001452852,2,28,0.5501165986061096,4.136355876922607,27.800478008408533,27.04288318233867,110.92443270300151,98.72977366222251,9.71794142969884e-05,0.0907677188515663,0,0,0
9254,319987.22112949373,2010-10-19 10:06:06,5012.529153712715,2,28,0.5501165986061096,4.139593601226807,27.805064254744806,27.04288318233867,110.9434101711193,98.72977366222251,9.71794142969884e-05,0.0907677188515663,0,0,0
9255,320017.2363088962,2010-10-19 10:06:36,5042.544333110213,2,28,0.5497553944587708,4.142669200897217,27.80965050671728,27.04288318233867,110.962402769733,98.72977366222251,6.47544875391759e-05,0.0907677188515663,0,0,0
9256,320047.251436244,2010-10-19 10:07:06,5072.559460488063,2,28,0.5499359965324402,4.146069049835205,27.81423669935533,27.04288318233867,110.98141039945448,98.72977366222251,3.24249267578125e-05,0.0907677188515663,0,0,0
9257,320077.2666878113,2010-10-19 10:07:36,5102.574712040393,2,28,0.5501165986061096,4.149630546569824,27.81882292481668,27.04288318233867,111.00043368579972,98.72977366222251,9.71794142969884e-05,0.0907677188515663,0,0,0
9258,320107.2817162877,2010-10-19 10:08:06,5132.589740546824,2,28,0.5501165986061096,4.153192043304443,27.823409070856712,27.04288318233867,111.01947214275307,98.72977366222251,0.0001295089750783,0.0907677188515663,0,0,0
9259,320137.296859074,2010-10-19 10:08:36,5162.604883292976,2,28,0.5501165986061096,4.1562676429748535,27.82799523946744,27.04288318233867,111.03852620616156,98.72977366222251,9.70840483205393e-05,0.0907677188515663,0,0,0
9260,320167.3120178501,2010-10-19 10:09:06,5192.62004210918,2,28,0.550297200679779,4.159829139709473,27.832581425598296,27.04288318233867,111.0575959359463,98.72977366222251,0.0001295089750783,0.0907677188515663,0,0,0
9261,320197.3271516339,2010-10-19 10:09:36,5222.63517584287,2,28,0.5501165986061096,4.163390636444092,27.83716744508141,27.04288318233867,111.0766808045532,98.72977366222251,0.0001295089750783,0.0907677188515663,0,0,0
9262,320227.34232213424,2010-10-19 10:10:06,5252.650346373269,2,28,0.550297200679779,4.1671142578125,27.841753562126204,27.04288318233867,111.09578212461147,98.72977366222251,0.0001619339018361,0.0907677188515663,0,0,0
9263,320257.3574574168,2010-10-19 10:10:36,5282.665481655819,2,28,0.550297200679779,4.170351982116699,27.846339768699483,27.04288318233867,111.1148999443776,98.72977366222251,9.71794142969884e-05,0.0907677188515663,0,0,0
9264,320287.3728447325,2010-10-19 10:11:06,5312.680869071763,2,28,0.550297200679779,4.173913478851318,27.850925955047472,27.04288318233867,111.1340339540435,98.72977366222251,9.71794142969884e-05,0.0907677188515663,0,0,0
9265,320317.3879300956,2010-10-19 10:11:36,5342.695954515099,2,28,0.5501165986061096,4.177312850952148,27.855512099333865,27.04288318233867,111.15318407955344,98.72977366222251,9.70840483205393e-05,0.0907677188515663,0,0,0
9266,320347.4028845575,2010-10-19 10:12:06,5372.710908801552,2,28,0.5501165986061096,4.181036472320557,27.860098289857504,27.04288318233867,111.17235085188436,98.72977366222251,9.71794142969884e-05,0.0907677188515663,0,0,0
9267,320377.41808404506,2010-10-19 10:12:36,5402.72610830917,2,28,0.5501165986061096,4.184597969055176,27.864684463175,27.04288318233867,111.19153411855996,98.72977366222251,6.47544875391759e-05,0.0907677188515663,0,0,0
9268,320407.4332089568,2010-10-19 10:13:06,5432.741233195811,2,28,0.5499359965324402,4.188159465789795,27.86927062298013,27.04288318233867,111.21073384845086,98.72977366222251,6.47544875391759e-05,0.0907677188515663,0,0,0
9269,320437.448368976,2010-10-19 10:13:36,5462.756393245088,2,28,0.5501165986061096,4.192044734954834,27.87385682976869,27.04288318233867,111.22995062106686,98.72977366222251,0.0001295089750783,0.0907677188515663,0,0,0
9270,320467.4634989102,2010-10-19 10:14:06,5492.7715231392085,2,28,0.5501165986061096,4.195767879486084,27.87844302685057,27.04288318233867,111.24918432118253,98.72977366222251,9.71794142969884e-05,0.0907677188515663,0,0,0
9271,320497.4786179272,2010-10-19 10:14:36,5522.786642146195,2,28,0.5501165986061096,4.199491024017334,27.883029186531857,27.04288318233867,111.26843480028307,98.72977366222251,9.70840483205393e-05,0.0907677188515663,0,0,0
9272,320501.9004617175,2010-10-19 10:14:41,5527.208485936488,2,28,0.5501165986061096,4.200138568878174,27.883704837589686,27.04288318233867,111.27127230954927,98.72977366222251,0.0001295089750783,0.0907677188515663,0,0,0
9273,320531.9079336079,2010-10-19 10:15:11,30.014963424226536,3,28,0.0,4.111911296844482,27.883704837589686,27.04288318233867,111.27127230954927,98.72977366222251,-0.0003885269106831,0.0907677188515663,0,0,0
9274,320561.9230837224,2010-10-19 10:15:41,60.030113533730216,3,28,0.0,4.100579261779785,27.883704837589686,27.04288318233867,111.27127230954927,98.72977366222251,-0.0002265930233988,0.0907677188515663,0,0,0
9275,320591.93824686937,2010-10-19 10:16:11,90.04527668573984,3,28,0.0,4.094103813171387,27.883704837589686,27.04288318233867,111.27127230954927,98.72977366222251,-0.0001295089750783,0.0907677188515663,0,0,0
9276,320621.90672578494,2010-10-19 10:16:41,120.01375570653012,3,28,0.0,4.089408874511719,27.883704837589686,27.04288318233867,111.27127230954927,98.72977366222251,-0.0001295089750783,0.0907677188515663,0,0,0
9277,320621.9167374481,2010-10-19 10:16:41,0.015751357228786,4,28,0.9991112947463988,4.199814796447754,27.88370920907809,27.04288318233867,111.27129066899096,98.72977366222251,0.0,0.0907677188515663,0,0,0
9278,320622.8384762348,2010-10-19 10:16:42,0.937490183997039,4,28,0.948901891708374,4.199653148651123,27.88395697822597,27.04288318233867,111.2723312422822,98.72977366222251,-3.23295607813634e-05,0.0907677188515663,0,0,0
9279,320624.9791931751,2010-10-19 10:16:44,3.078207094219439,4,28,0.8988731503486633,4.199814796447754,27.884505259168947,27.04288318233867,111.27463389180332,98.72977366222251,0.0,0.0907677188515663,0,0,0
9280,320628.21352957154,2010-10-19 10:16:47,6.312543490699898,4,28,0.8486637473106384,4.199814796447754,27.88528918256531,27.04288318233867,111.27792618946124,98.72977366222251,0.0,0.0907677188515663,0,0,0
9281,320632.63520032563,2010-10-19 10:16:52,10.734214274807982,4,28,0.7982737421989441,4.199814796447754,27.88629933833729,27.04288318233867,111.28216864461923,98.72977366222251,3.23295607813634e-05,0.0907677188515663,0,0,0
9282,320638.3538536994,2010-10-19 10:16:58,16.4528675984762,4,28,0.7482450008392334,4.199814796447754,27.887526294143008,27.04288318233867,111.2873216011346,98.72977366222251,0.0,0.0907677188515663,0,0,0
9283,320645.8068550019,2010-10-19 10:17:05,23.90586891097813,4,28,0.6982161998748779,4.199814796447754,27.889021604401663,27.04288318233867,111.29360162506325,98.72977366222251,3.23295607813634e-05,0.0907677188515663,0,0,0
9284,320655.6035991126,2010-10-19 10:17:15,33.702613046747274,4,28,0.6481874585151672,4.199814796447754,27.890850483265098,27.04288318233867,111.30128256165985,98.72977366222251,3.23295607813634e-05,0.0907677188515663,0,0,0
9285,320669.2283687408,2010-10-19 10:17:28,47.32738264983497,4,28,0.5981586575508118,4.199814796447754,27.89320373384917,27.04288318233867,111.31116576285947,98.72977366222251,0.0,0.0907677188515663,0,0,0
9286,320689.94692093774,2010-10-19 10:17:49,68.04593484684906,4,28,0.5481299161911011,4.199976921081543,27.896491750604017,27.04288318233867,111.3249748218916,98.72977366222251,6.47544875391759e-05,0.0907677188515663,0,0,0
9287,320724.9151328462,2010-10-19 10:18:24,103.01414679547489,4,28,0.498101145029068,4.199653148651123,27.901552230134207,27.04288318233867,111.34622784825908,98.72977366222251,-3.23295607813634e-05,0.0907677188515663,0,0,0
9288,320790.35145720583,2010-10-19 10:19:30,168.45047113498256,4,28,0.4478917717933655,4.199653148651123,27.910112813515564,27.04288318233867,111.3821806231218,98.72977366222251,0.0,0.0907677188515663,0,0,0
9289,320893.3341667149,2010-10-19 10:21:13,271.43318062902927,4,28,0.3978630006313324,4.199814796447754,27.922181772558822,27.04288318233867,111.4328679100034,98.72977366222251,3.23295607813634e-05,0.0907677188515663,0,0,0
9290,321022.48836574866,2010-10-19 10:23:22,400.5873796477375,4,28,0.3478342294692993,4.199814796447754,27.935543996304546,27.04288318233867,111.48898675502252,98.72977366222251,0.0,0.0907677188515663,0,0,0
9291,321176.5952861618,2010-10-19 10:25:56,554.694300080971,4,28,0.2978054583072662,4.199814796447754,27.94935084791109,27.04288318233867,111.54697294511551,98.72977366222251,3.23295607813634e-05,0.0907677188515663,0,0,0
9292,321363.88917794405,2010-10-19 10:29:03,741.9881918882446,4,28,0.2477766871452331,4.199814796447754,27.96352272449781,27.04288318233867,111.60649215215248,98.72977366222251,0.0,0.0907677188515663,0,0,0
9293,321595.18233106873,2010-10-19 10:32:54,973.281344977868,4,28,0.1975672990083694,4.199653148651123,27.977781176768527,27.04288318233867,111.6663749546349,98.72977366222251,0.0,0.0907677188515663,0,0,0
9294,321893.66195671074,2010-10-19 10:37:53,1271.760970624865,4,28,0.1475385427474975,4.199814796447754,27.99201416458808,27.04288318233867,111.72615107534136,98.72977366222251,0.0,0.0907677188515663,0,0,0
9295,322333.98308135674,2010-10-19 10:45:13,1712.082095270906,4,28,0.0975097641348838,4.199814796447754,28.0068116470723,27.04288318233867,111.78829771915778,98.72977366222251,0.0,0.0907677188515663,0,0,0
9296,323105.65826400043,2010-10-19 10:58:05,2483.757277929609,4,28,0.0498289167881011,4.199653148651123,28.02202086372751,27.04288318233867,111.85217367046612,98.72977366222251,-3.23295607813634e-05,0.0907677188515663,0,0,0
9297,323135.67624828947,2010-10-19 10:58:35,30.015149713516767,5,28,0.0,4.191558837890625,28.02202086372751,27.04288318233867,111.85217367046612,98.72977366222251,-6.47544875391759e-05,0.0907677188515663,0,0,0
9298,323165.67577090545,2010-10-19 10:59:05,60.01467231947315,5,28,0.0,4.1901021003723145,28.02202086372751,27.04288318233867,111.85217367046612,98.72977366222251,-6.47544875391759e-05,0.0907677188515663,0,0,0
9299,323165.8518106849,2010-10-19 10:59:05,0.18785965406089,6,28,-1.9243103452026844e-05,4.190425872802734,28.02202086372751,27.04288318334284,111.85217367046612,98.7297736664304,0.0,0.0940944999456405,0,0,0
9300,323170.6796717953,2010-10-19 10:59:10,5.015720714318763,6,28,0.0007031940040178,4.190263748168945,28.02202179883253,27.042883183425573,111.85217758889245,98.7297736667771,-6.47544875391759e-05,0.0940944999456405,0,0,0
9301,323200.68289307185,2010-10-19 10:59:40,30.01515169345137,7,28,-1.0993878841400146,4.006847381591797,28.02202179883253,27.052050554441333,111.85217758889245,98.76671184610272,-0.0009388923645019,0.0940944999456405,0,0,0
9302,323230.6980479883,2010-10-19 11:00:10,60.03030660492304,7,28,-1.0993878841400146,3.977869749069214,28.02202179883253,27.06121793302506,111.85217758889245,98.80330282279036,-0.0006799221155233,0.0940944999456405,0,0,0
9303,323260.71345443174,2010-10-19 11:00:40,90.04571306332706,7,28,-1.0997490882873535,3.9579577445983887,28.02202179883253,27.070385265219908,111.85217758889245,98.8396752384464,-0.0005180359003134,0.0940944999456405,0,0,0
9304,323290.72833742545,2010-10-19 11:01:10,120.0605960821586,7,28,-1.099568486213684,3.9429023265838623,28.02202179883253,27.07955246038157,111.85217758889245,98.87588803112529,-0.0003561496851034,0.0940944999456405,0,0,0
9305,323320.74348141975,2010-10-19 11:01:40,150.07574007140877,7,28,-1.099568486213684,3.9301133155822754,28.02202179883253,27.088719720122462,111.85217758889245,98.91197400983916,-0.0003561496851034,0.0940944999456405,0,0,0
9306,323350.7590032507,2010-10-19 11:02:10,180.0912619324316,7,28,-1.0993878841400146,3.919428825378418,28.02202179883253,27.097887091031108,111.85217758889245,98.94795284719136,-0.0002266406954731,0.0940944999456405,0,0,0
9307,323380.77377800463,2010-10-19 11:02:40,210.1060366513464,7,28,-1.099568486213684,3.9092302322387695,28.02202179883253,27.107054264250472,111.85217758889245,98.98383487475104,-0.0002590179501567,0.0940944999456405,0,0,0
9308,323410.78894804383,2010-10-19 11:03:10,240.12120666545857,7,28,-1.0993878841400146,3.899840831756592,28.02202179883253,27.116221563523524,111.85217758889245,99.01962815727076,-0.0002590179501567,0.0940944999456405,0,0,0
9309,323440.80409345165,2010-10-19 11:03:40,270.1363520732441,7,28,-1.0997490882873535,3.890613317489624,28.02202179883253,27.125388793284205,111.85217758889245,99.0553366979697,-0.0002913951757363,0.0940944999456405,0,0,0
9310,323470.8193767882,2010-10-19 11:04:10,300.15163541981553,7,28,-1.0997490882873535,3.881871461868286,28.02202179883253,27.13455607516588,111.85217758889245,99.09096409925176,-0.0002266406954731,0.0940944999456405,0,0,0
9311,323500.8346134233,2010-10-19 11:04:40,330.1668720599802,7,28,-1.099568486213684,3.873615264892578,28.02202179883253,27.14372342313785,111.85217758889245,99.12651333462964,-0.0002266406954731,0.0940944999456405,0,0,0
9312,323530.84951722395,2010-10-19 11:05:10,360.18177587063144,7,28,-1.099568486213684,3.86535906791687,28.02202179883253,27.152890681422925,111.85217758889245,99.16198584997174,-0.0001942634553415,0.0940944999456405,0,0,0
9313,323560.86473045574,2010-10-19 11:05:40,390.1969891174928,7,28,-1.099568486213684,3.857264757156372,28.02202179883253,27.16205802326256,111.85217758889245,99.19738388027196,-0.0001942634553415,0.0940944999456405,0,0,0
9314,323590.8798297286,2010-10-19 11:06:10,420.21208847550827,7,28,-1.0997490882873535,3.849332332611084,28.02202179883253,27.17122529554224,111.85217758889245,99.23270806633684,-0.0001942634553415,0.0940944999456405,0,0,0
9315,323620.8949603696,2010-10-19 11:06:40,450.22721902125306,7,28,-1.099568486213684,3.841399908065796,28.02202179883253,27.180392580497344,111.85217758889245,99.2679594734549,-0.0002266406954731,0.0940944999456405,0,0,0
9316,323650.9101120931,2010-10-19 11:07:11,480.2423707197168,7,28,-1.099568486213684,3.8336293697357178,28.02202179883253,27.18955987479881,111.85217758889245,99.30313914488694,-0.0001942634553415,0.0940944999456405,0,0,0
9317,323680.92528493423,2010-10-19 11:07:41,510.2575435859373,7,28,-1.099568486213684,3.8260209560394287,28.02202179883253,27.198727189603776,111.85217758889245,99.33824827284305,-0.0002266406954731,0.0940944999456405,0,0,0
9318,323710.94042248244,2010-10-19 11:08:11,540.2726811040593,7,28,-1.099568486213684,3.8185741901397705,28.02202179883253,27.207894548872247,111.85217758889245,99.37328838444988,-0.0001942634553415,0.0940944999456405,0,0,0
9319,323740.9556737791,2010-10-19 11:08:41,570.2879324308276,7,28,-1.099568486213684,3.811127424240112,28.02202179883253,27.21706188408901,111.85217758889245,99.40825984378878,-0.0001618862152099,0.0940944999456405,0,0,0
9320,323770.97069842095,2010-10-19 11:09:11,600.3029570575897,7,28,-1.099568486213684,3.803842544555664,28.02202179883253,27.22622911992904,111.85217758889245,99.4431634881066,-0.0001942634553415,0.0940944999456405,0,0,0
9321,323800.9858548562,2010-10-19 11:09:41,630.3181135028842,7,28,-1.0993878841400146,3.796881437301636,28.02202179883253,27.235396455971937,111.85217758889245,99.4780023269126,-0.0001618862152099,0.0940944999456405,0,0,0
9322,323831.0010109456,2010-10-19 11:10:11,660.3332695622166,7,28,-1.099568486213684,3.7897584438323975,28.02202179883253,27.244563740751516,111.85217758889245,99.51277635157344,-0.0001942634553415,0.0940944999456405,0,0,0
9323,323861.01614506025,2010-10-19 11:10:41,690.3484036768562,7,28,-1.099568486213684,3.782959222793579,28.02202179883253,27.25373102788193,111.85217758889245,99.54748735015848,-0.0001942634553415,0.0940944999456405,0,0,0
9324,323891.0313134453,2010-10-19 11:11:11,720.3635720969955,7,28,-1.0993878841400146,3.7764837741851807,28.02202179883253,27.262898376172465,111.85217758889245,99.58213678615203,-0.0001618862152099,0.0940944999456405,0,0,0
9325,323921.0464508181,2010-10-19 11:11:41,750.3787094797804,7,28,-1.099568486213684,3.769846439361572,28.02202179883253,27.272065663278777,111.85217758889245,99.61672593007832,-0.0001618862152099,0.0940944999456405,0,0,0
9326,323951.06160301773,2010-10-19 11:12:11,780.393861664456,7,28,-1.099568486213684,3.763370990753174,28.02202179883253,27.28123292791106,111.85217758889245,99.65125574097128,-0.0001942634553415,0.0940944999456405,0,0,0
9327,323981.0768154225,2010-10-19 11:12:41,810.4090740842562,7,28,-1.099568486213684,3.757057428359986,28.02202179883253,27.29040026746903,111.85217758889245,99.68572705123228,-0.0001942634553415,0.0940944999456405,0,0,0
9328,324011.0918867958,2010-10-19 11:13:11,840.4241454575249,7,28,-1.099568486213684,3.750905990600586,28.02202179883253,27.29956755100006,111.85217758889245,99.72014116025528,-0.0001618862152099,0.0940944999456405,0,0,0
9329,324041.10706389253,2010-10-19 11:13:41,870.4393225442642,7,28,-1.0993878841400146,3.744754314422608,28.02202179883253,27.30873480860393,111.85217758889245,99.75449908488564,-0.0001942634553415,0.0940944999456405,0,0,0
9330,324071.12219030305,2010-10-19 11:14:11,900.45444892964,7,28,-1.0993878841400146,3.738764524459839,28.02202179883253,27.317902037085748,111.85217758889245,99.7888011327254,-0.0001618862152099,0.0940944999456405,0,0,0
9331,324101.1373424075,2010-10-19 11:14:41,930.4696010541658,7,28,-1.0993878841400146,3.73293662071228,28.02202179883253,27.327069280172537,111.85217758889245,99.82304846171608,-0.0001295089750783,0.0940944999456405,0,0,0
9332,324131.15247466747,2010-10-19 11:15:11,960.484733324208,7,28,-1.099568486213684,3.7271087169647217,28.02202179883253,27.336236516993186,111.85217758889245,99.85724239303538,-0.0001618862152099,0.0940944999456405,0,0,0
9333,324161.167744716,2010-10-19 11:15:41,990.5000033776488,7,28,-1.099568486213684,3.721442699432373,28.02202179883253,27.34540377059068,111.85217758889245,99.89138435604433,-0.0001295089750783,0.0940944999456405,0,0,0
9334,324191.1827772975,2010-10-19 11:16:11,1020.515035929162,7,28,-1.099568486213684,3.7159385681152335,28.02202179883253,27.354571048855917,111.85217758889245,99.92547421988208,-0.0001295089750783,0.0940944999456405,0,0,0
9335,324221.1979235474,2010-10-19 11:16:41,1050.5301822041088,7,28,-1.0993878841400146,3.7105963230133057,28.02202179883253,27.36373831116199,111.85217758889245,99.95951413165102,-0.0001295089750783,0.0940944999456405,0,0,0
9336,324251.2130697672,2010-10-19 11:17:11,1080.545328423918,7,28,-1.0993878841400146,3.705415964126587,28.02202179883253,27.372905610812097,111.85217758889245,99.993505689484,-9.713172767078504e-05,0.0940944999456405,0,0,0
9337,324281.2282121825,2010-10-19 11:17:41,1110.560470834233,7,28,-1.0997490882873535,3.699911832809448,28.02202179883253,27.382072881018296,111.85217758889245,100.0274493854594,-0.0001942634553415,0.0940944999456405,0,0,0
9338,324311.24432349263,2010-10-19 11:18:11,1140.576582269657,7,28,-1.099568486213684,3.695055246353149,28.02202179883253,27.391240475940045,111.85217758889245,100.06134699063624,-9.713172767078504e-05,0.0940944999456405,0,0,0
9339,324341.25855826086,2010-10-19 11:18:41,1170.5908170127857,7,28,-1.099568486213684,3.6900367736816406,28.02202179883253,27.400407554376848,111.85217758889245,100.09519589696984,-9.713172767078504e-05,0.0940944999456405,0,0,0
9340,324371.27365890704,2010-10-19 11:19:11,1200.605917548737,7,28,-1.0997490882873535,3.685018301010132,28.02202179883253,27.40957485102959,111.85217758889245,100.12899971452428,-0.0001295089750783,0.0940944999456405,0,0,0
9341,324401.2888118235,2010-10-19 11:19:41,1230.621070440174,7,28,-1.099568486213684,3.679837942123413,28.02202179883253,27.41874223549138,111.85217758889245,100.16275844645884,-0.0001618862152099,0.0940944999456405,0,0,0
9342,324431.3039898827,2010-10-19 11:20:11,1260.6362484993367,7,28,-1.0993878841400146,3.675305128097534,28.02202179883253,27.427909654028696,111.85217758889245,100.19647196717771,-9.713172767078504e-05,0.0940944999456405,0,0,0
9343,324461.31933587044,2010-10-19 11:20:41,1290.651594597304,7,28,-1.0993878841400146,3.670286893844605,28.02202179883253,27.43707702614304,111.85217758889245,100.23014109321517,-0.0001295089750783,0.0940944999456405,0,0,0
9344,324491.33423951064,2010-10-19 11:21:11,1320.6664981573306,7,28,-1.099568486213684,3.6657540798187256,28.02202179883253,27.446244266307836,111.85217758889245,100.2637661165892,-6.47544875391759e-05,0.0940944999456405,0,0,0
9345,324521.34941312874,2010-10-19 11:21:41,1350.6816718054995,7,28,-1.0993878841400146,3.6610593795776367,28.02202179883253,27.455411600559,111.85217758889245,100.29734827409558,-9.713172767078504e-05,0.0940944999456405,0,0,0
9346,324551.36455118825,2010-10-19 11:22:11,1380.6968098399088,7,28,-1.0993878841400146,3.656526565551758,28.02202179883253,27.464578950062396,111.85217758889245,100.33088824938817,-6.47544875391759e-05,0.0940944999456405,0,0,0
9347,324581.37980336207,2010-10-19 11:22:41,1410.7120619987509,7,28,-1.099568486213684,3.651831865310669,28.02202179883253,27.47374626910926,111.85217758889245,100.36438688579292,-9.713172767078504e-05,0.0940944999456405,0,0,0
9348,324611.39482727705,2010-10-19 11:23:11,1440.7270858987013,7,28,-1.099568486213684,3.64713716506958,28.02202179883253,27.482913551692768,111.85217758889245,100.39784344759578,-0.0001295089750783,0.0940944999456405,0,0,0
9349,324641.4099874417,2010-10-19 11:23:41,1470.7422460632654,7,28,-1.099568486213684,3.642766237258911,28.02202179883253,27.4920807912383,111.85217758889245,100.43125773198868,-0.0001295089750783,0.0940944999456405,0,0,0
9350,324671.4251332003,2010-10-19 11:24:11,1500.757391862025,7,28,-1.0993878841400146,3.638233423233032,28.02202179883253,27.50124802744998,111.85217758889245,100.46463072187868,-0.0001295089750783,0.0940944999456405,0,0,0
9351,324701.44022702955,2010-10-19 11:24:41,1530.7724857012863,7,28,-1.0997490882873535,3.6338624954223633,28.02202179883253,27.51041561116259,111.85217758889245,100.49796453835351,-9.713172767078504e-05,0.0940944999456405,0,0,0
9352,324731.45566124213,2010-10-19 11:25:11,1560.7879198988248,7,28,-1.099568486213684,3.629653453826904,28.02202179883253,27.51958372097078,111.85217758889245,100.5312605887382,-9.713172767078504e-05,0.0940944999456405,0,0,0
9353,324761.47057278705,2010-10-19 11:25:41,1590.8028315590395,7,28,-1.099568486213684,3.6252825260162354,28.02202179883253,27.52875151388185,111.85217758889245,100.56451668791478,-0.0001295089750783,0.0940944999456405,0,0,0
9354,324791.4858267253,2010-10-19 11:26:11,1620.8180854070915,7,28,-1.0993878841400146,3.6212353706359854,28.02202179883253,27.53791954589987,111.85217758889245,100.59773547157452,-0.0001295089750783,0.0940944999456405,0,0,0
9355,324821.5008310214,2010-10-19 11:26:41,1650.8330896430334,7,28,-1.099568486213684,3.617188215255737,28.02202179883253,27.547087454117168,111.85217758889245,100.63091567570493,-6.47544875391759e-05,0.0940944999456405,0,0,0
9356,324851.51597975247,2010-10-19 11:27:11,1680.8482384142017,7,28,-1.099568486213684,3.613302946090698,28.02202179883253,27.55625544096955,111.85217758889245,100.66405863333446,-6.47544875391759e-05,0.0940944999456405,0,0,0
9357,324881.53112848854,2010-10-19 11:27:41,1710.8633871552947,7,28,-1.099568486213684,3.609417676925659,28.02202179883253,27.565423104790337,111.85217758889245,100.6971649774752,-6.47544875391759e-05,0.0940944999456405,0,0,0
9358,324911.5462700368,2010-10-19 11:28:11,1740.8785286583486,7,28,-1.0993878841400146,3.60569429397583,28.02202179883253,27.57459039536336,111.85217758889245,100.73023534036436,-6.47544875391759e-05,0.0940944999456405,0,0,0
9359,324941.5615826262,2010-10-19 11:28:41,1770.893841247802,7,28,-1.099568486213684,3.601970911026001,28.02202179883253,27.58375766235442,111.85217758889245,100.76327093399588,-6.47544875391759e-05,0.0940944999456405,0,0,0
9360,324971.57656990987,2010-10-19 11:29:11,1800.908828561569,7,28,-1.099568486213684,3.598247528076172,28.02202179883253,27.592924739291437,111.85217758889245,100.79627253679637,-0.0001295089750783,0.0940944999456405,0,0,0
9361,325001.5917350569,2010-10-19 11:29:41,1830.9239937185755,7,28,-1.0993878841400146,3.5948479175567627,28.02202179883253,27.60209191727595,111.85217758889245,100.829242270237,-9.713172767078504e-05,0.0940944999456405,0,0,0
9362,325031.60689562245,2010-10-19 11:30:11,1860.939154249052,7,28,-1.0993878841400146,3.5914485454559326,28.02202179883253,27.61125906035127,111.85217758889245,100.86217979778836,-3.237724376958795e-05,0.0940944999456405,0,0,0
9363,325061.622022103,2010-10-19 11:30:41,1890.9542807547275,7,28,-1.099568486213684,3.587887048721313,28.02202179883253,27.62042627889339,111.85217758889245,100.89508645556944,-0.0001295089750783,0.0940944999456405,0,0,0
9364,325091.63717033784,2010-10-19 11:31:11,1920.969428964496,7,28,-1.099568486213684,3.5844874382019043,28.02202179883253,27.62959347444596,111.85217758889245,100.9279621910838,-9.713172767078504e-05,0.0940944999456405,0,0,0
9365,325121.65232528944,2010-10-19 11:31:41,1950.9845839361176,7,28,-1.0997490882873535,3.581087827682495,28.02202179883253,27.638760650891825,111.85217758889245,100.96080707966864,-9.713172767078504e-05,0.0940944999456405,0,0,0
9366,325151.66749937367,2010-10-19 11:32:11,1980.9997580504487,7,28,-1.099929690361023,3.577850103378296,28.02202179883253,27.647927840799863,111.85217758889245,100.99362170474376,-9.713172767078504e-05,0.0940944999456405,0,0,0
9367,325181.6827317883,2010-10-19 11:32:41,2011.0149904450325,7,28,-1.099568486213684,3.5746123790740967,28.02202179883253,27.657095061734623,111.85217758889245,101.02640629017736,-9.713172767078504e-05,0.0940944999456405,0,0,0
9368,325211.6979045443,2010-10-19 11:33:11,2041.030163211003,7,28,-1.0993878841400146,3.5712127685546875,28.02202179883253,27.66626217723411,111.85217758889245,101.05915992428882,-0.0001295089750783,0.0940944999456405,0,0,0
9369,325241.7129044695,2010-10-19 11:33:41,2071.045163121164,7,28,-1.099568486213684,3.5681369304656982,28.02202179883253,27.675429276091773,111.85217758889245,101.09188324398676,-6.47544875391759e-05,0.0940944999456405,0,0,0
9370,325271.7282655899,2010-10-19 11:34:11,2101.060524306733,7,28,-1.099568486213684,3.564899206161499,28.02202179883253,27.68459654883916,111.85217758889245,101.12457794322992,-6.47544875391759e-05,0.0940944999456405,0,0,0
9371,325301.743192869,2010-10-19 11:34:41,2131.0754514906384,7,28,-1.099568486213684,3.5616614818573,28.02202179883253,27.69376359896056,111.85217758889245,101.15724274598604,-0.0001295089750783,0.0940944999456405,0,0,0
9372,325331.75836363,2010-10-19 11:35:11,2161.090622261637,7,28,-1.099568486213684,3.5584237575531006,28.02202179883253,27.70293073294568,111.85217758889245,101.18987995825955,-0.0001618862152099,0.0940944999456405,0,0,0
9373,325361.7735034087,2010-10-19 11:35:41,2191.105762065455,7,28,-1.099568486213684,3.5555098056793213,28.02202179883253,27.71209785948366,111.85217758889245,101.22248828629108,-0.0001295089750783,0.0940944999456405,0,0,0
9374,325391.7886527112,2010-10-19 11:36:11,2221.120911337873,7,28,-1.0993878841400146,3.552433967590332,28.02202179883253,27.721264991872182,111.85217758889245,101.25506779675746,-9.713172767078504e-05,0.0940944999456405,0,0,0
9375,325421.8039264037,2010-10-19 11:36:41,2251.1361850654707,7,28,-1.099568486213684,3.549196243286133,28.02202179883253,27.73043219120972,111.85217758889245,101.2876184656084,-6.47544875391759e-05,0.0940944999456405,0,0,0
9376,325451.81904143083,2010-10-19 11:37:11,2281.151300062463,7,28,-1.0993878841400146,3.546120405197144,28.02202179883253,27.739599266376608,111.85217758889245,101.32013950248312,-6.47544875391759e-05,0.0940944999456405,0,0,0
9377,325481.83406591223,2010-10-19 11:37:41,2311.166324538851,7,28,-1.099568486213684,3.5427207946777344,28.02202179883253,27.74876637674183,111.85217758889245,101.3526312747363,-6.47544875391759e-05,0.0940944999456405,0,0,0
9378,325511.84922726976,2010-10-19 11:38:11,2341.181485891376,7,28,-1.0993878841400146,3.539644956588745,28.02202179883253,27.75793351040572,111.85217758889245,101.38509345165498,-6.47544875391759e-05,0.0940944999456405,0,0,0
9379,325541.8643699708,2010-10-19 11:38:41,2371.196628647552,7,28,-1.099568486213684,3.536245346069336,28.02202179883253,27.767100694760583,111.85217758889245,101.4175257944652,-6.47544875391759e-05,0.0940944999456405,0,0,0
9380,325571.8795238396,2010-10-19 11:39:12,2401.211782486351,7,28,-1.0993878841400146,3.5328457355499268,28.02202179883253,27.7762679184979,111.85217758889245,101.4499279023207,-6.47544875391759e-05,0.0940944999456405,0,0,0
9381,325601.89465645055,2010-10-19 11:39:42,2431.226915087217,7,28,-1.0993878841400146,3.5294461250305176,28.02202179883253,27.78543506667453,111.85217758889245,101.48229859631056,-6.47544875391759e-05,0.0940944999456405,0,0,0
9382,325631.9098057079,2010-10-19 11:40:12,2461.242064334572,7,28,-1.099568486213684,3.5258846282958984,28.02202179883253,27.79460224333495,111.85217758889245,101.51463769430154,-0.0001618862152099,0.0940944999456405,0,0,0
9383,325661.9250635309,2010-10-19 11:40:42,2491.2573221625435,7,28,-1.0993878841400146,3.5224850177764893,28.02202179883253,27.803769475536736,111.85217758889245,101.54694445984416,-9.713172767078504e-05,0.0940944999456405,0,0,0
9384,325691.9400925135,2010-10-19 11:41:12,2521.2723511401496,7,28,-1.099568486213684,3.51859974861145,28.02202179883253,27.81293657233636,111.85217758889245,101.57921680348224,-0.0001295089750783,0.0940944999456405,0,0,0
9385,325721.95524336986,2010-10-19 11:41:42,2551.2875020165643,7,28,-1.0993878841400146,3.514876365661621,28.02202179883253,27.822103792191047,111.85217758889245,101.61145518688116,-6.47544875391759e-05,0.0940944999456405,0,0,0
9386,325751.97041557444,2010-10-19 11:42:12,2581.3026742161237,7,28,-1.099568486213684,3.510991334915161,28.02202179883253,27.83127100524437,111.85217758889245,101.64365823074851,-6.47544875391759e-05,0.0940944999456405,0,0,0
9387,325781.98555499734,2010-10-19 11:42:42,2611.317813769317,7,28,-1.099568486213684,3.506944179534912,28.02202179883253,27.84043813461527,111.85217758889245,101.6758245669358,-6.47544875391759e-05,0.0940944999456405,0,0,0
9388,325812.0007046306,2010-10-19 11:43:12,2641.332963257272,7,28,-1.0993878841400146,3.502573251724243,28.02202179883253,27.849605333697827,111.85217758889245,101.70795241904908,-9.713172767078504e-05,0.0940944999456405,0,0,0
9389,325842.01582271035,2010-10-19 11:43:42,2671.3480813369474,7,28,-1.099568486213684,3.4977166652679443,28.02202179883253,27.85877249720981,111.85217758889245,101.74003947380652,-0.0001618862152099,0.0940944999456405,0,0,0
9390,325872.03097667947,2010-10-19 11:44:12,2701.363235311083,7,28,-1.099568486213684,3.492860078811645,28.02202179883253,27.867939658022067,111.85217758889245,101.7720828810476,-0.0001618862152099,0.0940944999456405,0,0,0
9391,325902.0462412943,2010-10-19 11:44:42,2731.378499930982,7,28,-1.099568486213684,3.4876797199249268,28.02202179883253,27.87710691522641,111.85217758889245,101.80408043710298,-0.0001295089750783,0.0940944999456405,0,0,0
9392,325932.0613807021,2010-10-19 11:45:12,2761.3936393338013,7,28,-1.099568486213684,3.482175588607788,28.02202179883253,27.88627406034503,111.85217758889245,101.83602816644516,-0.0001618862152099,0.0940944999456405,0,0,0
9393,325962.0764046422,2010-10-19 11:45:42,2791.4086633039265,7,28,-1.0993878841400146,3.4758620262146,28.02202179883253,27.895441154247667,111.85217758889245,101.86792088184608,-0.0001942634553415,0.0940944999456405,0,0,0
9394,325992.09157941816,2010-10-19 11:46:12,2821.423838079907,7,28,-1.099568486213684,3.4687390327453613,28.02202179883253,27.904608285786377,111.85217758889245,101.8997522279117,-0.0001618862152099,0.0940944999456405,0,0,0
9395,326022.1067032823,2010-10-19 11:46:42,2851.438961949011,7,28,-1.0993878841400146,3.4604828357696533,28.02202179883253,27.913775414013188,111.85217758889245,101.93151389651771,-0.0002266406954731,0.0940944999456405,0,0,0
9396,326052.1218368305,2010-10-19 11:47:12,2881.454095447114,7,28,-1.099568486213684,3.451255321502685,28.02202179883253,27.922942602687662,111.85217758889245,101.96319670881164,-0.0002590179501567,0.0940944999456405,0,0,0
9397,326082.13698501524,2010-10-19 11:47:42,2911.4692436769333,7,28,-1.099568486213684,3.440570831298828,28.02202179883253,27.93210980078007,111.85217758889245,101.99478841517458,-0.0003561496851034,0.0940944999456405,0,0,0
9398,326112.1521414003,2010-10-19 11:48:12,2941.4844000219778,7,28,-1.099568486213684,3.42810583114624,28.02202179883253,27.94127701872041,111.85217758889245,102.0262735077133,-0.0003561496851034,0.0940944999456405,0,0,0
9399,326142.1672784924,2010-10-19 11:48:42,2971.499537114038,7,28,-1.099568486213684,3.413050413131714,28.02202179883253,27.95044418930173,111.85217758889245,102.05763333752688,-0.0004209041653666,0.0940944999456405,0,0,0
9400,326172.18242331874,2010-10-19 11:49:12,3001.514681965437,7,28,-1.099568486213684,3.3949191570281982,28.02202179883253,27.95961130978155,111.85217758889245,102.08884112265568,-0.0005180359003134,0.0940944999456405,0,0,0
9401,326202.1975931775,2010-10-19 11:49:42,3031.52985181915,7,28,-1.0993878841400146,3.3720932006835938,28.02202179883253,27.96877847031536,111.85217758889245,102.11986210106036,-0.0006475448608398,0.0940944999456405,0,0,0
9402,326232.2129292405,2010-10-19 11:50:12,3061.545187912181,7,28,-1.0993878841400146,3.34214448928833,28.02202179883253,27.977945671866987,111.85217758889245,102.15064341885947,-0.0009065627818927,0.0940944999456405,0,0,0
9403,326262.2279027949,2010-10-19 11:50:42,3091.5601615568803,7,28,-1.099568486213684,3.30232048034668,28.02202179883253,27.987112778261093,111.85217758889245,102.18110787038522,-0.0011979580158367,0.0940944999456405,0,0,0
9404,326292.24302192725,2010-10-19 11:51:12,3121.5752805789043,7,28,-1.0993878841400146,3.246955633163452,28.02202179883253,27.99627991864331,111.85217758889245,102.2111404722029,-0.0017159938579425,0.0940944999456405,0,0,0
9405,326322.2581538364,2010-10-19 11:51:42,3151.5904124629847,7,28,-1.0993878841400146,3.1668221950531006,28.02202179883253,28.005447131223296,111.85217758889245,102.24056129394444,-0.0024930476211011,0.0940944999456405,0,0,0
9406,326352.2733107077,2010-10-19 11:52:12,3181.6055693293283,7,28,-1.099568486213684,3.04152250289917,28.02202179883253,28.014614382535804,111.85217758889245,102.2690653727218,-0.0041442872025072,0.0940944999456405,0,0,0
9407,326378.03863035707,2010-10-19 11:52:38,3207.3708889836976,7,28,-1.099568486213684,2.841108083724976,28.02202179883253,28.02248360748465,111.85217758889245,102.29230321800269,-0.0082237720489501,0.0940944999456405,0,0,0
9408,326389.53852820594,2010-10-19 11:52:49,3218.87078685763,7,28,-1.099568486213684,2.699943780899048,28.02202179883253,28.025995881302556,111.85217758889245,102.30204420348312,-0.0105873104184865,0.0940944999456405,0,0,0
9409,326449.5613961377,2010-10-19 11:53:49,60.01476689518492,8,28,0.0,3.3771116733551025,28.02202179883253,28.025995881302556,111.85217758889245,102.30204420348312,0.0013274669181555,0.0940944999456405,0,0,0
9410,326449.75800541794,2010-10-19 11:53:50,0.187460153382276,9,28,-1.9243103452026844e-05,3.3772735595703125,28.02202179883253,28.025995882304585,111.85217758889245,102.30204420686724,0.0,0.0938397273421287,0,0,0
9411,326454.5860561008,2010-10-19 11:53:54,5.015510826213023,9,28,0.0001613661734154,3.3855297565460205,28.022022712684187,28.02599588247175,111.85218067961628,102.3020442074318,0.0011655807029455,0.0938397273421287,0,0,0
