Data_Point,Test_Time(s),Date_Time,Step_Time(s),Step_Index,Cycle_Index,Current(A),Voltage(V),Charge_Capacity(Ah),Discharge_Capacity(Ah),Charge_Energy(Wh),Discharge_Energy(Wh),dV/dt(V/s),Internal_Resistance(Ohm),Is_FC_Data,AC_Impedance(Ohm),ACI_Phase_Angle(Deg)
4738,163766.66426127672,2010-10-17 14:42:10,30.015215788195192,1,15,0.0,3.356066465377808,14.090818802908505,14.10985171372642,56.2164700723616,51.57724291841982,0.0008094310760498,0.0906857252120971,0,0,0
4739,163796.67948727537,2010-10-17 14:42:40,60.03044179185046,1,15,0.0,3.3818063735961914,14.090818802908505,14.10985171372642,56.2164700723616,51.57724291841982,0.0005827903514727,0.0906857252120971,0,0,0
4740,163826.69468197098,2010-10-17 14:43:10,90.04563648747649,1,15,0.0,3.4012327194213867,14.090818802908505,14.10985171372642,56.2164700723616,51.57724291841982,0.0004856586456298,0.0906857252120971,0,0,0
4741,163856.66306400005,2010-10-17 14:43:40,120.01401851653353,1,15,0.0,3.416773796081543,14.090818802908505,14.10985171372642,56.2164700723616,51.57724291841982,0.0003561496851034,0.0906857252120971,0,0,0
4742,163886.6778458519,2010-10-17 14:44:10,30.015217948579537,2,15,0.5499359965324402,3.5721840858459477,14.095405508927357,14.10985171372642,56.23268431726937,51.57724291841982,0.0016512393485754,0.0906857252120971,0,0,0
4743,163916.6930787728,2010-10-17 14:44:40,60.03045084441223,2,15,0.5501165986061096,3.623178005218506,14.099992177357086,14.10985171372642,56.249192805288544,51.57724291841982,0.0011655807029455,0.0906857252120971,0,0,0
4744,163946.70824756386,2010-10-17 14:45:10,90.04561969562603,2,15,0.5501165986061096,3.659764289855957,14.104578845015284,14.10985171372642,56.26589847710861,51.57724291841982,0.0008741855854168,0.0906857252120971,0,0,0
4745,163976.72347846473,2010-10-17 14:45:40,120.06085051127424,2,15,0.5501165986061096,3.688417911529541,14.10916549083442,14.10985171372642,56.28275286507057,51.57724291841982,0.0006799221155233,0.0906857252120971,0,0,0
4746,164006.7386763533,2010-10-17 14:46:10,150.0760483998581,2,15,0.550297200679779,3.7120532989501953,14.113752129740176,14.10985171372642,56.29972629875251,51.57724291841982,0.0005827903514727,0.0906857252120971,0,0,0
4747,164036.7539189784,2010-10-17 14:46:40,180.09129106002652,2,15,0.550297200679779,3.731479644775391,14.118338790255088,14.10985171372642,56.3167979387853,51.57724291841982,0.0004856586456298,0.0906857252120971,0,0,0
4748,164066.769105248,2010-10-17 14:47:10,210.1064773196274,2,15,0.5501165986061096,3.747182607650757,14.122925395123712,14.10985171372642,56.33395017611362,51.57724291841982,0.0003885269106831,0.0906857252120971,0,0,0
4749,164096.78437931644,2010-10-17 14:47:40,240.1217513880749,2,15,0.5501165986061096,3.758514404296875,14.12751201331092,14.10985171372642,56.351165275114106,51.57724291841982,0.0002590179501567,0.0906857252120971,0,0,0
4750,164126.79950796245,2010-10-17 14:48:10,270.136880014035,2,15,0.5501165986061096,3.7651517391204834,14.132098634625372,14.10985171372642,56.36842095977203,51.57724291841982,9.713172767078504e-05,0.0906857252120971,0,0,0
4751,164156.81467008192,2010-10-17 14:48:40,300.1520421585336,2,15,0.550297200679779,3.769522666931152,14.136685326013962,14.10985171372642,56.38570115424383,51.57724291841982,9.713172767078504e-05,0.0906857252120971,0,0,0
4752,164186.83291761111,2010-10-17 14:49:10,330.1702898180851,2,15,0.550297200679779,3.773084163665772,14.14127251077856,14.10985171372642,56.40300095121499,51.57724291841982,9.713172767078504e-05,0.0906857252120971,0,0,0
4753,164216.84523802818,2010-10-17 14:49:40,360.1826101098122,2,15,0.550297200679779,3.776645660400391,14.145858804322613,14.10985171372642,56.42031343281194,51.57724291841982,0.0001295089750783,0.0906857252120971,0,0,0
4754,164246.86043274385,2010-10-17 14:50:10,390.1978047904007,2,15,0.5501165986061096,3.77988338470459,14.15044544885002,14.10985171372642,56.437642805550006,51.57724291841982,9.713172767078504e-05,0.0906857252120971,0,0,0
4755,164276.87562626152,2010-10-17 14:50:40,420.2129983181159,2,15,0.5501165986061096,3.783282995223999,14.155032079552631,14.10985171372642,56.45498734248455,51.57724291841982,0.0001295089750783,0.0906857252120971,0,0,0
4756,164306.8908663954,2010-10-17 14:51:10,450.228238472038,2,15,0.5501165986061096,3.786358833312988,14.159618718999472,14.10985171372642,56.47234687194716,51.57724291841982,6.47544875391759e-05,0.0906857252120971,0,0,0
4757,164336.9060814568,2010-10-17 14:51:40,480.24345351337183,2,15,0.5501165986061096,3.789596557617188,14.164205363922813,14.10985171372642,56.48972111793534,51.57724291841982,6.47544875391759e-05,0.0906857252120971,0,0,0
4758,164366.92128667363,2010-10-17 14:52:10,510.2586587302199,2,15,0.5499359965324402,3.7928342819213863,14.16879203247506,14.10985171372642,56.507109816612136,51.57724291841982,0.0001295089750783,0.0906857252120971,0,0,0
4759,164396.93648690308,2010-10-17 14:52:40,540.2738589746752,2,15,0.5501165986061096,3.795748233795166,14.17337864975262,14.10985171372642,56.52451241303791,51.57724291841982,9.713172767078504e-05,0.0906857252120971,0,0,0
4760,164426.95184367764,2010-10-17 14:53:10,570.2892157542645,2,15,0.5499359965324402,3.798662185668945,14.177965319289196,14.10985171372642,56.54192912760493,51.57724291841982,6.47544875391759e-05,0.0906857252120971,0,0,0
4761,164456.9669306548,2010-10-17 14:53:40,600.3043027364355,2,15,0.5499359965324402,3.801738023757935,14.182551999252352,14.10985171372642,56.55935964678664,51.57724291841982,6.47544875391759e-05,0.0906857252120971,0,0,0
4762,164486.98212326525,2010-10-17 14:54:10,630.3194953167895,2,15,0.550297200679779,3.804813861846924,14.187138622364577,14.10985171372642,56.57680353382455,51.57724291841982,9.713172767078504e-05,0.0906857252120971,0,0,0
4763,164516.99736117857,2010-10-17 14:54:40,660.3347332501774,2,15,0.5501165986061096,3.807727813720703,14.191725330482374,14.10985171372642,56.59426144572291,51.57724291841982,6.47544875391759e-05,0.0906857252120971,0,0,0
4764,164547.0126787003,2010-10-17 14:55:10,690.3500507669114,2,15,0.5499359965324402,3.8106417655944815,14.196312034010532,14.10985171372642,56.6117330062616,51.57724291841982,6.47544875391759e-05,0.0906857252120971,0,0,0
4765,164577.02777570745,2010-10-17 14:55:40,720.3651477640427,2,15,0.5501165986061096,3.8138794898986816,14.200898753898828,14.10985171372642,56.62921861325542,51.57724291841982,9.713172767078504e-05,0.0906857252120971,0,0,0
4766,164607.04298667365,2010-10-17 14:56:10,750.3803587252073,2,15,0.5501165986061096,3.816793441772461,14.20548545447884,14.10985171372642,56.64671854533229,51.57724291841982,3.237724376958795e-05,0.0906857252120971,0,0,0
4767,164637.05819492304,2010-10-17 14:56:40,780.3955669996761,2,15,0.5501165986061096,3.82003116607666,14.210072089755135,14.10985171372642,56.66423273627663,51.57724291841982,6.47544875391759e-05,0.0906857252120971,0,0,0
4768,164667.07360711074,2010-10-17 14:57:10,810.4109791572844,2,15,0.5499359965324402,3.823430776596069,14.214658764377948,14.10985171372642,56.681762066193365,51.57724291841982,9.713172767078504e-05,0.0906857252120971,0,0,0
4769,164697.088944507,2010-10-17 14:57:40,840.4263165886517,2,15,0.5501165986061096,3.8268303871154794,14.219245462567798,14.10985171372642,56.699306832676925,51.57724291841982,6.47544875391759e-05,0.0906857252120971,0,0,0
4770,164727.10402520353,2010-10-17 14:58:10,870.4413974004442,2,15,0.5501165986061096,3.830229997634888,14.223832099082482,14.10985171372642,56.71686697246643,51.57724291841982,6.47544875391759e-05,0.0906857252120971,0,0,0
4771,164757.1190636447,2010-10-17 14:58:40,900.456435696274,2,15,0.5501165986061096,3.833791255950928,14.228418702357295,14.10985171372642,56.73444271861968,51.57724291841982,0.0001294612884521,0.0906857252120971,0,0,0
4772,164787.1343957077,2010-10-17 14:59:10,930.4717677993616,2,15,0.5501165986061096,3.837028980255127,14.233005362392682,14.10985171372642,56.75203430606743,51.57724291841982,6.47544875391759e-05,0.0906857252120971,0,0,0
4773,164817.14951501542,2010-10-17 14:59:40,960.4868870720104,2,15,0.5501165986061096,3.840428590774536,14.237591973333076,14.10985171372642,56.76964119250223,51.57724291841982,6.47544875391759e-05,0.0906857252120971,0,0,0
4774,164847.16471566592,2010-10-17 15:00:10,990.502087717465,2,15,0.5501165986061096,3.843504428863525,14.242178692705142,14.10985171372642,56.78726373158521,51.57724291841982,6.47544875391759e-05,0.0906857252120971,0,0,0
4775,164877.1799163214,2010-10-17 15:00:40,1020.5172884230698,2,15,0.5501165986061096,3.846904039382935,14.246765365816184,14.10985171372642,56.80490101064828,51.57724291841982,0.0001295089750783,0.0906857252120971,0,0,0
4776,164907.19513393915,2010-10-17 15:01:10,1050.5325059907,2,15,0.5501165986061096,3.850141763687134,14.251352024241031,14.10985171372642,56.82255286324304,51.57724291841982,9.713172767078504e-05,0.0906857252120971,0,0,0
4777,164937.21037633365,2010-10-17 15:01:40,1080.547748405256,2,15,0.5499359965324402,3.853217601776123,14.255938707951122,14.10985171372642,56.84021919382453,51.57724291841982,9.713172767078504e-05,0.0906857252120971,0,0,0
4778,164967.2255578013,2010-10-17 15:02:10,1110.562929852864,2,15,0.5501165986061096,3.855969667434693,14.260525357330463,14.10985171372642,56.85789930995366,51.57724291841982,3.237724376958795e-05,0.0906857252120971,0,0,0
4779,164997.24090730777,2010-10-17 15:02:40,1140.5782793944138,2,15,0.5501165986061096,3.859207391738892,14.265112059659684,14.10985171372642,56.87559323525068,51.57724291841982,0.0001295089750783,0.0906857252120971,0,0,0
4780,165027.25612003333,2010-10-17 15:03:10,1170.5934921149635,2,15,0.5501165986061096,3.861797571182251,14.269698733025129,14.10985171372642,56.893300175930406,51.57724291841982,3.237724376958795e-05,0.0906857252120971,0,0,0
4781,165057.27122255924,2010-10-17 15:03:40,1200.6085946057867,2,15,0.5501165986061096,3.86454963684082,14.274285392813058,14.10985171372642,56.91101961021234,51.57724291841982,9.713172767078504e-05,0.0906857252120971,0,0,0
4782,165087.28642242274,2010-10-17 15:04:10,1230.6237945294426,2,15,0.5501165986061096,3.86713981628418,14.27887203115952,14.10985171372642,56.92875088217294,51.57724291841982,3.237724376958795e-05,0.0906857252120971,0,0,0
4783,165117.3016392034,2010-10-17 15:04:40,1260.6390112800364,2,15,0.550297200679779,3.869406223297119,14.283458727599935,14.10985171372642,56.94649375455749,51.57724291841982,6.47544875391759e-05,0.0906857252120971,0,0,0
4784,165147.3170070957,2010-10-17 15:05:10,1290.6543791773342,2,15,0.5499359965324402,3.871834516525269,14.288045375687792,14.10985171372642,56.96424718426842,51.57724291841982,3.237724376958795e-05,0.0906857252120971,0,0,0
4785,165177.33208658922,2010-10-17 15:05:40,1320.6694586658286,2,15,0.550297200679779,3.873939037322998,14.292632025999689,14.10985171372642,56.98201079630103,51.57724291841982,6.47544875391759e-05,0.0906857252120971,0,0,0
4786,165207.34729567068,2010-10-17 15:06:10,1350.6846677272588,2,15,0.5501165986061096,3.876043558120728,14.297218689576852,14.10985171372642,56.999783842459806,51.57724291841982,6.47544875391759e-05,0.0906857252120971,0,0,0
4787,165237.36251585983,2010-10-17 15:06:40,1380.6998879464977,2,15,0.550297200679779,3.877986192703247,14.30180530758942,14.10985171372642,57.01756564246574,51.57724291841982,6.47544875391759e-05,0.0906857252120971,0,0,0
4788,165267.3777072623,2010-10-17 15:07:10,1410.7150793388907,2,15,0.5501165986061096,3.8794431686401367,14.306391990375149,14.10985171372642,57.03535596082585,51.57724291841982,3.237724376958795e-05,0.0906857252120971,0,0,0
4789,165297.39294611794,2010-10-17 15:07:40,1440.730318224652,2,15,0.5501165986061096,3.881062030792236,14.31097866961456,14.10985171372642,57.05315388614847,51.57724291841982,0.0,0.0906857252120971,0,0,0
4790,165327.40826984015,2010-10-17 15:08:10,1470.7456419368273,2,15,0.5501165986061096,3.882680892944336,14.315565333059078,14.10985171372642,57.07095892172758,51.57724291841982,3.237724376958795e-05,0.0906857252120971,0,0,0
4791,165357.4233867018,2010-10-17 15:08:40,1500.7607587784173,2,15,0.5501165986061096,3.8841378688812256,14.320151939003845,14.10985171372642,57.0887704978798,51.57724291841982,3.237724376958795e-05,0.0906857252120971,0,0,0
4792,165387.43870093033,2010-10-17 15:09:10,1530.7760729919182,2,15,0.5501165986061096,3.885432958602905,14.324738713226353,14.10985171372642,57.10658903270086,51.57724291841982,3.237724376958795e-05,0.0906857252120971,0,0,0
4793,165417.45392686382,2010-10-17 15:09:40,1560.791298925399,2,15,0.5501165986061096,3.886889934539795,14.329325374743778,14.10985171372642,57.124413278410806,51.57724291841982,6.47544875391759e-05,0.0906857252120971,0,0,0
4794,165447.46900248766,2010-10-17 15:10:10,1590.8063745392362,2,15,0.5499359965324402,3.8880231380462646,14.333912041318614,14.10985171372642,57.14224344793669,51.57724291841982,3.237724376958795e-05,0.0906857252120971,0,0,0
4795,165477.48421988488,2010-10-17 15:10:40,1620.821591961504,2,15,0.5501165986061096,3.8891563415527344,14.338498755178549,14.10985171372642,57.16007963271186,51.57724291841982,0.0,0.0906857252120971,0,0,0
4796,165507.49943373827,2010-10-17 15:11:10,1650.8368058399394,2,15,0.550297200679779,3.890451431274414,14.34308553756648,14.10985171372642,57.1779217249535,51.57724291841982,3.237724376958795e-05,0.0906857252120971,0,0,0
4797,165537.51467267415,2010-10-17 15:11:41,1680.852044815926,2,15,0.5501165986061096,3.8917465209960938,14.347672285333482,14.10985171372642,57.19576933600979,51.57724291841982,3.237724376958795e-05,0.0906857252120971,0,0,0
4798,165567.52987687846,2010-10-17 15:12:11,1710.867248925013,2,15,0.5501165986061096,3.892879724502564,14.352258935168583,14.10985171372642,57.213622122788976,51.57724291841982,3.237724376958795e-05,0.0906857252120971,0,0,0
4799,165597.54508874688,2010-10-17 15:12:41,1740.8824607984511,2,15,0.5499359965324402,3.894012928009033,14.356845660395434,14.10985171372642,57.23148085300415,51.57724291841982,0.0,0.0906857252120971,0,0,0
4800,165627.56059823206,2010-10-17 15:13:11,1770.8979704289925,2,15,0.5499359965324402,3.894984245300293,14.36143252533547,14.10985171372642,57.249345391022864,51.57724291841982,0.0,0.0906857252120971,0,0,0
4801,165657.5755470599,2010-10-17 15:13:41,1800.912919226765,2,15,0.5501165986061096,3.8967649936676025,14.366019165512862,14.10985171372642,57.26721453377981,51.57724291841982,6.47544875391759e-05,0.0906857252120971,0,0,0
4802,165687.59072460278,2010-10-17 15:14:11,1830.9280966543536,2,15,0.5501165986061096,3.8977363109588623,14.370605770825192,14.10985171372642,57.28508919591622,51.57724291841982,3.237724376958795e-05,0.0906857252120971,0,0,0
4803,165717.60605977353,2010-10-17 15:14:41,1860.943431855162,2,15,0.5501165986061096,3.899193286895752,14.375192428261814,14.10985171372642,57.30296973300167,51.57724291841982,9.713172767078504e-05,0.0906857252120971,0,0,0
4804,165747.62127151666,2010-10-17 15:15:11,1890.9586436935133,2,15,0.5501165986061096,3.900164604187012,14.379779190384664,14.10985171372642,57.32085635235578,51.57724291841982,3.237724376958795e-05,0.0906857252120971,0,0,0
4805,165777.63639408248,2010-10-17 15:15:41,1920.97376615912,2,15,0.5501165986061096,3.9014596939086914,14.384365841402898,14.10985171372642,57.33874822612463,51.57724291841982,3.237724376958795e-05,0.0906857252120971,0,0,0
4806,165807.65161558994,2010-10-17 15:16:11,1950.9889876715813,2,15,0.5501165986061096,3.902592897415161,14.388952519762842,14.10985171372642,57.35664595946656,51.57724291841982,3.237724376958795e-05,0.0906857252120971,0,0,0
4807,165837.66680643597,2010-10-17 15:16:41,1981.0041784875384,2,15,0.550297200679779,3.904049873352051,14.393539242608782,14.10985171372642,57.37454964522027,51.57724291841982,3.237724376958795e-05,0.0906857252120971,0,0,0
4808,165867.68201711142,2010-10-17 15:17:11,2011.0193891830409,2,15,0.5501165986061096,3.905183076858521,14.39812589674326,14.10985171372642,57.39245889066946,51.57724291841982,0.0,0.0906857252120971,0,0,0
4809,165897.69736888356,2010-10-17 15:17:41,2041.0347409401124,2,15,0.550297200679779,3.90664005279541,14.402712611854367,14.10985171372642,57.41037413144448,51.57724291841982,6.47544875391759e-05,0.0906857252120971,0,0,0
4810,165927.71245029682,2010-10-17 15:18:11,2071.0498223985164,2,15,0.5499359965324402,3.90777325630188,14.407299238555307,14.10985171372642,57.4282950023427,51.57724291841982,3.237724376958795e-05,0.0906857252120971,0,0,0
4811,165957.72767314262,2010-10-17 15:18:41,2101.065045219239,2,15,0.5501165986061096,3.9092302322387695,14.411885866024752,14.10985171372642,57.446221789463074,51.57724291841982,6.47544875391759e-05,0.0906857252120971,0,0,0
4812,165987.7429030109,2010-10-17 15:19:11,2131.0802751226133,2,15,0.5501165986061096,3.910525321960449,14.416472575784812,14.10985171372642,57.46415494782901,51.57724291841982,3.237724376958795e-05,0.0906857252120971,0,0,0
4813,166017.7581153204,2010-10-17 15:19:41,2161.0954873820137,2,15,0.550297200679779,3.911820411682129,14.42105932630205,14.10985171372642,57.482094311943854,51.57724291841982,6.47544875391759e-05,0.0906857252120971,0,0,0
4814,166047.773309194,2010-10-17 15:20:11,2191.1106812706284,2,15,0.550297200679779,3.9131155014038086,14.425646045035698,14.10985171372642,57.50003970330373,51.57724291841982,3.237724376958795e-05,0.0906857252120971,0,0,0
4815,166077.7885204509,2010-10-17 15:20:41,2221.125892502468,2,15,0.550297200679779,3.914572238922119,14.430232821727062,14.10985171372642,57.517991506865215,51.57724291841982,6.47544875391759e-05,0.0906857252120971,0,0,0
4816,166107.80663245238,2010-10-17 15:21:11,2251.144004644267,2,15,0.5501165986061096,3.915543556213379,14.43482002765136,14.10985171372642,57.53595114713292,51.57724291841982,0.0,0.0906857252120971,0,0,0
4817,166137.8189792,2010-10-17 15:21:41,2281.156351406968,2,15,0.5501165986061096,3.9171624183654794,14.439406186268895,14.10985171372642,57.55391287538609,51.57724291841982,3.237724376958795e-05,0.0906857252120971,0,0,0
4818,166167.8341880409,2010-10-17 15:22:11,2311.171560097473,2,15,0.5501165986061096,3.918619394302368,14.443992859899348,14.10985171372642,57.57188299941127,51.57724291841982,6.47544875391759e-05,0.0906857252120971,0,0,0
4819,166197.84944606936,2010-10-17 15:22:41,2341.1868181810823,2,15,0.5501165986061096,3.920076370239258,14.448579607390927,14.10985171372642,57.58985980884175,51.57724291841982,3.237724376958795e-05,0.0906857252120971,0,0,0
4820,166227.8646390858,2010-10-17 15:23:11,2371.2020111925103,2,15,0.5499359965324402,3.9213714599609375,14.453166310275426,14.10985171372642,57.60784277832893,51.57724291841982,3.237724376958795e-05,0.0906857252120971,0,0,0
4821,166257.87984848808,2010-10-17 15:23:41,2401.2172205396528,2,15,0.5499359965324402,3.922828435897827,14.457753014347771,14.10985171372642,57.62583224554799,51.57724291841982,3.237724376958795e-05,0.0906857252120971,0,0,0
4822,166287.89517316266,2010-10-17 15:24:11,2431.232545219239,2,15,0.5501165986061096,3.924285411834717,14.46233975524235,14.10985171372642,57.6438283587623,51.57724291841982,3.237724376958795e-05,0.0906857252120971,0,0,0
4823,166317.91033493122,2010-10-17 15:24:41,2461.247707017875,2,15,0.5501165986061096,3.9257423877716064,14.466926487523844,14.10985171372642,57.66183107796149,51.57724291841982,3.237724376958795e-05,0.0906857252120971,0,0,0
4824,166347.9255996213,2010-10-17 15:25:11,2491.262971707949,2,15,0.5499359965324402,3.927037477493286,14.471513233198944,14.10985171372642,57.67984032550738,51.57724291841982,0.0,0.0906857252120971,0,0,0
4825,166377.94074942506,2010-10-17 15:25:41,2521.2781215016657,2,15,0.5499359965324402,3.928494453430176,14.476099895158434,14.10985171372642,57.69785599162725,51.57724291841982,3.237724376958795e-05,0.0906857252120971,0,0,0
4826,166407.95594790007,2010-10-17 15:26:11,2551.293320011798,2,15,0.5501165986061096,3.9299514293670654,14.480686617472292,14.10985171372642,57.71587862981506,51.57724291841982,0.0,0.0906857252120971,0,0,0
4827,166437.97112680133,2010-10-17 15:26:41,2581.308498882985,2,15,0.5501165986061096,3.931570291519165,14.485273321132246,14.10985171372642,57.73390795605451,51.57724291841982,6.47544875391759e-05,0.0906857252120971,0,0,0
4828,166467.98634198302,2010-10-17 15:27:11,2611.323714064669,2,15,0.5499359965324402,3.9328653812408447,14.489859980885775,14.10985171372642,57.75194395331865,51.57724291841982,0.0,0.0906857252120971,0,0,0
4829,166498.00156669843,2010-10-17 15:27:41,2641.3389387751013,2,15,0.5499359965324402,3.934484243392944,14.4944467060583,14.10985171372642,57.76998711794055,51.57724291841982,0.0,0.0906857252120971,0,0,0
4830,166528.01688915252,2010-10-17 15:28:11,2671.3542612141027,2,15,0.5501165986061096,3.936103105545044,14.499033439490004,14.10985171372642,57.78803728791263,51.57724291841982,6.47544875391759e-05,0.0906857252120971,0,0,0
4831,166558.0319782249,2010-10-17 15:28:41,2701.369350281471,2,15,0.5499359965324402,3.937398195266724,14.503620130526343,14.10985171372642,57.80609411461991,51.57724291841982,3.237724376958795e-05,0.0906857252120971,0,0,0
4832,166588.04741442742,2010-10-17 15:29:11,2731.384786499044,2,15,0.5501165986061096,3.939178943634033,14.508206871450062,14.10985171372642,57.82415833328937,51.57724291841982,6.47544875391759e-05,0.0906857252120971,0,0,0
4833,166618.06326027092,2010-10-17 15:29:41,2761.4006323625804,2,15,0.5501165986061096,3.940635919570923,14.512793587040791,14.10985171372642,57.84222957890778,51.57724291841982,3.237724376958795e-05,0.0906857252120971,0,0,0
4834,166648.07780445024,2010-10-17 15:30:11,2791.415176531895,2,15,0.5501165986061096,3.9422547817230233,14.51738021928394,14.10985171372642,57.86030764420962,51.57724291841982,3.237724376958795e-05,0.0906857252120971,0,0,0
4835,166678.09296901576,2010-10-17 15:30:41,2821.43034110244,2,15,0.5501165986061096,3.943873643875122,14.521966886502218,14.10985171372642,57.87839311626647,51.57724291841982,6.47544875391759e-05,0.0906857252120971,0,0,0
4836,166708.10805661953,2010-10-17 15:31:11,2851.445428676085,2,15,0.5501165986061096,3.9454925060272217,14.52655350565978,14.10985171372642,57.89648562493086,51.57724291841982,3.237724376958795e-05,0.0906857252120971,0,0,0
4837,166738.12329096394,2010-10-17 15:31:41,2881.460663015516,2,15,0.5501165986061096,3.9469494819641113,14.53114061047324,14.10985171372642,57.91458744162552,51.57724291841982,3.237724376958795e-05,0.0906857252120971,0,0,0
4838,166768.13849582995,2010-10-17 15:32:11,2911.475867886502,2,15,0.550297200679779,3.948730230331421,14.535728131563877,14.10985171372642,57.9326982987491,51.57724291841982,6.47544875391759e-05,0.0906857252120971,0,0,0
4839,166798.15385479495,2010-10-17 15:32:41,2941.491226951788,2,15,0.550297200679779,3.950349092483521,14.540315202240938,14.10985171372642,57.95081480583168,51.57724291841982,6.47544875391759e-05,0.0906857252120971,0,0,0
4840,166828.16898892965,2010-10-17 15:33:11,2971.5063610213147,2,15,0.5501165986061096,3.95196795463562,14.544901767165303,14.10985171372642,57.968936846408646,51.57724291841982,6.47544875391759e-05,0.0906857252120971,0,0,0
4841,166858.18430114316,2010-10-17 15:33:41,3001.521673229819,2,15,0.5501165986061096,3.95358681678772,14.549488397567233,14.10985171372642,57.98706671920602,51.57724291841982,3.237724376958795e-05,0.0906857252120971,0,0,0
4842,166888.19937922317,2010-10-17 15:34:11,3031.536751390003,2,15,0.5501165986061096,3.9552056789398193,14.554075067533146,14.10985171372642,58.00520447442786,51.57724291841982,3.237724376958795e-05,0.0906857252120971,0,0,0
4843,166918.2146029762,2010-10-17 15:34:41,3061.5519750578364,2,15,0.5501165986061096,3.956824541091919,14.55866174990638,14.10985171372642,58.02335002408127,51.57724291841982,3.237724376958795e-05,0.0906857252120971,0,0,0
4844,166948.22981341105,2010-10-17 15:35:11,3091.567185467627,2,15,0.550297200679779,3.958605289459229,14.563248434635696,14.10985171372642,58.04150321396531,51.57724291841982,3.237724376958795e-05,0.0906857252120971,0,0,0
4845,166978.24516535358,2010-10-17 15:35:41,3121.5825374101605,2,15,0.550297200679779,3.960386037826538,14.567835161136708,14.10985171372642,58.05966448432698,51.57724291841982,6.47544875391759e-05,0.0906857252120971,0,0,0
4846,167008.2602523909,2010-10-17 15:36:11,3151.597624442457,2,15,0.5499359965324402,3.9620048999786377,14.572421883404106,14.10985171372642,58.07783368567509,51.57724291841982,0.0,0.0906857252120971,0,0,0
4847,167038.27550205353,2010-10-17 15:36:41,3181.6128741351527,2,15,0.550297200679779,3.963947534561157,14.577008612559384,14.10985171372642,58.09601085474698,51.57724291841982,6.47544875391759e-05,0.0906857252120971,0,0,0
4848,167068.290793786,2010-10-17 15:37:11,3211.628165837549,2,15,0.5499359965324402,3.965566396713257,14.58159533290478,14.10985171372642,58.11419606083137,51.57724291841982,0.0,0.0906857252120971,0,0,0
4849,167098.30602917302,2010-10-17 15:37:41,3241.643401229603,2,15,0.5501165986061096,3.9673471450805664,14.586182061345305,14.10985171372642,58.13238946851636,51.57724291841982,3.237724376958795e-05,0.0906857252120971,0,0,0
4850,167128.32110900735,2010-10-17 15:38:11,3271.658481058947,2,15,0.5499359965324402,3.969127893447876,14.590768763527654,14.10985171372642,58.15059091021018,51.57724291841982,6.47544875391759e-05,0.0906857252120971,0,0,0
4851,167158.33632764767,2010-10-17 15:38:41,3301.6736996992504,2,15,0.5501165986061096,3.9709086418151855,14.595355430841115,14.10985171372642,58.16880053301364,51.57724291841982,3.237724376958795e-05,0.0906857252120971,0,0,0
4852,167188.35155509997,2010-10-17 15:39:11,3331.688927151516,2,15,0.550297200679779,3.973013162612915,14.599942132555343,14.10985171372642,58.18701870120245,51.57724291841982,9.713172767078504e-05,0.0906857252120971,0,0,0
4853,167218.3668001611,2010-10-17 15:39:41,3361.704172207656,2,15,0.5499359965324402,3.9747939109802246,14.604528894277278,14.10985171372642,58.205245582791925,51.57724291841982,6.47544875391759e-05,0.0906857252120971,0,0,0
4854,167248.38199195953,2010-10-17 15:40:11,3391.719364011074,2,15,0.5501165986061096,3.976736545562744,14.609115663649623,14.10985171372642,58.22348107248265,51.57724291841982,6.47544875391759e-05,0.0906857252120971,0,0,0
4855,167278.39719403355,2010-10-17 15:40:41,3421.7345660850888,2,15,0.5501165986061096,3.978355407714844,14.613702468213171,14.10985171372642,58.24172496185803,51.57724291841982,9.713172767078504e-05,0.0906857252120971,0,0,0
4856,167308.41250593626,2010-10-17 15:41:11,3451.7498780028686,2,15,0.5501165986061096,3.980459928512573,14.618289081391111,14.10985171372642,58.25997722285571,51.57724291841982,3.237724376958795e-05,0.0906857252120971,0,0,0
4857,167338.4277351429,2010-10-17 15:41:41,3481.765107199481,2,15,0.5501165986061096,3.982564449310303,14.622875709843186,14.10985171372642,58.27823834708369,51.57724291841982,9.713172767078504e-05,0.0906857252120971,0,0,0
4858,167368.44283987433,2010-10-17 15:42:11,3511.7802119459266,2,15,0.5501165986061096,3.9841833114624015,14.627462338609623,14.10985171372642,58.2965083504102,51.57724291841982,0.0,0.0906857252120971,0,0,0
4859,167398.45805391815,2010-10-17 15:42:41,3541.795425999799,2,15,0.5501165986061096,3.986449718475342,14.632048941415585,14.10985171372642,58.314787297251904,51.57724291841982,6.47544875391759e-05,0.0906857252120971,0,0,0
4860,167428.47343241688,2010-10-17 15:43:11,3571.8108044985192,2,15,0.550297200679779,3.988392353057861,14.636635585886529,14.10985171372642,58.33307559014693,51.57724291841982,6.47544875391759e-05,0.0906857252120971,0,0,0
4861,167458.48852626616,2010-10-17 15:43:42,3601.8258983778805,2,15,0.5501165986061096,3.990334987640381,14.641222211120832,14.10985171372642,58.3513729878704,51.57724291841982,6.47544875391759e-05,0.0906857252120971,0,0,0
4862,167488.50371178892,2010-10-17 15:44:12,3631.841083875583,2,15,0.550297200679779,3.992277622222901,14.645808794741058,14.10985171372642,58.36967957040622,51.57724291841982,3.237724376958795e-05,0.0906857252120971,0,0,0
4863,167518.51892200325,2010-10-17 15:44:42,3661.8562940999104,2,15,0.5501165986061096,3.994381904602051,14.650395481062668,14.10985171372642,58.387995999839305,51.57724291841982,6.47544875391759e-05,0.0906857252120971,0,0,0
4864,167548.53419124967,2010-10-17 15:45:12,3691.8715633363154,2,15,0.5501165986061096,3.99648642539978,14.654982141389029,14.10985171372642,58.406321914581866,51.57724291841982,3.237724376958795e-05,0.0906857252120971,0,0,0
4865,167578.5493736446,2010-10-17 15:45:42,3721.8867457012097,2,15,0.550297200679779,3.9985909461975098,14.659568750985276,14.10985171372642,58.42465731159229,51.57724291841982,3.237724376958795e-05,0.0906857252120971,0,0,0
4866,167608.56457624998,2010-10-17 15:46:12,3751.901948296523,2,15,0.5501165986061096,4.000857353210449,14.664155392639426,14.10985171372642,58.44300248819944,51.57724291841982,9.70840483205393e-05,0.0906857252120971,0,0,0
4867,167638.57990746084,2010-10-17 15:46:42,3781.9172795274376,2,15,0.5501165986061096,4.002962112426758,14.668742012514812,14.10985171372642,58.46135750676471,51.57724291841982,6.47544875391759e-05,0.0906857252120971,0,0,0
4868,167668.5951484769,2010-10-17 15:47:12,3811.932520538496,2,15,0.5501165986061096,4.005066394805908,14.673328633784193,14.10985171372642,58.47972247200612,51.57724291841982,3.23295607813634e-05,0.0906857252120971,0,0,0
4869,167698.6102302611,2010-10-17 15:47:42,3841.9476023177,2,15,0.550297200679779,4.007332801818848,14.677915238860813,14.10985171372642,58.49809748202564,51.57724291841982,6.47544875391759e-05,0.0906857252120971,0,0,0
4870,167728.62545654047,2010-10-17 15:48:12,3871.962828627117,2,15,0.5499359965324402,4.009275436401367,14.682501964902816,14.10985171372642,58.51648309043164,51.57724291841982,0.0,0.0906857252120971,0,0,0
4871,167758.64065253435,2010-10-17 15:48:42,3901.9780246310033,2,15,0.5501165986061096,4.011703968048096,14.6870886368589,14.10985171372642,58.53487870659864,51.57724291841982,6.47544875391759e-05,0.0906857252120971,0,0,0
4872,167788.65587007187,2010-10-17 15:49:12,3931.9932421485087,2,15,0.5501165986061096,4.013970375061035,14.691675288742047,14.10985171372642,58.55328453382026,51.57724291841982,3.24249267578125e-05,0.0906857252120971,0,0,0
4873,167818.67122183897,2010-10-17 15:49:42,3962.00859390558,2,15,0.5501165986061096,4.016236782073975,14.696261994025072,14.10985171372642,58.571700943626,51.57724291841982,3.24249267578125e-05,0.0906857252120971,0,0,0
4874,167848.68629414958,2010-10-17 15:50:12,3992.02366620616,2,15,0.5501165986061096,4.018664836883545,14.70084863903942,14.10985171372642,58.59012757562293,51.57724291841982,6.47544875391759e-05,0.0906857252120971,0,0,0
4875,167878.70167299415,2010-10-17 15:50:42,4022.039045085829,2,15,0.5501165986061096,4.0207695960998535,14.705435286076211,14.10985171372642,58.60856465629948,51.57724291841982,6.47544875391759e-05,0.0906857252120971,0,0,0
4876,167908.71673224724,2010-10-17 15:51:12,4052.0541043288654,2,15,0.5499359965324402,4.023197650909424,14.710021889740352,14.10985171372642,58.62701224969493,51.57724291841982,9.70840483205393e-05,0.0906857252120971,0,0,0
4877,167938.73196177967,2010-10-17 15:51:42,4082.0693338412666,2,15,0.5501165986061096,4.025626182556152,14.714608550844645,14.10985171372642,58.6454707824189,51.57724291841982,6.47544875391759e-05,0.0906857252120971,0,0,0
4878,167968.74716032992,2010-10-17 15:52:12,4112.084532421574,2,15,0.5499359965324402,4.027892589569092,14.719195216814551,14.10985171372642,58.66394010621358,51.57724291841982,6.47544875391759e-05,0.0906857252120971,0,0,0
4879,167998.7623828048,2010-10-17 15:52:42,4142.099754891422,2,15,0.5501165986061096,4.030482769012451,14.72378186925776,14.10985171372642,58.68242021382038,51.57724291841982,0.0001295089750783,0.0906857252120971,0,0,0
4880,168028.77853057074,2010-10-17 15:53:12,4172.115902762655,2,15,0.5501165986061096,4.032587051391602,14.728368640929324,14.10985171372642,58.70091177258524,51.57724291841982,3.23295607813634e-05,0.0906857252120971,0,0,0
4881,168058.78010708568,2010-10-17 15:53:42,4202.117479172322,2,15,0.5501165986061096,4.035177230834961,14.732953224202356,14.10985171372642,58.71940561809544,51.57724291841982,0.0001295089750783,0.0906857252120971,0,0,0
4882,168088.79245527694,2010-10-17 15:54:12,4232.129827363583,2,15,0.5501165986061096,4.037605285644531,14.737539372268609,14.10985171372642,58.73791699529846,51.57724291841982,6.47544875391759e-05,0.0906857252120971,0,0,0
4883,168118.80761737132,2010-10-17 15:54:42,4262.144989437907,2,15,0.5501165986061096,4.04003381729126,14.742126035033628,14.10985171372642,58.75644174954181,51.57724291841982,6.47544875391759e-05,0.0906857252120971,0,0,0
4884,168148.82284774084,2010-10-17 15:55:12,4292.16021982248,2,15,0.550297200679779,4.04278564453125,14.746712696974043,14.10985171372642,58.77497782922059,51.57724291841982,9.70840483205393e-05,0.0906857252120971,0,0,0
4885,168178.8381865055,2010-10-17 15:55:42,4322.175558617247,2,15,0.5501165986061096,4.0452141761779785,14.751299342346202,14.10985171372642,58.79352546118503,51.57724291841982,9.71794142969884e-05,0.0906857252120971,0,0,0
4886,168208.85327965807,2010-10-17 15:56:12,4352.190651744732,2,15,0.5499359965324402,4.047642230987549,14.755885981410472,14.10985171372642,58.81208470682938,51.57724291841982,6.47544875391759e-05,0.0906857252120971,0,0,0
4887,168238.8686236157,2010-10-17 15:56:42,4382.205995682316,2,15,0.5501165986061096,4.050232410430908,14.760472710043611,14.10985171372642,58.83065617265567,51.57724291841982,6.47544875391759e-05,0.0906857252120971,0,0,0
4888,168268.88369853282,2010-10-17 15:57:12,4412.221070584379,2,15,0.5501165986061096,4.052822589874268,14.76505939631882,14.10985171372642,58.849239289797815,51.57724291841982,3.23295607813634e-05,0.0906857252120971,0,0,0
4889,168298.89904248546,2010-10-17 15:57:42,4442.236414572087,2,15,0.5501165986061096,4.055574893951416,14.769646098372318,14.10985171372642,58.86783458461704,51.57724291841982,6.47544875391759e-05,0.0906857252120971,0,0,0
4890,168328.91413979835,2010-10-17 15:58:12,4472.251511879994,2,15,0.5501165986061096,4.058165073394775,14.774232829408202,14.10985171372642,58.886442173061646,51.57724291841982,6.47544875391759e-05,0.0906857252120971,0,0,0
4891,168358.9293420478,2010-10-17 15:58:42,4502.266714144484,2,15,0.5501165986061096,4.060593128204346,14.778819586294505,14.10985171372642,58.905062070524735,51.57724291841982,0.0,0.0906857252120971,0,0,0
4892,168388.94455576583,2010-10-17 15:59:12,4532.281927847482,2,15,0.5501165986061096,4.063507080078125,14.78340627441052,14.10985171372642,58.92369364272551,51.57724291841982,6.47544875391759e-05,0.0906857252120971,0,0,0
4893,168418.95989450047,2010-10-17 15:59:42,4562.29726660716,2,15,0.5501165986061096,4.066097259521484,14.787993038959783,14.10985171372642,58.94233808402681,51.57724291841982,6.47544875391759e-05,0.0906857252120971,0,0,0
4894,168448.97503696592,2010-10-17 16:00:12,4592.312409047549,2,15,0.5499359965324402,4.069011211395264,14.792579715133195,14.10985171372642,58.960994743554586,51.57724291841982,6.47544875391759e-05,0.0906857252120971,0,0,0
4895,168478.99021175693,2010-10-17 16:00:42,4622.327583843579,2,15,0.5499359965324402,4.071601390838623,14.797166350239918,14.10985171372642,58.97966393005255,51.57724291841982,6.47544875391759e-05,0.0906857252120971,0,0,0
4896,168509.00541502892,2010-10-17 16:01:12,4652.342787085505,2,15,0.5497553944587708,4.074353694915772,14.801753000574596,14.10985171372642,58.99834597803341,51.57724291841982,3.24249267578125e-05,0.0906857252120971,0,0,0
4897,168539.02101428786,2010-10-17 16:01:42,4682.358386494802,2,15,0.5499359965324402,4.077267646789551,14.80633967589856,14.10985171372642,59.017041102801294,51.57724291841982,3.24249267578125e-05,0.0906857252120971,0,0,0
4898,168569.03614462807,2010-10-17 16:02:12,4712.373516729773,2,15,0.5501165986061096,4.080343246459961,14.810926319345391,14.10985171372642,59.03574926458866,51.57724291841982,0.0001295089750783,0.0906857252120971,0,0,0
4899,168599.0512123322,2010-10-17 16:02:42,4742.388584448934,2,15,0.5501165986061096,4.08293342590332,14.815512977786025,14.10985171372642,59.054470732618455,51.57724291841982,3.23295607813634e-05,0.0906857252120971,0,0,0
4900,168629.0662820263,2010-10-17 16:03:12,4772.403654112944,2,15,0.5499359965324402,4.086009502410889,14.820099542111103,14.10985171372642,59.073205142303536,51.57724291841982,6.47544875391759e-05,0.0906857252120971,0,0,0
4901,168659.08152170904,2010-10-17 16:03:42,4802.418893795691,2,15,0.550297200679779,4.089085102081299,14.824686194417254,14.10985171372642,59.091953376163424,51.57724291841982,6.47544875391759e-05,0.0906857252120971,0,0,0
4902,168689.09673050983,2010-10-17 16:04:12,4832.434102566396,2,15,0.5501165986061096,4.091837406158447,14.829272834407275,14.10985171372642,59.11071509050933,51.57724291841982,3.24249267578125e-05,0.0906857252120971,0,0,0
4903,168719.11193790208,2010-10-17 16:04:42,4862.449309968692,2,15,0.550297200679779,4.095075130462647,14.833859545236056,14.10985171372642,59.12949072287586,51.57724291841982,9.71794142969884e-05,0.0906857252120971,0,0,0
4904,168749.12716159498,2010-10-17 16:05:12,4892.46453364655,2,15,0.550297200679779,4.097989082336426,14.838446224318933,14.10985171372642,59.14827996236683,51.57724291841982,6.47544875391759e-05,0.0906857252120971,0,0,0
4905,168779.14238948835,2010-10-17 16:05:42,4922.479761580014,2,15,0.5501165986061096,4.100903034210205,14.843032909508604,14.10985171372642,59.16708310739249,51.57724291841982,3.24249267578125e-05,0.0906857252120971,0,0,0
4906,168809.15771063414,2010-10-17 16:06:12,4952.49508272078,2,15,0.5501165986061096,4.103978633880615,14.847619583704388,14.10985171372642,59.18590006923985,51.57724291841982,3.23295607813634e-05,0.0906857252120971,0,0,0
4907,168839.1727862981,2010-10-17 16:06:42,4982.510158359682,2,15,0.5501165986061096,4.107216358184815,14.852206156836193,14.10985171372642,59.20473069059374,51.57724291841982,9.70840483205393e-05,0.0906857252120971,0,0,0
4908,168869.18815489212,2010-10-17 16:07:12,5012.525526953716,2,15,0.5501165986061096,4.110292434692383,14.856792831741698,14.10985171372642,59.22357594935265,51.57724291841982,9.71794142969884e-05,0.0906857252120971,0,0,0
4909,168899.2031794888,2010-10-17 16:07:42,5042.540551550403,2,15,0.5501165986061096,4.113206386566162,14.86137929583265,14.10985171372642,59.24243466847864,51.57724291841982,3.24249267578125e-05,0.0906857252120971,0,0,0
4910,168929.2184279685,2010-10-17 16:08:12,5072.5558001102745,2,15,0.550297200679779,4.116605758666992,14.86596506036298,14.10985171372642,59.26130481378488,51.57724291841982,9.71794142969884e-05,0.0906857252120971,0,0,0
4911,168959.2335935566,2010-10-17 16:08:42,5102.570965673293,2,15,0.5501165986061096,4.119843482971191,14.870551023747272,14.10985171372642,59.28019045728566,51.57724291841982,9.71794142969884e-05,0.0906857252120971,0,0,0
4912,168989.24885166524,2010-10-17 16:09:12,5132.586223741865,2,15,0.5499359965324402,4.122919082641602,14.875136829611725,14.10985171372642,59.299090110144576,51.57724291841982,6.47544875391759e-05,0.0906857252120971,0,0,0
4913,169019.2641962294,2010-10-17 16:09:42,5162.601568295983,2,15,0.5499359965324402,4.126156806945801,14.879722624690473,14.10985171372642,59.31800442979236,51.57724291841982,6.47544875391759e-05,0.0906857252120971,0,0,0
4914,169049.27930027407,2010-10-17 16:10:12,5192.616672330655,2,15,0.5499359965324402,4.12939453125,14.88430837582908,14.10985171372642,59.33693355330045,51.57724291841982,9.70840483205393e-05,0.0906857252120971,0,0,0
4915,169079.29447310022,2010-10-17 16:10:42,5222.63184518685,2,15,0.550297200679779,4.132956027984619,14.888894212219927,14.10985171372642,59.355878048387865,51.57724291841982,0.0001295089750783,0.0906857252120971,0,0,0
4916,169109.30977982504,2010-10-17 16:11:12,5252.647151911688,2,15,0.5501165986061096,4.135869979858398,14.89348092934846,14.10985171372642,59.37484145582762,51.57724291841982,6.47544875391759e-05,0.0906857252120971,0,0,0
4917,169139.32498506695,2010-10-17 16:11:42,5282.662357123523,2,15,0.550297200679779,4.139431476593018,14.898067657845193,14.10985171372642,59.39382029041991,51.57724291841982,6.47544875391759e-05,0.0906857252120971,0,0,0
4918,169169.3402446593,2010-10-17 16:12:12,5312.677616745967,2,15,0.5501165986061096,4.142831325531006,14.902654401093317,14.10985171372642,59.412814643818734,51.57724291841982,9.71794142969884e-05,0.0906857252120971,0,0,0
4919,169199.35541674358,2010-10-17 16:12:42,5342.692788800163,2,15,0.5501165986061096,4.146230697631836,14.907241108196894,14.10985171372642,59.43182447446631,51.57724291841982,6.47544875391759e-05,0.0906857252120971,0,0,0
4920,169229.37063797034,2010-10-17 16:13:12,5372.708010016889,2,15,0.5501165986061096,4.149630546569824,14.91182778383526,14.10985171372642,59.45085001842488,51.57724291841982,6.47544875391759e-05,0.0906857252120971,0,0,0
4921,169259.38597509597,2010-10-17 16:13:42,5402.723347167556,2,15,0.550297200679779,4.153192043304443,14.916414477221632,14.10985171372642,59.46989136599081,51.57724291841982,9.71794142969884e-05,0.0906857252120971,0,0,0
4922,169289.40110012793,2010-10-17 16:14:12,5432.738472204572,2,15,0.5501165986061096,4.156591415405273,14.921001118682945,14.10985171372642,59.48894835027011,51.57724291841982,9.70840483205393e-05,0.0906857252120971,0,0,0
4923,169319.41632084342,2010-10-17 16:14:42,5462.753692910022,2,15,0.550297200679779,4.160152912139893,14.925587806211688,14.10985171372642,59.50802153286124,51.57724291841982,9.70840483205393e-05,0.0906857252120971,0,0,0
4924,169349.43150445644,2010-10-17 16:15:12,5492.768876538064,2,15,0.5501165986061096,4.163714408874512,14.930174521759453,14.10985171372642,59.5271109767378,51.57724291841982,0.0001295089750783,0.0906857252120971,0,0,0
4925,169379.4465990175,2010-10-17 16:15:42,5522.7839710890985,2,15,0.5501165986061096,4.1671142578125,14.934761217607672,14.10985171372642,59.54621642730096,51.57724291841982,9.71794142969884e-05,0.0906857252120971,0,0,0
4926,169409.46193567192,2010-10-17 16:16:13,5552.799307718468,2,15,0.5499359965324402,4.170675754547119,14.939347968561924,14.10985171372642,59.565338499895205,51.57724291841982,6.47544875391759e-05,0.0906857252120971,0,0,0
4927,169439.4771201621,2010-10-17 16:16:43,5582.814492213671,2,15,0.5501165986061096,4.174398899078369,14.943934591143435,14.10985171372642,59.58447655612873,51.57724291841982,9.70840483205393e-05,0.0906857252120971,0,0,0
4928,169469.49231984015,2010-10-17 16:17:13,5612.829691891715,2,15,0.550297200679779,4.177960395812988,14.948521183306816,14.10985171372642,59.60363099040874,51.57724291841982,9.70840483205393e-05,0.0906857252120971,0,0,0
4929,169499.50761543223,2010-10-17 16:17:43,5642.84498763418,2,15,0.5501165986061096,4.1816840171813965,14.953107834693814,14.10985171372642,59.62280236229884,51.57724291841982,0.0001295089750783,0.0906857252120971,0,0,0
4930,169529.52292086388,2010-10-17 16:18:13,5672.860292945495,2,15,0.5501165986061096,4.185245513916016,14.957694604973462,14.10985171372642,59.64199092193135,51.57724291841982,6.47544875391759e-05,0.0906857252120971,0,0,0
4931,169559.5380043423,2010-10-17 16:18:43,5702.87537643897,2,15,0.5501165986061096,4.189130783081055,14.962281272026631,14.10985171372642,59.66119596970498,51.57724291841982,0.0001295089750783,0.0906857252120971,0,0,0
4932,169589.55319990005,2010-10-17 16:19:13,5732.8905719566455,2,15,0.5499359965324402,4.192692279815674,14.96686800867666,14.10985171372642,59.68041840301995,51.57724291841982,9.71794142969884e-05,0.0906857252120971,0,0,0
4933,169619.56840705173,2010-10-17 16:19:43,5762.905779108316,2,15,0.5501165986061096,4.196415424346924,14.971454729054976,14.10985171372642,59.69965778767329,51.57724291841982,9.71794142969884e-05,0.0906857252120971,0,0,0
4934,169647.4742457983,2010-10-17 16:20:11,5790.811617889972,2,15,0.550297200679779,4.200138568878174,14.975719090477844,14.10985171372642,59.71756047185462,51.57724291841982,9.70840483205393e-05,0.0906857252120971,0,0,0
4935,169677.4901839394,2010-10-17 16:20:41,30.015474482942103,3,15,0.0,4.118872165679932,14.975719090477844,14.10985171372642,59.71756047185462,51.57724291841982,-0.0003561019839253,0.0906857252120971,0,0,0
4936,169707.5051371131,2010-10-17 16:21:11,60.03042755135877,3,15,0.0,4.108997344970703,14.975719090477844,14.10985171372642,59.71756047185462,51.57724291841982,-0.0001942634553415,0.0906857252120971,0,0,0
4937,169737.52037627957,2010-10-17 16:21:41,90.0456667178198,3,15,0.0,4.103007316589356,14.975719090477844,14.10985171372642,59.71756047185462,51.57724291841982,-9.71794142969884e-05,0.0906857252120971,0,0,0
4938,169767.4887473864,2010-10-17 16:22:11,120.0140378296678,3,15,0.0,4.099122047424316,14.975719090477844,14.10985171372642,59.71756047185462,51.57724291841982,-9.71794142969884e-05,0.0906857252120971,0,0,0
4939,169767.490815065,2010-10-17 16:22:11,3.002483112e-06,4,15,0.9938735961914062,4.199814796447754,14.975719091306756,14.10985171372642,59.7175604753359,51.57724291841982,0.0,0.0906857252120971,0,0,0
4940,169768.40978335676,2010-10-17 16:22:12,0.918971329313057,4,15,0.943664252758026,4.199814796447754,14.97596496859081,14.10985171372642,59.71859308474407,51.57724291841982,0.0,0.0906857252120971,0,0,0
4941,169770.5035239425,2010-10-17 16:22:14,3.012711885005706,4,15,0.8932742476463318,4.199814796447754,14.976498071314424,14.10985171372642,59.72083194213811,51.57724291841982,0.0,0.0906857252120971,0,0,0
4942,169773.65969573375,2010-10-17 16:22:17,6.168883646164287,4,15,0.8430648446083069,4.199653148651123,14.977257963717772,14.10985171372642,59.72402326281993,51.57724291841982,3.24249267578125e-05,0.0906857252120971,0,0,0
4943,169777.95653129005,2010-10-17 16:22:21,10.465719227536322,4,15,0.7930361032485962,4.199814796447754,14.978232928713906,14.10985171372642,59.72811780712375,51.57724291841982,3.23295607813634e-05,0.0906857252120971,0,0,0
4944,169783.51891551804,2010-10-17 16:22:27,16.028103435485363,4,15,0.7430073022842407,4.199814796447754,14.979418075601776,14.10985171372642,59.73309504679792,51.57724291841982,3.23295607813634e-05,0.0906857252120971,0,0,0
4945,169790.75353617876,2010-10-17 16:22:34,23.262724131296466,4,15,0.69297856092453,4.199653148651123,14.980859033176092,14.10985171372642,59.73914663290631,51.57724291841982,-3.23295607813634e-05,0.0906857252120971,0,0,0
4946,169800.28431410991,2010-10-17 16:22:44,32.793502052422966,4,15,0.6429497599601746,4.199653148651123,14.982624755721655,14.10985171372642,59.74656214505468,51.57724291841982,0.0,0.0906857252120971,0,0,0
4947,169813.53413308566,2010-10-17 16:22:57,46.04332100311546,4,15,0.5929210186004639,4.199491024017334,14.98489472908776,14.10985171372642,59.7560953490656,51.57724291841982,-6.47544875391759e-05,0.0906857252120971,0,0,0
4948,169833.40892366914,2010-10-17 16:23:17,65.91811160661956,4,15,0.5428922176361084,4.199653148651123,14.98802112986704,14.10985171372642,59.76922530328233,51.57724291841982,0.0,0.0906857252120971,0,0,0
4949,169866.62719441083,2010-10-17 16:23:50,99.13638232826428,4,15,0.4928634762763977,4.199653148651123,14.992780505000704,14.10985171372642,59.789213266824106,51.57724291841982,0.0,0.0906857252120971,0,0,0
4950,169925.01704352093,2010-10-17 16:24:48,157.52623156366636,4,15,0.4428347051143646,4.199491024017334,15.000337602582764,14.10985171372642,59.82095081950953,51.57724291841982,-6.47544875391759e-05,0.0906857252120971,0,0,0
4951,170015.90638179285,2010-10-17 16:26:19,248.4155697102779,4,15,0.3928059339523315,4.199491024017334,15.010862023035015,14.10985171372642,59.86515021425559,51.57724291841982,0.0,0.0906857252120971,0,0,0
4952,170131.01418328696,2010-10-17 16:28:14,363.5233712344613,4,15,0.3427771627902984,4.199491024017334,15.02260709338071,14.10985171372642,59.91447604361039,51.57724291841982,-3.24249267578125e-05,0.0906857252120971,0,0,0
4953,170268.3248184442,2010-10-17 16:30:32,500.8340063866869,4,15,0.2927483916282654,4.199653148651123,15.034718048210951,14.10985171372642,59.96533840829252,51.57724291841982,-3.23295607813634e-05,0.0906857252120971,0,0,0
4954,170434.71332341505,2010-10-17 16:33:18,667.2225113575372,4,15,0.2427196204662323,4.199653148651123,15.047072817073762,14.10985171372642,60.01722475810946,51.57724291841982,-3.23295607813634e-05,0.0906857252120971,0,0,0
4955,170639.46038305675,2010-10-17 16:36:43,871.9695710042722,4,15,0.1926908493041992,4.199653148651123,15.059412772427656,14.10985171372642,60.06904884659896,51.57724291841982,0.0,0.0906857252120971,0,0,0
4956,170912.89457007442,2010-10-17 16:41:16,1145.4037581121408,4,15,0.1426620930433273,4.199653148651123,15.072062191323203,14.10985171372642,60.12217255471778,51.57724291841982,0.0,0.0906857252120971,0,0,0
4957,171318.0449679927,2010-10-17 16:48:01,1550.5541559000894,4,15,0.0924527049064636,4.199653148651123,15.085117819292671,14.10985171372642,60.17700227549782,51.57724291841982,-3.23295607813634e-05,0.0906857252120971,0,0,0
4958,171961.3173965396,2010-10-17 16:58:45,2193.826584482094,4,15,0.0498289167881011,4.199653148651123,15.097458884289228,14.10985171372642,60.22883107073591,51.57724291841982,-3.23295607813634e-05,0.0906857252120971,0,0,0
4959,171991.33334532357,2010-10-17 16:59:15,30.015213838335544,5,15,0.0,4.192368507385254,15.097458884289228,14.10985171372642,60.22883107073591,51.57724291841982,-3.23295607813634e-05,0.0906857252120971,0,0,0
4960,172021.3329289967,2010-10-17 16:59:45,60.01479750146519,5,15,0.0,4.191073417663574,15.097458884289228,14.10985171372642,60.22883107073591,51.57724291841982,-3.23295607813634e-05,0.0906857252120971,0,0,0
4961,172021.52188712577,2010-10-17 16:59:45,0.187396599987662,6,15,-1.9243103452026844e-05,4.191073417663574,15.097458884289228,14.10985171472811,60.22883107073591,51.57724292261799,0.0,0.0922218039631843,0,0,0
4962,172026.34993609934,2010-10-17 16:59:50,5.015445658795768,6,15,0.0005225847125984,4.191073417663574,15.097459711934352,14.109851714895068,60.22883453952422,51.577242923317726,-3.23295607813634e-05,0.0922218039631843,0,0,0
4963,172056.3669668044,2010-10-17 17:00:20,30.01541151600913,7,15,-1.0997490882873535,4.023521423339844,15.097459711934352,14.11902085650472,60.22883453952422,51.61432291620776,-0.0008742332574911,0.0922218039631843,0,0,0
4964,172086.3822744315,2010-10-17 17:00:50,60.03071923331997,7,15,-1.099929690361023,3.99810528755188,15.097459711934352,14.128189902446236,60.22883453952422,51.6510897546927,-0.0005828380817547,0.0922218039631843,0,0,0
4965,172116.3973664061,2010-10-17 17:01:20,90.04581109765878,7,15,-1.0997490882873535,3.980783700942993,15.097459711934352,14.137358934526034,60.22883453952422,51.68766597081127,-0.0004209041653666,0.0922218039631843,0,0,0
4966,172146.41242230582,2010-10-17 17:01:50,120.06086698733768,7,15,-1.0997490882873535,3.967185258865357,15.097459711934352,14.146527755978278,60.22883453952422,51.7241011523695,-0.0003561496851034,0.0922218039631843,0,0,0
4967,172176.4276324399,2010-10-17 17:02:20,150.07607712645364,7,15,-1.0997490882873535,3.955691337585449,15.097459711934352,14.15569669021486,60.22883453952422,51.76042225171405,-0.0002913951757363,0.0922218039631843,0,0,0
4968,172206.44285799743,2010-10-17 17:02:50,180.091302683997,7,15,-1.0997490882873535,3.9454925060272217,15.097459711934352,14.164865646273222,60.22883453952422,51.79664344969914,-0.0002590179501567,0.0922218039631843,0,0,0
4969,172236.45805310912,2010-10-17 17:03:20,210.10649785079733,7,15,-1.0997490882873535,3.935779333114624,15.097459711934352,14.17403452591658,60.22883453952422,51.83277360448948,-0.0002913951757363,0.0922218039631843,0,0,0
4970,172266.47331341327,2010-10-17 17:03:50,240.1217581399025,7,15,-1.099929690361023,3.926551818847656,15.097459711934352,14.183203462530878,60.22883453952422,51.86881873290106,-0.0002913951757363,0.0922218039631843,0,0,0
4971,172296.4885332465,2010-10-17 17:04:20,270.13697794310434,7,15,-1.0997490882873535,3.917971849441528,15.097459711934352,14.192372456381692,60.22883453952422,51.904782617518585,-0.0002266406954731,0.0922218039631843,0,0,0
4972,172326.50390683304,2010-10-17 17:04:50,300.1523515496314,7,15,-1.099568486213684,3.9095540046691895,15.097459711934352,14.201541490188982,60.22883453952422,51.9406675573948,-0.0002266406954731,0.0922218039631843,0,0,0
4973,172356.51898387543,2010-10-17 17:05:20,330.1674285619544,7,15,-1.099568486213684,3.9012978076934814,15.097459711934352,14.210710422785183,60.22883453952422,51.97647499141826,-0.0002266406954731,0.0922218039631843,0,0,0
4974,172386.53418158856,2010-10-17 17:05:50,360.1826263001635,7,15,-1.0997490882873535,3.892879724502564,15.097459711934352,14.219879387208213,60.22883453952422,52.01220670968947,-0.0002266406954731,0.0922218039631843,0,0,0
4975,172416.54940437418,2010-10-17 17:06:20,390.1978491158734,7,15,-1.0997490882873535,3.8847854137420654,15.097459711934352,14.229048370785089,60.22883453952422,52.04786410429888,-0.0002590179501567,0.0922218039631843,0,0,0
4976,172446.56462240298,2010-10-17 17:06:50,420.2130670794904,7,15,-1.0997490882873535,3.8770148754119873,15.097459711934352,14.2382173782325,60.22883453952422,52.08344838724128,-0.0001942634553415,0.0922218039631843,0,0,0
4977,172476.57982946944,2010-10-17 17:07:20,450.22827418604834,7,15,-1.0997490882873535,3.869082450866699,15.097459711934352,14.247386353374155,60.22883453952422,52.11896037336719,-0.0002266406954731,0.0922218039631843,0,0,0
4978,172506.5950387865,2010-10-17 17:07:50,480.24348347805307,7,15,-1.0997490882873535,3.861635684967041,15.097459711934352,14.256555356297726,60.22883453952422,52.15440175723267,-0.0001618862152099,0.0922218039631843,0,0,0
4979,172536.6103789096,2010-10-17 17:08:20,510.25882360112894,7,15,-1.0997490882873535,3.853703260421753,15.097459711934352,14.265724387927614,60.22883453952422,52.1897728884217,-0.0002590179501567,0.0922218039631843,0,0,0
4980,172566.62561592567,2010-10-17 17:08:50,540.2740606473055,7,15,-1.0997490882873535,3.8464183807373047,15.097459711934352,14.274893397720252,60.22883453952422,52.22507472810656,-0.0001942634553415,0.0922218039631843,0,0,0
4981,172596.64069717357,2010-10-17 17:09:20,570.2891418901723,7,15,-1.0997490882873535,3.839133501052856,15.097459711934352,14.284062334569844,60.22883453952422,52.26030850286558,-0.0001618862152099,0.0922218039631843,0,0,0
4982,172626.65593596408,2010-10-17 17:09:50,600.304380675684,7,15,-1.099568486213684,3.8318488597869873,15.097459711934352,14.29323132708811,60.22883453952422,52.29547549125112,-0.0001618862152099,0.0922218039631843,0,0,0
4983,172656.67114337138,2010-10-17 17:10:20,630.3195880779789,7,15,-1.0997490882873535,3.824725866317749,15.097459711934352,14.302400390326914,60.22883453952422,52.33057680596227,-0.0001942634553415,0.0922218039631843,0,0,0
4984,172686.6863674402,2010-10-17 17:10:50,660.3348121217497,7,15,-1.099568486213684,3.8177647590637207,15.097459711934352,14.311569452272192,60.22883453952422,52.36561327587837,-0.0001618862152099,0.0922218039631843,0,0,0
4985,172716.70156924857,2010-10-17 17:11:20,690.3500139401277,7,15,-1.099929690361023,3.8106417655944815,15.097459711934352,14.320738519111528,60.22883453952422,52.40058590167929,-0.0001942634553415,0.0922218039631843,0,0,0
4986,172746.71678393905,2010-10-17 17:11:50,720.365228640612,7,15,-1.0997490882873535,3.804004430770874,15.097459711934352,14.329907475808144,60.22883453952422,52.435495032707344,-0.0001618862152099,0.0922218039631843,0,0,0
4987,172776.73212847312,2010-10-17 17:12:20,750.3805731546315,7,15,-1.0997490882873535,3.7973670959472656,15.097459711934352,14.339076503577118,60.22883453952422,52.47034373602203,-0.0001942634553415,0.0922218039631843,0,0,0
4988,172806.74723587616,2010-10-17 17:12:50,780.3956805877726,7,15,-1.0997490882873535,3.790729761123657,15.097459711934352,14.348245441660298,60.22883453952422,52.50513226271017,-0.0002266406954731,0.0922218039631843,0,0,0
4989,172836.76246420562,2010-10-17 17:13:20,810.4109089472995,7,15,-1.0997490882873535,3.784578084945679,15.097459711934352,14.357414417189942,60.22883453952422,52.53986198468169,-0.0001618862152099,0.0922218039631843,0,0,0
4990,172866.77778175744,2010-10-17 17:13:50,840.4262264740584,7,15,-1.0997490882873535,3.77826452255249,15.097459711934352,14.366583493751868,60.22883453952422,52.57453414224784,-0.0001942634553415,0.0922218039631843,0,0,0
4991,172896.79287914556,2010-10-17 17:14:20,870.4413238421142,7,15,-1.099568486213684,3.7722747325897217,15.097459711934352,14.375752543021632,60.22883453952422,52.60914957722757,-0.0001618862152099,0.0922218039631843,0,0,0
4992,172926.80810914916,2010-10-17 17:14:51,900.4565538607761,7,15,-1.0997490882873535,3.765961170196533,15.097459711934352,14.384921606965564,60.22883453952422,52.64370903838824,-0.0001942634553415,0.0922218039631843,0,0,0
4993,172956.82331095252,2010-10-17 17:15:21,930.4717556641168,7,15,-1.0997490882873535,3.760133266448975,15.097459711934352,14.39409065389515,60.22883453952422,52.6782137929237,-0.0001295089750783,0.0922218039631843,0,0,0
4994,172986.8385468759,2010-10-17 17:15:51,960.4869916526576,7,15,-1.099568486213684,3.754467248916626,15.097459711934352,14.40325975173816,60.22883453952422,52.71266544732108,-0.0001295089750783,0.0922218039631843,0,0,0
4995,173016.85394565517,2010-10-17 17:16:21,990.5023903717728,7,15,-1.0997490882873535,3.748801469802856,15.097459711934352,14.41242883120104,60.22883453952422,52.74706450655577,-0.0001618862152099,0.0922218039631843,0,0,0
4996,173046.86901181543,2010-10-17 17:16:51,1020.5174565520992,7,15,-1.0997490882873535,3.743135452270508,15.097459711934352,14.421597923926084,60.22883453952422,52.7814119718834,-0.0001618862152099,0.0922218039631843,0,0,0
4997,173076.884189634,2010-10-17 17:17:21,1050.5326343456,7,15,-1.0997490882873535,3.737793207168579,15.097459711934352,14.430767029029802,60.22883453952422,52.81570886689242,-0.0001618862152099,0.0922218039631843,0,0,0
4998,173106.89941045977,2010-10-17 17:17:51,1080.54785517135,7,15,-1.0997490882873535,3.732612848281861,15.097459711934352,14.439936148873416,60.22883453952422,52.84995678364925,-9.713172767078504e-05,0.0922218039631843,0,0,0
4999,173136.91474633222,2010-10-17 17:18:21,1110.5631911089947,7,15,-1.0997490882873535,3.7274324893951416,15.097459711934352,14.449105294817215,60.22883453952422,52.88415653885692,-0.0001295089750783,0.0922218039631843,0,0,0
5000,173166.92984843208,2010-10-17 17:18:51,1140.578293143681,7,15,-1.0997490882873535,3.722090244293213,15.097459711934352,14.458274321929135,60.22883453952422,52.9183088235659,-0.0001618862152099,0.0922218039631843,0,0,0
5001,173196.9451798284,2010-10-17 17:19:21,1170.5936246603071,7,15,-1.0997490882873535,3.717071771621704,15.097459711934352,14.467443429588435,60.22883453952422,52.95241414028746,-0.0001295089750783,0.0922218039631843,0,0,0
5002,173226.96026725668,2010-10-17 17:19:51,1200.6087119432275,7,15,-1.0997490882873535,3.712215185165405,15.097459711934352,14.47661250465956,60.22883453952422,52.98647252189248,-0.0001295089750783,0.0922218039631843,0,0,0
5003,173256.97551211232,2010-10-17 17:20:21,1230.623956798868,7,15,-1.0997490882873535,3.706872940063477,15.097459711934352,14.48578166879485,60.22883453952422,53.02048521250816,-0.0001618862152099,0.0922218039631843,0,0,0
5004,173286.990732903,2010-10-17 17:20:51,1260.6391776196058,7,15,-1.099929690361023,3.7020163536071777,15.097459711934352,14.49495079279066,60.22883453952422,53.054452837277005,-0.0001618862152099,0.0922218039631843,0,0,0
5005,173317.00594948817,2010-10-17 17:21:21,1290.6543941747125,7,15,-1.0997490882873535,3.697321653366089,15.097459711934352,14.504119883241737,60.22883453952422,53.088375985014125,-0.0001295089750783,0.0922218039631843,0,0,0
5006,173347.0212865486,2010-10-17 17:21:51,1320.669731270243,7,15,-1.099929690361023,3.692626953125,15.097459711934352,14.513289043578904,60.22883453952422,53.122255565520696,-0.0001618862152099,0.0922218039631843,0,0,0
5007,173377.03636614236,2010-10-17 17:22:21,1350.684810828912,7,15,-1.0997490882873535,3.687608480453491,15.097459711934352,14.522458131438864,60.22883453952422,53.15609155887246,-0.0001618862152099,0.0922218039631843,0,0,0
5008,173407.05159265228,2010-10-17 17:22:51,1380.7000373939666,7,15,-1.0997490882873535,3.6832375526428223,15.097459711934352,14.531627230514962,60.22883453952422,53.18988481387956,-0.0001295089750783,0.0922218039631843,0,0,0
5009,173437.06680061095,2010-10-17 17:23:21,1410.7152453275855,7,15,-1.0997490882873535,3.678542852401733,15.097459711934352,14.540796293745004,60.22883453952422,53.22363574903556,-0.0001295089750783,0.0922218039631843,0,0,0
5010,173467.0820287299,2010-10-17 17:23:51,1440.7304734515255,7,15,-1.0997490882873535,3.6740100383758554,15.097459711934352,14.549965463033123,60.22883453952422,53.2573457006649,-0.0001618862152099,0.0922218039631843,0,0,0
5011,173497.10037335614,2010-10-17 17:24:21,1470.7488181679723,7,15,-1.0997490882873535,3.6696393489837646,15.097459711934352,14.559135535409482,60.22883453952422,53.29101830098264,-0.0001295089750783,0.0922218039631843,0,0,0
5012,173527.11247875725,2010-10-17 17:24:51,1500.7609234388017,7,15,-1.099568486213684,3.6654303073883057,15.097459711934352,14.568303748111,60.22883453952422,53.32464390752318,-0.0001295089750783,0.0922218039631843,0,0,0
5013,173557.12766631012,2010-10-17 17:25:21,1530.7761110066626,7,15,-1.099568486213684,3.6610593795776367,15.097459711934352,14.577472858003656,60.22883453952422,53.35823322650301,-0.0001618862152099,0.0922218039631843,0,0,0
5014,173587.1428829454,2010-10-17 17:25:51,1560.7913276369568,7,15,-1.099568486213684,3.6568503379821777,15.097459711934352,14.58664202066432,60.22883453952422,53.39178361099447,-0.0001295089750783,0.0922218039631843,0,0,0
5015,173617.1582281612,2010-10-17 17:26:21,1590.8066729479626,7,15,-1.0997490882873535,3.6528031826019287,15.097459711934352,14.595811171936516,60.22883453952422,53.42529545918696,-0.0001295089750783,0.0922218039631843,0,0,0
5016,173647.17332736883,2010-10-17 17:26:51,1620.8217720553532,7,15,-1.0997490882873535,3.6485941410064697,15.097459711934352,14.6049802020677,60.22883453952422,53.45876926148499,-0.0001295089750783,0.0922218039631843,0,0,0
5017,173677.18851764844,2010-10-17 17:27:21,1650.8369623349734,7,15,-1.099568486213684,3.6448707580566406,15.097459711934352,14.614148704322146,60.22883453952422,53.49220391516278,-9.713172767078504e-05,0.0922218039631843,0,0,0
5018,173707.20371010347,2010-10-17 17:27:51,1680.8521548100653,7,15,-1.0997490882873535,3.6406617164611816,15.097459711934352,14.623316998145446,60.22883453952422,53.52560151644211,-9.713172767078504e-05,0.0922218039631843,0,0,0
5019,173737.2191312936,2010-10-17 17:28:21,1710.8675760954225,7,15,-1.099568486213684,3.636938333511353,15.097459711934352,14.632485506767631,60.22883453952422,53.55896444288117,-0.0001295089750783,0.0922218039631843,0,0,0
5020,173767.2342035992,2010-10-17 17:28:51,1740.8826484010146,7,15,-1.0997490882873535,3.633214950561523,15.097459711934352,14.641653771486732,60.22883453952422,53.59229181226579,-9.713172767078504e-05,0.0922218039631843,0,0,0
5021,173797.24939365825,2010-10-17 17:29:21,1770.897838374873,7,15,-1.0997490882873535,3.6294915676116943,15.097459711934352,14.65082209117625,60.22883453952422,53.62558544499904,-0.0001295089750783,0.0922218039631843,0,0,0
5022,173827.26472741045,2010-10-17 17:29:51,1800.9131720969956,7,15,-1.0997490882873535,3.625768184661865,15.097459711934352,14.659990447591047,60.22883453952422,53.65884587027232,-0.0001295089750783,0.0922218039631843,0,0,0
5023,173857.27981707934,2010-10-17 17:30:21,1830.9282617658623,7,15,-1.0997490882873535,3.622530460357666,15.097459711934352,14.669159067789902,60.22883453952422,53.69207493063258,-6.47544875391759e-05,0.0922218039631843,0,0,0
5024,173887.29522162798,2010-10-17 17:30:51,1860.9436663546069,7,15,-1.0997490882873535,3.619130849838257,15.097459711934352,14.67832802726904,60.22883453952422,53.72527379061819,-9.713172767078504e-05,0.0922218039631843,0,0,0
5025,173917.3103279684,2010-10-17 17:31:21,1890.9587726950244,7,15,-1.0997490882873535,3.615731239318848,15.097459711934352,14.687496971191871,60.22883453952422,53.75844174635193,-9.713172767078504e-05,0.0922218039631843,0,0,0
5026,173947.32547592753,2010-10-17 17:31:51,1920.9739206090564,7,15,-1.099568486213684,3.612493515014648,15.097459711934352,14.696665905959392,60.22883453952422,53.791579531875406,-6.47544875391759e-05,0.0922218039631843,0,0,0
5027,173977.34108699087,2010-10-17 17:32:21,1950.9895317074863,7,15,-1.099568486213684,3.609579563140869,15.097459711934352,14.70583503188086,60.22883453952422,53.82468893251012,-3.237724376958795e-05,0.0922218039631843,0,0,0
5028,174007.35621658424,2010-10-17 17:32:51,1981.0046613710324,7,15,-1.099929690361023,3.60634183883667,15.097459711934352,14.715003974732788,60.22883453952422,53.85776903413305,-6.47544875391759e-05,0.0922218039631843,0,0,0
5029,174037.3720659966,2010-10-17 17:33:21,2011.0205107132392,7,15,-1.0997490882873535,3.603104114532471,15.097459711934352,14.7241731121862,60.22883453952422,53.89082158366168,-9.713172767078504e-05,0.0922218039631843,0,0,0
5030,174067.38635808768,2010-10-17 17:33:51,2041.0348027992843,7,15,-1.099568486213684,3.6003520488739014,15.097459711934352,14.733341770739097,60.22883453952422,53.92384476743981,-6.47544875391759e-05,0.0922218039631843,0,0,0
5031,174097.40174271166,2010-10-17 17:34:21,2071.050187438308,7,15,-1.099929690361023,3.597276210784912,15.097459711934352,14.742510772626009,60.22883453952422,53.95684189503062,-9.713172767078504e-05,0.0922218039631843,0,0,0
5032,174127.41680651106,2010-10-17 17:34:51,2101.065251192588,7,15,-1.0997490882873535,3.594362258911133,15.097459711934352,14.751679724935892,60.22883453952422,53.98981191945397,-6.47544875391759e-05,0.0922218039631843,0,0,0
5033,174157.432018986,2010-10-17 17:35:21,2131.0804637226624,7,15,-1.0997490882873535,3.5914485454559326,15.097459711934352,14.760848749915294,60.22883453952422,54.02275591019595,-0.0001295089750783,0.0922218039631843,0,0,0
5034,174187.44721858384,2010-10-17 17:35:51,2161.095663270382,7,15,-1.099929690361023,3.5886964797973637,15.097459711934352,14.770017681188834,60.22883453952422,54.05567318911047,-6.47544875391759e-05,0.0922218039631843,0,0,0
5035,174217.46256585472,2010-10-17 17:36:21,2191.111010551297,7,15,-1.0997490882873535,3.585782527923584,15.097459711934352,14.77918672901706,60.22883453952422,54.088564850630426,-6.47544875391759e-05,0.0922218039631843,0,0,0
5036,174247.47767081673,2010-10-17 17:36:51,2221.126115523304,7,15,-1.0997490882873535,3.583030462265014,15.097459711934352,14.788355631013966,60.22883453952422,54.12142990420181,-6.47544875391759e-05,0.0922218039631843,0,0,0
5037,174277.49301794224,2010-10-17 17:37:21,2251.1414626388078,7,15,-1.0997490882873535,3.580116510391236,15.097459711934352,14.797524661978406,60.22883453952422,54.15426925159189,-3.237724376958795e-05,0.0922218039631843,0,0,0
5038,174307.5081378264,2010-10-17 17:37:51,2281.156582558068,7,15,-1.099568486213684,3.577364444732666,15.097459711934352,14.806693568287429,60.22883453952422,54.18708187784425,-6.47544875391759e-05,0.0922218039631843,0,0,0
5039,174337.52331732918,2010-10-17 17:38:21,2311.1717620457907,7,15,-1.0993878841400146,3.5744504928588867,15.097459711934352,14.815862594172458,60.22883453952422,54.219868398370345,-3.237724376958795e-05,0.0922218039631843,0,0,0
5040,174367.53856130765,2010-10-17 17:38:51,2341.1870060192323,7,15,-1.0997490882873535,3.571374654769897,15.097459711934352,14.825031622586852,60.22883453952422,54.25262833227456,-9.713172767078504e-05,0.0922218039631843,0,0,0
5041,174397.55374457478,2010-10-17 17:39:21,2371.2021892713374,7,15,-1.0997490882873535,3.568298816680908,15.097459711934352,14.834200561754566,60.22883453952422,54.285360988055466,-9.713172767078504e-05,0.0922218039631843,0,0,0
5042,174427.56908966522,2010-10-17 17:39:51,2401.217534356782,7,15,-1.099568486213684,3.565546751022339,15.097459711934352,14.843369607655315,60.22883453952422,54.31806661540586,-6.47544875391759e-05,0.0922218039631843,0,0,0
5043,174457.5846939968,2010-10-17 17:40:21,2431.233138728446,7,15,-1.0997490882873535,3.5624709129333496,15.097459711934352,14.85253868660656,60.22883453952422,54.350744571048445,-9.713172767078504e-05,0.0922218039631843,0,0,0
5044,174487.59943138767,2010-10-17 17:40:51,2461.247876099278,7,15,-1.099568486213684,3.5593950748443604,15.097459711934352,14.861707512757118,60.22883453952422,54.383393781436496,-6.47544875391759e-05,0.0922218039631843,0,0,0
5045,174517.6146418025,2010-10-17 17:41:21,2491.2630865190936,7,15,-1.099568486213684,3.556157350540161,15.097459711934352,14.870876497111238,60.22883453952422,54.41601445651068,-6.47544875391759e-05,0.0922218039631843,0,0,0
5046,174547.62984539528,2010-10-17 17:41:51,2521.2782900768066,7,15,-1.0997490882873535,3.552757740020752,15.097459711934352,14.880045483904624,60.22883453952422,54.44860529937518,-9.713172767078504e-05,0.0922218039631843,0,0,0
5047,174577.64505884264,2010-10-17 17:42:21,2551.2935035291803,7,15,-1.0997490882873535,3.5495200157165527,15.097459711934352,14.889214463913572,60.22883453952422,54.4811658278872,-9.713172767078504e-05,0.0922218039631843,0,0,0
5048,174607.66033788348,2010-10-17 17:42:51,2581.308782565008,7,15,-1.099568486213684,3.545796632766724,15.097459711934352,14.898383470272533,60.22883453952422,54.51369494788191,-0.0001618862152099,0.0922218039631843,0,0,0
5049,174637.67561524513,2010-10-17 17:43:21,2611.324059936688,7,15,-1.0997490882873535,3.5423970222473145,15.097459711934352,14.907552428155158,60.22883453952422,54.54619142623458,-0.0001295089750783,0.0922218039631843,0,0,0
5050,174667.69071291896,2010-10-17 17:43:51,2641.339157630556,7,15,-1.0997490882873535,3.5386736392974854,15.097459711934352,14.916721347339172,60.22883453952422,54.57865453525761,-9.713172767078504e-05,0.0922218039631843,0,0,0
5051,174697.70605384905,2010-10-17 17:44:21,2671.3544985506187,7,15,-1.099568486213684,3.5347883701324463,15.097459711934352,14.925890429760706,60.22883453952422,54.61108350114426,-9.713172767078504e-05,0.0922218039631843,0,0,0
5052,174727.72130297532,2010-10-17 17:44:51,2701.36974767189,7,15,-1.099568486213684,3.5309031009674072,15.097459711934352,14.935059381473147,60.22883453952422,54.643475951338345,-9.713172767078504e-05,0.0922218039631843,0,0,0
5053,174757.73637537114,2010-10-17 17:45:21,2731.3848200827447,7,15,-1.099929690361023,3.5265321731567383,15.097459711934352,14.944228359746186,60.22883453952422,54.67583103865029,-0.0001295089750783,0.0922218039631843,0,0,0
5054,174787.75170657196,2010-10-17 17:45:51,2761.4001513186718,7,15,-1.099568486213684,3.5223231315612797,15.097459711934352,14.953397307055845,60.22883453952422,54.70814678887427,-9.713172767078504e-05,0.0922218039631843,0,0,0
5055,174817.76679984984,2010-10-17 17:46:21,2791.415244576483,7,15,-1.0997490882873535,3.5176284313201904,15.097459711934352,14.96256626273254,60.22883453952422,54.740421336973824,-0.0001618862152099,0.0922218039631843,0,0,0
5056,174847.78215572218,2010-10-17 17:46:52,2821.430600408711,7,15,-1.0997490882873535,3.5126099586486816,15.097459711934352,14.971735314235218,60.22883453952422,54.772652391680765,-0.0001295089750783,0.0922218039631843,0,0,0
5057,174877.7972390753,2010-10-17 17:47:22,2851.4456838169745,7,15,-1.0997490882873535,3.507267951965332,15.097459711934352,14.980904302927748,60.22883453952422,54.80483601488515,-0.0001942634553415,0.0922218039631843,0,0,0
5058,174907.81245918426,2010-10-17 17:47:52,2881.4609038858384,7,15,-1.0997490882873535,3.501116275787353,15.097459711934352,14.990073390000145,60.22883453952422,54.83696817974924,-0.0002266406954731,0.0922218039631843,0,0,0
5059,174937.8279434115,2010-10-17 17:48:22,2911.4763882433917,7,15,-1.0997490882873535,3.494802713394165,15.097459711934352,14.999242512745102,60.22883453952422,54.869043084877084,-0.0001295089750783,0.0922218039631843,0,0,0
5060,174967.84291749727,2010-10-17 17:48:52,2941.4913621838277,7,15,-1.099929690361023,3.487355947494507,15.097459711934352,15.00841142954246,60.22883453952422,54.90105271488303,-0.0001942634553415,0.0922218039631843,0,0,0
5061,174997.85811633323,2010-10-17 17:49:22,2971.506561019772,7,15,-1.099568486213684,3.478775978088379,15.097459711934352,15.017580415694578,60.22883453952422,54.93298929068144,-0.0002266406954731,0.0922218039631843,0,0,0
5062,175027.8733498005,2010-10-17 17:49:52,3001.5217945020668,7,15,-1.0997490882873535,3.4687390327453613,15.097459711934352,15.026749363625578,60.22883453952422,54.96484111871924,-0.0002913951757363,0.0922218039631843,0,0,0
5063,175057.8885791475,2010-10-17 17:50:22,3031.5370238590795,7,15,-1.099568486213684,3.457406997680664,15.097459711934352,15.035918404848926,60.22883453952422,54.996595346762696,-0.0003237724304199,0.0922218039631843,0,0,0
5064,175087.90381449944,2010-10-17 17:50:52,3061.5522592110337,7,15,-1.0997490882873535,3.443322896957397,15.097459711934352,15.04508740509919,60.22883453952422,55.02823276912692,-0.0003885269106831,0.0922218039631843,0,0,0
5065,175117.919145189,2010-10-17 17:51:22,3091.567589875536,7,15,-1.099568486213684,3.425839424133301,15.097459711934352,15.054256449967774,60.22883453952422,55.05972720394941,-0.0005180359003134,0.0922218039631843,0,0,0
5066,175147.93426104312,2010-10-17 17:51:52,3121.5827057296647,7,15,-1.099929690361023,3.4026896953582764,15.097459711934352,15.063425606505266,60.22883453952422,55.09103850100322,-0.0007122993702068,0.0922218039631843,0,0,0
5067,175177.9494470972,2010-10-17 17:52:22,3151.597891788766,7,15,-1.099929690361023,3.371121883392334,15.097459711934352,15.07259541069077,60.22883453952422,55.1221048483054,-0.0009713172912597,0.0922218039631843,0,0,0
5068,175207.96480265877,2010-10-17 17:52:52,3181.6132473453067,7,15,-1.099929690361023,3.325955867767334,15.097459711934352,15.081765286637436,60.22883453952422,55.1528239220415,-0.0014245987404137,0.0922218039631843,0,0,0
5069,175237.97987428767,2010-10-17 17:53:22,3211.628318994263,7,15,-1.0997490882873535,3.260877847671509,15.097459711934352,15.090935001392165,60.22883453952422,55.183042807805165,-0.0019749640487134,0.0922218039631843,0,0,0
5070,175267.99512584502,2010-10-17 17:53:52,3241.6435705415806,7,15,-1.099568486213684,3.164232015609741,15.097459711934352,15.100104616876475,60.22883453952422,55.21253141683571,-0.0030434608925133,0.0922218039631843,0,0,0
5071,175298.0103348914,2010-10-17 17:54:22,3271.6587795779483,7,15,-1.0997490882873535,3.0052602291107178,15.097459711934352,15.109273576308563,60.22883453952422,55.24089054345167,-0.005568838212639,0.0922218039631843,0,0,0
5072,175316.33862087457,2010-10-17 17:54:40,3289.9870656011904,7,15,-1.099929690361023,2.8046836853027344,15.097459711934352,15.114872461123436,60.22883453952422,55.25722214447024,-0.0113967899233102,0.0922218039631843,0,0,0
5073,175322.9007465358,2010-10-17 17:54:47,3296.5491912474167,7,15,-1.0997490882873535,2.699943780899048,15.097459711934352,15.116877057429225,60.22883453952422,55.26274135420732,-0.013015603646636,0.0922218039631843,0,0,0
5074,175382.91487889187,2010-10-17 17:55:47,60.01482620299824,8,15,0.0,3.310091018676758,15.097459711934352,15.116877057429225,60.22883453952422,55.26274135420732,0.0013922214275225,0.0922218039631843,0,0,0
5075,175383.1030166283,2010-10-17 17:55:47,0.187893247786792,9,15,-1.9243103452026844e-05,3.310091018676758,15.097459711934352,15.116877058433571,60.22883453952422,55.2627413575318,0.0,0.0897949114441871,0,0,0
5076,175387.93066207616,2010-10-17 17:55:52,5.015538660584842,9,15,0.0008838032954372,3.318509101867676,15.097460553423277,15.116877058598508,60.22883732913638,55.26274135807776,0.0011979580158367,0.0897949114441871,0,0,0
