Data_Point,Test_Time(s),Date_Time,Step_Time(s),Step_Index,Cycle_Index,Current(A),Voltage(V),Charge_Capacity(Ah),Discharge_Capacity(Ah),Charge_Energy(Wh),Discharge_Energy(Wh),dV/dt(V/s),Internal_Resistance(Ohm),Is_FC_Data,AC_Impedance(Ohm),ACI_Phase_Angle(Deg)
12049,419296.3407119934,2010-10-20 13:41:26,30.015219843301768,1,37,0.0,3.4271345138549805,35.90176263114929,35.904753732590024,143.36782343590673,130.96022382550598,0.0007770538213662,0.0909321531653404,0,0,0
12050,419326.3557641488,2010-10-20 13:41:56,60.030271978623645,1,37,0.0,3.451579093933105,35.90176263114929,35.904753732590024,143.36782343590673,130.96022382550598,0.0005827903514727,0.0909321531653404,0,0,0
12051,419356.37090117054,2010-10-20 13:42:26,90.04540899048398,1,37,0.0,3.469872236251831,35.90176263114929,35.904753732590024,143.36782343590673,130.96022382550598,0.0004532813909463,0.0909321531653404,0,0,0
12052,419386.3393022021,2010-10-20 13:42:56,120.01381003192571,1,37,0.0,3.484603881835937,35.90176263114929,35.904753732590024,143.36782343590673,130.96022382550598,0.0003561496851034,0.0909321531653404,0,0,0
12053,419416.348548155,2010-10-20 13:43:26,30.01506126307104,2,37,0.5501165986061096,3.636938333511353,35.90634978451448,35.904753732590024,143.38435784884612,130.96022382550598,0.0014245987404137,0.0909321531653404,0,0,0
12054,419446.3637327755,2010-10-20 13:43:57,60.03024590363676,2,37,0.5501165986061096,3.679676055908203,35.910936917103825,35.904753732590024,143.40114591761633,130.96022382550598,0.0009065627818927,0.0909321531653404,0,0,0
12055,419476.3789886487,2010-10-20 13:44:27,90.04550178174836,2,37,0.5501165986061096,3.710110664367676,35.91552403744808,35.904753732590024,143.41809859327003,130.96022382550598,0.0007122993702068,0.0909321531653404,0,0,0
12056,419506.3940328742,2010-10-20 13:44:57,120.06054598730684,2,37,0.5501165986061096,3.73390793800354,35.92011094384737,35.904753732590024,143.43517318051417,130.96022382550598,0.0005827903514727,0.0909321531653404,0,0,0
12057,419536.4091104229,2010-10-20 13:45:27,150.0756235860915,2,37,0.5499359965324402,3.752686738967896,35.92469726872283,35.904753732590024,143.45234273649024,130.96022382550598,0.0004209041653666,0.0909321531653404,0,0,0
12058,419566.4242973542,2010-10-20 13:45:57,180.09081051736638,2,37,0.5501165986061096,3.767418146133423,35.92928367691604,35.904753732590024,143.46958962737256,130.96022382550598,0.0003237724304199,0.0909321531653404,0,0,0
12059,419596.439561548,2010-10-20 13:46:27,210.1060746610784,2,37,0.5499359965324402,3.776645660400391,35.9338700591234,35.904753732590024,143.48689120953026,130.96022382550598,0.0001942634553415,0.0909321531653404,0,0,0
12060,419626.45458371367,2010-10-20 13:46:57,240.12109682670652,2,37,0.5499359965324402,3.782635450363159,35.93845637581591,35.904753732590024,143.5042264780972,130.96022382550598,0.0001295089750783,0.0909321531653404,0,0,0
12061,419656.4698350605,2010-10-20 13:47:27,270.13634816851226,2,37,0.5499359965324402,3.787006378173828,35.94304275664203,35.904753732590024,143.52158488863225,130.96022382550598,0.0001295089750783,0.0909321531653404,0,0,0
12062,419686.4848507298,2010-10-20 13:47:57,300.1513638429625,2,37,0.5501165986061096,3.791053533554077,35.94762914552317,35.904753732590024,143.53896237722282,130.96022382550598,0.0001295089750783,0.0909321531653404,0,0,0
12063,419716.50001931546,2010-10-20 13:48:27,330.1665324485641,2,37,0.5501165986061096,3.794776916503906,35.95221552385774,35.904753732590024,143.55635769621986,130.96022382550598,0.0001295089750783,0.0909321531653404,0,0,0
12064,419746.51516089874,2010-10-20 13:48:57,360.18167401176777,2,37,0.5501165986061096,3.798662185668945,35.95680193242047,35.904753732590024,143.5737708715563,130.96022382550598,0.0001295089750783,0.0909321531653404,0,0,0
12065,419776.5303299655,2010-10-20 13:49:27,390.1968431938061,2,37,0.5501165986061096,3.8023855686187744,35.96138838286894,35.904753732590024,143.59120160912877,130.96022382550598,9.713172767078504e-05,0.0909321531653404,0,0,0
12066,419806.54553426505,2010-10-20 13:49:57,420.2120473881057,2,37,0.5501165986061096,3.806108951568604,35.965974763578515,35.904753732590024,143.60864920201757,130.96022382550598,0.0001295089750783,0.0909321531653404,0,0,0
12067,419836.5605524958,2010-10-20 13:50:27,450.2270656038897,2,37,0.550297200679779,3.8098323345184326,35.970561240893225,35.904753732590024,143.62611387598523,130.96022382550598,9.713172767078504e-05,0.0909321531653404,0,0,0
12068,419866.5757060089,2010-10-20 13:50:57,480.24221915196335,2,37,0.5497553944587708,3.813070058822632,35.97514768790172,35.904753732590024,143.64359469333525,130.96022382550598,3.237724376958795e-05,0.0909321531653404,0,0,0
12069,419896.5908379882,2010-10-20 13:51:27,510.2573511262686,2,37,0.5499359965324402,3.816631555557251,35.979733264914735,35.904753732590024,143.66108831118382,130.96022382550598,9.713172767078504e-05,0.0909321531653404,0,0,0
12070,419926.6059934711,2010-10-20 13:51:57,540.2725066342268,2,37,0.5501165986061096,3.82003116607666,35.984318823188346,35.904753732590024,143.67859737437567,130.96022382550598,0.0001295089750783,0.0909321531653404,0,0,0
12071,419956.62117626704,2010-10-20 13:52:27,570.2876893750578,2,37,0.5501165986061096,3.8232688903808594,35.98890517393652,35.904753732590024,143.6961250256784,130.96022382550598,6.47544875391759e-05,0.0909321531653404,0,0,0
12072,419986.6362846475,2010-10-20 13:52:57,600.302797785635,2,37,0.5501165986061096,3.826668500900269,35.9934915784054,35.904753732590024,143.7136682108667,130.96022382550598,6.47544875391759e-05,0.0909321531653404,0,0,0
12073,420016.6514115993,2010-10-20 13:53:27,630.31792473241,2,37,0.5501165986061096,3.829906225204468,35.998077923433875,35.904753732590024,143.73122629259393,130.96022382550598,6.47544875391759e-05,0.0909321531653404,0,0,0
12074,420046.6665522202,2010-10-20 13:53:57,660.3330653582775,2,37,0.5501165986061096,3.833143949508667,36.00266432447927,35.904753732590024,143.74879963612736,130.96022382550598,6.47544875391759e-05,0.0909321531653404,0,0,0
12075,420076.6816901844,2010-10-20 13:54:27,690.3482032924366,2,37,0.5501165986061096,3.836543321609497,36.00725061674974,35.904753732590024,143.76638771846072,130.96022382550598,6.47544875391759e-05,0.0909321531653404,0,0,0
12076,420106.6970695052,2010-10-20 13:54:57,720.3635827435301,2,37,0.5501165986061096,3.840104818344116,36.01183702625886,35.904753732590024,143.78399161598333,130.96022382550598,0.0001295089750783,0.0909321531653404,0,0,0
12077,420136.6990395409,2010-10-20 13:55:27,750.3655527892594,2,37,0.5499359965324402,3.8431806564331055,36.01642136550299,35.904753732590024,143.80160310036555,130.96022382550598,6.47544875391759e-05,0.0909321531653404,0,0,0
12078,420166.7117759296,2010-10-20 13:55:57,780.3782891880535,2,37,0.5499359965324402,3.846580266952514,36.021007379399485,35.904753732590024,143.8192365972508,130.96022382550598,6.47544875391759e-05,0.0909321531653404,0,0,0
12079,420196.726622252,2010-10-20 13:56:27,810.3931353650637,2,37,0.5499359965324402,3.850141763687134,36.02559371092262,35.904753732590024,143.8368870064597,130.96022382550598,9.713172767078504e-05,0.0909321531653404,0,0,0
12080,420226.7417662763,2010-10-20 13:56:57,840.4082794946635,2,37,0.550297200679779,3.853379487991333,36.030180091810514,35.904753732590024,143.85455322909417,130.96022382550598,6.47544875391759e-05,0.0909321531653404,0,0,0
12081,420256.7569181703,2010-10-20 13:57:27,870.4234312933772,2,37,0.5499359965324402,3.856779098510742,36.03476649668277,35.904753732590024,143.87223493851022,130.96022382550598,6.47544875391759e-05,0.0909321531653404,0,0,0
12082,420286.772195963,2010-10-20 13:57:57,900.4387091813443,2,37,0.5501165986061096,3.860340595245361,36.0393529077404,35.904753732590024,143.88993197631126,130.96022382550598,0.0001295089750783,0.0909321531653404,0,0,0
12083,420316.7871795024,2010-10-20 13:58:27,930.4536926054168,2,37,0.5501165986061096,3.863416433334351,36.04393925142252,35.904753732590024,143.9076437562756,130.96022382550598,9.713172767078504e-05,0.0909321531653404,0,0,0
12084,420346.80232010817,2010-10-20 13:58:57,960.4688332212592,2,37,0.5499359965324402,3.86649227142334,36.048525591106376,35.904753732590024,143.9253700705439,130.96022382550598,3.237724376958795e-05,0.0909321531653404,0,0,0
12085,420376.8174635361,2010-10-20 13:59:27,990.48397664911,2,37,0.5497553944587708,3.869729995727539,36.053112034477,35.904753732590024,143.94311122276002,130.96022382550598,0.0001295089750783,0.0909321531653404,0,0,0
12086,420406.8325954352,2010-10-20 13:59:57,1020.4991085532404,2,37,0.5499359965324402,3.8726439476013184,36.05769844063496,35.904753732590024,143.9608662559517,130.96022382550598,6.47544875391759e-05,0.0909321531653404,0,0,0
12087,420436.8477293493,2010-10-20 14:00:27,1050.5142424573553,2,37,0.550297200679779,3.875719785690308,36.06228487957708,35.904753732590024,143.97863498394412,130.96022382550598,6.47544875391759e-05,0.0909321531653404,0,0,0
12088,420466.86288196006,2010-10-20 14:00:57,1080.5293950731054,2,37,0.5499359965324402,3.878309965133667,36.06687129404735,35.904753732590024,143.99641683870783,130.96022382550598,3.237724376958795e-05,0.0909321531653404,0,0,0
12089,420496.8780323854,2010-10-20 14:01:27,1110.5445455134334,2,37,0.5501165986061096,3.8812239170074463,36.07145771559866,35.904753732590024,144.014211376919,130.96022382550598,6.47544875391759e-05,0.0909321531653404,0,0,0
12090,420526.8931575727,2010-10-20 14:01:57,1140.5596707108486,2,37,0.5501165986061096,3.8838140964508057,36.076044076157885,35.904753732590024,144.03201781471137,130.96022382550598,6.47544875391759e-05,0.0909321531653404,0,0,0
12091,420556.9085782516,2010-10-20 14:02:27,1170.575091489944,2,37,0.5501165986061096,3.886242389678955,36.08063059955325,35.904753732590024,144.04983630550225,130.96022382550598,6.47544875391759e-05,0.0909321531653404,0,0,0
12092,420586.92356900894,2010-10-20 14:02:57,1200.5900821570683,2,37,0.5499359965324402,3.8885087966918954,36.085216989437534,35.904753732590024,144.06766515178938,130.96022382550598,6.47544875391759e-05,0.0909321531653404,0,0,0
12093,420616.93858844775,2010-10-20 14:03:27,1230.605101550788,2,37,0.5501165986061096,3.890613317489624,36.08980336903008,35.904753732590024,144.0855041376285,130.96022382550598,3.237724376958795e-05,0.0909321531653404,0,0,0
12094,420646.9537511686,2010-10-20 14:03:57,1260.6202642817484,2,37,0.5499359965324402,3.8927178382873535,36.094389802081416,35.904753732590024,144.10335284432378,130.96022382550598,6.47544875391759e-05,0.0909321531653404,0,0,0
12095,420676.9688617446,2010-10-20 14:04:27,1290.635374842685,2,37,0.5501165986061096,3.894498586654663,36.09897637701907,35.904753732590024,144.12121111491675,130.96022382550598,3.237724376958795e-05,0.0909321531653404,0,0,0
12096,420706.9840162902,2010-10-20 14:04:57,1320.6505294133071,2,37,0.5501165986061096,3.8961174488067623,36.10356279438653,35.904753732590024,144.13907658518406,130.96022382550598,3.237724376958795e-05,0.0909321531653404,0,0,0
12097,420736.9991426807,2010-10-20 14:05:27,1350.6656557836454,2,37,0.5499359965324402,3.8977363109588623,36.108149205074575,35.904753732590024,144.1569499406192,130.96022382550598,0.0,0.0909321531653404,0,0,0
12098,420767.0142621237,2010-10-20 14:05:57,1380.680775231731,2,37,0.5501165986061096,3.899193286895752,36.11273564140481,35.904753732590024,144.17483071317648,130.96022382550598,0.0,0.0909321531653404,0,0,0
12099,420797.0294003786,2010-10-20 14:06:27,1410.6959134917024,2,37,0.5501165986061096,3.900812149047852,36.11732207944302,35.904753732590024,144.19271832597033,130.96022382550598,0.0,0.0909321531653404,0,0,0
12100,420827.0445530295,2010-10-20 14:06:57,1440.7110661375273,2,37,0.5501165986061096,3.902269124984741,36.12190848685373,35.904753732590024,144.21061238351808,130.96022382550598,3.237724376958795e-05,0.0909321531653404,0,0,0
12101,420857.0597413191,2010-10-20 14:07:27,1470.7262545525,2,37,0.550297200679779,3.903726100921631,36.1264949515425,35.904753732590024,144.22851295269004,130.96022382550598,9.713172767078504e-05,0.0909321531653404,0,0,0
12102,420887.0748210482,2010-10-20 14:07:57,1500.7413341863569,2,37,0.5501165986061096,3.9048593044281006,36.13108129782625,35.904753732590024,144.2464191490599,130.96022382550598,3.237724376958795e-05,0.0909321531653404,0,0,0
12103,420917.0901005402,2010-10-20 14:08:27,1530.7566136582716,2,37,0.5499359965324402,3.90615439414978,36.1356677484336,35.904753732590024,144.26433156258983,130.96022382550598,0.0,0.0909321531653404,0,0,0
12104,420947.1051012924,2010-10-20 14:08:57,1560.7716144355934,2,37,0.5501165986061096,3.90744948387146,36.14025410349547,35.904753732590024,144.28224955179033,130.96022382550598,3.237724376958795e-05,0.0909321531653404,0,0,0
12105,420977.1202456176,2010-10-20 14:09:27,1590.7867587506555,2,37,0.5501165986061096,3.9085826873779297,36.14484046764306,35.904753732590024,144.3001733347459,130.96022382550598,3.237724376958795e-05,0.0909321531653404,0,0,0
12106,421007.1354961272,2010-10-20 14:09:57,1620.8020092704123,2,37,0.5501165986061096,3.9100396633148193,36.14942686144661,35.904753732590024,144.3181030700067,130.96022382550598,3.237724376958795e-05,0.0909321531653404,0,0,0
12107,421037.15051646833,2010-10-20 14:10:27,1650.817029606481,2,37,0.5499359965324402,3.911172866821289,36.1540132605722,35.904753732590024,144.33603857954083,130.96022382550598,0.0,0.0909321531653404,0,0,0
12108,421067.1656606681,2010-10-20 14:10:57,1680.832173801243,2,37,0.5501165986061096,3.9124679565429688,36.15859964862939,35.904753732590024,144.35397992594332,130.96022382550598,0.0,0.0909321531653404,0,0,0
12109,421097.1808286472,2010-10-20 14:11:27,1710.847341755221,2,37,0.5499359965324402,3.913762807846069,36.163186053237695,35.904753732590024,144.3719271867284,130.96022382550598,0.0,0.0909321531653404,0,0,0
12110,421127.19595515786,2010-10-20 14:11:57,1740.8624683060086,2,37,0.5499359965324402,3.915057897567749,36.16777246026864,35.904753732590024,144.38988041661668,130.96022382550598,3.237724376958795e-05,0.0909321531653404,0,0,0
12111,421157.2111069165,2010-10-20 14:12:27,1770.8776200345478,2,37,0.550297200679779,3.9163529872894287,36.17235892769357,35.904753732590024,144.40783967972536,130.96022382550598,3.237724376958795e-05,0.0909321531653404,0,0,0
12112,421187.2262117732,2010-10-20 14:12:57,1800.8927249263547,2,37,0.550297200679779,3.9178099632263184,36.17694525764004,35.904753732590024,144.4258044465119,130.96022382550598,0.0,0.0909321531653404,0,0,0
12113,421217.2414902927,2010-10-20 14:13:27,1830.9080034108083,2,37,0.5501165986061096,3.918943166732788,36.18153166426646,35.904753732590024,144.44377551645195,130.96022382550598,3.237724376958795e-05,0.0909321531653404,0,0,0
12114,421247.2566164525,2010-10-20 14:13:57,1860.923129650822,2,37,0.550297200679779,3.9204001426696777,36.18611799065932,35.904753732590024,144.46175238774643,130.96022382550598,6.47544875391759e-05,0.0909321531653404,0,0,0
12115,421277.2716344477,2010-10-20 14:14:27,1890.9381475859063,2,37,0.5501165986061096,3.921695232391357,36.1907044381607,35.904753732590024,144.4797358023973,130.96022382550598,3.237724376958795e-05,0.0909321531653404,0,0,0
12116,421307.2867690236,2010-10-20 14:14:57,1920.953282166708,2,37,0.5501165986061096,3.923152208328247,36.19529079051851,35.904753732590024,144.49772501461678,130.96022382550598,6.47544875391759e-05,0.0909321531653404,0,0,0
12117,421337.3019342357,2010-10-20 14:15:27,1950.9684473989016,2,37,0.5501165986061096,3.924285411834717,36.19987722025424,35.904753732590024,144.51572064453543,130.96022382550598,0.0,0.0909321531653404,0,0,0
12118,421367.31705014,2010-10-20 14:15:57,1980.9835632530308,2,37,0.5499359965324402,3.925580501556397,36.20446358749155,35.904753732590024,144.533722328448,130.96022382550598,0.0,0.0909321531653404,0,0,0
12119,421397.3321794026,2010-10-20 14:16:28,2010.9986925155767,2,37,0.5501165986061096,3.927037477493286,36.20905002617542,35.904753732590024,144.55173046300638,130.96022382550598,0.0,0.0909321531653404,0,0,0
12120,421427.34730917134,2010-10-20 14:16:58,2041.0138223395231,2,37,0.5501165986061096,3.928494453430176,36.21363643619954,35.904753732590024,144.56974488139485,130.96022382550598,9.713172767078504e-05,0.0909321531653404,0,0,0
12121,421457.362467386,2010-10-20 14:17:28,2071.0289806093647,2,37,0.5501165986061096,3.929789543151856,36.21822284201442,35.904753732590024,144.5877656047248,130.96022382550598,3.237724376958795e-05,0.0909321531653404,0,0,0
12122,421487.3776600516,2010-10-20 14:17:58,2101.0441731646565,2,37,0.5501165986061096,3.931246519088745,36.22280926277378,35.904753732590024,144.60579286002178,130.96022382550598,3.237724376958795e-05,0.0909321531653404,0,0,0
12123,421517.3927568382,2010-10-20 14:18:28,2131.059269956276,2,37,0.5501165986061096,3.9327034950256343,36.22739563861163,35.904753732590024,144.62382641654867,130.96022382550598,6.47544875391759e-05,0.0909321531653404,0,0,0
12124,421547.4079241908,2010-10-20 14:18:58,2161.074437358879,2,37,0.5499359965324402,3.9339985847473145,36.23198204781868,35.904753732590024,144.64186672923498,130.96022382550598,0.0,0.0909321531653404,0,0,0
12125,421577.4230543655,2010-10-20 14:19:28,2191.0895674735493,2,37,0.5501165986061096,3.935617446899414,36.2365684309702,35.904753732590024,144.65991358149537,130.96022382550598,3.237724376958795e-05,0.0909321531653404,0,0,0
12126,421607.4381808762,2010-10-20 14:19:58,2221.104694014313,2,37,0.5501165986061096,3.937074422836304,36.24115492052197,35.904753732590024,144.67796739966707,130.96022382550598,6.47544875391759e-05,0.0909321531653404,0,0,0
12127,421637.4533248103,2010-10-20 14:20:28,2251.1198379434127,2,37,0.550297200679779,3.9386932849884033,36.245741331143805,35.904753732590024,144.6960277206592,130.96022382550598,6.47544875391759e-05,0.0909321531653404,0,0,0
12128,421667.4684550653,2010-10-20 14:20:58,2281.1349682034456,2,37,0.550297200679779,3.940150260925293,36.25032766690209,35.904753732590024,144.71409443582235,130.96022382550598,9.713172767078504e-05,0.0909321531653404,0,0,0
12129,421697.4835842025,2010-10-20 14:21:28,2311.150097310605,2,37,0.5501165986061096,3.9414453506469727,36.25491402562307,35.904753732590024,144.7321680943653,130.96022382550598,3.237724376958795e-05,0.0909321531653404,0,0,0
12130,421727.4987606527,2010-10-20 14:21:58,2341.1652737958448,2,37,0.550297200679779,3.9429023265838623,36.2595004471907,35.904753732590024,144.75024875840225,130.96022382550598,3.237724376958795e-05,0.0909321531653404,0,0,0
12131,421757.5139174739,2010-10-20 14:22:28,2371.1804306020385,2,37,0.550297200679779,3.944521188735962,36.26408681838999,35.904753732590024,144.7683361018873,130.96022382550598,6.47544875391759e-05,0.0909321531653404,0,0,0
12132,421787.52903806994,2010-10-20 14:22:58,2401.1955512130235,2,37,0.5501165986061096,3.945978164672852,36.26867324542371,35.904753732590024,144.78643060895817,130.96022382550598,6.47544875391759e-05,0.0909321531653404,0,0,0
12133,421817.5442005251,2010-10-20 14:23:28,2431.2107136632835,2,37,0.5499359965324402,3.947435140609741,36.27325969941298,35.904753732590024,144.80453218193622,130.96022382550598,3.237724376958795e-05,0.0909321531653404,0,0,0
12134,421847.559344765,2010-10-20 14:23:58,2461.2258578780966,2,37,0.5501165986061096,3.949054002761841,36.277846077571326,35.904753732590024,144.8226405302547,130.96022382550598,3.237724376958795e-05,0.0909321531653404,0,0,0
12135,421877.5744519676,2010-10-20 14:24:28,2491.2409651007124,2,37,0.5501165986061096,3.950672864913941,36.282432486715805,35.904753732590024,144.84075613043458,130.96022382550598,6.47544875391759e-05,0.0909321531653404,0,0,0
12136,421907.5897166026,2010-10-20 14:24:58,2521.256229745674,2,37,0.5501165986061096,3.95229172706604,36.28701896834984,35.904753732590024,144.85887922034135,130.96022382550598,6.47544875391759e-05,0.0909321531653404,0,0,0
12137,421937.6047381817,2010-10-20 14:25:28,2551.271251289753,2,37,0.5501165986061096,3.95391058921814,36.291605392240186,35.904753732590024,144.87700930768128,130.96022382550598,6.47544875391759e-05,0.0909321531653404,0,0,0
12138,421967.619892612,2010-10-20 14:25:58,2581.286405775163,2,37,0.5499359965324402,3.955367565155029,36.29619179083398,35.904753732590024,144.89514659666472,130.96022382550598,6.47544875391759e-05,0.0909321531653404,0,0,0
12139,421997.63501261146,2010-10-20 14:26:28,2611.3015257495604,2,37,0.5501165986061096,3.956986427307129,36.30077816463194,35.904753732590024,144.9132911314463,130.96022382550598,6.47544875391759e-05,0.0909321531653404,0,0,0
12140,422027.6501624152,2010-10-20 14:26:58,2641.3166755583147,2,37,0.5501165986061096,3.958605289459229,36.30536461450847,35.904753732590024,144.9314431647052,130.96022382550598,3.237724376958795e-05,0.0909321531653404,0,0,0
12141,422057.66551060334,2010-10-20 14:27:28,2671.332023736466,2,37,0.5501165986061096,3.960062265396118,36.30995111430166,35.904753732590024,144.9496028979806,130.96022382550598,3.237724376958795e-05,0.0909321531653404,0,0,0
12142,422087.6805296261,2010-10-20 14:27:58,2701.347042864524,2,37,0.5501165986061096,3.961843013763428,36.31453744492146,35.904753732590024,144.96776945161557,130.96022382550598,6.47544875391759e-05,0.0909321531653404,0,0,0
12143,422117.6955946987,2010-10-20 14:28:28,2731.362107927064,2,37,0.550297200679779,3.963623762130737,36.31912384171722,35.904753732590024,144.98594371659007,130.96022382550598,9.713172767078504e-05,0.0909321531653404,0,0,0
12144,422147.7108435895,2010-10-20 14:28:58,2761.377356827786,2,37,0.5501165986061096,3.965242624282837,36.323710310240045,35.904753732590024,145.00412591690568,130.96022382550598,9.713172767078504e-05,0.0909321531653404,0,0,0
12145,422177.7258834792,2010-10-20 14:29:28,2791.3923965922763,2,37,0.5501165986061096,3.966861486434937,36.32829679803822,35.904753732590024,145.02231592736982,130.96022382550598,6.47544875391759e-05,0.0909321531653404,0,0,0
12146,422207.7411296381,2010-10-20 14:29:58,2821.407642836377,2,37,0.5499359965324402,3.968318462371826,36.3328832098368,35.904753732590024,145.04051321370457,130.96022382550598,3.237724376958795e-05,0.0909321531653404,0,0,0
12147,422237.75613428507,2010-10-20 14:30:28,2851.4226473981307,2,37,0.5499359965324402,3.9702610969543457,36.33746970972043,35.904753732590024,145.0587186557612,130.96022382550598,3.237724376958795e-05,0.0909321531653404,0,0,0
12148,422267.7713886494,2010-10-20 14:30:58,2881.4379017624697,2,37,0.550297200679779,3.971879959106445,36.34205618967438,35.904753732590024,145.07693182513364,130.96022382550598,6.47544875391759e-05,0.0909321531653404,0,0,0
12149,422297.78641263454,2010-10-20 14:31:28,2911.45292574262,2,37,0.5499359965324402,3.973660707473755,36.34664269917101,35.904753732590024,145.09515298502447,130.96022382550598,3.237724376958795e-05,0.0909321531653404,0,0,0
12150,422327.801543461,2010-10-20 14:31:58,2941.468056574077,2,37,0.550297200679779,3.975441455841065,36.351229158718766,35.904753732590024,145.11338193312264,130.96022382550598,6.47544875391759e-05,0.0909321531653404,0,0,0
12151,422357.816678528,2010-10-20 14:32:28,2971.483191631065,2,37,0.5501165986061096,3.977060317993164,36.35581566558726,35.904753732590024,145.1316191514465,130.96022382550598,3.237724376958795e-05,0.0909321531653404,0,0,0
12152,422387.83184066246,2010-10-20 14:32:58,3001.498353775564,2,37,0.5499359965324402,3.9788410663604736,36.36040218616007,35.904753732590024,145.1498639820744,130.96022382550598,3.237724376958795e-05,0.0909321531653404,0,0,0
12153,422417.8473728543,2010-10-20 14:33:28,3031.513886017459,2,37,0.550297200679779,3.980783700942993,36.36498864285191,35.904753732590024,145.16811718219512,130.96022382550598,3.237724376958795e-05,0.0909321531653404,0,0,0
12154,422447.8621030472,2010-10-20 14:33:58,3061.528616160276,2,37,0.550297200679779,3.9824025630950928,36.36957498558874,35.904753732590024,145.1863781010078,130.96022382550598,0.0,0.0909321531653404,0,0,0
12155,422477.8775125782,2010-10-20 14:34:28,3091.5440256913384,2,37,0.5501165986061096,3.9841833114624015,36.37416135430511,35.904753732590024,145.20464729631706,130.96022382550598,3.237724376958795e-05,0.0909321531653404,0,0,0
12156,422507.89250191714,2010-10-20 14:34:58,3121.559015070252,2,37,0.5501165986061096,3.985964059829712,36.3787477449792,35.904753732590024,145.22292492610225,130.96022382550598,3.237724376958795e-05,0.0909321531653404,0,0,0
12157,422537.907524168,2010-10-20 14:35:28,3151.57403727598,2,37,0.5501165986061096,3.987906694412232,36.383334104896335,35.904753732590024,145.24121085640945,130.96022382550598,3.237724376958795e-05,0.0909321531653404,0,0,0
12158,422567.9227749634,2010-10-20 14:35:58,3181.5892880864617,2,37,0.5501165986061096,3.989687442779541,36.38792054279688,35.904753732590024,145.25950542472253,130.96022382550598,3.237724376958795e-05,0.0909321531653404,0,0,0
12159,422597.93782098347,2010-10-20 14:36:28,3211.6043340864926,2,37,0.5497553944587708,3.9914681911468506,36.39250691379526,35.904753732590024,145.27780831438477,130.96022382550598,0.0,0.0909321531653404,0,0,0
12160,422627.9530139748,2010-10-20 14:36:58,3241.619527117971,2,37,0.5501165986061096,3.99357271194458,36.397093308473686,35.904753732590024,145.29611988586913,130.96022382550598,3.237724376958795e-05,0.0909321531653404,0,0,0
12161,422657.96808741824,2010-10-20 14:37:28,3271.634600521299,2,37,0.5499359965324402,3.995353221893311,36.40167970561574,35.904753732590024,145.3144402145358,130.96022382550598,3.237724376958795e-05,0.0909321531653404,0,0,0
12162,422687.9832123801,2010-10-20 14:37:58,3301.649725523227,2,37,0.5501165986061096,3.99745774269104,36.40626602202743,35.904753732590024,145.332769076485,130.96022382550598,3.237724376958795e-05,0.0909321531653404,0,0,0
12163,422717.9983650209,2010-10-20 14:38:28,3331.664878159027,2,37,0.550297200679779,3.99940037727356,36.41085242178004,35.904753732590024,145.35110722461363,130.96022382550598,6.47544875391759e-05,0.0909321531653404,0,0,0
12164,422748.0134899928,2010-10-20 14:38:58,3361.6800031358925,2,37,0.5499359965324402,4.001181125640869,36.41543875357407,35.904753732590024,145.36945421341613,130.96022382550598,0.0,0.0909321531653404,0,0,0
12165,422778.02866408206,2010-10-20 14:39:28,3391.695177215136,2,37,0.5499359965324402,4.003285884857178,36.42002510144562,35.904753732590024,145.3878104001601,130.96022382550598,3.24249267578125e-05,0.0909321531653404,0,0,0
12166,422808.0438006878,2010-10-20 14:39:58,3421.7103138510597,2,37,0.5499359965324402,4.005228519439697,36.42461144588039,35.904753732590024,145.40617571096502,130.96022382550598,3.24249267578125e-05,0.0909321531653404,0,0,0
12167,422838.05893869227,2010-10-20 14:40:28,3451.725451800256,2,37,0.5501165986061096,4.007332801818848,36.42919781832504,35.904753732590024,145.4245505295829,130.96022382550598,3.23295607813634e-05,0.0909321531653404,0,0,0
12168,422868.0740605012,2010-10-20 14:40:58,3481.740573649326,2,37,0.5501165986061096,4.009437561035156,36.43378422805238,35.904753732590024,145.4429349123521,130.96022382550598,9.71794142969884e-05,0.0909321531653404,0,0,0
12169,422898.08919596416,2010-10-20 14:41:28,3511.755709102301,2,37,0.550297200679779,4.011703968048096,36.43837061161237,35.904753732590024,145.4613287573144,130.96022382550598,9.71794142969884e-05,0.0909321531653404,0,0,0
12170,422928.1044830851,2010-10-20 14:41:58,3541.77099622328,2,37,0.5501165986061096,4.013808250427246,36.44295699437096,35.904753732590024,145.47973240588442,130.96022382550598,3.23295607813634e-05,0.0909321531653404,0,0,0
12171,422958.1195324235,2010-10-20 14:42:28,3571.78604566188,2,37,0.5501165986061096,4.015913009643555,36.44754332175713,35.904753732590024,145.49814556739076,130.96022382550598,6.47544875391759e-05,0.0909321531653404,0,0,0
12172,422988.1345987942,2010-10-20 14:42:58,3601.801111907369,2,37,0.5499359965324402,4.018017292022705,36.45212970963619,35.904753732590024,145.5165689077289,130.96022382550598,3.23295607813634e-05,0.0909321531653404,0,0,0
12173,423018.1499747116,2010-10-20 14:43:28,3631.8164878447046,2,37,0.550297200679779,4.020445823669434,36.45671620241083,35.904753732590024,145.53500264846502,130.96022382550598,6.47544875391759e-05,0.0909321531653404,0,0,0
12174,423048.1650078245,2010-10-20 14:43:58,3661.831520937568,2,37,0.5501165986061096,4.022388458251953,36.46130257606136,35.904753732590024,145.553446113369,130.96022382550598,3.24249267578125e-05,0.0909321531653404,0,0,0
12175,423078.1800278698,2010-10-20 14:44:28,3691.846540977899,2,37,0.5501165986061096,4.024816513061523,36.46588883914189,35.904753732590024,145.5718993214642,130.96022382550598,9.70840483205393e-05,0.0909321531653404,0,0,0
12176,423108.19531660987,2010-10-20 14:44:58,3721.8618297279377,2,37,0.550297200679779,4.027082920074463,36.47047524395243,35.904753732590024,145.59036343440513,130.96022382550598,9.70840483205393e-05,0.0909321531653404,0,0,0
12177,423138.21030999377,2010-10-20 14:45:28,3751.876823131882,2,37,0.5501165986061096,4.029349327087402,36.47506163107906,35.904753732590024,145.60883796061057,130.96022382550598,6.47544875391759e-05,0.0909321531653404,0,0,0
12178,423168.2255665986,2010-10-20 14:45:58,3781.892079711743,2,37,0.550297200679779,4.031615734100342,36.479648037328325,35.904753732590024,145.62732300306962,130.96022382550598,9.70840483205393e-05,0.0909321531653404,0,0,0
12179,423198.24055507535,2010-10-20 14:46:28,3811.907068208458,2,37,0.5501165986061096,4.033882141113281,36.48423442994353,35.904753732590024,145.64581866404853,130.96022382550598,3.23295607813634e-05,0.0909321531653404,0,0,0
12180,423228.2557168038,2010-10-20 14:46:58,3841.922229926896,2,37,0.5501165986061096,4.036310195922852,36.48882083737341,35.904753732590024,145.66432508259845,130.96022382550598,6.47544875391759e-05,0.0909321531653404,0,0,0
12181,423258.2708907527,2010-10-20 14:47:28,3871.937403865789,2,37,0.5499359965324402,4.03841495513916,36.493407288915854,35.904753732590024,145.6828425287753,130.96022382550598,3.24249267578125e-05,0.0909321531653404,0,0,0
12182,423288.2860187872,2010-10-20 14:47:58,3901.952531935362,2,37,0.550297200679779,4.0408430099487305,36.49799369564076,35.904753732590024,145.7013705286916,130.96022382550598,3.23295607813634e-05,0.0909321531653404,0,0,0
12183,423318.3011583605,2010-10-20 14:48:29,3931.9676715035935,2,37,0.5501165986061096,4.04343318939209,36.50258010050232,35.904753732590024,145.71990955314425,130.96022382550598,9.70840483205393e-05,0.0909321531653404,0,0,0
12184,423348.3163064149,2010-10-20 14:48:59,3961.9828195429377,2,37,0.5501165986061096,4.045861721038818,36.50716639505337,35.904753732590024,145.7384591541919,130.96022382550598,9.71794142969884e-05,0.0909321531653404,0,0,0
12185,423378.3314473615,2010-10-20 14:49:29,3991.9979604946175,2,37,0.5501165986061096,4.048289775848389,36.51175273018785,35.904753732590024,145.7570200178406,130.96022382550598,9.70840483205393e-05,0.0909321531653404,0,0,0
12186,423408.34669578605,2010-10-20 14:49:59,4022.013208909128,2,37,0.5499359965324402,4.050718307495117,36.51633918652658,35.904753732590024,145.7755926095718,130.96022382550598,9.71794142969884e-05,0.0909321531653404,0,0,0
12187,423438.3617437309,2010-10-20 14:50:29,4052.02825684398,2,37,0.550297200679779,4.053146362304688,36.52092558504025,35.904753732590024,145.7941762438548,130.96022382550598,3.23295607813634e-05,0.0909321531653404,0,0,0
12188,423468.37685818656,2010-10-20 14:50:59,4082.043371304637,2,37,0.550297200679779,4.055736541748047,36.5255119911469,35.904753732590024,145.81277131668315,130.96022382550598,6.47544875391759e-05,0.0909321531653404,0,0,0
12189,423498.3920401755,2010-10-20 14:51:29,4112.058553338706,2,37,0.5501165986061096,4.058002948760986,36.53009843281228,35.904753732590024,145.8313781621607,130.96022382550598,3.23295607813634e-05,0.0909321531653404,0,0,0
12190,423528.407134105,2010-10-20 14:51:59,4142.073647258167,2,37,0.5501165986061096,4.060593128204346,36.53468493928765,35.904753732590024,145.84999703497402,130.96022382550598,3.23295607813634e-05,0.0909321531653404,0,0,0
12191,423558.4222725554,2010-10-20 14:52:29,4172.0887857036,2,37,0.5501165986061096,4.063183307647705,36.5392713585816,35.904753732590024,145.86862693017707,130.96022382550598,6.47544875391759e-05,0.0909321531653404,0,0,0
12192,423588.4374229256,2010-10-20 14:52:59,4202.103936068741,2,37,0.5497553944587708,4.065611839294434,36.54385780552232,35.904753732590024,145.8872689394358,130.96022382550598,0.0,0.0909321531653404,0,0,0
12193,423618.4525704787,2010-10-20 14:53:29,4232.119083621873,2,37,0.5501165986061096,4.068525791168213,36.548444137463896,35.904753732590024,145.90592240728122,130.96022382550598,6.47544875391759e-05,0.0909321531653404,0,0,0
12194,423648.46784710354,2010-10-20 14:53:59,4262.1343602517045,2,37,0.5501165986061096,4.071115970611572,36.55303058638708,35.904753732590024,145.92458857031033,130.96022382550598,6.47544875391759e-05,0.0909321531653404,0,0,0
12195,423678.482825465,2010-10-20 14:54:29,4292.149338573059,2,37,0.5499359965324402,4.0738677978515625,36.557617012604126,35.904753732590024,145.94326693248328,130.96022382550598,6.47544875391759e-05,0.0909321531653404,0,0,0
12196,423708.4979711585,2010-10-20 14:54:59,4322.164484306657,2,37,0.5499359965324402,4.076457977294922,36.562203419110574,35.904753732590024,145.96195764405647,130.96022382550598,6.47544875391759e-05,0.0909321531653404,0,0,0
12197,423738.5131280399,2010-10-20 14:55:29,4352.17964115295,2,37,0.5501165986061096,4.079371929168701,36.56678981571796,35.904753732590024,145.9806607086787,130.96022382550598,9.70840483205393e-05,0.0909321531653404,0,0,0
12198,423768.5282518288,2010-10-20 14:55:59,4382.194764941855,2,37,0.5501165986061096,4.0819621086120605,36.571376243790645,35.904753732590024,145.99937625352712,130.96022382550598,9.70840483205393e-05,0.0909321531653404,0,0,0
12199,423798.5433920988,2010-10-20 14:56:29,4412.2099052118365,2,37,0.5501165986061096,4.08487606048584,36.57596261865372,35.904753732590024,146.01810424078488,130.96022382550598,9.70840483205393e-05,0.0909321531653404,0,0,0
12200,423828.5585495967,2010-10-20 14:56:59,4442.225062734817,2,37,0.5501165986061096,4.087628364562988,36.580549031387626,35.904753732590024,146.03684512603357,130.96022382550598,9.71794142969884e-05,0.0909321531653404,0,0,0
12201,423858.573811996,2010-10-20 14:57:29,4472.240325109117,2,37,0.5501165986061096,4.0903801918029785,36.585135443316666,35.904753732590024,146.05559896057116,130.96022382550598,3.23295607813634e-05,0.0909321531653404,0,0,0
12202,423888.5889282311,2010-10-20 14:57:59,4502.255441374271,2,37,0.5499359965324402,4.093132495880127,36.58972181830109,35.904753732590024,146.074365653947,130.96022382550598,3.24249267578125e-05,0.0909321531653404,0,0,0
12203,423918.6039433843,2010-10-20 14:58:29,4532.270456517397,2,37,0.5501165986061096,4.096208095550537,36.594308222354,35.904753732590024,146.09314562800523,130.96022382550598,0.0001295089750783,0.0909321531653404,0,0,0
12204,423948.61908549385,2010-10-20 14:58:59,4562.285598606913,2,37,0.5499359965324402,4.0992841720581055,36.59889468247008,35.904753732590024,146.11193920421414,130.96022382550598,0.0001295089750783,0.0909321531653404,0,0,0
12205,423978.6344378123,2010-10-20 14:59:29,4592.300951035658,2,37,0.5501165986061096,4.101874351501465,36.60348112810421,35.904753732590024,146.13074616634103,130.96022382550598,3.24249267578125e-05,0.0909321531653404,0,0,0
12206,424008.64966196136,2010-10-20 14:59:59,4622.316175199729,2,37,0.5501165986061096,4.104949951171875,36.608067528534285,35.904753732590024,146.14956641393644,130.96022382550598,6.47544875391759e-05,0.0909321531653404,0,0,0
12207,424038.6645053765,2010-10-20 15:00:29,4652.331018484531,2,37,0.5499359965324402,4.108026027679443,36.6126538912233,35.904753732590024,146.16840026622427,130.96022382550598,9.71794142969884e-05,0.0909321531653404,0,0,0
12208,424068.67967293446,2010-10-20 15:00:59,4682.346186052546,2,37,0.5499359965324402,4.1111016273498535,36.61724029180444,35.904753732590024,146.18724806195755,130.96022382550598,6.47544875391759e-05,0.0909321531653404,0,0,0
12209,424098.69480473833,2010-10-20 15:01:29,4712.361317851414,2,37,0.5501165986061096,4.114015579223633,36.62182673311322,35.904753732590024,146.20610988480448,130.96022382550598,9.70840483205393e-05,0.0909321531653404,0,0,0
12210,424128.71005191474,2010-10-20 15:01:59,4742.376565123076,2,37,0.550297200679779,4.117253303527832,36.62641311291658,35.904753732590024,146.22498554089364,130.96022382550598,6.47544875391759e-05,0.0909321531653404,0,0,0
12211,424158.72508312296,2010-10-20 15:02:29,4772.391596271091,2,37,0.5499359965324402,4.120167255401611,36.6309994388745,35.904753732590024,146.24387503339656,130.96022382550598,9.71794142969884e-05,0.0909321531653404,0,0,0
12212,424188.7402184256,2010-10-20 15:02:59,4802.406731538604,2,37,0.5501165986061096,4.1232428550720215,36.63558588704465,35.904753732590024,146.26277923160217,130.96022382550598,6.47544875391759e-05,0.0909321531653404,0,0,0
12213,424218.7553509763,2010-10-20 15:03:29,4832.421864084333,2,37,0.5501165986061096,4.126480579376221,36.640172248177485,35.904753732590024,146.2816973247879,130.96022382550598,6.47544875391759e-05,0.0909321531653404,0,0,0
12214,424248.77059720526,2010-10-20 15:03:59,4862.437110318409,2,37,0.5501165986061096,4.129556655883789,36.64475866359539,35.904753732590024,146.3006300379983,130.96022382550598,9.71794142969884e-05,0.0909321531653404,0,0,0
12215,424278.7856302231,2010-10-20 15:04:29,4892.452143356134,2,37,0.5499359965324402,4.132794380187988,36.64934506710875,35.904753732590024,146.31957733915203,130.96022382550598,3.24249267578125e-05,0.0909321531653404,0,0,0
12216,424308.80088491313,2010-10-20 15:04:59,4922.467398031247,2,37,0.5499359965324402,4.136032104492188,36.65393152020293,35.904753732590024,146.33853951011338,130.96022382550598,9.71794142969884e-05,0.0909321531653404,0,0,0
12217,424338.8159080713,2010-10-20 15:05:29,4952.482421209399,2,37,0.550297200679779,4.139431476593018,36.65851796089688,35.904753732590024,146.35751654595728,130.96022382550598,9.70840483205393e-05,0.0909321531653404,0,0,0
12218,424368.8310311283,2010-10-20 15:05:59,4982.497544241417,2,37,0.5501165986061096,4.142507553100586,36.66310448628968,35.904753732590024,146.37650888969952,130.96022382550598,9.71794142969884e-05,0.0909321531653404,0,0,0
12219,424398.8464466143,2010-10-20 15:06:29,5012.51295982757,2,37,0.5501165986061096,4.145906925201416,36.6676909957578,35.904753732590024,146.39551633317498,130.96022382550598,9.70840483205393e-05,0.0909321531653404,0,0,0
12220,424428.8613258687,2010-10-20 15:06:59,5042.52783898177,2,37,0.5499359965324402,4.149306774139404,36.67227739673475,35.904753732590024,146.4145387672751,130.96022382550598,9.71794142969884e-05,0.0909321531653404,0,0,0
12221,424458.8764729607,2010-10-20 15:07:29,5072.542986088791,2,37,0.5501165986061096,4.152544498443604,36.67686378787876,35.904753732590024,146.43357644873822,130.96022382550598,6.47544875391759e-05,0.0909321531653404,0,0,0
12222,424488.89161906525,2010-10-20 15:07:59,5102.558132198325,2,37,0.5501165986061096,4.155943870544434,36.68145027932801,35.904753732590024,146.4526300335,130.96022382550598,6.47544875391759e-05,0.0909321531653404,0,0,0
12223,424518.9067354557,2010-10-20 15:08:29,5132.57324858879,2,37,0.5501165986061096,4.159343719482422,36.68603666850321,35.904753732590024,146.47169873755823,130.96022382550598,9.71794142969884e-05,0.0909321531653404,0,0,0
12224,424548.9218794399,2010-10-20 15:08:59,5162.588392583054,2,37,0.5499359965324402,4.162905216217041,36.69062308348554,35.904753732590024,146.4907832191968,130.96022382550598,9.71794142969884e-05,0.0909321531653404,0,0,0
12225,424578.9370237901,2010-10-20 15:09:29,5192.603536923178,2,37,0.5501165986061096,4.166304588317871,36.69520959800216,35.904753732590024,146.50988383264917,130.96022382550598,9.70840483205393e-05,0.0909321531653404,0,0,0
12226,424608.9521625413,2010-10-20 15:09:59,5222.618675684398,2,37,0.5501165986061096,4.169704437255859,36.69979598766322,35.904753732590024,146.52899975536403,130.96022382550598,0.0001295089750783,0.0909321531653404,0,0,0
12227,424638.9673103901,2010-10-20 15:10:29,5252.633823563343,2,37,0.550297200679779,4.173265933990479,36.7043823569993,35.904753732590024,146.54813149767332,130.96022382550598,9.71794142969884e-05,0.0909321531653404,0,0,0
12228,424668.98244416894,2010-10-20 15:10:59,5282.648957317082,2,37,0.5501165986061096,4.176665306091309,36.7089686978371,35.904753732590024,146.5672792448411,130.96022382550598,9.70840483205393e-05,0.0909321531653404,0,0,0
12229,424698.9975962784,2010-10-20 15:11:29,5312.664109411533,2,37,0.5499359965324402,4.180226802825928,36.713555026258256,35.904753732590024,146.5864431259712,130.96022382550598,9.70840483205393e-05,0.0909321531653404,0,0,0
12230,424729.0128565776,2010-10-20 15:11:59,5342.679369750764,2,37,0.5501165986061096,4.183788299560547,36.71814134214894,35.904753732590024,146.60562332327885,130.96022382550598,6.47544875391759e-05,0.0909321531653404,0,0,0
12231,424759.0278525529,2010-10-20 15:12:29,5372.694365660956,2,37,0.5499359965324402,4.187349796295166,36.722727698201936,35.904753732590024,146.62482016146993,130.96022382550598,6.47544875391759e-05,0.0909321531653404,0,0,0
12232,424789.0430106373,2010-10-20 15:12:59,5402.70952377541,2,37,0.5501165986061096,4.191073417663574,36.72731407179133,35.904753732590024,146.64403373405537,130.96022382550598,0.0001295089750783,0.0909321531653404,0,0,0
12233,424819.0581762304,2010-10-20 15:13:29,5432.724689373516,2,37,0.5499359965324402,4.194634914398193,36.73190047084628,35.904753732590024,146.66326416137454,130.96022382550598,3.24249267578125e-05,0.0909321531653404,0,0,0
12234,424849.073397412,2010-10-20 15:13:59,5462.739910525078,2,37,0.5501165986061096,4.198358058929443,36.73648681137638,35.904753732590024,146.6825111148492,130.96022382550598,6.47544875391759e-05,0.0909321531653404,0,0,0
12235,424861.2918274592,2010-10-20 15:14:12,5474.958340572272,2,37,0.5504778623580933,4.200138568878174,36.73835381700464,35.904753732590024,146.69035101897066,130.96022382550598,0.0001295089750783,0.0909321531653404,0,0,0
12236,424891.2960525523,2010-10-20 15:14:42,30.015111683734844,3,37,0.0,4.110939979553223,36.73835381700464,35.904753732590024,146.69035101897066,130.96022382550598,-0.0003561019839253,0.0909321531653404,0,0,0
12237,424921.311208697,2010-10-20 15:15:12,60.03026783329221,3,37,0.0,4.099607944488525,36.73835381700464,35.904753732590024,146.69035101897066,130.96022382550598,-0.0002265930233988,0.0909321531653404,0,0,0
12238,424951.3263666209,2010-10-20 15:15:42,90.045425747247,3,37,0.0,4.092808723449707,36.73835381700464,35.904753732590024,146.69035101897066,130.96022382550598,-0.0001295089750783,0.0909321531653404,0,0,0
12239,424981.29461605946,2010-10-20 15:16:12,120.01367519587278,3,37,0.0,4.088275909423828,36.73835381700464,35.904753732590024,146.69035101897066,130.96022382550598,-0.0001295089750783,0.0909321531653404,0,0,0
12240,424981.3013111069,2010-10-20 15:16:12,2.696721059e-06,4,37,1.0010980367660522,4.199814796447754,36.73835381775455,35.904753732590024,146.69035102212015,130.96022382550598,0.0,0.0909321531653404,0,0,0
12241,424982.16073626885,2010-10-20 15:16:13,0.859427963925476,4,37,0.9505273699760436,4.199653148651123,36.73858514623081,35.904753732590024,146.6913225530953,130.96022382550598,-3.23295607813634e-05,0.0909321531653404,0,0,0
12242,424984.27000465966,2010-10-20 15:16:15,2.968696254511243,4,37,0.900498628616333,4.199653148651123,36.73912632672102,35.904753732590024,146.69359539786265,130.96022382550598,-3.23295607813634e-05,0.0909321531653404,0,0,0
12243,424987.4730881744,2010-10-20 15:16:18,6.171779769193991,4,37,0.8502892255783081,4.199976921081543,36.739904185863466,35.904753732590024,146.69686223517417,130.96022382550598,3.24249267578125e-05,0.0909321531653404,0,0,0
12244,424991.89488068194,2010-10-20 15:16:22,10.593572251611707,4,37,0.800079882144928,4.199814796447754,36.74091639951725,35.904753732590024,146.70111333177556,130.96022382550598,0.0,0.0909321531653404,0,0,0
12245,424997.5825556429,2010-10-20 15:16:28,16.281247247755946,4,37,0.7500510811805725,4.199814796447754,36.74213937284109,35.904753732590024,146.70624958138632,130.96022382550598,0.0,0.0909321531653404,0,0,0
12246,425004.9416977193,2010-10-20 15:16:35,23.64038930912428,4,37,0.6998416781425476,4.199653148651123,36.743620042541096,35.904753732590024,146.712468113426,130.96022382550598,-3.23295607813634e-05,0.0909321531653404,0,0,0
12247,425014.8945251978,2010-10-20 15:16:45,33.5932167976341,4,37,0.6496323347091675,4.199814796447754,36.74548327037347,35.904753732590024,146.7202933418978,130.96022382550598,0.0,0.0909321531653404,0,0,0
12248,425028.597425236,2010-10-20 15:16:59,47.29611680071872,4,37,0.599603533744812,4.199814796447754,36.74785566400509,35.904753732590024,146.7302569671109,130.96022382550598,0.0,0.0909321531653404,0,0,0
12249,425049.3939824104,2010-10-20 15:17:20,68.09267398015054,4,37,0.5495747923851013,4.199814796447754,36.751164147744674,35.904753732590024,146.74415205029086,130.96022382550598,-3.24249267578125e-05,0.0909321531653404,0,0,0
12250,425084.7215303549,2010-10-20 15:17:55,103.42022191461795,4,37,0.4993654191493988,4.199814796447754,36.7562891427279,35.904753732590024,146.7656762228841,130.96022382550598,-3.24249267578125e-05,0.0909321531653404,0,0,0
12251,425150.7048058149,2010-10-20 15:19:01,169.40349737461057,4,37,0.4493366479873657,4.199976921081543,36.764943427012405,35.904753732590024,146.80202285214668,130.96022382550598,0.0,0.0909321531653404,0,0,0
12252,425253.3906539791,2010-10-20 15:20:44,272.08934557396896,4,37,0.3993078768253326,4.199814796447754,36.77701763377589,35.904753732590024,146.8527323430341,130.96022382550598,3.23295607813634e-05,0.0909321531653404,0,0,0
12253,425384.21666317823,2010-10-20 15:22:55,402.9153547329498,4,37,0.3492791056632995,4.199814796447754,36.790604971728,35.904753732590024,146.909796728405,130.96022382550598,0.0,0.0909321531653404,0,0,0
12254,425540.2141510873,2010-10-20 15:25:31,558.9128426470588,4,37,0.2992503345012665,4.199653148651123,36.80464160506935,35.904753732590024,146.96874804756908,130.96022382550598,-3.23295607813634e-05,0.0909321531653404,0,0,0
12255,425727.6956419291,2010-10-20 15:28:38,746.3943335289491,4,37,0.2492215633392334,4.199814796447754,36.81890940970241,35.904753732590024,147.02867024358707,130.96022382550598,0.0,0.0909321531653404,0,0,0
12256,425961.1761120608,2010-10-20 15:32:32,979.8748036255746,4,37,0.1991927921772003,4.199814796447754,36.83341471451114,35.904753732590024,147.0895898691344,130.96022382550598,0.0,0.0909321531653404,0,0,0
12257,426265.1712071547,2010-10-20 15:37:36,1283.8698987445634,4,37,0.1491640210151672,4.199814796447754,36.8480426738833,35.904753732590024,147.1510246609741,130.96022382550598,0.0,0.0909321531653404,0,0,0
12258,426702.523473312,2010-10-20 15:44:53,1721.2221648867178,4,37,0.0991352498531341,4.199653148651123,36.86295654039995,35.904753732590024,147.21366018447415,130.96022382550598,-3.23295607813634e-05,0.0909321531653404,0,0,0
12259,427519.22905753687,2010-10-20 15:58:30,2537.92774912667,4,37,0.0498289167881011,4.199814796447754,36.87918452046067,35.904753732590024,147.28181445438824,130.96022382550598,-3.24249267578125e-05,0.0909321531653404,0,0,0
12260,427549.229248806,2010-10-20 15:59:00,30.014996316203465,5,37,0.0,4.191558837890625,36.87918452046067,35.904753732590024,147.28181445438824,130.96022382550598,-3.24249267578125e-05,0.0909321531653404,0,0,0
12261,427579.2287695373,2010-10-20 15:59:30,60.01451705250008,5,37,0.0,4.1901021003723145,36.87918452046067,35.904753732590024,147.28181445438824,130.96022382550598,-3.23295607813634e-05,0.0909321531653404,0,0,0
12262,427579.4025424047,2010-10-20 15:59:30,0.187622016795706,6,37,-1.9243103452026844e-05,4.190263748168945,36.87918452046067,35.90475373359292,147.28181445438824,130.96022382970838,0.0,0.0972511246800422,0,0,0
12263,427584.2304710584,2010-10-20 15:59:35,5.015550620392363,6,37,0.0007031940040178,4.1901021003723145,36.87918549569121,35.90475373367609,147.28181854089726,130.96022383005686,-6.47544875391759e-05,0.0972511246800422,0,0,0
12264,427614.2318523391,2010-10-20 16:00:05,30.015146525571424,7,37,-1.099568486213684,4.003933429718018,36.87918549569121,35.913920898503285,147.28181854089726,130.99713943518634,-0.001003646873869,0.0972511246800422,0,0,0
12265,427644.2469957268,2010-10-20 16:00:35,60.03028991833493,7,37,-1.0993878841400146,3.9749557971954346,36.87918549569121,35.92308798758957,147.28181854089726,131.03370241613848,-0.0005827903514727,0.0972511246800422,0,0,0
12266,427674.2621320519,2010-10-20 16:01:05,90.04542624348376,7,37,-1.099568486213684,3.95455813407898,36.87918549569121,35.93225505252995,147.28181854089726,131.07004238982398,-0.0004532813909463,0.0972511246800422,0,0,0
12267,427704.27728938445,2010-10-20 16:01:35,120.06058359603936,7,37,-1.0993878841400146,3.9390170574188232,36.87918549569121,35.941422115521334,147.28181854089726,131.1062198090098,-0.0003885269106831,0.0972511246800422,0,0,0
12268,427734.2924060004,2010-10-20 16:02:05,150.075700212067,7,37,-1.0993878841400146,3.925904273986816,36.87918549569121,35.95058915457663,147.28181854089726,131.14226759029947,-0.0003561496851034,0.0972511246800422,0,0,0
12269,427764.3075489823,2010-10-20 16:02:35,180.09084316874362,7,37,-1.0993878841400146,3.914734125137329,36.87918549569121,35.95975619967641,147.28181854089726,131.17820518293863,-0.0003237724304199,0.0972511246800422,0,0,0
12270,427794.3227134776,2010-10-20 16:03:05,210.10600771923876,7,37,-1.099568486213684,3.9045355319976807,36.87918549569121,35.96892323416888,147.28181854089726,131.21404490194405,-0.0002913951757363,0.0972511246800422,0,0,0
12271,427824.3378604943,2010-10-20 16:03:35,240.12115471097195,7,37,-1.0993878841400146,3.894984245300293,36.87918549569121,35.978090316065206,147.28181854089726,131.2497943738802,-0.0002590179501567,0.0972511246800422,0,0,0
12272,427854.3529718973,2010-10-20 16:04:05,270.13626608393224,7,37,-1.099568486213684,3.885756731033325,36.87918549569121,35.98725733748432,147.28181854089726,131.28545850320327,-0.0002590179501567,0.0972511246800422,0,0,0
12273,427884.3682493392,2010-10-20 16:04:35,300.1515435558623,7,37,-1.0993878841400146,3.877176761627197,36.87918549569121,35.996424506192874,147.28181854089726,131.3210407433635,-0.0002266406954731,0.0972511246800422,0,0,0
12274,427914.3833341712,2010-10-20 16:05:05,330.1666284177488,7,37,-1.099568486213684,3.868596792221069,36.87918549569121,36.005591613506205,147.28181854089726,131.35654304438165,-0.0002590179501567,0.0972511246800422,0,0,0
12275,427944.39865416894,2010-10-20 16:05:35,360.1819483855918,7,37,-1.0993878841400146,3.860340595245361,36.87918549569121,36.01475883071257,147.28181854089726,131.39196879186386,-0.0001618862152099,0.0972511246800422,0,0,0
12276,427974.4135456638,2010-10-20 16:06:05,390.196839855486,7,37,-1.0992072820663452,3.8522462844848633,36.87918549569121,36.02392581365745,147.28181854089726,131.42731749061986,-0.0001942634553415,0.0972511246800422,0,0,0
12277,428004.42868305166,2010-10-20 16:06:35,420.21197722824576,7,37,-1.0993878841400146,3.843828201293945,36.87918549569121,36.03309285258266,147.28181854089726,131.46259145864462,-0.0002266406954731,0.0972511246800422,0,0,0
12278,428034.4442105418,2010-10-20 16:07:05,450.2275048837102,7,37,-1.0993878841400146,3.836057662963867,36.87918549569121,36.04226007591996,147.28181854089726,131.497792332453,-0.0001618862152099,0.0972511246800422,0,0,0
12279,428064.45899342094,2010-10-20 16:07:35,480.2422876526882,7,37,-1.0993878841400146,3.828125476837158,36.87918549569121,36.051427054721856,147.28181854089726,131.53292042209384,-0.0002266406954731,0.0972511246800422,0,0,0
12280,428094.47412932006,2010-10-20 16:08:05,510.25742352170033,7,37,-1.0993878841400146,3.8206787109375,36.87918549569121,36.06059421623939,147.28181854089726,131.56797871383108,-0.0001618862152099,0.0972511246800422,0,0,0
12281,428124.48929574026,2010-10-20 16:08:35,540.2725899268175,7,37,-1.0993878841400146,3.813070058822632,36.87918549569121,36.06976137855862,147.28181854089726,131.60296852925094,-0.0002266406954731,0.0972511246800422,0,0,0
12282,428154.5043412792,2010-10-20 16:09:05,570.2876354907617,7,37,-1.099568486213684,3.805785179138184,36.87918549569121,36.0789285426612,147.28181854089726,131.63788977948096,-0.0001618862152099,0.0972511246800422,0,0,0
12283,428184.51976507576,2010-10-20 16:09:35,600.3030593675777,7,37,-1.099568486213684,3.798500299453736,36.87918549569121,36.08809575160733,147.28181854089726,131.67274362209926,-0.0001618862152099,0.0972511246800422,0,0,0
12284,428214.53467804927,2010-10-20 16:10:05,630.3179722708904,7,37,-1.099568486213684,3.791539192199707,36.87918549569121,36.0972628711714,147.28181854089726,131.70753182229157,-0.0001295089750783,0.0972511246800422,0,0,0
12285,428244.54980896594,2010-10-20 16:10:35,660.3331031474598,7,37,-1.099568486213684,3.7844161987304688,36.87918549569121,36.10643002821766,147.28181854089726,131.74225625709985,-0.0001618862152099,0.0972511246800422,0,0,0
12286,428274.5650128344,2010-10-20 16:11:05,690.3483070811099,7,37,-1.099568486213684,3.7776169776916495,36.87918549569121,36.11559722780719,147.28181854089726,131.77691756753438,-0.0001942634553415,0.0972511246800422,0,0,0
12287,428304.580071501,2010-10-20 16:11:35,720.3633657376846,7,37,-1.099568486213684,3.770979642868042,36.87918549569121,36.12476437976353,147.28181854089726,131.8115175091463,-0.0001942634553415,0.0972511246800422,0,0,0
12288,428334.5952991138,2010-10-20 16:12:06,750.3785933353126,7,37,-1.0993878841400146,3.764504194259644,36.87918549569121,36.13393159319185,147.28181854089726,131.84605734364024,-0.0001618862152099,0.0972511246800422,0,0,0
12289,428364.6104059804,2010-10-20 16:12:36,780.3937002872544,7,37,-1.0997490882873535,3.758028745651245,36.87918549569121,36.14309879178242,147.28181854089726,131.8805376127879,-0.0001942634553415,0.0972511246800422,0,0,0
12290,428394.625554521,2010-10-20 16:13:06,810.4088487526604,7,37,-1.0993878841400146,3.752039194107056,36.87918549569121,36.15226602757557,147.28181854089726,131.9149597959956,-9.713172767078504e-05,0.0972511246800422,0,0,0
12291,428424.6406812472,2010-10-20 16:13:36,840.4239755139732,7,37,-1.099568486213684,3.745563745498657,36.87918549569121,36.16143322798808,147.28181854089726,131.94932466749148,-0.0001618862152099,0.0972511246800422,0,0,0
12292,428454.6558255573,2010-10-20 16:14:06,870.439119803973,7,37,-1.099568486213684,3.7395739555358887,36.87918549569121,36.170600398346856,147.28181854089726,131.9836335018553,-0.0001618862152099,0.0972511246800422,0,0,0
12293,428484.6709703936,2010-10-20 16:14:36,900.454264615272,7,37,-1.099568486213684,3.73358416557312,36.87918549569121,36.17976761840336,147.28181854089726,132.0178876354721,-0.0001942634553415,0.0972511246800422,0,0,0
12294,428514.68611192674,2010-10-20 16:15:06,930.4694061183257,7,37,-1.0993878841400146,3.727918148040772,36.87918549569121,36.18893484554573,147.28181854089726,132.05208778448912,-0.0001618862152099,0.0972511246800422,0,0,0
12295,428544.7012786276,2010-10-20 16:15:36,960.4845728342176,7,37,-1.0993878841400146,3.721928358078003,36.87918549569121,36.19810205558466,147.28181854089726,132.0862352234933,-0.0001942634553415,0.0972511246800422,0,0,0
12296,428574.7164232735,2010-10-20 16:16:06,990.499717475092,7,37,-1.099568486213684,3.716424226760864,36.87918549569121,36.20726921882472,147.28181854089726,132.12033023480984,-0.0001295089750783,0.0972511246800422,0,0,0
12297,428604.731544867,2010-10-20 16:16:36,1020.5148390985996,7,37,-1.0997490882873535,3.710758209228516,36.87918549569121,36.216436385019485,147.28181854089726,132.15437388638853,-0.0001942634553415,0.0972511246800422,0,0,0
12298,428634.7466848212,2010-10-20 16:17:06,1050.5299790979057,7,37,-1.099568486213684,3.705577850341797,36.87918549569121,36.22560359595511,147.28181854089726,132.18836725496723,-0.0001295089750783,0.0972511246800422,0,0,0
12299,428664.76194938587,2010-10-20 16:17:36,1080.5452435874795,7,37,-1.0993878841400146,3.700235605239868,36.87918549569121,36.23477086995814,147.28181854089726,132.22231151139334,-0.0001295089750783,0.0972511246800422,0,0,0
12300,428694.7769534816,2010-10-20 16:18:06,1110.5602476830718,7,37,-1.099568486213684,3.695055246353149,36.87918549569121,36.24393800803292,147.28181854089726,132.25620648418607,-6.47544875391759e-05,0.0972511246800422,0,0,0
12301,428724.792105195,2010-10-20 16:18:36,1140.5753994316606,7,37,-1.0993878841400146,3.6897130012512207,36.87918549569121,36.25310495947836,147.28181854089726,132.29005279892957,-9.713172767078504e-05,0.0972511246800422,0,0,0
12302,428754.8073883712,2010-10-20 16:19:06,1170.5906825626946,7,37,-1.099568486213684,3.684208869934082,36.87918549569121,36.26227139816125,147.28181854089726,132.32384925864093,-0.0001295089750783,0.0972511246800422,0,0,0
12303,428784.8229639059,2010-10-20 16:19:36,1200.606258227814,7,37,-1.0993878841400146,3.679352283477783,36.87918549569121,36.271438327171694,147.28181854089726,132.35760031569222,-9.713172767078504e-05,0.0972511246800422,0,0,0
12304,428814.8375624256,2010-10-20 16:20:06,1230.6208566523487,7,37,-1.0993878841400146,3.6743338108062735,36.87918549569121,36.28060546154026,147.28181854089726,132.3913055136546,-0.0001295089750783,0.0972511246800422,0,0,0
12305,428844.85281802807,2010-10-20 16:20:36,1260.636112229711,7,37,-1.0993878841400146,3.6693155765533447,36.87918549569121,36.28977277711584,147.28181854089726,132.42496548932652,-0.0001295089750783,0.0972511246800422,0,0,0
12306,428874.8678467952,2010-10-20 16:21:06,1290.6511409867671,7,37,-1.099568486213684,3.664458990097046,36.87918549569121,36.2989400042505,147.28181854089726,132.45858017744064,-0.0001295089750783,0.0972511246800422,0,0,0
12307,428904.8830995555,2010-10-20 16:21:36,1320.666393777183,7,37,-1.0993878841400146,3.659926176071167,36.87918549569121,36.30810734228091,147.28181854089726,132.49215247130766,-9.713172767078504e-05,0.0972511246800422,0,0,0
12308,428934.89821319416,2010-10-20 16:22:06,1350.68150759624,7,37,-1.099568486213684,3.655393362045288,36.87918549569121,36.31727464637518,147.28181854089726,132.5256832823212,-0.0001618862152099,0.0972511246800422,0,0,0
12309,428964.9133021362,2010-10-20 16:22:36,1380.6965963428083,7,37,-1.099568486213684,3.650860548019409,36.87918549569121,36.32644191487003,147.28181854089726,132.55917304444174,-0.0001295089750783,0.0972511246800422,0,0,0
12310,428994.92864537705,2010-10-20 16:23:06,1410.711939558592,7,37,-1.099568486213684,3.6463277339935294,36.87918549569121,36.33560929481472,147.28181854089726,132.59262194906668,-0.0001295089750783,0.0972511246800422,0,0,0
12311,429024.9438828342,2010-10-20 16:23:36,1440.7271771611554,7,37,-1.099568486213684,3.6421186923980713,36.87918549569121,36.34477654434967,147.28181854089726,132.62602898518222,-9.713172767078504e-05,0.0972511246800422,0,0,0
12312,429054.9587002746,2010-10-20 16:24:06,1470.741994466208,7,37,-1.0993878841400146,3.637585878372192,36.87918549569121,36.35394364353958,147.28181854089726,132.65939484436598,-0.0001295089750783,0.0972511246800422,0,0,0
12313,429084.9739629447,2010-10-20 16:24:36,1500.7572571763474,7,37,-1.0993878841400146,3.633376836776733,36.87918549569121,36.363110849837895,147.28181854089726,132.69272154047005,-9.713172767078504e-05,0.0972511246800422,0,0,0
12314,429114.98911053786,2010-10-20 16:25:06,1530.7724047796046,7,37,-1.0993878841400146,3.6291677951812735,36.87918549569121,36.3722781051919,147.28181854089726,132.72600905398298,-6.47544875391759e-05,0.0972511246800422,0,0,0
12315,429145.00438661134,2010-10-20 16:25:36,1560.787680923224,7,37,-1.0997490882873535,3.6247968673706055,36.87918549569121,36.38144543158496,147.28181854089726,132.759258329327,-9.713172767078504e-05,0.0972511246800422,0,0,0
12316,429175.0192823319,2010-10-20 16:26:06,1590.8025765234122,7,37,-1.0993878841400146,3.6209115982055664,36.87918549569121,36.39061259941468,147.28181854089726,132.79246958787206,-9.713172767078504e-05,0.0972511246800422,0,0,0
12317,429205.03440738894,2010-10-20 16:26:36,1620.8177015804774,7,37,-1.099568486213684,3.616864442825317,36.87918549569121,36.39977990133884,147.28181854089726,132.8256444762972,-9.713172767078504e-05,0.0972511246800422,0,0,0
12318,429235.04968574806,2010-10-20 16:27:06,1650.8329799646813,7,37,-1.099568486213684,3.6129791736602783,36.87918549569121,36.408947215164126,147.28181854089726,132.85878334055846,-9.713172767078504e-05,0.0972511246800422,0,0,0
12319,429265.06469151785,2010-10-20 16:27:36,1680.847985704371,7,37,-1.0997490882873535,3.6090939044952393,36.87918549569121,36.41811444184799,147.28181854089726,132.89188690503016,-9.713172767078504e-05,0.0972511246800422,0,0,0
12320,429295.0798309558,2010-10-20 16:28:06,1710.8631251422778,7,37,-1.099568486213684,3.60553240776062,36.87918549569121,36.427281716097255,147.28181854089726,132.9249564503974,-6.47544875391759e-05,0.0972511246800422,0,0,0
12321,429325.0949886691,2010-10-20 16:28:36,1740.8782828807953,7,37,-1.099568486213684,3.601809024810791,36.87918549569121,36.43644893730482,147.28181854089726,132.95799177430618,-9.713172767078504e-05,0.0972511246800422,0,0,0
12322,429355.1101318364,2010-10-20 16:29:06,1770.8934260179217,7,37,-1.099568486213684,3.598247528076172,36.87918549569121,36.44561628368239,147.28181854089726,132.99099429356295,-9.713172767078504e-05,0.0972511246800422,0,0,0
12323,429385.12527875794,2010-10-20 16:29:36,1800.9085729695548,7,37,-1.0993878841400146,3.5946860313415527,36.87918549569121,36.45478359227957,147.28181854089726,133.02396408286444,-9.713172767078504e-05,0.0972511246800422,0,0,0
12324,429415.1408031503,2010-10-20 16:30:06,1830.924097376924,7,37,-1.0993878841400146,3.5914485454559326,36.87918549569121,36.46395099872559,147.28181854089726,133.0569026835578,-9.713172767078504e-05,0.0972511246800422,0,0,0
12325,429445.1555591776,2010-10-20 16:30:36,1860.9388533641536,7,37,-1.099568486213684,3.5877251625061035,36.87918549569121,36.47311822044226,147.28181854089726,133.08980962815087,-0.0001295089750783,0.0972511246800422,0,0,0
12326,429475.1707054175,2010-10-20 16:31:06,1890.9539996090257,7,37,-1.0993878841400146,3.5846493244171143,36.87918549569121,36.48228555884262,147.28181854089726,133.12268644638158,-9.713172767078504e-05,0.0972511246800422,0,0,0
12327,429505.1858851508,2010-10-20 16:31:36,1920.969179372436,7,37,-1.099568486213684,3.581411600112915,36.87918549569121,36.49145286878389,147.28181854089726,133.15553301571097,-6.47544875391759e-05,0.0972511246800422,0,0,0
12328,429535.2009793058,2010-10-20 16:32:06,1950.984273487384,7,37,-1.0993878841400146,3.578173875808716,36.87918549569121,36.50062015886131,147.28181854089726,133.18834965736363,-9.713172767078504e-05,0.0972511246800422,0,0,0
12329,429565.21613053314,2010-10-20 16:32:36,1980.999424719686,7,37,-1.099568486213684,3.5749361515045166,36.87918549569121,36.50978746074298,147.28181854089726,133.22113683838944,-9.713172767078504e-05,0.0972511246800422,0,0,0
12330,429595.231330532,2010-10-20 16:33:06,2011.0146247536168,7,37,-1.099568486213684,3.5716984272003174,36.87918549569121,36.51895480272096,147.28181854089726,133.2538950286464,-9.713172767078504e-05,0.0972511246800422,0,0,0
12331,429625.2464144716,2010-10-20 16:33:36,2041.0297086631297,7,37,-1.099568486213684,3.568622589111328,36.87918549569121,36.52812214431772,147.28181854089726,133.2866248113346,-6.47544875391759e-05,0.0972511246800422,0,0,0
12332,429655.2616738534,2010-10-20 16:34:06,2071.0449680850734,7,37,-1.099929690361023,3.565384864807129,36.87918549569121,36.537289490892704,147.28181854089726,133.31932564297765,-9.713172767078504e-05,0.0972511246800422,0,0,0
12333,429685.276697593,2010-10-20 16:34:36,2101.059991779512,7,37,-1.099568486213684,3.56263279914856,36.87918549569121,36.54645675911476,147.28181854089726,133.35199772358698,-6.47544875391759e-05,0.0972511246800422,0,0,0
12334,429715.29185363726,2010-10-20 16:35:06,2131.0751478187944,7,37,-1.099568486213684,3.5593950748443604,36.87918549569121,36.55562401302235,147.28181854089726,133.38464209487964,-9.713172767078504e-05,0.0972511246800422,0,0,0
12335,429745.306997827,2010-10-20 16:35:36,2161.090292133857,7,37,-1.0993878841400146,3.556319236755371,36.87918549569121,36.56479133632615,147.28181854089726,133.41725844475417,-6.47544875391759e-05,0.0972511246800422,0,0,0
12336,429775.32213132014,2010-10-20 16:36:06,2191.105425626947,7,37,-1.099568486213684,3.553243398666382,36.87918549569121,36.57395866308048,147.28181854089726,133.44984659025727,-9.713172767078504e-05,0.0972511246800422,0,0,0
12337,429805.33729721885,2010-10-20 16:36:36,2221.120591435578,7,37,-1.0993878841400146,3.5501675605773926,36.87918549569121,36.58312597505019,147.28181854089726,133.48240620641377,-6.47544875391759e-05,0.0972511246800422,0,0,0
12338,429835.35242343886,2010-10-20 16:37:06,2251.135717650529,7,37,-1.099568486213684,3.5470917224884038,36.87918549569121,36.592293280895554,147.28181854089726,133.5149371777789,-3.237724376958795e-05,0.0972511246800422,0,0,0
12339,429865.3676727808,2010-10-20 16:37:36,2281.1509669923503,7,37,-1.099568486213684,3.543853998184204,36.87918549569121,36.601460675528166,147.28181854089726,133.5474395009833,-0.0001295089750783,0.0972511246800422,0,0,0
12340,429895.3827019839,2010-10-20 16:38:06,2311.1659962606805,7,37,-1.099568486213684,3.540616273880005,36.87918549569121,36.61062791645969,147.28181854089726,133.57991238862397,-9.713172767078504e-05,0.0972511246800422,0,0,0
12341,429925.39783545694,2010-10-20 16:38:36,2341.1811296384835,7,37,-1.0997490882873535,3.537540435791016,36.87918549569121,36.61979524304108,147.28181854089726,133.6123565418097,-6.47544875391759e-05,0.0972511246800422,0,0,0
12342,429955.4133577992,2010-10-20 16:39:06,2371.1966521010054,7,37,-1.0993878841400146,3.5343027114868164,36.87918549569121,36.62896273288348,147.28181854089726,133.64477156612355,-6.47544875391759e-05,0.0972511246800422,0,0,0
12343,429985.42826922383,2010-10-20 16:39:36,2401.2115634554584,7,37,-1.099568486213684,3.531064987182617,36.87918549569121,36.638129941876045,147.28181854089726,133.67715576466244,-9.713172767078504e-05,0.0972511246800422,0,0,0
12344,430015.44330177526,2010-10-20 16:40:06,2431.226595971884,7,37,-1.099568486213684,3.527665376663208,36.87918549569121,36.64729727880099,147.28181854089726,133.70951007640352,-9.713172767078504e-05,0.0972511246800422,0,0,0
12345,430045.458407394,2010-10-20 16:40:36,2461.241701615565,7,37,-1.0997490882873535,3.524103879928589,36.87918549569121,36.65646456033424,147.28181854089726,133.74183303666433,-9.713172767078504e-05,0.0972511246800422,0,0,0
12346,430075.4735533932,2010-10-20 16:41:06,2491.256847609812,7,37,-1.099568486213684,3.5205423831939697,36.87918549569121,36.6656319077985,147.28181854089726,133.77412333798424,-0.0001295089750783,0.0972511246800422,0,0,0
12347,430105.4888208202,2010-10-20 16:41:36,2521.2721151469814,7,37,-1.099568486213684,3.5168190002441406,36.87918549569121,36.674799265417136,147.28181854089726,133.8063804272911,-9.713172767078504e-05,0.0972511246800422,0,0,0
12348,430135.5038944039,2010-10-20 16:42:06,2551.287188720735,7,37,-1.099568486213684,3.5130956172943115,36.87918549569121,36.68396654038913,147.28181854089726,133.83860322806305,-0.0001295089750783,0.0972511246800422,0,0,0
12349,430165.5189675466,2010-10-20 16:42:36,2581.302261758151,7,37,-1.099568486213684,3.5090487003326416,36.87918549569121,36.693133846674215,147.28181854089726,133.87079109570766,-0.0001295089750783,0.0972511246800422,0,0,0
12350,430195.5342401714,2010-10-20 16:43:06,2611.3175344030506,7,37,-1.0997490882873535,3.5051634311676025,36.87918549569121,36.70230121901015,147.28181854089726,133.90294208904146,-9.713172767078504e-05,0.0972511246800422,0,0,0
12351,430225.5492585776,2010-10-20 16:43:36,2641.332552764197,7,37,-1.099568486213684,3.5004687309265137,36.87918549569121,36.711468535060725,147.28181854089726,133.9350537715117,-0.0001295089750783,0.0972511246800422,0,0,0
12352,430255.564515769,2010-10-20 16:44:07,2671.347809985657,7,37,-1.099568486213684,3.4959359169006348,36.87918549569121,36.72063585324348,147.28181854089726,133.96712442521655,-0.0001295089750783,0.0972511246800422,0,0,0
12353,430285.57965442,2010-10-20 16:44:37,2701.3629486516397,7,37,-1.099568486213684,3.490917444229126,36.87918549569121,36.72980329436084,147.28181854089726,133.99915136817188,-0.0001618862152099,0.0972511246800422,0,0,0
12354,430315.59467334754,2010-10-20 16:45:07,2731.3779675340847,7,37,-1.0993878841400146,3.4857370853424072,36.87918549569121,36.7389706124882,147.28181854089726,134.03113064000445,-0.0001618862152099,0.0972511246800422,0,0,0
12355,430345.6098049358,2010-10-20 16:45:37,2761.393099127441,7,37,-1.0993878841400146,3.4797472953796387,36.87918549569121,36.74813791809654,147.28181854089726,134.06305864727872,-0.0001618862152099,0.0972511246800422,0,0,0
12356,430375.62507496926,2010-10-20 16:46:07,2791.4083691708565,7,37,-1.099568486213684,3.4731099605560303,36.87918549569121,36.757305235710405,147.28181854089726,134.09492840054986,-0.0001618862152099,0.0972511246800422,0,0,0
12357,430405.6400928743,2010-10-20 16:46:37,2821.423387090904,7,37,-1.099568486213684,3.465501308441162,36.87918549569121,36.7664724864546,147.28181854089726,134.12673344907577,-0.0001942634553415,0.0972511246800422,0,0,0
12358,430435.65538362926,2010-10-20 16:47:07,2851.4386778309013,7,37,-1.0993878841400146,3.457245111465454,36.87918549569121,36.77563982033432,147.28181854089726,134.15846545303793,-0.0001942634553415,0.0972511246800422,0,0,0
12359,430465.670374923,2010-10-20 16:47:37,2881.453669119575,7,37,-1.099568486213684,3.4473700523376465,36.87918549569121,36.784807149466445,147.28181854089726,134.1901146716419,-0.0002590179501567,0.0972511246800422,0,0,0
12360,430495.6856499639,2010-10-20 16:48:07,2911.468944195534,7,37,-1.099568486213684,3.436038017272949,36.87918549569121,36.79397453453175,147.28181854089726,134.22166740360169,-0.0003561496851034,0.0972511246800422,0,0,0
12361,430525.70066511707,2010-10-20 16:48:37,2941.4839592985595,7,37,-1.099568486213684,3.4226016998291016,36.87918549569121,36.80314182377371,147.28181854089726,134.25310668911806,-0.0003885269106831,0.0972511246800422,0,0,0
12362,430555.7158192365,2010-10-20 16:49:07,2971.499113433095,7,37,-1.099568486213684,3.4062511920928955,36.87918549569121,36.81230921127823,147.28181854089726,134.28441041442397,-0.0004856586456298,0.0972511246800422,0,0,0
12363,430585.7309523285,2010-10-20 16:49:37,3001.5142465151607,7,37,-1.099568486213684,3.3861773014068604,36.87918549569121,36.82147660660344,147.28181854089726,134.31554791392682,-0.0005827903514727,0.0972511246800422,0,0,0
12364,430615.7460841826,2010-10-20 16:50:07,3031.5293783641537,7,37,-1.0993878841400146,3.360437393188477,36.87918549569121,36.83064399582829,147.28181854089726,134.34647686815296,-0.0007770538213662,0.0972511246800422,0,0,0
12365,430645.7612452595,2010-10-20 16:50:37,3061.5445394510166,7,37,-1.099568486213684,3.326441526412964,36.87918549569121,36.83981141766522,147.28181854089726,134.37713460942433,-0.0010036944877356,0.0972511246800422,0,0,0
12366,430675.7764588922,2010-10-20 16:51:07,3091.5597532091524,7,37,-1.099568486213684,3.280303955078125,36.87918549569121,36.848978744845816,147.28181854089726,134.40742884285774,-0.0014245987404137,0.0972511246800422,0,0,0
12367,430705.7916296382,2010-10-20 16:51:37,3121.5749238598505,7,37,-1.099568486213684,3.2153878211975098,36.87918549569121,36.85814608460062,147.28181854089726,134.437221101434,-0.0020397664047777,0.0972511246800422,0,0,0
12368,430735.8066422901,2010-10-20 16:52:07,3151.5899364766806,7,37,-1.099568486213684,3.1184182167053223,36.87918549569121,36.86731335812874,147.28181854089726,134.4662844372587,-0.0030758380889892,0.0972511246800422,0,0,0
12369,430765.8219202984,2010-10-20 16:52:37,3181.6052144899595,7,37,-1.099568486213684,2.9534566402435303,36.87918549569121,36.87648075426664,147.28181854089726,134.49420236595162,-0.0059250355698168,0.0972511246800422,0,0,0
12370,430785.2746159614,2010-10-20 16:52:56,3201.057910173047,7,37,-1.099568486213684,2.753204107284546,36.87918549569121,36.88242207540471,147.28181854089726,134.51120402883615,-0.0098426342010498,0.0972511246800422,0,0,0
12371,430789.305789827,2010-10-20 16:53:00,3205.0890840186307,7,37,-1.099568486213684,2.699620008468628,36.87918549569121,36.88365328724859,147.28181854089726,134.51456129768545,-0.0106196878477931,0.0972511246800422,0,0,0
12372,430849.3268129732,2010-10-20 16:54:00,60.01448050641599,8,37,0.0,3.375816583633423,36.87918549569121,36.88365328724859,147.28181854089726,134.51456129768545,0.0013274669181555,0.0972511246800422,0,0,0
12373,430849.5061739932,2010-10-20 16:54:01,0.187520498781579,9,37,-1.9243103452026844e-05,3.3761403560638428,36.8791854993928,36.88365328724859,147.28181855339375,134.51456129768545,6.47544875391759e-05,0.0931148082017898,0,0,0
12374,430854.33432201867,2010-10-20 16:54:06,5.015668519232548,9,37,0.0007031940040178,3.383910894393921,36.8791863555298,36.883653287415605,147.28182144777892,134.5145612982493,0.0011332035064697,0.0931148082017898,0,0,0
