Data_Point,Test_Time(s),Date_Time,Step_Time(s),Step_Index,Cycle_Index,Current(A),Voltage(V),Charge_Capacity(Ah),Discharge_Capacity(Ah),Charge_Energy(Wh),Discharge_Energy(Wh),dV/dt(V/s),Internal_Resistance(Ohm),Is_FC_Data,AC_Impedance(Ohm),ACI_Phase_Angle(Deg)
5077,175417.96181841515,2010-10-17 17:56:22,30.015201542691013,1,16,0.0,3.355257034301758,15.097460553423277,15.116877058598508,60.22883732913638,55.26274135807776,0.0008418083307333,0.0897949114441871,0,0,0
5078,175447.97701275488,2010-10-17 17:56:52,60.03039593255498,1,16,0.0,3.380835056304932,15.097460553423277,15.116877058598508,60.22883732913638,55.26274135807776,0.0005827903514727,0.0897949114441871,0,0,0
5079,175477.99243143373,2010-10-17 17:57:22,90.04581458134119,1,16,0.0,3.400261402130127,15.097460553423277,15.116877058598508,60.22883732913638,55.26274135807776,0.0005180359003134,0.0897949114441871,0,0,0
5080,175507.960574001,2010-10-17 17:57:52,120.01395717866068,1,16,0.0,3.415964365005493,15.097460553423277,15.116877058598508,60.22883732913638,55.26274135807776,0.0003885269106831,0.0897949114441871,0,0,0
5081,175537.97784385798,2010-10-17 17:58:22,30.01528854452636,2,16,0.5499359965324402,3.5712127685546875,15.102047376616865,15.116877058598508,60.24504770092378,55.26274135807776,0.0016188621520996,0.0897949114441871,0,0,0
5082,175567.9930018822,2010-10-17 17:58:52,60.03044650359357,2,16,0.5501165986061096,3.622368574142456,15.106634207693848,15.116877058598508,60.2615530034944,55.26274135807776,0.0011655807029455,0.0897949114441871,0,0,0
5083,175598.0082512992,2010-10-17 17:59:22,90.04569602586449,2,16,0.5501165986061096,3.659116744995117,15.11122102757606,15.116877058598508,60.27825582790875,55.26274135807776,0.0008741855854168,0.0897949114441871,0,0,0
5084,175628.02342659648,2010-10-17 17:59:52,120.06087125296894,2,16,0.5501165986061096,3.687608480453491,15.11580776608582,15.116877058598508,60.2951075595569,55.26274135807776,0.0006151676061563,0.0897949114441871,0,0,0
5085,175658.03879434342,2010-10-17 18:00:22,150.07623900490452,2,16,0.5501165986061096,3.711405754089356,15.12039460012494,15.116877058598508,60.31207902590552,55.26274135807776,0.0005827903514727,0.0897949114441871,0,0,0
5086,175688.0538589598,2010-10-17 18:00:52,180.09130358624571,2,16,0.5501165986061096,3.730832099914551,15.124981416153512,15.116877058598508,60.32914884888323,55.26274135807776,0.0004532813909463,0.0897949114441871,0,0,0
5087,175718.06910062753,2010-10-17 18:01:22,210.10654525895308,2,16,0.5501165986061096,3.746858835220337,15.129568249039265,15.116877058598508,60.346299763239855,55.26274135807776,0.0003885269106831,0.0897949114441871,0,0,0
5088,175748.084296862,2010-10-17 18:01:52,240.12174152348933,2,16,0.5501165986061096,3.758190631866455,15.134155069390092,15.116877058598508,60.36351383646111,55.26274135807776,0.0001942634553415,0.0897949114441871,0,0,0
5089,175778.09964111538,2010-10-17 18:02:22,270.1370857467843,2,16,0.5501165986061096,3.7649898529052734,15.13874185025548,15.116877058598508,60.38076873629706,55.26274135807776,0.0001618862152099,0.0897949114441871,0,0,0
5090,175808.11486603634,2010-10-17 18:02:52,300.15231065771616,2,16,0.5499359965324402,3.769198894500733,15.143328718267844,15.116877058598508,60.39804839234594,55.26274135807776,9.713172767078504e-05,0.0897949114441871,0,0,0
5091,175838.12997070755,2010-10-17 18:03:22,330.1674153640612,2,16,0.5501165986061096,3.7729222774505615,15.147915542438074,15.116877058598508,60.4153457262669,55.26274135807776,9.713172767078504e-05,0.0897949114441871,0,0,0
5092,175868.14519169874,2010-10-17 18:03:52,360.1826363251488,2,16,0.5501165986061096,3.7763218879699703,15.152502374152563,15.116877058598508,60.43265912282322,55.26274135807776,0.0001295089750783,0.0897949114441871,0,0,0
5093,175898.1604017025,2010-10-17 18:04:22,390.19784633394,2,16,0.5501165986061096,3.77972149848938,15.157089247717476,15.116877058598508,60.449988266693126,55.26274135807776,9.713172767078504e-05,0.0897949114441871,0,0,0
5094,175928.17564903433,2010-10-17 18:04:52,420.2130936908141,2,16,0.5501165986061096,3.782959222793579,15.161676041673564,15.116877058598508,60.46733229862206,55.26274135807776,9.713172767078504e-05,0.0897949114441871,0,0,0
5095,175958.19099276137,2010-10-17 18:05:22,450.2284374479472,2,16,0.550297200679779,3.7861969470977774,15.166262873090316,15.116877058598508,60.4846914463506,55.26274135807776,9.713172767078504e-05,0.0897949114441871,0,0,0
5096,175988.20604512727,2010-10-17 18:05:52,480.2434897486814,2,16,0.550297200679779,3.7894346714019775,15.170849722368969,15.116877058598508,60.502065372976816,55.26274135807776,9.713172767078504e-05,0.0897949114441871,0,0,0
5097,176018.22138987188,2010-10-17 18:06:22,510.258834528363,2,16,0.5501165986061096,3.792510509490967,15.175436569214444,15.116877058598508,60.51945359490135,55.26274135807776,0.0001295089750783,0.0897949114441871,0,0,0
5098,176048.2366102866,2010-10-17 18:06:52,540.2740549180264,2,16,0.5501165986061096,3.795586347579956,15.180023381280831,15.116877058598508,60.5368557922827,55.26274135807776,9.713172767078504e-05,0.0897949114441871,0,0,0
5099,176078.251730266,2010-10-17 18:07:22,570.2891749174867,2,16,0.550297200679779,3.798662185668945,15.184610196928352,15.116877058598508,60.55427187033014,55.26274135807776,0.0001295089750783,0.0897949114441871,0,0,0
5100,176108.26692849543,2010-10-17 18:07:52,600.3043731519325,2,16,0.550297200679779,3.801414251327514,15.18919703774192,15.116877058598508,60.57170178494036,55.26274135807776,6.47544875391759e-05,0.0897949114441871,0,0,0
5101,176138.28225365124,2010-10-17 18:08:22,630.3196983177303,2,16,0.5501165986061096,3.804328203201294,15.193783899699133,15.116877058598508,60.58914532272445,55.26274135807776,3.237724376958795e-05,0.0897949114441871,0,0,0
5102,176168.29733961084,2010-10-17 18:08:52,660.3347842623152,2,16,0.550297200679779,3.807404041290283,15.19837077066197,15.116877058598508,60.60660248948138,55.26274135807776,9.713172767078504e-05,0.0897949114441871,0,0,0
5103,176198.3127378638,2010-10-17 18:09:23,690.3501824952189,2,16,0.5501165986061096,3.810479879379273,15.202957631327804,15.116877058598508,60.62407323875837,55.26274135807776,9.713172767078504e-05,0.0897949114441871,0,0,0
5104,176228.32781092124,2010-10-17 18:09:53,720.3652555877726,2,16,0.5499359965324402,3.813231945037842,15.207544432770986,15.116877058598508,60.641557667601,55.26274135807776,3.237724376958795e-05,0.0897949114441871,0,0,0
5105,176258.34302725078,2010-10-17 18:10:23,750.3804719123045,2,16,0.5501165986061096,3.816631555557251,15.212131263413484,15.116877058598508,60.65905659673704,55.26274135807776,6.47544875391759e-05,0.0897949114441871,0,0,0
5106,176288.35846821518,2010-10-17 18:10:53,780.3959128716956,2,16,0.5501165986061096,3.81986927986145,15.216718100848968,15.116877058598508,60.67657002579242,55.26274135807776,9.713172767078504e-05,0.0897949114441871,0,0,0
5107,176318.3735094985,2010-10-17 18:11:23,810.4109541299083,2,16,0.5501165986061096,3.8231070041656494,15.221304916686275,15.116877058598508,60.69409834526278,55.26274135807776,0.0001295089750783,0.0897949114441871,0,0,0
5108,176348.3887183444,2010-10-17 18:11:53,840.4261629707888,2,16,0.550297200679779,3.8263447284698486,15.225891668005294,15.116877058598508,60.71164172249048,55.26274135807776,6.47544875391759e-05,0.0897949114441871,0,0,0
5109,176378.40391960135,2010-10-17 18:12:23,870.4413642327802,2,16,0.5501165986061096,3.829906225204468,15.230478477800558,15.116877058598508,60.72920095843677,55.26274135807776,9.713172767078504e-05,0.0897949114441871,0,0,0
5110,176408.41916362994,2010-10-17 18:12:53,900.4566082964463,2,16,0.5501165986061096,3.833305597305298,15.235065377729674,15.116877058598508,60.74677621983862,55.26274135807776,6.470680091297254e-05,0.0897949114441871,0,0,0
5111,176438.43449252,2010-10-17 18:13:23,930.4719371564516,2,16,0.5501165986061096,3.836705207824707,15.239652189170906,15.116877058598508,60.764366788678906,55.26274135807776,6.47544875391759e-05,0.0897949114441871,0,0,0
5112,176468.44968985725,2010-10-17 18:13:53,960.4871346089484,2,16,0.5501165986061096,3.839942932128906,15.244238988897791,15.116877058598508,60.781972767695706,55.26274135807776,3.237724376958795e-05,0.0897949114441871,0,0,0
5113,176498.46479575656,2010-10-17 18:14:23,990.5022403879668,2,16,0.550297200679779,3.843342542648315,15.248825807545328,15.116877058598508,60.799594067991805,55.26274135807776,9.713172767078504e-05,0.0897949114441871,0,0,0
5114,176528.48012223563,2010-10-17 18:14:53,1020.5175668971128,2,16,0.5499359965324402,3.846580266952514,15.25341266391459,15.116877058598508,60.81723042514601,55.26274135807776,9.713172767078504e-05,0.0897949114441871,0,0,0
5115,176558.4952322452,2010-10-17 18:15:23,1050.5326768766,2,16,0.5501165986061096,3.849656105041504,15.25799946936874,15.116877058598508,60.83488124686925,55.26274135807776,6.47544875391759e-05,0.0897949114441871,0,0,0
5116,176588.51055066916,2010-10-17 18:15:53,1080.5479953106203,2,16,0.5499359965324402,3.852731943130493,15.262586367931442,15.116877058598508,60.852546808848494,55.26274135807776,3.237724376958795e-05,0.0897949114441871,0,0,0
5117,176618.5257864221,2010-10-17 18:16:23,1110.5632310936487,2,16,0.5501165986061096,3.8558077812194815,15.267173145681792,15.116877058598508,60.87022579903449,55.26274135807776,3.237724376958795e-05,0.0897949114441871,0,0,0
5118,176648.5408669031,2010-10-17 18:16:53,1140.578311559579,2,16,0.5501165986061096,3.8587217330932617,15.271759933575485,15.116877058598508,60.88791848046783,55.26274135807776,6.47544875391759e-05,0.0897949114441871,0,0,0
5119,176678.54087104418,2010-10-17 18:17:23,1170.578315805932,2,16,0.5501165986061096,3.861473798751831,15.276344395929591,15.116877058598508,60.90561525409928,55.26274135807776,6.47544875391759e-05,0.0897949114441871,0,0,0
5120,176708.55572344668,2010-10-17 18:17:53,1200.5931680731208,2,16,0.550297200679779,3.8640639781951904,15.280931227765494,15.116877058598508,60.92333375031428,55.26274135807776,3.237724376958795e-05,0.0897949114441871,0,0,0
5121,176738.5709027941,2010-10-17 18:18:23,1230.6083474555817,2,16,0.5501165986061096,3.86681604385376,15.285518018165792,15.116877058598508,60.941064006917706,55.26274135807776,3.237724376958795e-05,0.0897949114441871,0,0,0
5122,176768.58611196076,2010-10-17 18:18:53,1260.6235565871866,2,16,0.550297200679779,3.869082450866699,15.290104859222213,15.116877058598508,60.95880583292978,55.26274135807776,3.237724376958795e-05,0.0897949114441871,0,0,0
5123,176798.60426162108,2010-10-17 18:19:23,1290.6417063778183,2,16,0.5501165986061096,3.871348857879639,15.294692120552009,15.116877058598508,60.97656001107816,55.26274135807776,0.0,0.0897949114441871,0,0,0
5124,176828.61658227872,2010-10-17 18:19:53,1320.6540269051327,2,16,0.5501165986061096,3.873615264892578,15.299278548556376,15.116877058598508,60.994321117309326,55.26274135807776,9.713172767078504e-05,0.0897949114441871,0,0,0
5125,176858.6317983827,2010-10-17 18:20:23,1350.66924301914,2,16,0.550297200679779,3.8755578994750977,15.303865343451085,15.116877058598508,61.01209305423966,55.26274135807776,3.237724376958795e-05,0.0897949114441871,0,0,0
5126,176888.64700098304,2010-10-17 18:20:53,1380.6844456044296,2,16,0.5501165986061096,3.877500534057617,15.308452188974208,15.116877058598508,61.02987412008205,55.26274135807776,3.237724376958795e-05,0.0897949114441871,0,0,0
5127,176918.66223021975,2010-10-17 18:21:23,1410.6996748511674,2,16,0.5499359965324402,3.879119396209717,15.313039006010191,15.116877058598508,61.04766335935551,55.26274135807776,3.237724376958795e-05,0.0897949114441871,0,0,0
5128,176948.67756461355,2010-10-17 18:21:53,1440.7150092850643,2,16,0.5501165986061096,3.881062030792236,15.317625821358911,15.116877058598508,61.0654601908269,55.26274135807776,9.713172767078504e-05,0.0897949114441871,0,0,0
5129,176978.69280291788,2010-10-17 18:22:23,1470.7302475593017,2,16,0.550297200679779,3.882195234298706,15.322212644597876,15.116877058598508,61.08326428645015,55.26274135807776,3.237724376958795e-05,0.0897949114441871,0,0,0
5130,177008.7078669378,2010-10-17 18:22:53,1500.745311594281,2,16,0.5501165986061096,3.883652210235596,15.326799452432915,15.116877058598508,61.10107508280924,55.26274135807776,0.0,0.0897949114441871,0,0,0
5131,177038.7232093616,2010-10-17 18:23:23,1530.7606540732286,2,16,0.550297200679779,3.885109186172485,15.331386286844962,15.116877058598508,61.118892278762864,55.26274135807776,3.237724376958795e-05,0.0897949114441871,0,0,0
5132,177068.73833889986,2010-10-17 18:23:53,1560.7757835613374,2,16,0.550297200679779,3.886404275894165,15.335973115427716,15.116877058598508,61.136715589046126,55.26274135807776,3.237724376958795e-05,0.0897949114441871,0,0,0
5133,177098.75353487366,2010-10-17 18:24:23,1590.7909795501866,2,16,0.5499359965324402,3.8876993656158447,15.340559977540922,15.116877058598508,61.1545449375923,55.26274135807776,3.237724376958795e-05,0.0897949114441871,0,0,0
5134,177128.76873827097,2010-10-17 18:24:53,1620.8061829023875,2,16,0.5501165986061096,3.888994455337525,15.345146805652478,15.116877058598508,61.172379951885965,55.26274135807776,6.47544875391759e-05,0.0897949114441871,0,0,0
5135,177158.78395084618,2010-10-17 18:25:23,1650.8213954775747,2,16,0.5501165986061096,3.890127658843994,15.349733639314149,15.116877058598508,61.19022064848778,55.26274135807776,3.237724376958795e-05,0.0897949114441871,0,0,0
5136,177188.79932468827,2010-10-17 18:25:53,1680.8367693196892,2,16,0.550297200679779,3.891422748565674,15.354320451109798,15.116877058598508,61.20806687845715,55.26274135807776,3.237724376958795e-05,0.0897949114441871,0,0,0
5137,177218.81451548418,2010-10-17 18:26:23,1710.8519601256207,2,16,0.5501165986061096,3.892555952072144,15.358907260029236,15.116877058598508,61.22591872504942,55.26274135807776,3.237724376958795e-05,0.0897949114441871,0,0,0
5138,177248.82961237102,2010-10-17 18:26:53,1740.8670569924273,2,16,0.550297200679779,3.894012928009033,15.363494097108648,15.116877058598508,61.24377630765954,55.26274135807776,6.47544875391759e-05,0.0897949114441871,0,0,0
5139,177278.84514232722,2010-10-17 18:27:23,1770.8825871090255,2,16,0.5501165986061096,3.894984245300293,15.368080999691143,15.116877058598508,61.261639677185,55.26274135807776,3.237724376958795e-05,0.0897949114441871,0,0,0
5140,177308.8603397697,2010-10-17 18:27:53,1800.8977844311976,2,16,0.5501165986061096,3.8962793350219727,15.372667819171683,15.116877058598508,61.27950782893891,55.26274135807776,3.237724376958795e-05,0.0897949114441871,0,0,0
5141,177338.87529179553,2010-10-17 18:28:23,1830.9127364520032,2,16,0.5499359965324402,3.897250652313232,15.377254614026908,15.116877058598508,61.29738171590932,55.26274135807776,0.0,0.0897949114441871,0,0,0
5142,177368.8905078995,2010-10-17 18:28:53,1860.9279525509733,2,16,0.550297200679779,3.898707628250122,15.381841408986224,15.116877058598508,61.315261204666335,55.26274135807776,3.237724376958795e-05,0.0897949114441871,0,0,0
5143,177398.90570525677,2010-10-17 18:29:23,1890.9431499182576,2,16,0.5501165986061096,3.9000027179718018,15.386428268795688,15.116877058598508,61.33314671188755,55.26274135807776,3.237724376958795e-05,0.0897949114441871,0,0,0
5144,177428.92106765535,2010-10-17 18:29:53,1920.958512417101,2,16,0.5501165986061096,3.9009740352630615,15.391015184310127,15.116877058598508,61.351038005049226,55.26274135807776,0.0,0.0897949114441871,0,0,0
5145,177458.93629403497,2010-10-17 18:30:23,1950.9737387064683,2,16,0.5501165986061096,3.902269124984741,15.395601980532748,15.116877058598508,61.36893458007586,55.26274135807776,3.237724376958795e-05,0.0897949114441871,0,0,0
5146,177488.95137600464,2010-10-17 18:30:53,1980.988820671134,2,16,0.550297200679779,3.903726100921631,15.400188768003762,15.116877058598508,61.38683688665305,55.26274135807776,6.47544875391759e-05,0.0897949114441871,0,0,0
5147,177518.9667127192,2010-10-17 18:31:23,2011.0041573606527,2,16,0.550297200679779,3.9048593044281006,15.4047756191863,15.116877058598508,61.40474528092835,55.26274135807776,-3.237724376958795e-05,0.0897949114441871,0,0,0
5148,177548.98180312492,2010-10-17 18:31:53,2041.0192477563312,2,16,0.5497553944587708,3.9059925079345694,15.409361649302785,15.116877058598508,61.42265602858208,55.26274135807776,0.0,0.0897949114441871,0,0,0
5149,177578.99700944452,2010-10-17 18:32:23,2071.034454085953,2,16,0.5501165986061096,3.90744948387146,15.413947594672686,15.116877058598508,61.44057238510291,55.26274135807776,3.237724376958795e-05,0.0897949114441871,0,0,0
5150,177609.01226089158,2010-10-17 18:32:53,2101.049705512971,2,16,0.5501165986061096,3.90874457359314,15.418534361981482,15.116877058598508,61.45849805398965,55.26274135807776,3.237724376958795e-05,0.0897949114441871,0,0,0
5151,177639.02747051942,2010-10-17 18:33:23,2131.0649151909374,2,16,0.5501165986061096,3.910201549530029,15.42312108911856,15.116877058598508,61.47642958113038,55.26274135807776,6.47544875391759e-05,0.0897949114441871,0,0,0
5152,177669.04270162078,2010-10-17 18:33:53,2161.0801462722475,2,16,0.550297200679779,3.911496639251709,15.427707904640304,15.116877058598508,61.49436750396634,55.26274135807776,3.237724376958795e-05,0.0897949114441871,0,0,0
5153,177699.05793440633,2010-10-17 18:34:23,2191.095379057805,2,16,0.5499359965324402,3.9127917289733887,15.432294670235091,15.116877058598508,61.5123113798673,55.26274135807776,3.237724376958795e-05,0.0897949114441871,0,0,0
5154,177729.07313014957,2010-10-17 18:34:53,2221.1105748010427,2,16,0.5501165986061096,3.914248466491699,15.436881473769184,15.116877058598508,61.5302615756107,55.26274135807776,6.47544875391759e-05,0.0897949114441871,0,0,0
5155,177759.08843513005,2010-10-17 18:35:23,2251.125879766495,2,16,0.5501165986061096,3.915543556213379,15.4414682217063,15.116877058598508,61.54821778046709,55.26274135807776,3.237724376958795e-05,0.0897949114441871,0,0,0
5156,177789.10367329404,2010-10-17 18:35:53,2281.14111793547,2,16,0.550297200679779,3.9168386459350586,15.446054994719114,15.116877058598508,61.56618018152821,55.26274135807776,3.237724376958795e-05,0.0897949114441871,0,0,0
5157,177819.11876061704,2010-10-17 18:36:23,2311.156205248465,2,16,0.550297200679779,3.918295621871948,15.450641737240748,15.116877058598508,61.58414889028503,55.26274135807776,6.47544875391759e-05,0.0897949114441871,0,0,0
5158,177849.1339718088,2010-10-17 18:36:53,2341.1714164752925,2,16,0.5501165986061096,3.919590711593628,15.455228433068797,15.116877058598508,61.60212378653997,55.26274135807776,3.237724376958795e-05,0.0897949114441871,0,0,0
5159,177879.14920315574,2010-10-17 18:37:23,2371.1866477871777,2,16,0.5501165986061096,3.920885801315308,15.459815231731469,15.116877058598508,61.620105548436605,55.26274135807776,3.237724376958795e-05,0.0897949114441871,0,0,0
5160,177909.16459786487,2010-10-17 18:37:53,2401.2020425263736,2,16,0.550297200679779,3.9225046634674072,15.464402028292428,15.116877058598508,61.63809371546238,55.26274135807776,3.237724376958795e-05,0.0897949114441871,0,0,0
5161,177939.17975599438,2010-10-17 18:38:23,2431.2172006308037,2,16,0.5501165986061096,3.923799753189087,15.468988865365736,15.116877058598508,61.6560886200611,55.26274135807776,3.237724376958795e-05,0.0897949114441871,0,0,0
5162,177969.19484842513,2010-10-17 18:38:53,2461.2322930515284,2,16,0.550297200679779,3.9254186153411865,15.47357569267534,15.116877058598508,61.67409011735908,55.26274135807776,6.47544875391759e-05,0.0897949114441871,0,0,0
5163,177999.21019208702,2010-10-17 18:39:23,2491.247636713424,2,16,0.5501165986061096,3.926713705062866,15.478162576333892,15.116877058598508,61.69209838511138,55.26274135807776,3.237724376958795e-05,0.0897949114441871,0,0,0
5164,178029.22530052767,2010-10-17 18:39:53,2521.2627451841518,2,16,0.550297200679779,3.928332567214966,15.482749370387308,15.116877058598508,61.71011303159521,55.26274135807776,6.47544875391759e-05,0.0897949114441871,0,0,0
5165,178059.24050503274,2010-10-17 18:40:23,2551.277949664163,2,16,0.5501165986061096,3.9296276569366455,15.487336195240852,15.116877058598508,61.72813448826218,55.26274135807776,3.237724376958795e-05,0.0897949114441871,0,0,0
5166,178089.25572119185,2010-10-17 18:40:53,2581.2931658433326,2,16,0.5501165986061096,3.931084632873535,15.491922978070914,15.116877058598508,61.74616261435509,55.26274135807776,0.0,0.0897949114441871,0,0,0
5167,178119.27095265413,2010-10-17 18:41:23,2611.308397310605,2,16,0.5501165986061096,3.9327034950256343,15.496509836995855,15.116877058598508,61.76419781904373,55.26274135807776,3.237724376958795e-05,0.0897949114441871,0,0,0
5168,178149.2864233827,2010-10-17 18:41:54,2641.323868149465,2,16,0.5501165986061096,3.934160470962525,15.501096695499577,15.116877058598508,61.78223993243443,55.26274135807776,6.47544875391759e-05,0.0897949114441871,0,0,0
5169,178179.3015012271,2010-10-17 18:42:24,2671.338945868549,2,16,0.5501165986061096,3.935779333114624,15.505683539031612,15.116877058598508,61.80028898053938,55.26274135807776,3.237724376958795e-05,0.0897949114441871,0,0,0
5170,178209.31660122672,2010-10-17 18:42:54,2701.3540458731763,2,16,0.550297200679779,3.9372363090515137,15.510270428083109,15.116877058598508,61.81834510015063,55.26274135807776,3.237724376958795e-05,0.0897949114441871,0,0,0
5171,178239.33216714754,2010-10-17 18:43:24,2731.3696117839845,2,16,0.5501165986061096,3.938855171203613,15.514857276903957,15.116877058598508,61.83640821202484,55.26274135807776,6.47544875391759e-05,0.0897949114441871,0,0,0
5172,178269.3471304114,2010-10-17 18:43:54,2761.3845751881613,2,16,0.5499359965324402,3.940312147140503,15.519444061111733,15.116877058598508,61.854478130958846,55.26274135807776,6.47544875391759e-05,0.0897949114441871,0,0,0
5173,178299.36238387346,2010-10-17 18:44:24,2791.399828524939,2,16,0.550297200679779,3.9419310092926025,15.52403090196322,15.116877058598508,61.872555453992746,55.26274135807776,3.237724376958795e-05,0.0897949114441871,0,0,0
5174,178329.37763829794,2010-10-17 18:44:54,2821.4150829694777,2,16,0.5499359965324402,3.943387985229492,15.5286178000884,15.116877058598508,61.89064024935,55.26274135807776,0.0,0.0897949114441871,0,0,0
5175,178359.39269375656,2010-10-17 18:45:24,2851.4301383879824,2,16,0.5501165986061096,3.945006847381592,15.533204554311848,15.116877058598508,61.90873180893958,55.26274135807776,3.237724376958795e-05,0.0897949114441871,0,0,0
5176,178389.40793469746,2010-10-17 18:45:54,2881.4453793338785,2,16,0.5501165986061096,3.9466257095336914,15.537791405887877,15.116877058598508,61.926831131740926,55.26274135807776,0.0,0.0897949114441871,0,0,0
5177,178419.42313651083,2010-10-17 18:46:24,2911.460581172307,2,16,0.550297200679779,3.948406457901001,15.542378191005596,15.116877058598508,61.944937518384044,55.26274135807776,6.47544875391759e-05,0.0897949114441871,0,0,0
5178,178449.43834796318,2010-10-17 18:46:54,2941.4757926246957,2,16,0.5501165986061096,3.9500253200531006,15.546965014069668,15.116877058598508,61.96305158835638,55.26274135807776,3.237724376958795e-05,0.0897949114441871,0,0,0
5179,178479.4536064829,2010-10-17 18:47:24,2971.491051144391,2,16,0.5499359965324402,3.9516441822052,15.551551829341827,15.116877058598508,61.981173230244,55.26274135807776,3.237724376958795e-05,0.0897949114441871,0,0,0
5180,178509.46880314342,2010-10-17 18:47:54,3001.506247809926,2,16,0.5499359965324402,3.9532630443573,15.556138665669144,15.116877058598508,61.99930251969793,55.26274135807776,3.237724376958795e-05,0.0897949114441871,0,0,0
5181,178539.48400453074,2010-10-17 18:48:24,3031.521449212268,2,16,0.550297200679779,3.95504379272461,15.56072548300749,15.116877058598508,62.01743944993817,55.26274135807776,3.237724376958795e-05,0.0897949114441871,0,0,0
5182,178569.49921844926,2010-10-17 18:48:54,3061.536663135816,2,16,0.5501165986061096,3.956662654876709,15.565312235922269,15.116877058598508,62.03558385450402,55.26274135807776,6.47544875391759e-05,0.0897949114441871,0,0,0
5183,178599.5144704878,2010-10-17 18:49:24,3091.55191523952,2,16,0.5501165986061096,3.9582815170288086,15.569899122545584,15.116877058598508,62.05373652351256,55.26274135807776,3.237724376958795e-05,0.0897949114441871,0,0,0
5184,178629.52969851147,2010-10-17 18:49:54,3121.5671431679725,2,16,0.550297200679779,3.960224151611328,15.57448596391059,15.116877058598508,62.07189693072738,55.26274135807776,9.713172767078504e-05,0.0897949114441871,0,0,0
5185,178659.54489961808,2010-10-17 18:50:24,3151.5823442495143,2,16,0.5501165986061096,3.961843013763428,15.579072843946042,15.116877058598508,62.090065467314176,55.26274135807776,3.237724376958795e-05,0.0897949114441871,0,0,0
5186,178689.5601122033,2010-10-17 18:50:54,3181.597556829714,2,16,0.5501165986061096,3.963623762130737,15.583659671972736,15.116877058598508,62.10824171532846,55.26274135807776,3.237724376958795e-05,0.0897949114441871,0,0,0
5187,178719.57841168702,2010-10-17 18:51:24,3211.6158563735776,2,16,0.5501165986061096,3.965242624282837,15.58824702188924,15.116877058598508,62.12642813192928,55.26274135807776,3.237724376958795e-05,0.0897949114441871,0,0,0
5188,178749.59059071165,2010-10-17 18:51:54,3241.6280353581237,2,16,0.5501165986061096,3.9670233726501465,15.592833419772772,15.116877058598508,62.14461893219432,55.26274135807776,0.0,0.0897949114441871,0,0,0
5189,178779.60577206904,2010-10-17 18:52:24,3271.6432167054813,2,16,0.5501165986061096,3.968966007232666,15.597420257359213,15.116877058598508,62.16281954432085,55.26274135807776,6.47544875391759e-05,0.0897949114441871,0,0,0
5190,178809.62099052386,2010-10-17 18:52:54,3301.658435210448,2,16,0.5501165986061096,3.970746755599976,15.602007143136138,15.116877058598508,62.18102866302077,55.26274135807776,0.0,0.0897949114441871,0,0,0
5191,178839.6362071341,2010-10-17 18:53:24,3331.673651765554,2,16,0.550297200679779,3.972527503967285,15.60659400667093,15.116877058598508,62.19924608742681,55.26274135807776,6.47544875391759e-05,0.0897949114441871,0,0,0
5192,178869.65145039078,2010-10-17 18:53:54,3361.688895012184,2,16,0.5499359965324402,3.9743082523345943,15.611180908486086,15.116877058598508,62.21747204306017,55.26274135807776,3.237724376958795e-05,0.0897949114441871,0,0,0
5193,178899.6666675023,2010-10-17 18:54:24,3391.704112158765,2,16,0.5501165986061096,3.976412773132324,15.615767729251791,15.116877058598508,62.2357062299666,55.26274135807776,9.713172767078504e-05,0.0897949114441871,0,0,0
5194,178929.68187233317,2010-10-17 18:54:54,3421.719316959576,2,16,0.550297200679779,3.977869749069214,15.620354626350844,15.116877058598508,62.25394922623759,55.26274135807776,0.0,0.0897949114441871,0,0,0
5195,178959.6973676681,2010-10-17 18:55:24,3451.7348122995004,2,16,0.5501165986061096,3.980136156082153,15.6249414988059,15.116877058598508,62.272200855335406,55.26274135807776,6.47544875391759e-05,0.0897949114441871,0,0,0
5196,178989.71231915255,2010-10-17 18:55:54,3481.749763783969,2,16,0.550297200679779,3.982078790664673,15.62952826783013,15.116877058598508,62.29046116835245,55.26274135807776,3.237724376958795e-05,0.0897949114441871,0,0,0
5197,179019.72759624352,2010-10-17 18:56:24,3511.76504099525,2,16,0.5501165986061096,3.984021425247192,15.634115121083894,15.116877058598508,62.3087308226366,55.26274135807776,3.237724376958795e-05,0.0897949114441871,0,0,0
5198,179049.74273660875,2010-10-17 18:56:54,3541.780181235155,2,16,0.550297200679779,3.985964059829712,15.638701919219448,15.116877058598508,62.32700932204441,55.26274135807776,6.47544875391759e-05,0.0897949114441871,0,0,0
5199,179079.75795591073,2010-10-17 18:57:24,3571.7954005421207,2,16,0.550297200679779,3.987906694412232,15.643288716003902,15.116877058598508,62.34529701760109,55.26274135807776,3.237724376958795e-05,0.0897949114441871,0,0,0
5200,179109.77319725257,2010-10-17 18:57:54,3601.810641889016,2,16,0.550297200679779,3.990011215209961,15.647875530673598,15.116877058598508,62.3635938876412,55.26274135807776,6.47544875391759e-05,0.0897949114441871,0,0,0
5201,179139.78839613363,2010-10-17 18:58:24,3631.825840765061,2,16,0.5501165986061096,3.992277622222901,15.652462273164453,15.116877058598508,62.38189989851293,55.26274135807776,9.713172767078504e-05,0.0897949114441871,0,0,0
5202,179169.80362697935,2010-10-17 18:58:54,3661.841071610784,2,16,0.550297200679779,3.994220018386841,15.657049041019024,15.116877058598508,62.40021544915383,55.26274135807776,6.470680091297254e-05,0.0897949114441871,0,0,0
5203,179199.81903255056,2010-10-17 18:59:24,3691.856477197015,2,16,0.5501165986061096,3.99648642539978,15.661635857323374,15.116877058598508,62.41854073777057,55.26274135807776,9.713172767078504e-05,0.0897949114441871,0,0,0
5204,179229.83433265387,2010-10-17 18:59:54,3721.871777375536,2,16,0.5499359965324402,3.99826717376709,15.666222692016351,15.116877058598508,62.43687579324068,55.26274135807776,3.237724376958795e-05,0.0897949114441871,0,0,0
5205,179259.84941225767,2010-10-17 19:00:24,3751.886856899117,2,16,0.5499359965324402,4.000371932983398,15.670809508780478,15.116877058598508,62.45522041263288,55.26274135807776,3.24249267578125e-05,0.0897949114441871,0,0,0
5206,179289.86461311363,2010-10-17 19:00:54,3781.9020577500846,2,16,0.5501165986061096,4.002638339996338,15.675396263436683,15.116877058598508,62.47357472579101,55.26274135807776,3.24249267578125e-05,0.0897949114441871,0,0,0
5207,179319.87971350926,2010-10-17 19:01:24,3811.917158170748,2,16,0.5501165986061096,4.004904747009277,15.679983084926038,15.116877058598508,62.491939325162505,55.26274135807776,6.47544875391759e-05,0.0897949114441871,0,0,0
5208,179349.89506271997,2010-10-17 19:01:54,3841.9325074516487,2,16,0.5501165986061096,4.007009029388428,15.684569925240345,15.116877058598508,62.5103140761929,55.26274135807776,3.23295607813634e-05,0.0897949114441871,0,0,0
5209,179379.9102918815,2010-10-17 19:02:24,3871.947736517937,2,16,0.5499359965324402,4.009275436401367,15.689156670944802,15.116877058598508,62.52869853101249,55.26274135807776,6.47544875391759e-05,0.0897949114441871,0,0,0
5210,179409.92533889908,2010-10-17 19:02:54,3901.9627835906417,2,16,0.550297200679779,4.011703968048096,15.6937435538053,15.116877058598508,62.54709375167638,55.26274135807776,6.47544875391759e-05,0.0897949114441871,0,0,0
5211,179439.94054607578,2010-10-17 19:03:24,3931.977990707224,2,16,0.5499359965324402,4.013646602630615,15.698330319763793,15.116877058598508,62.56549887439774,55.26274135807776,0.0,0.0897949114441871,0,0,0
5212,179469.95577652552,2010-10-17 19:03:54,3961.9932212070858,2,16,0.550297200679779,4.0160746574401855,15.702917085754766,15.116877058598508,62.58391430307604,55.26274135807776,6.47544875391759e-05,0.0897949114441871,0,0,0
5213,179499.97099850417,2010-10-17 19:04:24,3992.0084431405967,2,16,0.5501165986061096,4.018341064453125,15.707503914997362,15.116877058598508,62.60234048221242,55.26274135807776,6.47544875391759e-05,0.0897949114441871,0,0,0
5214,179529.98637171971,2010-10-17 19:04:54,4022.023816391237,2,16,0.5501165986061096,4.0206074714660645,15.7120907614256,15.116877058598508,62.62077713363962,55.26274135807776,6.47544875391759e-05,0.0897949114441871,0,0,0
5215,179560.0014529225,2010-10-17 19:05:24,4052.0388975488913,2,16,0.5501165986061096,4.022873878479004,15.716677953535212,15.116877058598508,62.63922590306035,55.26274135807776,6.47544875391759e-05,0.0897949114441871,0,0,0
5216,179590.0168278924,2010-10-17 19:05:54,4082.054272523829,2,16,0.5499359965324402,4.025302410125732,15.721265536158288,15.116877058598508,62.65768693569925,55.26274135807776,6.47544875391759e-05,0.0897949114441871,0,0,0
5217,179620.03189444868,2010-10-17 19:06:24,4112.069339075079,2,16,0.5499359965324402,4.027568817138672,15.725853002165923,15.116877058598508,62.67615826577394,55.26274135807776,6.47544875391759e-05,0.0897949114441871,0,0,0
5218,179650.04723754915,2010-10-17 19:06:54,4142.084682180589,2,16,0.5504778623580933,4.030158996582031,15.730440534803492,15.116877058598508,62.69464076805591,55.26274135807776,9.71794142969884e-05,0.0897949114441871,0,0,0
5219,179680.06258982755,2010-10-17 19:07:24,4172.1000345140965,2,16,0.550297200679779,4.032587051391602,15.735027616718524,15.116877058598508,62.713132388712665,55.26274135807776,0.0001295089750783,0.0897949114441871,0,0,0
5220,179710.0775836024,2010-10-17 19:07:54,4202.115028228816,2,16,0.5501165986061096,4.035015106201172,15.73961436069656,15.116877058598508,62.73163374874149,55.26274135807776,9.70840483205393e-05,0.0897949114441871,0,0,0
5221,179740.09277121036,2010-10-17 19:08:24,4232.130215831765,2,16,0.5501165986061096,4.037281513214111,15.744201090395066,15.116877058598508,62.75014620026696,55.26274135807776,9.70840483205393e-05,0.0897949114441871,0,0,0
5222,179770.1079975298,2010-10-17 19:08:54,4262.14544215622,2,16,0.5501165986061096,4.03971004486084,15.74878791490762,15.116877058598508,62.76867037679367,55.26274135807776,3.24249267578125e-05,0.0897949114441871,0,0,0
5223,179800.12322822012,2010-10-17 19:09:24,4292.160672896682,2,16,0.5499359965324402,4.042300224304199,15.7533746433312,15.116877058598508,62.787205447187226,55.26274135807776,6.47544875391759e-05,0.0897949114441871,0,0,0
5224,179830.13847531637,2010-10-17 19:09:54,4322.175919967844,2,16,0.5499359965324402,4.044890403747559,15.757961401641603,15.116877058598508,62.805752221565264,55.26274135807776,6.47544875391759e-05,0.0897949114441871,0,0,0
5225,179860.15366671377,2010-10-17 19:10:24,4352.191111365249,2,16,0.5501165986061096,4.047480583190918,15.762548151830414,15.116877058598508,62.82431064748511,55.26274135807776,9.71794142969884e-05,0.0897949114441871,0,0,0
5226,179890.1688973991,2010-10-17 19:10:54,4382.206342035534,2,16,0.5501165986061096,4.049908638000488,15.767134915022256,15.116877058598508,62.84288095461322,55.26274135807776,3.23295607813634e-05,0.0897949114441871,0,0,0
5227,179920.18421420408,2010-10-17 19:11:24,4412.221658875582,2,16,0.5501165986061096,4.052660942077637,15.771721791944342,15.116877058598508,62.86146363943343,55.26274135807776,9.71794142969884e-05,0.0897949114441871,0,0,0
5228,179950.19932568228,2010-10-17 19:11:54,4442.236770343779,2,16,0.5499359965324402,4.055088996887207,15.776308564792172,15.116877058598508,62.88005792873136,55.26274135807776,3.23295607813634e-05,0.0897949114441871,0,0,0
5229,179980.21452031276,2010-10-17 19:12:24,4472.251964944169,2,16,0.550297200679779,4.058002948760986,15.780895382789543,15.116877058598508,62.89866456571104,55.26274135807776,9.70840483205393e-05,0.0897949114441871,0,0,0
5230,180010.2298888767,2010-10-17 19:12:54,4502.267333538202,2,16,0.5501165986061096,4.060593128204346,15.785482279797648,15.116877058598508,62.91728392126694,55.26274135807776,3.23295607813634e-05,0.0897949114441871,0,0,0
5231,180040.24496373365,2010-10-17 19:13:24,4532.282408365079,2,16,0.5501165986061096,4.063183307647705,15.790069012663182,15.116877058598508,62.935914531254376,55.26274135807776,6.47544875391759e-05,0.0897949114441871,0,0,0
5232,180070.26019890516,2010-10-17 19:13:55,4562.297643566659,2,16,0.5501165986061096,4.0659356117248535,15.794655771733606,15.116877058598508,62.95455782438906,55.26274135807776,6.47544875391759e-05,0.0897949114441871,0,0,0
5233,180100.27540025237,2010-10-17 19:14:25,4592.312844878775,2,16,0.550297200679779,4.068849563598633,15.79924252431714,15.116877058598508,62.97321359949724,55.26274135807776,9.71794142969884e-05,0.0897949114441871,0,0,0
5234,180130.29061483755,2010-10-17 19:14:55,4622.328059499059,2,16,0.5501165986061096,4.071277618408203,15.80382930685606,15.116877058598508,62.99188219897543,55.26274135807776,3.23295607813634e-05,0.0897949114441871,0,0,0
5235,180160.30604576692,2010-10-17 19:15:25,4652.343490418428,2,16,0.5501165986061096,4.074353694915772,15.808416120279183,15.116877058598508,63.01056375611978,55.26274135807776,9.71794142969884e-05,0.0897949114441871,0,0,0
5236,180190.32106984736,2010-10-17 19:15:55,4682.35851456399,2,16,0.5499359965324402,4.077105522155762,15.813002830688449,15.116877058598508,63.029257889446974,55.26274135807776,6.47544875391759e-05,0.0897949114441871,0,0,0
5237,180220.3362949137,2010-10-17 19:16:25,4712.373739570159,2,16,0.5499359965324402,4.080019474029541,15.817589574558808,15.116877058598508,63.04796525506075,55.26274135807776,6.47544875391759e-05,0.0897949114441871,0,0,0
5238,180250.3514909727,2010-10-17 19:16:55,4742.388935609134,2,16,0.5501165986061096,4.08293342590332,15.822176315029754,15.116877058598508,63.06668576682541,55.26274135807776,6.47544875391759e-05,0.0897949114441871,0,0,0
5239,180280.3667054877,2010-10-17 19:17:25,4772.404150154231,2,16,0.5501165986061096,4.085685729980469,15.826763052940386,15.116877058598508,63.085419615725066,55.26274135807776,3.24249267578125e-05,0.0897949114441871,0,0,0
5240,180310.38194107023,2010-10-17 19:17:55,4802.419385731747,2,16,0.5501165986061096,4.088761329650879,15.831349797765071,15.116877058598508,63.10416691102255,55.26274135807776,9.70840483205393e-05,0.0897949114441871,0,0,0
5241,180340.3971664323,2010-10-17 19:18:25,4832.434611093803,2,16,0.5501165986061096,4.091675281524658,15.835936534936325,15.116877058598508,63.12292772222751,55.26274135807776,6.47544875391759e-05,0.0897949114441871,0,0,0
5242,180370.4123698747,2010-10-17 19:18:55,4862.449814526204,2,16,0.5501165986061096,4.094751358032227,15.840523323354514,15.116877058598508,63.14170237082092,55.26274135807776,6.47544875391759e-05,0.0897949114441871,0,0,0
5243,180400.42758315167,2010-10-17 19:19:25,4892.465027783091,2,16,0.5501165986061096,4.097826957702637,15.845110071384482,15.116877058598508,63.16049065335978,55.26274135807776,9.70840483205393e-05,0.0897949114441871,0,0,0
5244,180430.44284743577,2010-10-17 19:19:55,4922.480292097227,2,16,0.5499359965324402,4.100740909576416,15.849696819415689,15.116877058598508,63.17929280430873,55.26274135807776,9.70840483205393e-05,0.0897949114441871,0,0,0
5245,180460.4580189636,2010-10-17 19:20:25,4952.495463585012,2,16,0.5501165986061096,4.103816986083984,15.854283611163554,15.116877058598508,63.19810904957883,55.26274135807776,9.71794142969884e-05,0.0897949114441871,0,0,0
5246,180490.4732605361,2010-10-17 19:20:55,4982.510705202581,2,16,0.550297200679779,4.107054710388184,15.85887040382982,15.116877058598508,63.21693947362286,55.26274135807776,9.71794142969884e-05,0.0897949114441871,0,0,0
5247,180520.48845411887,2010-10-17 19:21:25,5012.525898750347,2,16,0.5501165986061096,4.109968662261963,15.86345715590914,15.116877058598508,63.23578395296344,55.26274135807776,6.47544875391759e-05,0.0897949114441871,0,0,0
5248,180550.5036924533,2010-10-17 19:21:55,5042.541137134859,2,16,0.5501165986061096,4.113206386566162,15.868043943263318,15.116877058598508,63.254643001911504,55.26274135807776,9.71794142969884e-05,0.0897949114441871,0,0,0
5249,180580.5188912291,2010-10-17 19:22:25,5072.556335865542,2,16,0.550297200679779,4.116443634033203,15.87263063794512,15.116877058598508,63.27351618167696,55.26274135807776,9.70840483205393e-05,0.0897949114441871,0,0,0
5250,180610.5341143656,2010-10-17 19:22:55,5102.571558997039,2,16,0.5504778623580933,4.119681358337402,15.877217401986744,15.116877058598508,63.29240427021987,55.26274135807776,6.47544875391759e-05,0.0897949114441871,0,0,0
5251,180640.55027879807,2010-10-17 19:23:25,5132.587723630048,2,16,0.550297200679779,4.122919082641602,15.881804320923482,15.116877058598508,63.31130770919516,55.26274135807776,0.0001295089750783,0.0897949114441871,0,0,0
5252,180670.55185189453,2010-10-17 19:23:55,5162.589296676332,2,16,0.5499359965324402,4.12599515914917,15.886389041057273,15.116877058598508,63.33021672164411,55.26274135807776,9.71794142969884e-05,0.0897949114441871,0,0,0
5253,180700.5641741361,2010-10-17 19:24:25,5192.601618882831,2,16,0.5501165986061096,4.129232883453369,15.890975283216058,15.116877058598508,63.349146891949616,55.26274135807776,6.47544875391759e-05,0.0897949114441871,0,0,0
5254,180730.57936273652,2010-10-17 19:24:55,5222.616807362966,2,16,0.5501165986061096,4.132470607757568,15.895562028957553,15.116877058598508,63.368094170891645,55.26274135807776,6.47544875391759e-05,0.0897949114441871,0,0,0
5255,180760.59465127104,2010-10-17 19:25:25,5252.632096042829,2,16,0.5501165986061096,4.135869979858398,15.900148848256592,15.116877058598508,63.38705685098192,55.26274135807776,9.70840483205393e-05,0.0897949114441871,0,0,0
5256,180790.6098318966,2010-10-17 19:25:55,5282.647276583176,2,16,0.5501165986061096,4.139269828796387,15.904735649373391,15.116877058598508,63.40603478052339,55.26274135807776,9.71794142969884e-05,0.0897949114441871,0,0,0
5257,180820.6250587875,2010-10-17 19:26:25,5312.662503639455,2,16,0.5501165986061096,4.142507553100586,15.909322341939625,15.116877058598508,63.425027731967525,55.26274135807776,9.71794142969884e-05,0.0897949114441871,0,0,0
5258,180850.64024594933,2010-10-17 19:26:55,5342.677690580756,2,16,0.5499359965324402,4.146069049835205,15.9139091124905,15.116877058598508,63.44403674233116,55.26274135807776,9.71794142969884e-05,0.0897949114441871,0,0,0
5259,180880.6554562789,2010-10-17 19:27:25,5372.692900935409,2,16,0.5501165986061096,4.149468421936035,15.918495884125942,15.116877058598508,63.46306168017848,55.26274135807776,0.0001295089750783,0.0897949114441871,0,0,0
5260,180910.6708072741,2010-10-17 19:27:55,5402.708251910531,2,16,0.5501165986061096,4.153029918670654,15.923082617864257,15.116877058598508,63.48210217165826,55.26274135807776,0.0001295089750783,0.0897949114441871,0,0,0
5261,180940.68586603596,2010-10-17 19:28:25,5432.723310707455,2,16,0.5501165986061096,4.1562676429748535,15.927669345170669,15.116877058598508,63.50115840603554,55.26274135807776,6.47544875391759e-05,0.0897949114441871,0,0,0
5262,180970.70123240945,2010-10-17 19:28:55,5462.738677075943,2,16,0.5501165986061096,4.159829139709473,15.932256097417616,15.116877058598508,63.52023062309358,55.26274135807776,6.47544875391759e-05,0.0897949114441871,0,0,0
5263,181000.7163456872,2010-10-17 19:29:25,5492.753790368688,2,16,0.5501165986061096,4.163390636444092,15.936842805826872,15.116877058598508,63.53931877606173,55.26274135807776,6.47544875391759e-05,0.0897949114441871,0,0,0
5264,181030.7316735647,2010-10-17 19:29:55,5522.769118201132,2,16,0.550297200679779,4.166952133178711,15.941429554128293,15.116877058598508,63.55842330146543,55.26274135807776,9.70840483205393e-05,0.0897949114441871,0,0,0
5265,181060.74673172,2010-10-17 19:30:25,5552.784176376507,2,16,0.550297200679779,4.17051362991333,15.94601624252546,15.116877058598508,63.57754399278876,55.26274135807776,9.70840483205393e-05,0.0897949114441871,0,0,0
5266,181090.76211619863,2010-10-17 19:30:55,5582.799560840093,2,16,0.550297200679779,4.174237251281738,15.950603013689888,15.116877058598508,63.59668152135028,55.26274135807776,9.71794142969884e-05,0.0897949114441871,0,0,0
5267,181120.7773715705,2010-10-17 19:31:25,5612.814816231994,2,16,0.5501165986061096,4.177798748016357,15.955189764471328,15.116877058598508,63.61583549790635,55.26274135807776,9.71794142969884e-05,0.0897949114441871,0,0,0
5268,181150.7927874073,2010-10-17 19:31:55,5642.830232058746,2,16,0.550297200679779,4.181521892547607,15.959776554251468,15.116877058598508,63.63500636371835,55.26274135807776,9.70840483205393e-05,0.0897949114441871,0,0,0
5269,181180.8079325093,2010-10-17 19:32:25,5672.845377230945,2,16,0.5501165986061096,4.185083389282227,15.964363324991838,15.116877058598508,63.65419394627444,55.26274135807776,6.47544875391759e-05,0.0897949114441871,0,0,0
5270,181210.8229106101,2010-10-17 19:32:55,5702.860355356813,2,16,0.550297200679779,4.188968658447266,15.968950020141897,15.116877058598508,63.673398043911966,55.26274135807776,0.0001295089750783,0.0897949114441871,0,0,0
5271,181240.83810076944,2010-10-17 19:33:25,5732.875545425908,2,16,0.5501165986061096,4.192368507385254,15.973536768581075,15.116877058598508,63.69261944259272,55.26274135807776,6.47544875391759e-05,0.0897949114441871,0,0,0
5272,181270.8533110539,2010-10-17 19:33:55,5762.890755700361,2,16,0.5501165986061096,4.196415424346924,15.978123534773,15.116877058598508,63.71185803248324,55.26274135807776,0.0001295089750783,0.0897949114441871,0,0,0
5273,181300.5560884194,2010-10-17 19:34:25,5792.593533166122,2,16,0.550297200679779,4.200138568878174,15.982662555860252,15.116877058598508,63.73091323980394,55.26274135807776,0.0001618385285837,0.0897949114441871,0,0,0
5274,181330.57350425253,2010-10-17 19:34:55,30.01521965282705,3,16,0.0,4.1190338134765625,15.982662555860252,15.116877058598508,63.73091323980394,55.26274135807776,-0.0003885269106831,0.0897949114441871,0,0,0
5275,181360.58858419213,2010-10-17 19:35:25,60.03029958743329,3,16,0.0,4.108997344970703,15.982662555860252,15.116877058598508,63.73091323980394,55.26274135807776,-0.0002265930233988,0.0897949114441871,0,0,0
5276,181390.60392866607,2010-10-17 19:35:55,90.04564407639037,3,16,0.0,4.1031694412231445,15.982662555860252,15.116877058598508,63.73091323980394,55.26274135807776,-0.0001295089750783,0.0897949114441871,0,0,0
5277,181420.57217075635,2010-10-17 19:36:25,120.01388617670194,3,16,0.0,4.099445819854736,15.982662555860252,15.116877058598508,63.73091323980394,55.26274135807776,-6.47544875391759e-05,0.0897949114441871,0,0,0
5278,181420.57603337645,2010-10-17 19:36:25,2.736821e-06,4,16,0.998208224773407,4.199976921081543,15.98266255661912,15.116877058598508,63.73091324299116,55.26274135807776,0.0,0.0897949114441871,0,0,0
5279,181421.38865365123,2010-10-17 19:36:26,0.812623016595207,4,16,0.9474570155143738,4.199491024017334,15.982880622901387,15.116877058598508,63.7318290460963,55.26274135807776,-9.71794142969884e-05,0.0897949114441871,0,0,0
5280,181423.40413492068,2010-10-17 19:36:28,2.828104316141769,4,16,0.8970670104026794,4.199653148651123,15.983395992505235,15.116877058598508,63.733993427293576,55.26274135807776,-6.47544875391759e-05,0.0897949114441871,0,0,0
5281,181426.48219712373,2010-10-17 19:36:31,5.906166524260465,4,16,0.8468576669692993,4.199653148651123,15.984140403406522,15.116877058598508,63.73711970755744,55.26274135807776,-3.23295607813634e-05,0.0897949114441871,0,0,0
5282,181430.70089063107,2010-10-17 19:36:35,10.1248599964527,4,16,0.7968288660049438,4.199653148651123,15.985102006412262,15.116877058598508,63.74115812383593,55.26274135807776,0.0,0.0897949114441871,0,0,0
5283,181436.18523170156,2010-10-17 19:36:41,15.609201122027208,4,16,0.7468001246452332,4.199814796447754,15.986275939883065,15.116877058598508,63.74608828521804,55.26274135807776,3.23295607813634e-05,0.0897949114441871,0,0,0
5284,181443.24759571065,2010-10-17 19:36:48,22.67156507603566,4,16,0.6967713236808777,4.199814796447754,15.98768959329302,15.116877058598508,63.7520251923872,55.26274135807776,0.0,0.0897949114441871,0,0,0
5285,181452.5912585785,2010-10-17 19:36:57,32.01522796893797,4,16,0.646742582321167,4.199814796447754,15.989430082248717,15.116877058598508,63.75933472267221,55.26274135807776,3.23295607813634e-05,0.0897949114441871,0,0,0
5286,181465.5289845224,2010-10-17 19:37:10,44.95295390280391,4,16,0.5967137813568115,4.199653148651123,15.991659593877976,15.116877058598508,63.768698021247936,55.26274135807776,3.24249267578125e-05,0.0897949114441871,0,0,0
5287,181484.5909364368,2010-10-17 19:37:29,64.01490580716555,4,16,0.5465044379234314,4.199653148651123,15.994678092819017,15.116877058598508,63.78137482207438,55.26274135807776,0.0,0.0897949114441871,0,0,0
5288,181516.46550198167,2010-10-17 19:38:01,95.8894713871495,4,16,0.4964756667613983,4.199653148651123,15.999277691449183,15.116877058598508,63.80069176343581,55.26274135807776,0.0,0.0897949114441871,0,0,0
5289,181572.58972725505,2010-10-17 19:38:57,152.01369678082295,4,16,0.4464468955993652,4.199653148651123,16.006596613528316,15.116877058598508,63.831429049918455,55.26274135807776,0.0,0.0897949114441871,0,0,0
5290,181660.94779511724,2010-10-17 19:40:25,240.37176451270852,4,16,0.3964181244373321,4.199653148651123,16.016914652065736,15.116877058598508,63.87476174857839,55.26274135807776,0.0,0.0897949114441871,0,0,0
5291,181774.8682297929,2010-10-17 19:42:19,354.29219917332426,4,16,0.3463893532752991,4.199653148651123,16.028646243690243,15.116877058598508,63.92403095354224,55.26274135807776,-3.23295607813634e-05,0.0897949114441871,0,0,0
5292,181910.1631533416,2010-10-17 19:44:35,489.5871227320399,4,16,0.296360582113266,4.199491024017334,16.040704079813306,15.116877058598508,63.97467036818641,55.26274135807776,-6.47544875391759e-05,0.0897949114441871,0,0,0
5293,182072.62973744396,2010-10-17 19:47:17,652.0537068293285,4,16,0.2463318109512329,4.199653148651123,16.052924153950578,15.116877058598508,64.02599107603967,55.26274135807776,0.0,0.0897949114441871,0,0,0
5294,182272.3145212366,2010-10-17 19:50:37,851.7384906220118,4,16,0.1963030397891998,4.199491024017334,16.065164342305014,15.116877058598508,64.07739615065555,55.26274135807776,-6.47544875391759e-05,0.0897949114441871,0,0,0
5295,182536.85782698749,2010-10-17 19:55:01,1116.2817963528332,4,16,0.1462742686271667,4.199653148651123,16.077690582870243,15.116877058598508,64.13000260767416,55.26274135807776,0.0,0.0897949114441871,0,0,0
5296,182932.0243415815,2010-10-17 20:01:37,1511.4483109468986,4,16,0.0962455049157142,4.199653148651123,16.090828440792123,15.116877058598508,64.18517765423658,55.26274135807776,0.0,0.0897949114441871,0,0,0
5297,183602.01531753468,2010-10-17 20:12:47,2181.439286930118,4,16,0.0498289167881011,4.199653148651123,16.103962084878592,15.116877058598508,64.240335069585,55.26274135807776,0.0,0.0897949114441871,0,0,0
5298,183632.0326174466,2010-10-17 20:13:17,30.01521121178938,5,16,0.0,4.192206382751465,16.103962084878592,15.116877058598508,64.240335069585,55.26274135807776,-3.24249267578125e-05,0.0897949114441871,0,0,0
5299,183662.03219705465,2010-10-17 20:13:47,60.01479082482495,5,16,0.0,4.190911293029785,16.103962084878592,15.116877058598508,64.240335069585,55.26274135807776,-6.47544875391759e-05,0.0897949114441871,0,0,0
5300,183662.22269756472,2010-10-17 20:13:47,0.187591646102594,6,16,-1.9243103452026844e-05,4.191073417663574,16.103962084878592,15.116877059601242,64.240335069585,55.262741362280295,0.0,0.0923051163554191,0,0,0
5301,183667.0506467947,2010-10-17 20:13:52,5.015540891144082,6,16,0.0007031940040178,4.191073417663574,16.103962891839977,15.11687705976892,64.24033845164786,55.26274136298304,-3.23295607813634e-05,0.0923051163554191,0,0,0
5302,183697.06870676627,2010-10-17 20:14:22,30.015098325441876,7,16,-1.099568486213684,4.023845195770264,16.103962891839977,15.126046204026874,64.24033845164786,55.299823727299874,-0.0008418083307333,0.0923051163554191,0,0,0
5303,183727.08390450457,2010-10-17 20:14:52,60.03029605362596,7,16,-1.0997490882873535,3.9984290599823,16.103962891839977,15.135215270855523,64.24033845164786,55.33659347636171,-0.0005504131549969,0.0923051163554191,0,0,0
5304,183757.09911495945,2010-10-17 20:15:22,90.04550650852896,7,16,-1.0997490882873535,3.981269359588623,16.103962891839977,15.144384337478222,64.24033845164786,55.373172981075065,-0.0003885269106831,0.0923051163554191,0,0,0
5305,183787.11445651608,2010-10-17 20:15:52,120.06084807019032,7,16,-1.0997490882873535,3.9676709175109854,16.103962891839977,15.153553278208696,64.24033845164786,55.40961193934786,-0.0003237724304199,0.0923051163554191,0,0,0
5306,183817.12969977772,2010-10-17 20:16:22,150.07609137697028,7,16,-1.0993878841400146,3.956176996231079,16.103962891839977,15.162722209160076,64.24033845164786,55.44593667988573,-0.0002590179501567,0.0923051163554191,0,0,0
5307,183847.1447681235,2010-10-17 20:16:52,180.09115967256855,7,16,-1.0997490882873535,3.9458162784576416,16.103962891839977,15.17189121191733,64.24033845164786,55.48216207894608,-0.0002590179501567,0.0923051163554191,0,0,0
5308,183877.15999379128,2010-10-17 20:17:22,210.10638543562416,7,16,-1.1001102924346924,3.935941219329834,16.103962891839977,15.181060202795251,64.24033845164786,55.51829657325986,-0.0002913951757363,0.0923051163554191,0,0,0
5309,183907.1754593921,2010-10-17 20:17:52,240.1218510013418,7,16,-1.0997490882873535,3.926875591278076,16.103962891839977,15.190229300227156,64.24033845164786,55.5543457853378,-0.0002590179501567,0.0923051163554191,0,0,0
5310,183937.19076752043,2010-10-17 20:18:22,270.1371591948394,7,16,-1.0997490882873535,3.918295621871948,16.103962891839977,15.199398374718008,64.24033845164786,55.590313262945216,-0.0002590179501567,0.0923051163554191,0,0,0
5311,183967.20597895776,2010-10-17 20:18:52,300.1523705770536,7,16,-1.0997490882873535,3.9100396633148193,16.103962891839977,15.208567346261232,64.24033845164786,55.62620174292432,-0.0001942634553415,0.0923051163554191,0,0,0
5312,183997.2208686883,2010-10-17 20:19:22,330.1672602424504,7,16,-1.0997490882873535,3.901621580123901,16.103962891839977,15.217736285515,64.24033845164786,55.66201320513074,-0.0002266406954731,0.0923051163554191,0,0,0
5313,184027.236213458,2010-10-17 20:19:52,360.1826050321571,7,16,-1.099568486213684,3.8935272693634033,16.103962891839977,15.226905374599877,64.24033845164786,55.6977497005341,-0.0001618862152099,0.0923051163554191,0,0,0
5314,184057.2513195127,2010-10-17 20:20:22,390.1977110618001,7,16,-1.099929690361023,3.8852710723876953,16.103962891839977,15.236074436525184,64.24033845164786,55.73341150600517,-0.0002266406954731,0.0923051163554191,0,0,0
5315,184087.26653358163,2010-10-17 20:20:52,420.21292513572286,7,16,-1.099568486213684,3.8773386478424072,16.103962891839977,15.245243501820752,64.24033845164786,55.768999630884736,-0.0002266406954731,0.0923051163554191,0,0,0
5316,184117.28177306388,2010-10-17 20:21:22,450.2281646330084,7,16,-1.099568486213684,3.869568109512329,16.103962891839977,15.254412564130115,64.24033845164786,55.804515594987926,-0.0001942634553415,0.0923051163554191,0,0,0
5317,184147.2969957292,2010-10-17 20:21:52,480.2433873284186,7,16,-1.099568486213684,3.861959457397461,16.103962891839977,15.263581693100724,64.24033845164786,55.839960489385945,-0.0001942634553415,0.0923051163554191,0,0,0
5318,184177.31221210383,2010-10-17 20:22:22,510.25860365295046,7,16,-1.099568486213684,3.8543508052825928,16.103962891839977,15.272750776145532,64.24033845164786,55.875335165815606,-0.0001942634553415,0.0923051163554191,0,0,0
5319,184207.32740495488,2010-10-17 20:22:52,540.2737965290416,7,16,-1.0997490882873535,3.846580266952514,16.103962891839977,15.2819198459533,64.24033845164786,55.91064051326775,-0.0002590179501567,0.0923051163554191,0,0,0
5320,184237.34263611137,2010-10-17 20:23:22,570.2890276905518,7,16,-1.0993878841400146,3.8396191596984863,16.103962891839977,15.291088980205965,64.24033845164786,55.94587851076222,-0.0001295089750783,0.0923051163554191,0,0,0
5321,184267.3578432179,2010-10-17 20:23:52,600.3042347670348,7,16,-1.0997490882873535,3.832334518432617,16.103962891839977,15.30025802367761,64.24033845164786,55.981049478792606,-0.0001618862152099,0.0923051163554191,0,0,0
5322,184297.373097863,2010-10-17 20:24:22,630.3194895022981,7,16,-1.0997490882873535,3.824887752532959,16.103962891839977,15.309427100611902,64.24033845164786,56.0161543320155,-0.0001942634553415,0.0923051163554191,0,0,0
5323,184327.38831137048,2010-10-17 20:24:52,660.3347029797341,7,16,-1.099568486213684,3.8180885314941406,16.103962891839977,15.31859627213232,64.24033845164786,56.05119470309416,-0.0001942634553415,0.0923051163554191,0,0,0
5324,184357.40350482805,2010-10-17 20:25:22,690.3498964122119,7,16,-1.099568486213684,3.811127424240112,16.103962891839977,15.327765398737036,64.24033845164786,56.086171140288045,-0.0001618862152099,0.0923051163554191,0,0,0
5325,184387.41884937213,2010-10-17 20:25:52,720.365240921219,7,16,-1.0997490882873535,3.804166316986084,16.103962891839977,15.336934499441565,64.24033845164786,56.121083920411074,-0.0001942634553415,0.0923051163554191,0,0,0
5326,184417.43393481543,2010-10-17 20:26:22,750.3803263946297,7,16,-1.099929690361023,3.7976908683776855,16.103962891839977,15.34610351983486,64.24033845164786,56.155935039441694,-0.0001942634553415,0.0923051163554191,0,0,0
5327,184447.4491416012,2010-10-17 20:26:52,780.3955331503131,7,16,-1.0997490882873535,3.791215419769287,16.103962891839977,15.355272597700097,64.24033845164786,56.190726258881234,-0.0001618862152099,0.0923051163554191,0,0,0
5328,184477.46436176036,2010-10-17 20:27:22,810.4107533244394,7,16,-1.0997490882873535,3.7847399711608887,16.103962891839977,15.364442123056495,64.24033845164786,56.22546014363232,-0.0001618862152099,0.0923051163554191,0,0,0
5329,184507.47970966776,2010-10-17 20:27:52,840.4261012820415,7,16,-1.0997490882873535,3.77858829498291,16.103962891839977,15.37361208879646,64.24033845164786,56.260137549533056,-0.0001618862152099,0.0923051163554191,0,0,0
5330,184537.49485690516,2010-10-17 20:28:22,870.4412484742743,7,16,-1.0997490882873535,3.772436618804932,16.103962891839977,15.382781853550444,64.24033845164786,56.29475776448377,-0.0001618862152099,0.0923051163554191,0,0,0
5331,184567.51004265345,2010-10-17 20:28:52,900.456434212576,7,16,-1.0997490882873535,3.766446828842163,16.103962891839977,15.3919517577045,64.24033845164786,56.329323114267176,-0.0001295089750783,0.0923051163554191,0,0,0
5332,184597.52538848075,2010-10-17 20:29:22,930.4717800699436,7,16,-1.0997490882873535,3.760618925094605,16.103962891839977,15.401121734361622,64.24033845164786,56.363834612705325,-0.0001295089750783,0.0923051163554191,0,0,0
5333,184627.54061475507,2010-10-17 20:29:52,960.4870063242232,7,16,-1.099929690361023,3.754791021347046,16.103962891839977,15.410291671387489,64.24033845164786,56.39829251968748,-0.0001618862152099,0.0923051163554191,0,0,0
5334,184657.5557390252,2010-10-17 20:30:22,990.5021305893148,7,16,-1.0997490882873535,3.7492871284484863,16.103962891839977,15.419461375650975,64.24033845164786,56.432697270196,-0.0001295089750783,0.0923051163554191,0,0,0
5335,184687.57092267327,2010-10-17 20:30:52,1020.517314277507,7,16,-1.0997490882873535,3.7436211109161377,16.103962891839977,15.42863046684058,64.24033845164786,56.46704844426794,-0.0001618862152099,0.0923051163554191,0,0,0
5336,184717.58614993005,2010-10-17 20:31:22,1050.5325415192478,7,16,-1.0997490882873535,3.737955093383789,16.103962891839977,15.43779958899182,64.24033845164786,56.50134910813279,-0.0002266406954731,0.0923051163554191,0,0,0
5337,184747.6013669463,2010-10-17 20:31:52,1080.547758495404,7,16,-1.099568486213684,3.73293662071228,16.103962891839977,15.44696868219415,64.24033845164786,56.53560051610141,-9.713172767078504e-05,0.0923051163554191,0,0,0
5338,184777.6165941129,2010-10-17 20:32:23,1110.56298566697,7,16,-1.099568486213684,3.7277562618255615,16.103962891839977,15.456137702832066,64.24033845164786,56.56980328403692,-0.0001295089750783,0.0923051163554191,0,0,0
5339,184807.6319230932,2010-10-17 20:32:53,1140.5783146773497,7,16,-1.099929690361023,3.722414016723633,16.103962891839977,15.465306698962891,64.24033845164786,56.603958581472135,-0.0001618862152099,0.0923051163554191,0,0,0
5340,184837.6471421796,2010-10-17 20:33:23,1170.5935337637652,7,16,-1.0997490882873535,3.717395544052124,16.103962891839977,15.474475709933913,64.24033845164786,56.63806669489279,-0.0001295089750783,0.0923051163554191,0,0,0
5341,184867.6624082932,2010-10-17 20:33:53,1200.6087998473115,7,16,-1.099568486213684,3.712215185165405,16.103962891839977,15.483644863696767,64.24033845164786,56.672128717812654,-0.0001295089750783,0.0923051163554191,0,0,0
5342,184897.6775042628,2010-10-17 20:34:23,1230.623895856982,7,16,-1.0997490882873535,3.7073585987091056,16.103962891839977,15.492813958587826,64.24033845164786,56.70614451158828,-0.0001295089750783,0.0923051163554191,0,0,0
5343,184927.69271167007,2010-10-17 20:34:53,1260.6391032442395,7,16,-1.099568486213684,3.702502012252808,16.103962891839977,15.501983068643469,64.24033845164786,56.74011529040322,-0.0001295089750783,0.0923051163554191,0,0,0
5344,184957.707918917,2010-10-17 20:35:23,1290.6543104761097,7,16,-1.099568486213684,3.697645425796509,16.103962891839977,15.511152196592883,64.24033845164786,56.77404144229846,-9.713172767078504e-05,0.0923051163554191,0,0,0
5345,184987.723129818,2010-10-17 20:35:53,1320.669521392162,7,16,-1.0997490882873535,3.69295072555542,16.103962891839977,15.520321270908797,64.24033845164786,56.80792381704551,-9.713172767078504e-05,0.0923051163554191,0,0,0
5346,185017.7384424275,2010-10-17 20:36:23,1350.684834036753,7,16,-1.0997490882873535,3.688094139099121,16.103962891839977,15.529490443740698,64.24033845164786,56.84176315892006,-0.0001295089750783,0.0923051163554191,0,0,0
5347,185047.7535723517,2010-10-17 20:36:53,1380.699963930874,7,16,-1.0997490882873535,3.683723211288452,16.103962891839977,15.538659475092262,64.24033845164786,56.87555903127324,-9.713172767078504e-05,0.0923051163554191,0,0,0
5348,185077.76879036543,2010-10-17 20:37:23,1410.7151819797032,7,16,-1.099568486213684,3.6790285110473633,16.103962891839977,15.54782860405038,64.24033845164786,56.9093132218631,-0.0001295089750783,0.0923051163554191,0,0,0
5349,185107.78403060453,2010-10-17 20:37:53,1440.7304221536751,7,16,-1.0997490882873535,3.6746575832366943,16.103962891839977,15.556997772994492,64.24033845164786,56.94302618650932,-9.713172767078504e-05,0.0923051163554191,0,0,0
5350,185137.79926160068,2010-10-17 20:38:23,1470.7456531597984,7,16,-1.0997490882873535,3.6701250076293945,16.103962891839977,15.566166939264766,64.24033845164786,56.97669838946763,-0.0001295089750783,0.0923051163554191,0,0,0
5351,185167.8144686571,2010-10-17 20:38:53,1500.7608603515685,7,16,-1.099929690361023,3.665592193603516,16.103962891839977,15.575336108061862,64.24033845164786,57.01033037610365,-0.0001618862152099,0.0923051163554191,0,0,0
5352,185197.829687528,2010-10-17 20:39:23,1530.7760791071594,7,16,-1.099568486213684,3.661706924438477,16.103962891839977,15.584505230621197,64.24033845164786,57.04392274183324,-3.237724376958795e-05,0.0923051163554191,0,0,0
5353,185227.84489127612,2010-10-17 20:39:53,1560.791282945572,7,16,-1.099929690361023,3.6571741104125977,16.103962891839977,15.593674501551044,64.24033845164786,57.07747651829414,-0.0001295089750783,0.0923051163554191,0,0,0
5354,185257.8601255705,2010-10-17 20:40:23,1590.8065171546775,7,16,-1.0997490882873535,3.653288841247559,16.103962891839977,15.602843667596558,64.24033845164786,57.11099160103998,-3.237724376958795e-05,0.0923051163554191,0,0,0
5355,185287.8753225869,2010-10-17 20:40:53,1620.8217141660757,7,16,-1.0997490882873535,3.6490797996521,16.103962891839977,15.612012860345448,64.24033845164786,57.1444692770989,-9.713172767078504e-05,0.0923051163554191,0,0,0
5356,185317.89054449537,2010-10-17 20:41:23,1650.8369360444492,7,16,-1.099568486213684,3.645194530487061,16.103962891839977,15.621181920928112,64.24033845164786,57.17790917737664,-6.47544875391759e-05,0.0923051163554191,0,0,0
5357,185347.90848880383,2010-10-17 20:41:53,1680.8548803679942,7,16,-1.0997490882873535,3.641147375106812,16.103962891839977,15.63035184315202,64.24033845164786,57.211315887022806,-9.713172767078504e-05,0.0923051163554191,0,0,0
5358,185377.9208570752,2010-10-17 20:42:23,1710.867248629276,7,16,-1.099568486213684,3.6374239921569824,16.103962891839977,15.639520079503807,64.24033845164786,57.24468110471309,-6.47544875391759e-05,0.0923051163554191,0,0,0
5359,185407.93603619697,2010-10-17 20:42:53,1740.8824278312873,7,16,-1.099568486213684,3.633538722991944,16.103962891839977,15.648689210418295,64.24033845164786,57.27801483645186,-0.0001295089750783,0.0923051163554191,0,0,0
5360,185437.9512717695,2010-10-17 20:43:23,1770.8976641556649,7,16,-1.099929690361023,3.629977226257324,16.103962891839977,15.657858312888871,64.24033845164786,57.31131453655568,-0.0001295089750783,0.0923051163554191,0,0,0
5361,185467.96658899548,2010-10-17 20:43:53,1800.9129805546131,7,16,-1.099568486213684,3.626415729522705,16.103962891839977,15.667027488405736,64.24033845164786,57.34458115097864,-9.713172767078504e-05,0.0923051163554191,0,0,0
5362,185497.9816959274,2010-10-17 20:44:23,1830.9280874814924,7,16,-1.0997490882873535,3.622854232788086,16.103962891839977,15.6761965156419,64.24033845164786,57.377814728755176,-9.713172767078504e-05,0.0923051163554191,0,0,0
5363,185527.9969379409,2010-10-17 20:44:53,1860.943329545174,7,16,-1.0997490882873535,3.6194546222686768,16.103962891839977,15.68536561363233,64.24033845164786,57.41101689136568,-6.47544875391759e-05,0.0923051163554191,0,0,0
5364,185558.0121326165,2010-10-17 20:45:23,1890.9585241756376,7,16,-1.0997490882873535,3.6158931255340576,16.103962891839977,15.694534733373558,64.24033845164786,57.44418844699479,-0.0001295089750783,0.0923051163554191,0,0,0
5365,185588.02749899004,2010-10-17 20:45:53,1920.973890539113,7,16,-1.0997490882873535,3.6129791736602783,16.103962891839977,15.703703881915564,64.24033845164786,57.47733009429895,-6.47544875391759e-05,0.0923051163554191,0,0,0
5366,185618.0425836163,2010-10-17 20:46:23,1950.9889752255624,7,16,-1.0997490882873535,3.609741449356079,16.103962891839977,15.712873030176777,64.24033845164786,57.51044243396735,-3.237724376958795e-05,0.0923051163554191,0,0,0
5367,185648.05778753493,2010-10-17 20:46:53,1981.0041791341496,7,16,-1.099929690361023,3.60666561126709,16.103962891839977,15.722042193735406,64.24033845164786,57.54352631572279,-6.47544875391759e-05,0.0923051163554191,0,0,0
5368,185678.07300553864,2010-10-17 20:47:23,2011.0193971027795,7,16,-1.0997490882873535,3.60342788696289,16.103962891839977,15.73121133691772,64.24033845164786,57.57658193569257,-9.713172767078504e-05,0.0923051163554191,0,0,0
5369,185708.08822670023,2010-10-17 20:47:53,2041.034618279404,7,16,-1.099929690361023,3.6005139350891118,16.103962891839977,15.740380523763672,64.24033845164786,57.60961007442206,-9.713172767078504e-05,0.0923051163554191,0,0,0
5370,185738.10346361608,2010-10-17 20:48:23,2071.049855195256,7,16,-1.0997490882873535,3.597599983215332,16.103962891839977,15.749549706302048,64.24033845164786,57.64261090561342,-9.713172767078504e-05,0.0923051163554191,0,0,0
5371,185768.11866497836,2010-10-17 20:48:53,2101.065056557497,7,16,-1.0997490882873535,3.5948479175567627,16.103962891839977,15.758718834053113,64.24033845164786,57.67558466180896,-3.237724376958795e-05,0.0923051163554191,0,0,0
5372,185798.1340590709,2010-10-17 20:49:23,2131.0804507152443,7,16,-1.0997490882873535,3.5919342041015625,16.103962891839977,15.767887960013113,64.24033845164786,57.70853207767032,-6.470680091297254e-05,0.0923051163554191,0,0,0
5373,185828.1493377358,2010-10-17 20:49:53,2161.09572932501,7,16,-1.099568486213684,3.589020252227783,16.103962891839977,15.77705719766492,64.24033845164786,57.74145351206985,-6.47544875391759e-05,0.0923051163554191,0,0,0
5374,185858.16472511663,2010-10-17 20:50:23,2191.1111168011043,7,16,-1.099568486213684,3.586268186569214,16.103962891839977,15.786226407705447,64.24033845164786,57.77434859226902,-6.47544875391759e-05,0.0923051163554191,0,0,0
5375,185888.17981064023,2010-10-17 20:50:53,2221.126202199328,7,16,-1.0997490882873535,3.5831923484802246,16.103962891839977,15.79539554914362,64.24033845164786,57.80721717790263,-0.0001295089750783,0.0923051163554191,0,0,0
5376,185918.19479376852,2010-10-17 20:51:23,2251.1411854329253,7,16,-1.0997490882873535,3.5804402828216557,16.103962891839977,15.804564585419174,64.24033845164786,57.84005945089213,-9.713172767078504e-05,0.0923051163554191,0,0,0
5377,185948.2101115409,2010-10-17 20:51:53,2281.156503110059,7,16,-1.099568486213684,3.577688217163086,16.103962891839977,15.813733706083092,64.24033845164786,57.87287580603429,-6.47544875391759e-05,0.0923051163554191,0,0,0
5378,185978.22522706425,2010-10-17 20:52:23,2311.171618643388,7,16,-1.0997490882873535,3.5746123790740967,16.103962891839977,15.822902833980857,64.24033845164786,57.90566558394633,-9.713172767078504e-05,0.0923051163554191,0,0,0
5379,186008.24045216563,2010-10-17 20:52:53,2341.1868437197327,7,16,-1.099568486213684,3.5716984272003174,16.103962891839977,15.832071972113807,64.24033845164786,57.93842876981272,-9.713172767078504e-05,0.0923051163554191,0,0,0
5380,186038.2556601544,2010-10-17 20:53:23,2371.202051743576,7,16,-1.0997490882873535,3.568946361541748,16.103962891839977,15.84124112524395,64.24033845164786,57.97116504932953,-6.47544875391759e-05,0.0923051163554191,0,0,0
5381,186068.27089562663,2010-10-17 20:53:53,2401.217287210818,7,16,-1.0997490882873535,3.565708637237549,16.103962891839977,15.850410304950415,64.24033845164786,58.00387393575551,-9.713172767078504e-05,0.0923051163554191,0,0,0
5382,186098.28624337373,2010-10-17 20:54:23,2431.2326349428577,7,16,-1.0997490882873535,3.56263279914856,16.103962891839977,15.859579475274414,64.24033845164786,58.03655492889588,-0.0001295089750783,0.0923051163554191,0,0,0
5383,186128.3013110227,2010-10-17 20:54:53,2461.2477025768067,7,16,-1.0997490882873535,3.5597188472747803,16.103962891839977,15.868748595575134,64.24033845164786,58.06920799097843,-6.47544875391759e-05,0.0923051163554191,0,0,0
5384,186158.31653617925,2010-10-17 20:55:23,2491.262927733351,7,16,-1.0997490882873535,3.556481122970581,16.103962891839977,15.877917806211872,64.24033845164786,58.10183230989077,-9.713172767078504e-05,0.0923051163554191,0,0,0
5385,186188.33183197185,2010-10-17 20:55:53,2521.278223551004,7,16,-1.0997490882873535,3.553081512451172,16.103962891839977,15.887087000698124,64.24033845164786,58.13442674129612,-9.713172767078504e-05,0.0923051163554191,0,0,0
5386,186218.34700157493,2010-10-17 20:56:23,2551.293393124017,7,16,-1.0997490882873535,3.5496819019317627,16.103962891839977,15.896256141724546,64.24033845164786,58.16699059006158,-9.713172767078504e-05,0.0923051163554191,0,0,0
5387,186248.3621921202,2010-10-17 20:56:53,2581.308583694361,7,16,-1.0997490882873535,3.546282291412353,16.103962891839977,15.905425277803042,64.24033845164786,58.19952293519619,-9.713172767078504e-05,0.0923051163554191,0,0,0
5388,186278.37741506123,2010-10-17 20:57:23,2611.323806640396,7,16,-1.099568486213684,3.5425589084625244,16.103962891839977,15.914594491551258,64.24033845164786,58.2320230399931,-0.0001295089750783,0.0923051163554191,0,0,0
5389,186308.392753856,2010-10-17 20:57:53,2641.3391454050866,7,16,-1.0997490882873535,3.5389974117279053,16.103962891839977,15.923763699542572,64.24033845164786,58.26448968679238,-6.47544875391759e-05,0.0923051163554191,0,0,0
5390,186338.4078750284,2010-10-17 20:58:23,2671.3542665774703,7,16,-1.0997490882873535,3.535274028778076,16.103962891839977,15.932932857515953,64.24033845164786,58.296921217263325,-6.47544875391759e-05,0.0923051163554191,0,0,0
5391,186368.42307588435,2010-10-17 20:58:53,2701.3694674384624,7,16,-1.0997490882873535,3.531064987182617,16.103962891839977,15.942102019446764,64.24033845164786,58.32931665779308,-9.713172767078504e-05,0.0923051163554191,0,0,0
5392,186398.43829773265,2010-10-17 20:59:23,2731.384689286761,7,16,-1.099929690361023,3.526694059371948,16.103962891839977,15.951271228351963,64.24033845164786,58.36167462854523,-0.0001618862152099,0.0923051163554191,0,0,0
5393,186428.4535398364,2010-10-17 20:59:53,2761.3999314506923,7,16,-1.099929690361023,3.5224850177764893,16.103962891839977,15.960440449928942,64.24033845164786,58.39399330398901,-6.47544875391759e-05,0.0923051163554191,0,0,0
5394,186458.4687912384,2010-10-17 21:00:23,2791.4151827924984,7,16,-1.0997490882873535,3.5177903175354004,16.103962891839977,15.96960962571304,64.24033845164786,58.426270339060686,-0.0001295089750783,0.0923051163554191,0,0,0
5395,186488.48396357827,2010-10-17 21:00:53,2821.4303551624816,7,16,-1.0997490882873535,3.5129337310791016,16.103962891839977,15.978778785544256,64.24033845164786,58.45850340145311,-0.0001295089750783,0.0923051163554191,0,0,0
5396,186518.4991948852,2010-10-17 21:01:23,2851.445586554567,7,16,-1.0997490882873535,3.507267951965332,16.103962891839977,15.987947894460502,64.24033845164786,58.49068887833428,-0.0001942634553415,0.0923051163554191,0,0,0
5397,186548.5145263968,2010-10-17 21:01:53,2881.4609179859804,7,16,-1.0997490882873535,3.5016019344329834,16.103962891839977,15.997117116615469,64.24033845164786,58.52282271749484,-0.0001295089750783,0.0923051163554191,0,0,0
5398,186578.5296314841,2010-10-17 21:02:23,2911.476023088312,7,16,-1.0997490882873535,3.494802713394165,16.103962891839977,16.006286285132127,64.24033845164786,58.55489894773372,-0.0002266406954731,0.0923051163554191,0,0,0
5399,186608.54484171345,2010-10-17 21:02:53,2941.4912332675285,7,16,-1.099568486213684,3.487517833709717,16.103962891839977,16.015455531693497,64.24033845164786,58.586910825338926,-0.0001942634553415,0.0923051163554191,0,0,0
5400,186638.5600550455,2010-10-17 21:03:23,2971.5064465996024,7,16,-1.0997490882873535,3.478775978088379,16.103962891839977,16.02462470369639,64.24033845164786,58.61884905216056,-0.0002913951757363,0.0923051163554191,0,0,0
5401,186668.5752583476,2010-10-17 21:03:53,3001.5216499016774,7,16,-1.099568486213684,3.469062805175781,16.103962891839977,16.033793799370603,64.24033845164786,58.65070257544637,-0.0002266406954731,0.0923051163554191,0,0,0
5402,186698.59054602493,2010-10-17 21:04:24,3031.5369375740306,7,16,-1.0997490882873535,3.457406997680664,16.103962891839977,16.042963003742248,64.24033845164786,58.68245834548681,-0.0002913951757363,0.0923051163554191,0,0,0
5403,186728.6057458283,2010-10-17 21:04:54,3061.5521373823995,7,16,-1.0997490882873535,3.443322896957397,16.103962891839977,16.05213212680848,64.24033845164786,58.71409665063379,-0.0004209041653666,0.0923051163554191,0,0,0
5404,186758.62096733577,2010-10-17 21:05:24,3091.567358914911,7,16,-1.0997490882873535,3.425515651702881,16.103962891839977,16.06130129284534,64.24033845164786,58.74559089033226,-0.0005504131549969,0.0923051163554191,0,0,0
5405,186788.63618873796,2010-10-17 21:05:54,3121.5825803221105,7,16,-1.0997490882873535,3.4025278091430664,16.103962891839977,16.0704705213985,64.24033845164786,58.77690059397436,-0.0007122993702068,0.0923051163554191,0,0,0
5406,186818.65142860613,2010-10-17 21:06:24,3151.597820185308,7,16,-1.099929690361023,3.370636224746704,16.103962891839977,16.0796397661932,64.24033845164786,58.80796141604164,-0.0009713172912597,0.0923051163554191,0,0,0
5407,186848.6668234506,2010-10-17 21:06:54,3181.6132150347794,7,16,-1.099929690361023,3.324984550476074,16.103962891839977,16.088809080635905,64.24033845164786,58.838672013019725,-0.0014569759368896,0.0923051163554191,0,0,0
5408,186878.6818527891,2010-10-17 21:07:24,3211.628244353234,7,16,-1.0997490882873535,3.259097099304199,16.103962891839977,16.097978171688567,64.24033845164786,58.86887689428833,-0.0020721436012536,0.0923051163554191,0,0,0
5409,186908.69723469636,2010-10-17 21:07:54,3241.6436263556866,7,16,-1.099568486213684,3.161479949951172,16.103962891839977,16.10714748306205,64.24033845164786,58.89834432409023,-0.0031082152854651,0.0923051163554191,0,0,0
5410,186938.71229567367,2010-10-17 21:08:24,3271.658687237808,7,16,-1.099568486213684,2.999756097793579,16.103962891839977,16.116316619656434,64.24033845164786,58.9266678102413,-0.0057307719253003,0.0923051163554191,0,0,0
5411,186956.60279720323,2010-10-17 21:08:42,3289.549188762377,7,16,-1.0997490882873535,2.7993414402008057,16.103962891839977,16.121781853835465,64.24033845164786,58.94257673781206,-0.0114615438506007,0.0923051163554191,0,0,0
5412,186962.8057099153,2010-10-17 21:08:48,3295.752101469432,7,16,-1.0997490882873535,2.699458122253418,16.103962891839977,16.123676744984696,64.24033845164786,58.94778793255841,-0.0130479810759425,0.0923051163554191,0,0,0
5413,187022.82122304745,2010-10-17 21:09:48,60.014784554196616,8,16,0.0,3.309119701385498,16.103962891839977,16.123676744984696,64.24033845164786,58.94778793255841,0.0013274669181555,0.0923051163554191,0,0,0
5414,187023.0101822228,2010-10-17 21:09:48,0.187451962969246,9,16,-1.9243103452026844e-05,3.309443473815918,16.103962891839977,16.123676745986685,64.24033845164786,58.94778793587444,0.0,0.0920556336641311,0,0,0
5415,187027.83822603355,2010-10-17 21:09:53,5.015495758660045,9,16,0.0007031940040178,3.317861557006836,16.103963626772668,16.12367674607142,64.24034088740623,58.94778793615487,0.0012303352123126,0.0920556336641311,0,0,0
