Data_Point,Test_Time(s),Date_Time,Step_Time(s),Step_Index,Cycle_Index,Current(A),Voltage(V),Charge_Capacity(Ah),Discharge_Capacity(Ah),Charge_Energy(Wh),Discharge_Energy(Wh),dV/dt(V/s),Internal_Resistance(Ohm),Is_FC_Data,AC_Impedance(Ohm),ACI_Phase_Angle(Deg)
11722,407732.5059522102,2010-10-20 10:28:41,30.015150204741047,1,36,0.0,3.42810583114624,34.92400057442521,34.92691116753744,139.45375848860218,127.4116720459711,0.0007446765666827,0.0931148082017898,0,0,0
11723,407762.52109438,2010-10-20 10:29:11,60.03029235941886,1,36,0.0,3.452550411224365,34.92400057442521,34.92691116753744,139.45375848860218,127.4116720459711,0.0006151676061563,0.0931148082017898,0,0,0
11724,407792.5363470501,2010-10-20 10:29:41,90.04554505459761,1,36,0.0,3.470681667327881,34.92400057442521,34.92691116753744,139.45375848860218,127.4116720459711,0.0004209041653666,0.0931148082017898,0,0,0
11725,407822.5046408092,2010-10-20 10:30:11,120.01383881365864,1,36,0.0,3.4855751991271973,34.92400057442521,34.92691116753744,139.45375848860218,127.4116720459711,0.0003561496851034,0.0931148082017898,0,0,0
11726,407852.51547211874,2010-10-20 10:30:41,30.015138896557577,2,36,0.5499359965324402,3.636938333511353,34.92858700099963,34.92691116753744,139.47029150259445,127.4116720459711,0.0013922214275225,0.0931148082017898,0,0,0
11727,407882.53082545474,2010-10-20 10:31:11,60.03049222755175,2,36,0.5501165986061096,3.679676055908203,34.93317354663691,34.92691116753744,139.48707704607563,127.4116720459711,0.0009713172912597,0.0931148082017898,0,0,0
11728,407912.5457793251,2010-10-20 10:31:41,90.04544610297974,2,36,0.5501165986061096,3.709786891937256,34.93775990105925,34.92691116753744,139.5040253982035,127.4116720459711,0.0007122993702068,0.0931148082017898,0,0,0
11729,407942.5609359609,2010-10-20 10:32:11,120.06060275879884,2,36,0.5501165986061096,3.73342227935791,34.94234632520451,34.92691116753744,139.52109605101407,127.4116720459711,0.0005827903514727,0.0931148082017898,0,0,0
11730,407972.5761751124,2010-10-20 10:32:41,150.07584190019742,2,36,0.5499359965324402,3.7522010803222656,34.94693272430623,34.92691116753744,139.538263313172,127.4116720459711,0.0004532813909463,0.0931148082017898,0,0,0
11731,408002.59120609495,2010-10-20 10:33:11,180.09087286776273,2,36,0.5501165986061096,3.766608715057373,34.95151918343829,34.92691116753744,139.5555073259872,127.4116720459711,0.0003237724304199,0.0931148082017898,0,0,0
11732,408032.6066034306,2010-10-20 10:33:41,210.1062702385175,2,36,0.5501165986061096,3.775836229324341,34.95610571615053,34.92691116753744,139.57280586671888,127.4116720459711,0.0001942634553415,0.0931148082017898,0,0,0
11733,408062.62147503096,2010-10-20 10:34:11,240.12114180881585,2,36,0.5501165986061096,3.7815022468566895,34.960692179506964,34.92691116753744,139.5901377385811,127.4116720459711,0.0001295089750783,0.0931148082017898,0,0,0
11734,408092.6367504628,2010-10-20 10:34:41,270.13641724567384,2,36,0.550297200679779,3.786035060882568,34.96527861775334,34.92691116753744,139.60749208954692,127.4116720459711,0.0001295089750783,0.0931148082017898,0,0,0
11735,408122.65179289895,2010-10-20 10:35:11,300.1514596918474,2,36,0.5501165986061096,3.789920330047608,34.969865037009484,34.92691116753744,139.62486511351446,127.4116720459711,9.713172767078504e-05,0.0931148082017898,0,0,0
11736,408152.6669202668,2010-10-20 10:35:41,330.16658704463435,2,36,0.5501165986061096,3.793643712997437,34.9744515274795,34.92691116753744,139.64225613209925,127.4116720459711,6.47544875391759e-05,0.0931148082017898,0,0,0
11737,408182.6820668375,2010-10-20 10:36:12,360.1817336103057,2,36,0.550297200679779,3.7976908683776855,34.97903798117711,34.92691116753744,139.6596645547931,127.4116720459711,0.0001618862152099,0.0931148082017898,0,0,0
11738,408212.6972237038,2010-10-20 10:36:42,390.19689050672446,2,36,0.5501165986061096,3.8012523651123047,34.98362438276596,34.92691116753744,139.67709014773817,127.4116720459711,9.713172767078504e-05,0.0931148082017898,0,0,0
11739,408242.7123521895,2010-10-20 10:37:12,420.21201896225983,2,36,0.5499359965324402,3.804975748062134,34.98821085966176,34.92691116753744,139.69453305526974,127.4116720459711,9.713172767078504e-05,0.0931148082017898,0,0,0
11740,408272.7274864495,2010-10-20 10:37:42,450.227153257349,2,36,0.5499359965324402,3.808537244796753,34.99279725943796,34.92691116753744,139.71199230975367,127.4116720459711,9.713172767078504e-05,0.0931148082017898,0,0,0
11741,408302.7426344186,2010-10-20 10:38:12,480.24230121649344,2,36,0.5501165986061096,3.812098741531372,34.9973837612946,34.92691116753744,139.72946839318675,127.4116720459711,9.713172767078504e-05,0.0931148082017898,0,0,0
11742,408332.75780547527,2010-10-20 10:38:42,510.257472273204,2,36,0.5501165986061096,3.815660238265991,35.00197025435678,34.92691116753744,139.74696075197215,127.4116720459711,9.713172767078504e-05,0.0931148082017898,0,0,0
11743,408362.77305587474,2010-10-20 10:39:12,540.272722652611,2,36,0.550297200679779,3.8190598487854,35.006556726359285,34.92691116753744,139.76446889934618,127.4116720459711,9.713172767078504e-05,0.0931148082017898,0,0,0
11744,408392.7880577849,2010-10-20 10:39:42,570.2877245627564,2,36,0.5501165986061096,3.8222975730896,35.01114309453984,34.92691116753744,139.78199204185847,127.4116720459711,9.713172767078504e-05,0.0931148082017898,0,0,0
11745,408422.8032118694,2010-10-20 10:40:12,600.3028786722292,2,36,0.550297200679779,3.825697183609009,35.01572951037938,34.92691116753744,139.79953047368178,127.4116720459711,9.713172767078504e-05,0.0931148082017898,0,0,0
11746,408452.8183536581,2010-10-20 10:40:42,630.3180205261575,2,36,0.550297200679779,3.828934907913208,35.02031588700981,34.92691116753744,139.8170839445004,127.4116720459711,9.713172767078504e-05,0.0931148082017898,0,0,0
11747,408482.8335064092,2010-10-20 10:41:12,660.33317320707,2,36,0.5501165986061096,3.8321726322174072,35.024902336313424,34.92691116753744,139.83465274682598,127.4116720459711,9.713172767078504e-05,0.0931148082017898,0,0,0
11748,408512.8486400076,2010-10-20 10:41:42,690.3483068104352,2,36,0.5501165986061096,3.835572004318237,35.0294887383468,34.92691116753744,139.85223634560148,127.4116720459711,9.713172767078504e-05,0.0931148082017898,0,0,0
11749,408542.8638167735,2010-10-20 10:42:12,720.3634835513125,2,36,0.5501165986061096,3.838809728622437,35.034075203306166,34.92691116753744,139.86983545812458,127.4116720459711,9.713172767078504e-05,0.0931148082017898,0,0,0
11750,408572.8790392935,2010-10-20 10:42:42,750.3787060712855,2,36,0.5501165986061096,3.842371225357056,35.03866167017937,34.92691116753744,139.88745000130697,127.4116720459711,9.713172767078504e-05,0.0931148082017898,0,0,0
11751,408602.8941029927,2010-10-20 10:43:12,780.3937698205528,2,36,0.550297200679779,3.845770835876465,35.043248096193,34.92691116753744,139.9050800568092,127.4116720459711,9.713172767078504e-05,0.0931148082017898,0,0,0
11752,408632.9092148869,2010-10-20 10:43:42,810.4088816646873,2,36,0.5501165986061096,3.849170446395874,35.04783457042138,34.92691116753744,139.9227260647853,127.4116720459711,9.713172767078504e-05,0.0931148082017898,0,0,0
11753,408662.9243556781,2010-10-20 10:44:12,840.4240224509547,2,36,0.5499359965324402,3.852408170700073,35.05242101763314,34.92691116753744,139.94038768291708,127.4116720459711,6.47544875391759e-05,0.0931148082017898,0,0,0
11754,408692.93952605815,2010-10-20 10:44:42,870.4391928359913,2,36,0.5501165986061096,3.855969667434693,35.05700752426354,34.92691116753744,139.9580649563763,127.4116720459711,9.713172767078504e-05,0.0931148082017898,0,0,0
11755,408722.9546604986,2010-10-20 10:45:12,900.4543272714304,2,36,0.550297200679779,3.859207391738892,35.061593973011426,34.92691116753744,139.97575738178446,127.4116720459711,9.713172767078504e-05,0.0931148082017898,0,0,0
11756,408752.9698099465,2010-10-20 10:45:42,930.4694767443476,2,36,0.5499359965324402,3.862445116043091,35.06618036341482,34.92691116753744,139.9934645579189,127.4116720459711,9.713172767078504e-05,0.0931148082017898,0,0,0
11757,408782.98493336944,2010-10-20 10:46:12,960.4846001422776,2,36,0.5501165986061096,3.86568284034729,35.07076682377635,34.92691116753744,140.0111866311111,127.4116720459711,9.713172767078504e-05,0.0931148082017898,0,0,0
11758,408813.000082261,2010-10-20 10:46:42,990.499749038758,2,36,0.5499359965324402,3.8684349060058594,35.07535382025457,34.92691116753744,140.02892504048486,127.4116720459711,3.237724376958795e-05,0.0931148082017898,0,0,0
11759,408843.01556056336,2010-10-20 10:47:12,1020.5152274314446,2,36,0.5501165986061096,3.8716726303100586,35.07994096749223,34.92691116753744,140.04667789103337,127.4116720459711,6.47544875391759e-05,0.0931148082017898,0,0,0
11760,408873.03045300575,2010-10-20 10:47:42,1050.5301198186248,2,36,0.5501165986061096,3.874424695968628,35.084528103922814,34.92691116753744,140.0644442110984,127.4116720459711,6.47544875391759e-05,0.0931148082017898,0,0,0
11761,408903.045635516,2010-10-20 10:48:12,1080.5453022937938,2,36,0.550297200679779,3.877500534057617,35.08911526619173,34.92691116753744,140.08222374084562,127.4116720459711,0.0001295089750783,0.0931148082017898,0,0,0
11762,408933.06065923546,2010-10-20 10:48:42,1110.5603260383573,2,36,0.5501165986061096,3.880090713500977,35.0937017627307,34.92691116753744,140.10001323076722,127.4116720459711,6.47544875391759e-05,0.0931148082017898,0,0,0
11763,408963.0758266531,2010-10-20 10:49:12,1140.5754934509855,2,36,0.5499359965324402,3.882357120513916,35.09828811473931,34.92691116753744,140.11781422710638,127.4116720459711,3.237724376958795e-05,0.0931148082017898,0,0,0
11764,408993.0910825863,2010-10-20 10:49:42,1170.5907493591722,2,36,0.5499359965324402,3.885109186172485,35.10287456314712,34.92691116753744,140.13562707887246,127.4116720459711,0.0001295089750783,0.0931148082017898,0,0,0
11765,409023.1062171772,2010-10-20 10:50:12,1200.605883965036,2,36,0.5501165986061096,3.887375593185425,35.1074609792023,34.92691116753744,140.15345063742623,127.4116720459711,6.47544875391759e-05,0.0931148082017898,0,0,0
11766,409053.121229408,2010-10-20 10:50:42,1230.6208963312408,2,36,0.5501165986061096,3.889318227767944,35.11204741304593,34.92691116753744,140.1712844134743,127.4116720459711,3.237724376958795e-05,0.0931148082017898,0,0,0
11767,409083.13638541725,2010-10-20 10:51:12,1260.6360522301736,2,36,0.5499359965324402,3.891260862350464,35.11663388248108,34.92691116753744,140.18912775343455,127.4116720459711,3.237724376958795e-05,0.0931148082017898,0,0,0
11768,409113.1515256922,2010-10-20 10:51:42,1290.6511924951417,2,36,0.5501165986061096,3.893365383148194,35.121220293013685,34.92691116753744,140.20697976967654,127.4116720459711,6.47544875391759e-05,0.0931148082017898,0,0,0
11769,409143.16666367656,2010-10-20 10:52:12,1320.6663304744131,2,36,0.550297200679779,3.894984245300293,35.12580679966225,34.92691116753744,140.22484045131878,127.4116720459711,3.237724376958795e-05,0.0931148082017898,0,0,0
11770,409173.1818393046,2010-10-20 10:52:42,1350.681506112542,2,36,0.5501165986061096,3.8967649936676025,35.13039322434539,34.92691116753744,140.24270812001814,127.4116720459711,6.47544875391759e-05,0.0931148082017898,0,0,0
11771,409203.1970013238,2010-10-20 10:53:12,1380.696668151778,2,36,0.5499359965324402,3.898060083389282,35.13497970250363,34.92691116753744,140.26058345147823,127.4116720459711,3.237724376958795e-05,0.0931148082017898,0,0,0
11772,409233.2120969074,2010-10-20 10:53:42,1410.7117636902742,2,36,0.5499359965324402,3.899355173110962,35.13956611510201,34.92691116753744,140.27846533942204,127.4116720459711,-3.237724376958795e-05,0.0931148082017898,0,0,0
11773,409263.2275411601,2010-10-20 10:54:12,1440.727207972948,2,36,0.5499359965324402,3.9006502628326416,35.14415256823307,34.92691116753744,140.29635375058862,127.4116720459711,-3.237724376958795e-05,0.0931148082017898,0,0,0
11774,409293.24238693103,2010-10-20 10:54:42,1470.742053708859,2,36,0.5501165986061096,3.902269124984741,35.148738875448714,34.92691116753744,140.3142478198029,127.4116720459711,3.237724376958795e-05,0.0931148082017898,0,0,0
11775,409323.2575426245,2010-10-20 10:55:12,1500.757209427342,2,36,0.5499359965324402,3.903564214706421,35.15332537445906,34.92691116753744,140.33214863963698,127.4116720459711,0.0,0.0931148082017898,0,0,0
11776,409353.2726753056,2010-10-20 10:55:42,1530.7723421084088,2,36,0.5501165986061096,3.90469741821289,35.157911816459404,34.92691116753744,140.3500551486546,127.4116720459711,0.0,0.0931148082017898,0,0,0
11777,409383.287847485,2010-10-20 10:56:12,1560.78751431298,2,36,0.5501165986061096,3.90615439414978,35.16249822212241,34.92691116753744,140.3679671777792,127.4116720459711,3.237724376958795e-05,0.0931148082017898,0,0,0
11778,409413.3029703316,2010-10-20 10:56:42,1590.8026371394865,2,36,0.5501165986061096,3.90744948387146,35.16708453781168,34.92691116753744,140.38588466321386,127.4116720459711,6.47544875391759e-05,0.0931148082017898,0,0,0
11779,409443.31812379445,2010-10-20 10:57:12,1620.81779056726,2,36,0.5501165986061096,3.9085826873779297,35.171670928126815,34.92691116753744,140.4038081831083,127.4116720459711,0.0,0.0931148082017898,0,0,0
11780,409473.3332710168,2010-10-20 10:57:42,1650.8329378246551,2,36,0.5501165986061096,3.90987777709961,35.17625730780279,34.92691116753744,140.42173749345395,127.4116720459711,3.237724376958795e-05,0.0931148082017898,0,0,0
11781,409503.3483965951,2010-10-20 10:58:12,1680.8480633929948,2,36,0.5499359965324402,3.911172866821289,35.180843726117615,34.92691116753744,140.43967262291898,127.4116720459711,6.47544875391759e-05,0.0931148082017898,0,0,0
11782,409533.3635451758,2010-10-20 10:58:42,1710.8632119787007,2,36,0.5499359965324402,3.9124679565429688,35.18543010037044,34.92691116753744,140.45761334569417,127.4116720459711,6.47544875391759e-05,0.0931148082017898,0,0,0
11783,409563.3786720875,2010-10-20 10:59:12,1740.8783388553009,2,36,0.5501165986061096,3.913762807846069,35.19001650478265,34.92691116753744,140.47555996215456,127.4116720459711,6.470680091297254e-05,0.0931148082017898,0,0,0
11784,409593.39383319946,2010-10-20 10:59:42,1770.893500007326,2,36,0.550297200679779,3.915057897567749,35.19460286981527,34.92691116753744,140.49351222913234,127.4116720459711,6.47544875391759e-05,0.0931148082017898,0,0,0
11785,409623.40900182514,2010-10-20 11:00:12,1800.9086687131776,2,36,0.550297200679779,3.9161911010742183,35.19918933108555,34.92691116753744,140.51147065636806,127.4116720459711,6.47544875391759e-05,0.0931148082017898,0,0,0
11786,409653.4241607015,2010-10-20 11:00:42,1830.923827509331,2,36,0.5501165986061096,3.9174861907958975,35.203775745201455,34.92691116753744,140.52943496573727,127.4116720459711,3.237724376958795e-05,0.0931148082017898,0,0,0
11787,409683.4393085704,2010-10-20 11:01:12,1860.9389753983005,2,36,0.5501165986061096,3.918781280517578,35.20836210178496,34.92691116753744,140.54740501277604,127.4116720459711,0.0,0.0931148082017898,0,0,0
11788,409713.45455819287,2010-10-20 11:01:42,1890.9542249706965,2,36,0.5501165986061096,3.920238256454468,35.21294844538006,34.92691116753744,140.56538105008514,127.4116720459711,6.47544875391759e-05,0.0931148082017898,0,0,0
11789,409743.4695763936,2010-10-20 11:02:12,1920.96924322658,2,36,0.5501165986061096,3.9213714599609375,35.21753481493847,34.92691116753744,140.58336325027477,127.4116720459711,0.0,0.0931148082017898,0,0,0
11790,409773.4847241824,2010-10-20 11:02:42,1950.984391080462,2,36,0.5501165986061096,3.922828435897827,35.22212118771876,34.92691116753744,140.60135162687033,127.4116720459711,3.237724376958795e-05,0.0931148082017898,0,0,0
11791,409803.50010035024,2010-10-20 11:03:12,1980.999767173185,2,36,0.550297200679779,3.924285411834717,35.226707689304185,34.92691116753744,140.61934671118277,127.4116720459711,6.47544875391759e-05,0.0931148082017898,0,0,0
11792,409833.5150138752,2010-10-20 11:03:42,2011.01468068301,2,36,0.5501165986061096,3.925580501556397,35.23129405629987,34.92691116753744,140.63734755475593,127.4116720459711,3.237724376958795e-05,0.0931148082017898,0,0,0
11793,409863.5301696237,2010-10-20 11:04:12,2041.029836401493,2,36,0.5497553944587708,3.926875591278076,35.23588044686902,34.92691116753744,140.65535469700362,127.4116720459711,6.47544875391759e-05,0.0931148082017898,0,0,0
11794,409893.54530143255,2010-10-20 11:04:42,2071.0449682103854,2,36,0.5501165986061096,3.928332567214966,35.240466836097,34.92691116753744,140.67336827439982,127.4116720459711,3.237724376958795e-05,0.0931148082017898,0,0,0
11795,409923.5604505896,2010-10-20 11:05:12,2101.0601173875657,2,36,0.5499359965324402,3.9296276569366455,35.24505317596987,34.92691116753744,140.6913880314392,127.4116720459711,3.237724376958795e-05,0.0931148082017898,0,0,0
11796,409953.57582522376,2010-10-20 11:05:42,2131.075492101854,2,36,0.5501165986061096,3.930922746658325,35.24963963345791,34.92691116753744,140.70941485092845,127.4116720459711,0.0,0.0931148082017898,0,0,0
11797,409983.5907355407,2010-10-20 11:06:12,2161.090402343533,2,36,0.5501165986061096,3.9327034950256343,35.25422600834297,34.92691116753744,140.7274478547815,127.4116720459711,3.237724376958795e-05,0.0931148082017898,0,0,0
11798,410013.6059042966,2010-10-20 11:06:42,2191.1055710995097,2,36,0.5501165986061096,3.934160470962525,35.25881245416098,34.92691116753744,140.74548782928778,127.4116720459711,0.0001295089750783,0.0931148082017898,0,0,0
11799,410043.62103745394,2010-10-20 11:07:12,2221.120704226688,2,36,0.5499359965324402,3.935455560684204,35.263398812011,34.92691116753744,140.7635340023653,127.4116720459711,0.0,0.0931148082017898,0,0,0
11800,410073.636168165,2010-10-20 11:07:42,2251.135834942858,2,36,0.5501165986061096,3.9369125366210938,35.26798525617822,34.92691116753744,140.7815871080617,127.4116720459711,3.237724376958795e-05,0.0931148082017898,0,0,0
11801,410103.65129698144,2010-10-20 11:08:13,2281.150963749268,2,36,0.5501165986061096,3.938531398773194,35.27257164871331,34.92691116753744,140.7996468858398,127.4116720459711,6.47544875391759e-05,0.0931148082017898,0,0,0
11802,410133.66645014856,2010-10-20 11:08:43,2311.1661169314293,2,36,0.5499359965324402,3.939826488494873,35.27715800503507,34.92691116753744,140.817713282287,127.4116720459711,0.0,0.0931148082017898,0,0,0
11803,410163.6816099975,2010-10-20 11:09:13,2341.1812768253185,2,36,0.5499359965324402,3.9414453506469727,35.281744294570785,34.92691116753744,140.83578628510247,127.4116720459711,3.237724376958795e-05,0.0931148082017898,0,0,0
11804,410193.6967554051,2010-10-20 11:09:43,2371.196422208041,2,36,0.5499359965324402,3.942740440368652,35.28633065522449,34.92691116753744,140.85386635360632,127.4116720459711,0.0,0.0931148082017898,0,0,0
11805,410223.712013183,2010-10-20 11:10:13,2401.2116800009253,2,36,0.5501165986061096,3.944197416305542,35.290917031188584,34.92691116753744,140.8719533288345,127.4116720459711,-3.237724376958795e-05,0.0931148082017898,0,0,0
11806,410253.7270279653,2010-10-20 11:10:43,2431.2266947681146,2,36,0.5499359965324402,3.9458162784576416,35.2955033421583,34.92691116753744,140.8900470045062,127.4116720459711,0.0,0.0931148082017898,0,0,0
11807,410283.7423000086,2010-10-20 11:11:13,2461.2419668265525,2,36,0.5501165986061096,3.947435140609741,35.30008977446262,34.92691116753744,140.9081481322352,127.4116720459711,3.237724376958795e-05,0.0931148082017898,0,0,0
11808,410313.7573221291,2010-10-20 11:11:43,2491.2569889621054,2,36,0.5499359965324402,3.948892116546631,35.30467608834236,34.92691116753744,140.92625597580934,127.4116720459711,0.0,0.0931148082017898,0,0,0
11809,410343.7724534468,2010-10-20 11:12:13,2521.272120244687,2,36,0.5501165986061096,3.950672864913941,35.30926242548508,34.92691116753744,140.94437112479113,127.4116720459711,9.713172767078504e-05,0.0931148082017898,0,0,0
11810,410373.787607872,2010-10-20 11:12:43,2551.287274674959,2,36,0.5501165986061096,3.95229172706604,35.31384887994037,34.92691116753744,140.9624941040178,127.4116720459711,6.47544875391759e-05,0.0931148082017898,0,0,0
11811,410403.8027621018,2010-10-20 11:13:13,2581.302428929794,2,36,0.5501165986061096,3.95391058921814,35.31843528905355,34.92691116753744,140.9806242231871,127.4116720459711,9.713172767078504e-05,0.0931148082017898,0,0,0
11812,410433.81791005086,2010-10-20 11:13:43,2611.317576883926,2,36,0.5501165986061096,3.955367565155029,35.32302170645521,34.92691116753744,140.9987617617078,127.4116720459711,3.237724376958795e-05,0.0931148082017898,0,0,0
11813,410463.83303175465,2010-10-20 11:14:13,2641.332698537509,2,36,0.5501165986061096,3.956986427307129,35.32760807494164,34.92691116753744,141.0169065857248,127.4116720459711,0.0,0.0931148082017898,0,0,0
11814,410493.8481778842,2010-10-20 11:14:43,2671.347844692156,2,36,0.5501165986061096,3.9587671756744394,35.332194401311725,34.92691116753744,141.0350586642847,127.4116720459711,6.47544875391759e-05,0.0931148082017898,0,0,0
11815,410523.8633332017,2010-10-20 11:15:13,2701.3629999996147,2,36,0.5501165986061096,3.960386037826538,35.33678078790629,34.92691116753744,141.05321866539975,127.4116720459711,6.47544875391759e-05,0.0931148082017898,0,0,0
11816,410553.87846365233,2010-10-20 11:15:43,2731.378130430072,2,36,0.5501165986061096,3.9620048999786377,35.34136720509623,34.92691116753744,141.07138649056856,127.4116720459711,3.237724376958795e-05,0.0931148082017898,0,0,0
11817,410583.8937244526,2010-10-20 11:16:13,2761.3933913457386,2,36,0.5499359965324402,3.963623762130737,35.34595358627124,34.92691116753744,141.08956170138663,127.4116720459711,0.0,0.0931148082017898,0,0,0
11818,410613.90900103736,2010-10-20 11:16:43,2791.408667845245,2,36,0.5501165986061096,3.965242624282837,35.35054002222984,34.92691116753744,141.10774474283102,127.4116720459711,0.0,0.0931148082017898,0,0,0
11819,410643.9239246824,2010-10-20 11:17:13,2821.423591475292,2,36,0.5499359965324402,3.966861486434937,35.355126357939184,34.92691116753744,141.12593503409852,127.4116720459711,0.0,0.0931148082017898,0,0,0
11820,410673.93904199015,2010-10-20 11:17:43,2851.4387087930686,2,36,0.5501165986061096,3.968804121017456,35.359712719698656,34.92691116753744,141.14413298745035,127.4116720459711,6.47544875391759e-05,0.0931148082017898,0,0,0
11821,410703.95418190426,2010-10-20 11:18:13,2881.45384870215,2,36,0.5501165986061096,3.9702610969543457,35.3642991116558,34.92691116753744,141.16233883071237,127.4116720459711,0.0,0.0931148082017898,0,0,0
11822,410733.96933079074,2010-10-20 11:18:43,2911.468997568556,2,36,0.550297200679779,3.972203731536865,35.368885568993235,34.92691116753744,141.18055276666684,127.4116720459711,6.47544875391759e-05,0.0931148082017898,0,0,0
11823,410763.9845131557,2010-10-20 11:19:13,2941.4841799635246,2,36,0.5501165986061096,3.973822593688965,35.37347201557132,34.92691116753744,141.19877447052303,127.4116720459711,3.237724376958795e-05,0.0931148082017898,0,0,0
11824,410793.9866693603,2010-10-20 11:19:43,2971.486336273482,2,36,0.550297200679779,3.9756033420562735,35.378056503112056,34.92691116753744,141.21699625991036,127.4116720459711,6.47544875391759e-05,0.0931148082017898,0,0,0
11825,410823.999207515,2010-10-20 11:20:13,3001.49887430789,2,36,0.5501165986061096,3.977384090423584,35.382642576837625,34.92691116753744,141.23523225733933,127.4116720459711,3.237724376958795e-05,0.0931148082017898,0,0,0
11826,410854.0142954346,2010-10-20 11:20:43,3031.513962297572,2,36,0.5501165986061096,3.979002952575684,35.387228979603094,34.92691116753744,141.2534769691766,127.4116720459711,6.47544875391759e-05,0.0931148082017898,0,0,0
11827,410884.0295713426,2010-10-20 11:21:13,3061.5292381203926,2,36,0.550297200679779,3.980783700942993,35.39181534107805,34.92691116753744,141.27173000083422,127.4116720459711,3.237724376958795e-05,0.0931148082017898,0,0,0
11828,410914.0446024956,2010-10-20 11:21:43,3091.54426927342,2,36,0.550297200679779,3.982564449310303,35.39640166330495,34.92691116753744,141.2899910257944,127.4116720459711,6.47544875391759e-05,0.0931148082017898,0,0,0
11829,410944.05986651394,2010-10-20 11:22:13,3121.5595333319197,2,36,0.550297200679779,3.984345197677612,35.400988041961966,34.92691116753744,141.3082603048007,127.4116720459711,6.47544875391759e-05,0.0931148082017898,0,0,0
11830,410974.0748745444,2010-10-20 11:22:43,3151.574541317206,2,36,0.5499359965324402,3.985964059829712,35.40557436420764,34.92691116753744,141.3265376003752,127.4116720459711,6.47544875391759e-05,0.0931148082017898,0,0,0
11831,411004.09017292847,2010-10-20 11:23:13,3181.5898397313304,2,36,0.5499359965324402,3.987906694412232,35.410160790569826,34.92691116753744,141.34482366618752,127.4116720459711,3.237724376958795e-05,0.0931148082017898,0,0,0
11832,411034.10518416687,2010-10-20 11:23:43,3211.6048509496745,2,36,0.5501165986061096,3.989849328994751,35.4147470619241,34.92691116753744,141.3631173848697,127.4116720459711,9.713172767078504e-05,0.0931148082017898,0,0,0
11833,411064.1203135998,2010-10-20 11:24:13,3241.619980392671,2,36,0.5499359965324402,3.991630077362061,35.41933335655781,34.92691116753744,141.3814197226258,127.4116720459711,6.47544875391759e-05,0.0931148082017898,0,0,0
11834,411094.1354618548,2010-10-20 11:24:43,3271.6351287478024,2,36,0.5501165986061096,3.99341082572937,35.423919685012585,34.92691116753744,141.39973079968274,127.4116720459711,3.237724376958795e-05,0.0931148082017898,0,0,0
11835,411124.15073537175,2010-10-20 11:25:13,3301.6504021495884,2,36,0.550297200679779,3.995515108108521,35.4285060530698,34.92691116753744,141.41805067736186,127.4116720459711,6.47544875391759e-05,0.0931148082017898,0,0,0
11836,411154.1657719433,2010-10-20 11:25:43,3331.665438751195,2,36,0.5501165986061096,3.99713397026062,35.43309234512219,34.92691116753744,141.43637909226928,127.4116720459711,3.237724376958795e-05,0.0931148082017898,0,0,0
11837,411184.180857136,2010-10-20 11:26:13,3361.680523928869,2,36,0.5499359965324402,3.9992384910583496,35.43767818444096,34.92691116753744,141.45471451393828,127.4116720459711,3.237724376958795e-05,0.0931148082017898,0,0,0
11838,411214.1962948373,2010-10-20 11:26:43,3391.695961650189,2,36,0.5499359965324402,4.001181125640869,35.44226369107266,34.92691116753744,141.4730576431026,127.4116720459711,3.23295607813634e-05,0.0931148082017898,0,0,0
11839,411244.21115392144,2010-10-20 11:27:13,3421.7108207143187,2,36,0.5499359965324402,4.003285884857178,35.44684927234721,34.92691116753744,141.4914102755166,127.4116720459711,6.47544875391759e-05,0.0931148082017898,0,0,0
11840,411274.2263123968,2010-10-20 11:27:43,3451.7259791896727,2,36,0.5499359965324402,4.005390167236328,35.451434678675206,34.92691116753744,141.50977134495642,127.4116720459711,3.23295607813634e-05,0.0931148082017898,0,0,0
11841,411304.24147198495,2010-10-20 11:28:13,3481.74113875775,2,36,0.550297200679779,4.007494926452637,35.456020053118884,34.92691116753744,141.52814167706984,127.4116720459711,9.71794142969884e-05,0.0931148082017898,0,0,0
11842,411334.2566409865,2010-10-20 11:28:43,3511.7563077994387,2,36,0.5497553944587708,4.009437561035156,35.46060549689359,34.92691116753744,141.54652183302883,127.4116720459711,6.47544875391759e-05,0.0931148082017898,0,0,0
11843,411364.2717994919,2010-10-20 11:29:13,3541.7714662898297,2,36,0.5501165986061096,4.011541843414307,35.465191363498306,34.92691116753744,141.56491338975994,127.4116720459711,6.47544875391759e-05,0.0931148082017898,0,0,0
11844,411394.28694526566,2010-10-20 11:29:43,3571.7866120535023,2,36,0.5499359965324402,4.013484477996826,35.46977774396844,34.92691116753744,141.58331677621536,127.4116720459711,0.0,0.0931148082017898,0,0,0
11845,411424.3021225178,2010-10-20 11:30:13,3601.801789440992,2,36,0.5501165986061096,4.015913009643555,35.47436411948276,34.92691116753744,141.60172990456317,127.4116720459711,9.71794142969884e-05,0.0931148082017898,0,0,0
11846,411454.3172328833,2010-10-20 11:30:43,3631.816899696166,2,36,0.5499359965324402,4.018017292022705,35.47895048991843,34.92691116753744,141.62015296969085,127.4116720459711,6.47544875391759e-05,0.0931148082017898,0,0,0
11847,411484.3323801657,2010-10-20 11:31:13,3661.8320469736113,2,36,0.5499359965324402,4.020122051239014,35.48353694915831,34.92691116753744,141.6385863266109,127.4116720459711,3.24249267578125e-05,0.0931148082017898,0,0,0
11848,411514.34753442055,2010-10-20 11:31:43,3691.847201208396,2,36,0.5501165986061096,4.022550106048584,35.48812334567474,34.92691116753744,141.65702966637554,127.4116720459711,9.70840483205393e-05,0.0931148082017898,0,0,0
11849,411544.3626866604,2010-10-20 11:32:13,3721.862353473272,2,36,0.5501165986061096,4.024654865264893,35.492709729235,34.92691116753744,141.67548316556287,127.4116720459711,9.71794142969884e-05,0.0931148082017898,0,0,0
11850,411574.3778286847,2010-10-20 11:32:43,3751.877495517675,2,36,0.5499359965324402,4.026921272277832,35.49729615941883,34.92691116753744,141.69394718717936,127.4116720459711,6.47544875391759e-05,0.0931148082017898,0,0,0
11851,411604.39300168125,2010-10-20 11:33:13,3781.8926684991834,2,36,0.550297200679779,4.029349327087402,35.5018825783133,34.92691116753744,141.71242156791553,127.4116720459711,9.70840483205393e-05,0.0931148082017898,0,0,0
11852,411634.4081488334,2010-10-20 11:33:43,3811.9078156663527,2,36,0.5501165986061096,4.031615734100342,35.5064690093924,34.92691116753744,141.73090641637225,127.4116720459711,9.70840483205393e-05,0.0931148082017898,0,0,0
11853,411664.423392867,2010-10-20 11:34:13,3841.923059644808,2,36,0.550297200679779,4.033882141113281,35.51105548902629,34.92691116753744,141.74940213509873,127.4116720459711,3.23295607813634e-05,0.0931148082017898,0,0,0
11854,411694.43841198,2010-10-20 11:34:43,3871.9380788129647,2,36,0.5501165986061096,4.036148548126221,35.515641854408415,34.92691116753744,141.76790809414427,127.4116720459711,6.47544875391759e-05,0.0931148082017898,0,0,0
11855,411724.4535660494,2010-10-20 11:35:13,3901.953232822187,2,36,0.550297200679779,4.03873872756958,35.520228290687626,34.92691116753744,141.78642508389032,127.4116720459711,9.71794142969884e-05,0.0931148082017898,0,0,0
11856,411754.46895514446,2010-10-20 11:35:43,3931.968621937367,2,36,0.5499359965324402,4.0408430099487305,35.52481476008777,34.92691116753744,141.80495285667263,127.4116720459711,6.47544875391759e-05,0.0931148082017898,0,0,0
11857,411784.48385247897,2010-10-20 11:36:13,3961.98351929694,2,36,0.5501165986061096,4.043271541595459,35.52940109596792,34.92691116753744,141.8234910473477,127.4116720459711,6.47544875391759e-05,0.0931148082017898,0,0,0
11858,411814.4990585029,2010-10-20 11:36:43,3991.998725330825,2,36,0.5501165986061096,4.045699596405029,35.53398754559207,34.92691116753744,141.84204082472905,127.4116720459711,6.47544875391759e-05,0.0931148082017898,0,0,0
11859,411844.5141616554,2010-10-20 11:37:13,4022.013828438184,2,36,0.5499359965324402,4.048128128051758,35.53857395259855,34.92691116753744,141.86060174795537,127.4116720459711,3.24249267578125e-05,0.0931148082017898,0,0,0
11860,411874.5292946171,2010-10-20 11:37:43,4052.028961404963,2,36,0.5501165986061096,4.050556182861328,35.54316044330633,34.92691116753744,141.8791744452828,127.4116720459711,6.47544875391759e-05,0.0931148082017898,0,0,0
11861,411904.5445618335,2010-10-20 11:38:13,4082.044228621334,2,36,0.5501165986061096,4.053146362304688,35.54774686948688,34.92691116753744,141.89775839048374,127.4116720459711,3.23295607813634e-05,0.0931148082017898,0,0,0
11862,411934.5596270714,2010-10-20 11:38:43,4112.059293874348,2,36,0.5501165986061096,4.055736541748047,35.55233329934179,34.92691116753744,141.91635403044793,127.4116720459711,6.47544875391759e-05,0.0931148082017898,0,0,0
11863,411964.5747250861,2010-10-20 11:39:13,4142.0743918589405,2,36,0.550297200679779,4.058488845825195,35.55691970484424,34.92691116753744,141.93496135363696,127.4116720459711,9.71794142969884e-05,0.0931148082017898,0,0,0
11864,411994.5898753009,2010-10-20 11:39:43,4172.08954211882,2,36,0.550297200679779,4.060755252838135,35.561506184750414,34.92691116753744,141.9535807771902,127.4116720459711,3.24249267578125e-05,0.0931148082017898,0,0,0
11865,412024.6050065183,2010-10-20 11:40:13,4202.104673316188,2,36,0.5501165986061096,4.063507080078125,35.566092607140945,34.92691116753744,141.9722115775443,127.4116720459711,6.47544875391759e-05,0.0931148082017898,0,0,0
11866,412054.6202191888,2010-10-20 11:40:44,4232.119886026713,2,36,0.5501165986061096,4.066259384155273,35.5706790408113,34.92691116753744,141.99085459438828,127.4116720459711,9.71794142969884e-05,0.0931148082017898,0,0,0
11867,412084.6352928377,2010-10-20 11:41:14,4262.134959665628,2,36,0.5501165986061096,4.068849563598633,35.57526549065463,34.92691116753744,142.00950993199743,127.4116720459711,9.71794142969884e-05,0.0931148082017898,0,0,0
11868,412114.6504486413,2010-10-20 11:41:44,4292.150115469323,2,36,0.5499359965324402,4.071439743041992,35.57985192177477,34.92691116753744,142.02817743431228,127.4116720459711,3.24249267578125e-05,0.0931148082017898,0,0,0
11869,412144.6655527162,2010-10-20 11:42:14,4322.165219519032,2,36,0.5501165986061096,4.074353694915772,35.58443822484362,34.92691116753744,142.04685680086538,127.4116720459711,9.71794142969884e-05,0.0931148082017898,0,0,0
11870,412174.6806967455,2010-10-20 11:42:44,4352.18036354337,2,36,0.5499359965324402,4.076943874359131,35.58902457318306,34.92691116753744,142.06554890870646,127.4116720459711,3.24249267578125e-05,0.0931148082017898,0,0,0
11871,412204.69585143134,2010-10-20 11:43:14,4382.195518234292,2,36,0.5499359965324402,4.079695701599121,35.59361093629625,34.92691116753744,142.08425376412455,127.4116720459711,6.47544875391759e-05,0.0931148082017898,0,0,0
11872,412234.7110512648,2010-10-20 11:43:44,4412.210718087773,2,36,0.5501165986061096,4.0824480056762695,35.59819733835148,34.92691116753744,142.10297152428384,127.4116720459711,6.47544875391759e-05,0.0931148082017898,0,0,0
11873,412264.7261685976,2010-10-20 11:44:14,4442.225835375474,2,36,0.5499359965324402,4.085361957550049,35.60278369730064,34.92691116753744,142.12170198629678,127.4116720459711,9.71794142969884e-05,0.0931148082017898,0,0,0
11874,412294.74128244165,2010-10-20 11:44:44,4472.240949219594,2,36,0.5501165986061096,4.088113784790039,35.60737009591393,34.92691116753744,142.1404456793525,127.4116720459711,9.70840483205393e-05,0.0931148082017898,0,0,0
11875,412324.7564357893,2010-10-20 11:45:14,4502.25610261228,2,36,0.5499359965324402,4.090866088867188,35.61195652974001,34.92691116753744,142.15920262362454,127.4116720459711,3.24249267578125e-05,0.0931148082017898,0,0,0
11876,412354.77159148775,2010-10-20 11:45:44,4532.271258315725,2,36,0.5501165986061096,4.094103813171387,35.6165428789359,34.92691116753744,142.17797237561064,127.4116720459711,0.0001295089750783,0.0931148082017898,0,0,0
11877,412384.7867176926,2010-10-20 11:46:14,4562.286384465514,2,36,0.5501165986061096,4.096855640411377,35.621129194317895,34.92691116753744,142.19675541625074,127.4116720459711,6.47544875391759e-05,0.0931148082017898,0,0,0
11878,412414.8018606142,2010-10-20 11:46:44,4592.301527442241,2,36,0.5501165986061096,4.099931716918945,35.62571561927485,34.92691116753744,142.21555242057292,127.4116720459711,9.71794142969884e-05,0.0931148082017898,0,0,0
11879,412444.8170017615,2010-10-20 11:47:14,4622.316668559332,2,36,0.550297200679779,4.102845668792725,35.630302329195835,34.92691116753744,142.23436423173368,127.4116720459711,6.47544875391759e-05,0.0931148082017898,0,0,0
11880,412474.8321643772,2010-10-20 11:47:44,4652.331831180018,2,36,0.550297200679779,4.105921268463135,35.63488950302078,34.92691116753744,142.2531917792085,127.4116720459711,6.47544875391759e-05,0.0931148082017898,0,0,0
11881,412504.84731485246,2010-10-20 11:48:14,4682.346981650421,2,36,0.5501165986061096,4.108997344970703,35.63947641599738,34.92691116753744,142.27203205243447,127.4116720459711,9.71794142969884e-05,0.0931148082017898,0,0,0
11882,412534.8624578192,2010-10-20 11:48:44,4712.362124597073,2,36,0.5501165986061096,4.111911296844482,35.64406284140992,34.92691116753744,142.29088439972688,127.4116720459711,6.47544875391759e-05,0.0931148082017898,0,0,0
11883,412564.8776257681,2010-10-20 11:49:14,4742.377292556063,2,36,0.5499359965324402,4.114986896514893,35.64864920659208,34.92691116753744,142.30975050779307,127.4116720459711,9.70840483205393e-05,0.0931148082017898,0,0,0
11884,412594.8927576924,2010-10-20 11:49:44,4772.392424500293,2,36,0.5501165986061096,4.118224620819092,35.65323558458276,34.92691116753744,142.32863092210147,127.4116720459711,6.47544875391759e-05,0.0931148082017898,0,0,0
11885,412624.9080018814,2010-10-20 11:50:14,4802.407668659197,2,36,0.5499359965324402,4.121300220489502,35.65782189779987,34.92691116753744,142.34752537881246,127.4116720459711,9.70840483205393e-05,0.0931148082017898,0,0,0
11886,412654.92310001137,2010-10-20 11:50:44,4832.422766849302,2,36,0.5501165986061096,4.12437629699707,35.66240820281599,34.92691116753744,142.36643424623435,127.4116720459711,6.47544875391759e-05,0.0931148082017898,0,0,0
11887,412684.93831179454,2010-10-20 11:51:14,4862.43797864254,2,36,0.5501165986061096,4.1277756690979,35.666994488976314,34.92691116753744,142.38535771697445,127.4116720459711,0.0001295089750783,0.0931148082017898,0,0,0
11888,412714.9530524586,2010-10-20 11:51:44,4892.452719236405,2,36,0.5499359965324402,4.130851745605469,35.671578441704305,34.92691116753744,142.40428628986348,127.4116720459711,9.71794142969884e-05,0.0931148082017898,0,0,0
11889,412744.96871705033,2010-10-20 11:52:14,4922.468383953469,2,36,0.5499359965324402,4.134089469909668,35.67616717507258,34.92691116753744,142.42324939669524,127.4116720459711,6.47544875391759e-05,0.0931148082017898,0,0,0
11890,412774.98360442,2010-10-20 11:52:44,4952.483271197832,2,36,0.5499359965324402,4.137488842010498,35.68075351194105,34.92691116753744,142.44221744489033,127.4116720459711,9.70840483205393e-05,0.0931148082017898,0,0,0
11891,412804.9988430702,2010-10-20 11:53:14,4982.498509842993,2,36,0.5501165986061096,4.140726566314697,35.68533996246293,34.92691116753744,142.46120098008365,127.4116720459711,9.70840483205393e-05,0.0931148082017898,0,0,0
11892,412835.01386855904,2010-10-20 11:53:44,5012.513535356967,2,36,0.5501165986061096,4.1441264152526855,35.68992636914034,34.92691116753744,142.48019941803113,127.4116720459711,9.71794142969884e-05,0.0931148082017898,0,0,0
11893,412865.0292477796,2010-10-20 11:54:14,5042.528914652673,2,36,0.5501165986061096,4.147364139556885,35.69451270398396,34.92691116753744,142.4992132862348,127.4116720459711,6.47544875391759e-05,0.0931148082017898,0,0,0
11894,412895.0441523322,2010-10-20 11:54:44,5072.543819104923,2,36,0.550297200679779,4.150925636291504,35.69909896618225,34.92691116753744,142.51824226436116,127.4116720459711,0.0001295089750783,0.0931148082017898,0,0,0
11895,412925.0594079245,2010-10-20 11:55:14,5102.559074702334,2,36,0.5499359965324402,4.154163360595703,35.703685324630584,34.92691116753744,142.53728719618414,127.4116720459711,6.47544875391759e-05,0.0931148082017898,0,0,0
11896,412955.07443497726,2010-10-20 11:55:44,5132.574101745118,2,36,0.5501165986061096,4.157562732696533,35.70827162627052,34.92691116753744,142.55634759945823,127.4116720459711,6.47544875391759e-05,0.0931148082017898,0,0,0
11897,412985.089566676,2010-10-20 11:56:14,5162.589233443737,2,36,0.5501165986061096,4.161448001861572,35.712858007746995,34.92691116753744,142.57542421577938,127.4116720459711,0.0001618385285837,0.0931148082017898,0,0,0
11898,413015.1047055825,2010-10-20 11:56:44,5192.604372380394,2,36,0.5501165986061096,4.164685726165772,35.7174443411304,34.92691116753744,142.59451652646524,127.4116720459711,9.70840483205393e-05,0.0931148082017898,0,0,0
11899,413045.1198555015,2010-10-20 11:57:14,5222.619522359573,2,36,0.5501165986061096,4.16808557510376,35.72203069322271,34.92691116753744,142.61362483339263,127.4116720459711,9.71794142969884e-05,0.0931148082017898,0,0,0
11900,413075.1349991951,2010-10-20 11:57:44,5252.634665992936,2,36,0.5499359965324402,4.171647071838379,35.726617056415385,34.92691116753744,142.63274942765477,127.4116720459711,0.0001295089750783,0.0931148082017898,0,0,0
11901,413105.1501500815,2010-10-20 11:58:14,5282.649816879376,2,36,0.5501165986061096,4.175208568572998,35.731203379856424,34.92691116753744,142.6518900577913,127.4116720459711,0.0001295089750783,0.0931148082017898,0,0,0
11902,413135.1655560136,2010-10-20 11:58:44,5312.665222796431,2,36,0.5501165986061096,4.178770065307617,35.73578974106275,34.92691116753744,142.6710472562113,127.4116720459711,9.71794142969884e-05,0.0931148082017898,0,0,0
11903,413165.1804181604,2010-10-20 11:59:14,5342.6800849582805,2,36,0.5501165986061096,4.182493209838867,35.74037612561688,34.92691116753744,142.69022116325962,127.4116720459711,9.70840483205393e-05,0.0931148082017898,0,0,0
11904,413195.19596204633,2010-10-20 11:59:44,5372.695628849208,2,36,0.5501165986061096,4.186054706573486,35.74496263247033,34.92691116753744,142.70941209344474,127.4116720459711,0.0001295089750783,0.0931148082017898,0,0,0
11905,413225.210700966,2010-10-20 12:00:14,5402.710367773914,2,36,0.5499359965324402,4.189778327941895,35.749548956861744,34.92691116753744,142.72861891492067,127.4116720459711,0.0001295089750783,0.0931148082017898,0,0,0
11906,413255.22583928617,2010-10-20 12:00:44,5432.725506053935,2,36,0.5501165986061096,4.193339824676514,35.75413529863667,34.92691116753744,142.74784262692202,127.4116720459711,9.71794142969884e-05,0.0931148082017898,0,0,0
11907,413285.24098627287,2010-10-20 12:01:14,5462.740653045667,2,36,0.5497553944587708,4.196900844573975,35.758721643487654,34.92691116753744,142.76708323812073,127.4116720459711,9.70840483205393e-05,0.0931148082017898,0,0,0
11908,413308.28763693257,2010-10-20 12:01:37,5485.787303760526,2,36,0.5501165986061096,4.200138568878174,35.76224322095942,34.92691116753744,142.78186845515572,127.4116720459711,0.0001618385285837,0.0931148082017898,0,0,0
11909,413338.30806001066,2010-10-20 12:02:07,30.01500820583608,3,36,0.0,4.1111016273498535,35.76224322095942,34.92691116753744,142.78186845515572,127.4116720459711,-0.0003885269106831,0.0931148082017898,0,0,0
11910,413368.32320297736,2010-10-20 12:02:37,60.030151087325336,3,36,0.0,4.099931716918945,35.76224322095942,34.92691116753744,142.78186845515572,127.4116720459711,-0.0002265930233988,0.0931148082017898,0,0,0
11911,413398.3387233647,2010-10-20 12:03:07,90.04567147467534,3,36,0.0,4.093132495880127,35.76224322095942,34.92691116753744,142.78186845515572,127.4116720459711,-0.0001618385285837,0.0931148082017898,0,0,0
11912,413428.3067340734,2010-10-20 12:03:37,120.01368218328756,3,36,0.0,4.088761329650879,35.76224322095942,34.92691116753744,142.78186845515572,127.4116720459711,-9.71794142969884e-05,0.0931148082017898,0,0,0
11913,413428.3141145246,2010-10-20 12:03:37,2.776920941e-06,4,36,1.0083223581314087,4.199976921081543,35.76224322173721,34.92691116753744,142.7818684584224,127.4116720459711,0.0,0.0931148082017898,0,0,0
11914,413428.9390605875,2010-10-20 12:03:38,0.624948739550881,4,36,0.9581129550933838,4.199814796447754,35.76241224921813,34.92691116753744,142.78257833062975,127.4116720459711,-3.24249267578125e-05,0.0931148082017898,0,0,0
11915,413430.8925518038,2010-10-20 12:03:40,2.578440015885746,4,36,0.9079036116600036,4.199653148651123,35.76291729211193,34.92691116753744,142.78469940780363,127.4116720459711,-6.47544875391759e-05,0.0931148082017898,0,0,0
11916,413433.9234985656,2010-10-20 12:03:43,5.609386727690552,4,36,0.8575136065483093,4.199814796447754,35.763659231784864,34.92691116753744,142.7878153900269,127.4116720459711,3.23295607813634e-05,0.0931148082017898,0,0,0
11917,413438.0952012322,2010-10-20 12:03:47,9.781089394336654,4,36,0.8074848055839539,4.199814796447754,35.764622745389474,34.92691116753744,142.79186195028333,127.4116720459711,-3.24249267578125e-05,0.0931148082017898,0,0,0
11918,413443.5950931803,2010-10-20 12:03:53,15.280981347358033,4,36,0.7574560642242432,4.199653148651123,35.765816779335445,34.92691116753744,142.7968766688245,127.4116720459711,-3.23295607813634e-05,0.0931148082017898,0,0,0
11919,413450.70452204446,2010-10-20 12:04:00,22.39041024669175,4,36,0.7072466611862183,4.199653148651123,35.76726131387753,34.92691116753744,142.80294346063167,127.4116720459711,-6.47544875391759e-05,0.0931148082017898,0,0,0
11920,413460.1104775247,2010-10-20 12:04:09,31.79636570182609,4,36,0.6572179198265076,4.199814796447754,35.76904116444323,34.92691116753744,142.81041850574962,127.4116720459711,0.0,0.0931148082017898,0,0,0
11921,413473.0008573676,2010-10-20 12:04:22,44.68674554967766,4,36,0.6068279147148132,4.199653148651123,35.77129977595959,34.92691116753744,142.8199042599449,127.4116720459711,-3.23295607813634e-05,0.0931148082017898,0,0,0
11922,413492.2661693728,2010-10-20 12:04:41,63.95205758505814,4,36,0.5567991733551025,4.199653148651123,35.77440488954249,34.92691116753744,142.8329451708154,127.4116720459711,-3.23295607813634e-05,0.0931148082017898,0,0,0
11923,413524.3281736377,2010-10-20 12:05:14,96.01406192009316,4,36,0.5065897703170776,4.199653148651123,35.77912252318995,34.92691116753744,142.85275834069333,127.4116720459711,-3.23295607813634e-05,0.0931148082017898,0,0,0
11924,413584.8115705431,2010-10-20 12:06:14,156.49745871016998,4,36,0.4565609991550445,4.199814796447754,35.78717702531776,34.92691116753744,142.88658577794828,127.4116720459711,-3.24249267578125e-05,0.0931148082017898,0,0,0
11925,413682.7631043393,2010-10-20 12:07:52,254.44899248627348,4,36,0.4065322279930115,4.199653148651123,35.798887433415416,34.92691116753744,142.93576733489988,127.4116720459711,-6.47544875391759e-05,0.0931148082017898,0,0,0
11926,413808.8080958111,2010-10-20 12:09:58,380.49398396812046,4,36,0.3565034568309784,4.199653148651123,35.81222568350851,34.92691116753744,142.9917855856409,127.4116720459711,-3.23295607813634e-05,0.0931148082017898,0,0,0
11927,413959.2117807169,2010-10-20 12:12:28,530.8976688689503,4,36,0.3064746856689453,4.199814796447754,35.8260570523715,34.92691116753744,143.0498747844817,127.4116720459711,0.0,0.0931148082017898,0,0,0
11928,414139.3026311838,2010-10-20 12:15:28,710.9885193358833,4,36,0.2564459443092346,4.199653148651123,35.8401199137415,34.92691116753744,143.10893616618415,127.4116720459711,0.0,0.0931148082017898,0,0,0
11929,414362.3772773654,2010-10-20 12:19:12,934.0631655826828,4,36,0.2062365561723709,4.199814796447754,35.85442890256626,34.92691116753744,143.16903127825915,127.4116720459711,-3.24249267578125e-05,0.0931148082017898,0,0,0
11930,414650.247500943,2010-10-20 12:23:59,1221.9333890951295,4,36,0.1562077850103378,4.199653148651123,35.86886427237884,34.92691116753744,143.2296571585511,127.4116720459711,0.0,0.0931148082017898,0,0,0
11931,415060.3660310805,2010-10-20 12:30:50,1632.0519193277862,4,36,0.1061790138483047,4.199653148651123,35.88367550621615,34.92691116753744,143.2918616000182,127.4116720459711,-3.23295607813634e-05,0.0931148082017898,0,0,0
11932,415791.5572475489,2010-10-20 12:43:01,2363.2431357009004,4,36,0.0561502426862716,4.199814796447754,35.89963310743632,34.92691116753744,143.3588805785379,127.4116720459711,0.0,0.0931148082017898,0,0,0
11933,415934.6643211893,2010-10-20 12:45:24,2506.350209376446,4,36,0.0498289167881011,4.199653148651123,35.901760771280586,34.92691116753744,143.36781637120632,127.4116720459711,-6.47544875391759e-05,0.0931148082017898,0,0,0
11934,415964.66496485285,2010-10-20 12:45:54,30.015261812902928,5,36,0.0,4.191397190093994,35.901760771280586,34.92691116753744,143.36781637120632,127.4116720459711,-6.47544875391759e-05,0.0931148082017898,0,0,0
11935,415994.66447345895,2010-10-20 12:46:24,60.01477035380486,5,36,0.0,4.1901021003723145,35.901760771280586,34.92691116753744,143.36781637120632,127.4116720459711,0.0,0.0931148082017898,0,0,0
11936,415994.8381190491,2010-10-20 12:46:24,0.187408755282396,6,36,-1.9243103452026844e-05,4.1901021003723145,35.901760771280586,34.9269111685392,143.36781637120632,127.41167205016856,0.0,0.0979729741811752,0,0,0
11937,415999.6661861077,2010-10-20 12:46:29,5.015475834001666,6,36,0.0007031940040178,4.1901021003723145,35.90176172218607,34.92691116862418,143.36782035574248,127.41167205052464,-6.47544875391759e-05,0.0979729741811752,0,0,0
11938,416029.6676945828,2010-10-20 12:46:59,30.01509975400228,7,36,-1.099568486213684,4.0042572021484375,35.90176172218607,34.93607846463631,143.36782035574248,127.44859052947068,-0.0010360718006268,0.0979729741811752,0,0,0
11939,416059.6828518602,2010-10-20 12:47:29,60.03025703638298,7,36,-1.099568486213684,3.9749557971954346,35.90176172218607,34.94524567997798,143.36782035574248,127.4851565695883,-0.0006799221155233,0.0979729741811752,0,0,0
11940,416089.698030205,2010-10-20 12:47:59,90.0454354464203,7,36,-1.0993878841400146,3.9547200202941895,35.90176172218607,34.95441275604835,143.36782035574248,127.52149933314752,-0.0004532813909463,0.0979729741811752,0,0,0
11941,416119.7132628903,2010-10-20 12:48:29,120.0606680615534,7,36,-1.0993878841400146,3.939340829849243,35.90176172218607,34.96357988208796,143.36782035574248,127.55767976466647,-0.0003885269106831,0.0979729741811752,0,0,0
11942,416149.7282663192,2010-10-20 12:48:59,150.0756714654215,7,36,-1.0993878841400146,3.926228046417236,35.90176172218607,34.97274692320836,143.36782035574248,127.59373039147584,-0.0003237724304199,0.0979729741811752,0,0,0
11943,416179.7433965893,2010-10-20 12:49:29,180.09080173046672,7,36,-1.0993878841400146,3.915219783782959,35.90176172218607,34.98191395735287,143.36782035574248,127.6296705125224,-0.0002266406954731,0.0979729741811752,0,0,0
11944,416209.7585425685,2010-10-20 12:49:59,210.1059477497764,7,36,-1.099568486213684,3.9048593044281006,35.90176172218607,34.99108102284568,143.36782035574248,127.66551212298462,-0.0002590179501567,0.0979729741811752,0,0,0
11945,416239.7736633298,2010-10-20 12:50:29,240.12106851113543,7,36,-1.099568486213684,3.894984245300293,35.90176172218607,35.000248139119485,143.36782035574248,127.70126299181617,-0.0002913951757363,0.0979729741811752,0,0,0
11946,416269.7889369773,2010-10-20 12:50:59,270.1363421284586,7,36,-1.099568486213684,3.885756731033325,35.90176172218607,35.00941529863176,143.36782035574248,127.73692821001296,-0.0002913951757363,0.0979729741811752,0,0,0
11947,416299.8039821954,2010-10-20 12:51:29,300.151387431753,7,36,-1.0993878841400146,3.877176761627197,35.90176172218607,35.018582416307524,143.36782035574248,127.7725102484743,-0.0002266406954731,0.0979729741811752,0,0,0
11948,416329.8191546505,2010-10-20 12:51:59,330.16655984684905,7,36,-1.0993878841400146,3.868596792221069,35.90176172218607,35.02774948725007,143.36782035574248,127.80801245670624,-0.0002266406954731,0.0979729741811752,0,0,0
11949,416359.8344930192,2010-10-20 12:52:29,360.18189830076494,7,36,-1.0993878841400146,3.860340595245361,35.90176172218607,35.03691661914387,143.36782035574248,127.8434374431068,-0.0001618862152099,0.0979729741811752,0,0,0
11950,416389.8493926494,2010-10-20 12:52:59,390.19679779566,7,36,-1.099568486213684,3.852084398269653,35.90176172218607,35.04608367030351,143.36782035574248,127.87878583860576,-0.0001942634553415,0.0979729741811752,0,0,0
11951,416419.8646673093,2010-10-20 12:53:29,420.2120724656066,7,36,-1.0993878841400146,3.8439900875091553,35.90176172218607,35.05525082691607,143.36782035574248,127.91406023703308,-0.0001942634553415,0.0979729741811752,0,0,0
11952,416449.879683891,2010-10-20 12:53:59,450.2270890322805,7,36,-1.099568486213684,3.8357338905334473,35.90176172218607,35.06441792038762,143.36782035574248,127.94926081154684,-0.0002266406954731,0.0979729741811752,0,0,0
11953,416479.8948219204,2010-10-20 12:54:29,480.2422270666893,7,36,-1.0993878841400146,3.827963590621948,35.90176172218607,35.073585028411635,143.36782035574248,127.98438846245266,-0.0002266406954731,0.0979729741811752,0,0,0
11954,416509.9099588021,2010-10-20 12:55:00,510.25736393819983,7,36,-1.099568486213684,3.82035493850708,35.90176172218607,35.08275219546034,143.36782035574248,128.01944514921524,-0.0001942634553415,0.0979729741811752,0,0,0
11955,416539.9252433867,2010-10-20 12:55:30,540.2726485729819,7,36,-1.0997490882873535,3.812746286392212,35.90176172218607,35.091919420177426,143.36782035574248,128.05443237264143,-0.0002266406954731,0.0979729741811752,0,0,0
11956,416569.9402548706,2010-10-20 12:56:00,570.2876600118758,7,36,-1.099568486213684,3.805461406707764,35.90176172218607,35.10108652585043,143.36782035574248,128.08934986808654,-0.0001295089750783,0.0979729741811752,0,0,0
11957,416599.9555041022,2010-10-20 12:56:30,600.3029092584595,7,36,-1.0993878841400146,3.798338413238525,35.90176172218607,35.11025369858933,143.36782035574248,128.12420120412472,-0.0001618862152099,0.0979729741811752,0,0,0
11958,416629.9705199973,2010-10-20 12:57:00,630.3179252236343,7,36,-1.099568486213684,3.791053533554077,35.90176172218607,35.11942080659135,143.36782035574248,128.15898679808893,-0.0001942634553415,0.0979729741811752,0,0,0
11959,416659.9856652597,2010-10-20 12:57:30,660.3330704309201,7,36,-1.0993878841400146,3.784254312515259,35.90176172218607,35.12858795029158,143.36782035574248,128.19370835588086,-0.0001942634553415,0.0979729741811752,0,0,0
11960,416690.0008115748,2010-10-20 12:58:00,690.3482167259169,7,36,-1.0992072820663452,3.77745509147644,35.90176172218607,35.13775515147883,143.36782035574248,128.22836684894213,-0.0001295089750783,0.0979729741811752,0,0,0
11961,416720.01593971945,2010-10-20 12:58:30,720.3633448556402,7,36,-1.0993878841400146,3.770655870437622,35.90176172218607,35.14692235337921,143.36782035574248,128.26296367451678,-0.0001942634553415,0.0979729741811752,0,0,0
11962,416750.03109627,2010-10-20 12:59:00,750.3785014613344,7,36,-1.099568486213684,3.764180421829224,35.90176172218607,35.15608954737765,143.36782035574248,128.29749996077504,-0.0001618862152099,0.0979729741811752,0,0,0
11963,416780.046351276,2010-10-20 12:59:30,780.3937564622598,7,36,-1.099568486213684,3.757704973220825,35.90176172218607,35.16525672498674,143.36782035574248,128.33197764950887,-0.0001942634553415,0.0979729741811752,0,0,0
11964,416810.0613816972,2010-10-20 13:00:00,810.4087869536384,7,36,-1.0993878841400146,3.751553535461426,35.90176172218607,35.17442385394226,143.36782035574248,128.3663969530797,-0.0001618862152099,0.0979729741811752,0,0,0
11965,416840.07650616777,2010-10-20 13:00:30,840.4239113340169,7,36,-1.099568486213684,3.745239973068237,35.90176172218607,35.18359100771084,143.36782035574248,128.40075871718784,-0.0001295089750783,0.0979729741811752,0,0,0
11966,416870.09163727495,2010-10-20 13:01:00,870.439042421111,7,36,-1.099568486213684,3.739088296890259,35.90176172218607,35.19275817942753,143.36782035574248,128.43506427145087,-0.0001618862152099,0.0979729741811752,0,0,0
11967,416900.1069313582,2010-10-20 13:01:30,900.4543375219779,7,36,-1.099568486213684,3.7332603931427,35.90176172218607,35.20192538541175,143.36782035574248,128.4693153756538,-0.0001618862152099,0.0979729741811752,0,0,0
11968,416930.1219306168,2010-10-20 13:02:00,930.469335757966,7,36,-1.099568486213684,3.7274324893951416,35.90176172218607,35.21109251977644,143.36782035574248,128.5035125146195,-0.0001942634553415,0.0979729741811752,0,0,0
11969,416960.13708061096,2010-10-20 13:02:30,960.4844857772448,7,36,-1.099568486213684,3.721766471862793,35.90176172218607,35.22025964345092,143.36782035574248,128.53765730289558,-0.0001618862152099,0.0979729741811752,0,0,0
11970,416990.1521986756,2010-10-20 13:03:00,990.4996038719578,7,36,-1.099568486213684,3.716100454330444,35.90176172218607,35.22942682236543,143.36782035574248,128.57174993341854,-0.0001942634553415,0.0979729741811752,0,0,0
11971,417020.1674607242,2010-10-20 13:03:30,1020.5148658703228,7,36,-1.0993878841400146,3.710434436798096,35.90176172218607,35.23859405676841,143.36782035574248,128.60579039993837,-0.0001618862152099,0.0979729741811752,0,0,0
11972,417050.1824857669,2010-10-20 13:04:00,1050.5298909131218,7,36,-1.0997490882873535,3.704768419265747,35.90176172218607,35.24776116208965,143.36782035574248,128.63977891065295,-0.0001942634553415,0.0979729741811752,0,0,0
11973,417080.1977628779,2010-10-20 13:04:30,1080.5451680291649,7,36,-1.0993878841400146,3.6994261741638175,35.90176172218607,35.256928350402745,143.36782035574248,128.67371782758914,-0.0001942634553415,0.0979729741811752,0,0,0
11974,417110.2127595751,2010-10-20 13:05:00,1110.560164726318,7,36,-1.0993878841400146,3.6942458152771,35.90176172218607,35.266095501919885,143.36782035574248,128.70760760616875,-0.0001295089750783,0.0979729741811752,0,0,0
11975,417140.2279036997,2010-10-20 13:05:30,1140.5753088458928,7,36,-1.0993878841400146,3.688903570175171,35.90176172218607,35.27526269586027,143.36782035574248,128.7414484355313,-9.713172767078504e-05,0.0979729741811752,0,0,0
11976,417170.243254324,2010-10-20 13:06:00,1170.5906595152535,7,36,-1.0993878841400146,3.683885097503662,35.90176172218607,35.284429871861335,143.36782035574248,128.77524121614329,-9.713172767078504e-05,0.0979729741811752,0,0,0
11977,417200.2584183231,2010-10-20 13:06:30,1200.605823614624,7,36,-1.099568486213684,3.678542852401733,35.90176172218607,35.29359724236419,143.36782035574248,128.8089873969178,-0.0001295089750783,0.0979729741811752,0,0,0
11978,417230.2733230509,2010-10-20 13:07:00,1230.620728197199,7,36,-1.099568486213684,3.673362493515015,35.90176172218607,35.302765115514816,143.36782035574248,128.84268820278234,-0.0001618862152099,0.0979729741811752,0,0,0
11979,417260.2884634664,2010-10-20 13:07:30,1260.635868632592,7,36,-1.099568486213684,3.668506145477295,35.90176172218607,35.31193316940197,143.36782035574248,128.87634403225542,-0.0001295089750783,0.0979729741811752,0,0,0
11980,417290.3040509208,2010-10-20 13:08:00,1290.6514562124062,7,36,-1.099568486213684,3.663649559020996,35.90176172218607,35.3211012684353,143.36782035574248,128.9099553205063,-0.0001618862152099,0.0979729741811752,0,0,0
11981,417320.31898402446,2010-10-20 13:08:30,1320.66638920579,7,36,-1.0993878841400146,3.6589548587799072,35.90176172218607,35.33026896336592,143.36782035574248,128.94352108625796,-0.0001295089750783,0.0979729741811752,0,0,0
11982,417350.3339168576,2010-10-20 13:09:00,1350.6813220888985,7,36,-1.099568486213684,3.654098272323608,35.90176172218607,35.33943611433703,143.36782035574248,128.97704123190462,-0.0001618862152099,0.0979729741811752,0,0,0
11983,417380.3491707506,2010-10-20 13:09:30,1380.6965759068755,7,36,-1.0993878841400146,3.6495654582977295,35.90176172218607,35.34860330765312,143.36782035574248,129.0105186937497,-0.0001618862152099,0.0979729741811752,0,0,0
11984,417410.3641895579,2010-10-20 13:10:00,1410.711594739196,7,36,-1.099568486213684,3.6448707580566406,35.90176172218607,35.357770398706315,143.36782035574248,129.0439536265414,-0.0001618862152099,0.0979729741811752,0,0,0
11985,417440.379424584,2010-10-20 13:10:30,1440.7268297352632,7,36,-1.099568486213684,3.6403379440307617,35.90176172218607,35.366937552831985,143.36782035574248,129.07734719974542,-0.0001295089750783,0.0979729741811752,0,0,0
11986,417470.3944371808,2010-10-20 13:11:00,1470.741842352093,7,36,-1.0993878841400146,3.636128902435303,35.90176172218607,35.3761046584868,143.36782035574248,129.11069939882825,-9.713172767078504e-05,0.0979729741811752,0,0,0
11987,417500.409573526,2010-10-20 13:11:30,1500.7569786922793,7,36,-1.0993878841400146,3.631757974624634,35.90176172218607,35.385271794740014,143.36782035574248,129.1440109242507,-3.237724376958795e-05,0.0979729741811752,0,0,0
11988,417530.4247272394,2010-10-20 13:12:00,1530.77213241579,7,36,-1.099568486213684,3.627225160598755,35.90176172218607,35.39443891669664,143.36782035574248,129.17728255185014,-0.0001618862152099,0.0979729741811752,0,0,0
11989,417560.4398512239,2010-10-20 13:12:30,1560.787256360082,7,36,-1.099568486213684,3.623016119003296,35.90176172218607,35.403606041714426,143.36782035574248,129.2105149658035,-0.0001618862152099,0.0979729741811752,0,0,0
11990,417590.4552997772,2010-10-20 13:13:00,1590.8027050587618,7,36,-1.0993878841400146,3.618807077407837,35.90176172218607,35.412773340076726,143.36782035574248,129.2437094871201,-0.0001295089750783,0.0979729741811752,0,0,0
11991,417620.4701388616,2010-10-20 13:13:30,1620.817544007758,7,36,-1.099568486213684,3.614759922027588,35.90176172218607,35.42194043117284,143.36782035574248,129.2768659452432,-0.0001295089750783,0.0979729741811752,0,0,0
11992,417650.4852887104,2010-10-20 13:14:00,1650.8326938515995,7,36,-1.0993878841400146,3.6111984252929688,35.90176172218607,35.43110764608005,143.36782035574248,129.30998660776592,-3.237724376958795e-05,0.0979729741811752,0,0,0
11993,417680.5004191258,2010-10-20 13:14:30,1680.8478243021068,7,36,-1.099568486213684,3.6069893836975098,35.90176172218607,35.44027478776241,143.36782035574248,129.34307141791098,-0.0001295089750783,0.0979729741811752,0,0,0
11994,417710.5155549397,2010-10-20 13:15:00,1710.862960110969,7,36,-1.099568486213684,3.60342788696289,35.90176172218607,35.44944199016695,143.36782035574248,129.376121376344,-9.713172767078504e-05,0.0979729741811752,0,0,0
11995,417740.53070098406,2010-10-20 13:15:30,1740.878106125266,7,36,-1.0993878841400146,3.599542617797852,35.90176172218607,35.45860916397939,143.36782035574248,129.40913634412507,-9.713172767078504e-05,0.0979729741811752,0,0,0
11996,417770.5458393092,2010-10-20 13:16:00,1770.893244505537,7,36,-1.099568486213684,3.5959811210632324,35.90176172218607,35.46777639246632,143.36782035574248,129.4421180602492,-0.0001295089750783,0.0979729741811752,0,0,0
11997,417800.56098906783,2010-10-20 13:16:30,1800.908394234091,7,36,-1.099568486213684,3.5924196243286133,35.90176172218607,35.476943568781486,143.36782035574248,129.47506657425643,-9.713172767078504e-05,0.0979729741811752,0,0,0
11998,417830.57611201465,2010-10-20 13:17:00,1830.9235171758844,7,36,-1.0997490882873535,3.588858366012573,35.90176172218607,35.48611074561686,143.36782035574248,129.5079824084807,-6.47544875391759e-05,0.0979729741811752,0,0,0
11999,417860.59125004406,2010-10-20 13:17:30,1860.9386552002684,7,36,-1.0997490882873535,3.585296869277954,35.90176172218607,35.49527798361438,143.36782035574248,129.5408665600594,-0.0001295089750783,0.0979729741811752,0,0,0
12000,417890.6065452652,2010-10-20 13:18:00,1890.9539504414847,7,36,-1.0993878841400146,3.582059144973755,35.90176172218607,35.50444519955222,143.36782035574248,129.5737192839868,-6.47544875391759e-05,0.0979729741811752,0,0,0
12001,417920.6215353158,2010-10-20 13:18:30,1920.968940577285,7,36,-1.0997490882873535,3.5786595344543457,35.90176172218607,35.513612417374006,143.36782035574248,129.60654100397534,-0.0001295089750783,0.0979729741811752,0,0,0
12002,417950.6366830845,2010-10-20 13:19:00,1950.9840882507167,7,36,-1.0993878841400146,3.5752599239349365,35.90176172218607,35.52277967096184,143.36782035574248,129.63933230428597,-0.0001295089750783,0.0979729741811752,0,0,0
12003,417980.651823996,2010-10-20 13:19:30,1980.9992291622968,7,36,-1.0993878841400146,3.5721840858459477,35.90176172218607,35.53194692676191,143.36782035574248,129.67209375909553,-9.713172767078504e-05,0.0979729741811752,0,0,0
12004,418010.6669844764,2010-10-20 13:20:00,2011.0143896677105,7,36,-1.0993878841400146,3.569108247756958,35.90176172218607,35.541114132000885,143.36782035574248,129.70482545404923,-6.47544875391759e-05,0.0979729741811752,0,0,0
12005,418040.6822169712,2010-10-20 13:20:30,2041.0296221124188,7,36,-1.0997490882873535,3.565546751022339,35.90176172218607,35.55028133504968,143.36782035574248,129.73752723110448,-9.713172767078504e-05,0.0979729741811752,0,0,0
12006,418070.6972605502,2010-10-20 13:21:00,2071.044665736528,7,36,-1.099568486213684,3.56230902671814,35.90176172218607,35.55944851047424,143.36782035574248,129.77019938401114,-9.713172767078504e-05,0.0979729741811752,0,0,0
12007,418100.7123853968,2010-10-20 13:21:30,2101.0597905429686,7,36,-1.0993878841400146,3.5593950748443604,35.90176172218607,35.568615695021094,143.36782035574248,129.8028427619227,-6.47544875391759e-05,0.0979729741811752,0,0,0
12008,418130.7278559199,2010-10-20 13:22:00,2131.0752611662915,7,36,-1.0993878841400146,3.556157350540161,35.90176172218607,35.57778305140603,143.36782035574248,129.83545779810024,-9.713172767078504e-05,0.0979729741811752,0,0,0
12009,418160.7426558014,2010-10-20 13:22:30,2161.09006094767,7,36,-1.0993878841400146,3.552919626235962,35.90176172218607,35.58695017093602,143.36782035574248,129.8680431065996,-0.0001295089750783,0.0979729741811752,0,0,0
12010,418190.7579399601,2010-10-20 13:23:00,2191.1053452265646,7,36,-1.0993878841400146,3.5498437881469727,35.90176172218607,35.59611739510722,143.36782035574248,129.90060004920284,-6.47544875391759e-05,0.0979729741811752,0,0,0
12011,418220.7729539303,2010-10-20 13:23:30,2221.1203591867425,7,36,-1.0993878841400146,3.5467679500579834,35.90176172218607,35.60528458556302,143.36782035574248,129.93312733912833,-6.47544875391759e-05,0.0979729741811752,0,0,0
12012,418250.78808407503,2010-10-20 13:24:00,2251.1354892162008,7,36,-1.099568486213684,3.543368339538574,35.90176172218607,35.61445180027697,143.36782035574248,129.9656254327143,-0.0001295089750783,0.0979729741811752,0,0,0
12013,418280.8033344946,2010-10-20 13:24:30,2281.15073964072,7,36,-1.099568486213684,3.540130615234375,35.90176172218607,35.6236189852072,143.36782035574248,129.99809396160165,-9.713172767078504e-05,0.0979729741811752,0,0,0
12014,418310.8183597428,2010-10-20 13:25:00,2311.165765009331,7,36,-1.099568486213684,3.536892890930176,35.90176172218607,35.632786187298485,143.36782035574248,130.0305329779774,-9.713172767078504e-05,0.0979729741811752,0,0,0
12015,418340.83352812286,2010-10-20 13:25:30,2341.1809332690705,7,36,-1.0993878841400146,3.5338170528411865,35.90176172218607,35.641953471103754,143.36782035574248,130.06294258883472,-6.47544875391759e-05,0.0979729741811752,0,0,0
12016,418370.8486497915,2010-10-20 13:26:00,2371.1960550229032,7,36,-1.0993878841400146,3.5302555561065674,35.90176172218607,35.65112074571732,143.36782035574248,130.09532165845732,-0.0001295089750783,0.0979729741811752,0,0,0
12017,418400.86376309424,2010-10-20 13:26:30,2401.2111682454733,7,36,-1.0993878841400146,3.527017831802368,35.90176172218607,35.66028801661474,143.36782035574248,130.12767001528246,-6.47544875391759e-05,0.0979729741811752,0,0,0
12018,418430.878923324,2010-10-20 13:27:01,2431.2263284852247,7,36,-1.099568486213684,3.523456335067749,35.90176172218607,35.669455263693486,143.36782035574248,130.15998685561055,-9.713172767078504e-05,0.0979729741811752,0,0,0
12019,418460.8940548121,2010-10-20 13:27:31,2461.2414599783306,7,36,-1.099568486213684,3.51989483833313,35.90176172218607,35.67862246652899,143.36782035574248,130.19227110581662,-9.713172767078504e-05,0.0979729741811752,0,0,0
12020,418490.9092009567,2010-10-20 13:28:01,2491.2566061881157,7,36,-1.099568486213684,3.5164952278137207,35.90176172218607,35.687789731494554,143.36782035574248,130.22452292008555,-3.237724376958795e-05,0.0979729741811752,0,0,0
12021,418520.9243284198,2010-10-20 13:28:31,2521.2717335860143,7,36,-1.0993878841400146,3.5129337310791016,35.90176172218607,35.696957011940235,143.36782035574248,130.25674181789765,-3.237724376958795e-05,0.0979729741811752,0,0,0
12022,418550.93946450925,2010-10-20 13:29:01,2551.286869645501,7,36,-1.0993878841400146,3.508886814117432,35.90176172218607,35.706124228418105,143.36782035574248,130.28892609953226,-9.713172767078504e-05,0.0979729741811752,0,0,0
12023,418580.95461906993,2010-10-20 13:29:31,2581.3020242161238,7,36,-1.099568486213684,3.5048396587371826,35.90176172218607,35.71529149819523,143.36782035574248,130.32107447724934,-0.0001295089750783,0.0979729741811752,0,0,0
12024,418610.9697667634,2010-10-20 13:30:01,2611.3171719396805,7,36,-1.099568486213684,3.500630617141724,35.90176172218607,35.72445877780436,143.36782035574248,130.35318507291916,-9.713172767078504e-05,0.0979729741811752,0,0,0
12025,418640.9849025572,2010-10-20 13:30:31,2641.3323077234804,7,36,-1.0993878841400146,3.4959359169006348,35.90176172218607,35.7336260432329,143.36782035574248,130.38525531956677,-0.0001295089750783,0.0979729741811752,0,0,0
12026,418671.0000261357,2010-10-20 13:31:01,2671.34743130186,7,36,-1.0997490882873535,3.491403102874756,35.90176172218607,35.74279332654656,143.36782035574248,130.417283488735,-0.0001295089750783,0.0979729741811752,0,0,0
12027,418701.0151965959,2010-10-20 13:31:31,2701.3626017670967,7,36,-1.0993878841400146,3.486384630203247,35.90176172218607,35.75196058894706,143.36782035574248,130.44926649090854,-9.713172767078504e-05,0.0979729741811752,0,0,0
12028,418731.0303195276,2010-10-20 13:32:01,2731.3777246938525,7,36,-1.0997490882873535,3.4805567264556885,35.90176172218607,35.76112784613938,143.36782035574248,130.48120208864034,-0.0001942634553415,0.0979729741811752,0,0,0
12029,418761.04545703565,2010-10-20 13:32:31,2761.3928622119743,7,36,-1.0992072820663452,3.47505259513855,35.90176172218607,35.770295054547155,143.36782035574248,130.5130849320274,-9.713172767078504e-05,0.0979729741811752,0,0,0
12030,418791.0605829599,2010-10-20 13:33:01,2791.407988126176,7,36,-1.099568486213684,3.4682533740997314,35.90176172218607,35.77946224981903,143.36782035574248,130.5449095229981,-0.0001942634553415,0.0979729741811752,0,0,0
12031,418821.0757234504,2010-10-20 13:33:31,2821.4231285866317,7,36,-1.099568486213684,3.4604828357696533,35.90176172218607,35.78862948600056,143.36782035574248,130.57666893852112,-0.0002266406954731,0.0979729741811752,0,0,0
12032,418851.09089163,2010-10-20 13:34:01,2851.438296826321,7,36,-1.099568486213684,3.4519028663635254,35.90176172218607,35.79779672808923,143.36782035574248,130.60835397969086,-0.0002590179501567,0.0979729741811752,0,0,0
12033,418881.10600753926,2010-10-20 13:34:31,2881.4534127005,7,36,-1.099568486213684,3.441704034805298,35.90176172218607,35.80696396924006,143.36782035574248,130.63995300425003,-0.0002913951757363,0.0979729741811752,0,0,0
12034,418911.1212667457,2010-10-20 13:35:01,2911.468672017181,7,36,-1.099568486213684,3.43004846572876,35.90176172218607,35.81613124358646,143.36782035574248,130.6714519938762,-0.0002913475036621,0.0979729741811752,0,0,0
12035,418941.1362898737,2010-10-20 13:35:31,2941.483695009871,7,36,-1.0993878841400146,3.415964365005493,35.90176172218607,35.8252984331492,143.36782035574248,130.70283365045591,-0.0004209041653666,0.0979729741811752,0,0,0
12036,418971.1514089709,2010-10-20 13:36:01,2971.4988142323946,7,36,-1.099568486213684,3.3988044261932373,35.90176172218607,35.83446566505399,143.36782035574248,130.7340740286299,-0.0005180359003134,0.0979729741811752,0,0,0
12037,419001.1665374715,2010-10-20 13:36:31,3001.5139426327924,7,36,-1.099568486213684,3.3779211044311523,35.90176172218607,35.84363277029773,143.36782035574248,130.76514036799878,-0.0006151676061563,0.0979729741811752,0,0,0
12038,419031.1816813856,2010-10-20 13:37:01,3031.529086672168,7,36,-1.0993878841400146,3.351209878921509,35.90176172218607,35.85279999277076,143.36782035574248,130.79598955346347,-0.0008094310760498,0.0979729741811752,0,0,0
12039,419061.19683550514,2010-10-20 13:37:31,3061.544240651316,7,36,-1.099568486213684,3.3159189224243164,35.90176172218607,35.86196718056193,143.36782035574248,130.8265563041482,-0.0010684489971026,0.0979729741811752,0,0,0
12040,419091.2129247552,2010-10-20 13:38:01,3091.5603300417965,7,36,-1.0993878841400146,3.268000841140747,35.90176172218607,35.87113462278133,143.36782035574248,130.8567466371197,-0.0014245510101318,0.0979729741811752,0,0,0
12041,419121.2272877781,2010-10-20 13:38:31,3121.574693074663,7,36,-1.0993878841400146,3.199846744537353,35.90176172218607,35.88030151533363,143.36782035574248,130.88640980118865,-0.0021368979942053,0.0979729741811752,0,0,0
12042,419151.2422853324,2010-10-20 13:39:01,3151.589690573815,7,36,-1.0993878841400146,3.0976970195770264,35.90176172218607,35.88946866417432,143.36782035574248,130.91530783039363,-0.0032376765739172,0.0979729741811752,0,0,0
12043,419181.2573820037,2010-10-20 13:39:31,3181.6047871799715,7,36,-1.099568486213684,2.919298887252808,35.90176172218607,35.89863583825262,143.36782035574248,130.94298536781423,-0.0064754011109471,0.0979729741811752,0,0,0
12044,419199.819581777,2010-10-20 13:39:49,3200.1669870083906,7,36,-1.099568486213684,2.719046115875244,35.90176172218607,35.90430510253626,143.36782035574248,130.95900828014018,-0.010004567913711,0.0979729741811752,0,0,0
12045,419201.2884496677,2010-10-20 13:39:51,3201.635854929208,7,36,-1.099568486213684,2.699620008468628,35.90176172218607,35.904753731504954,143.36782035574248,130.9602238218342,-0.0102959154173731,0.0979729741811752,0,0,0
12046,419261.29450907314,2010-10-20 13:40:51,60.014888854144175,8,36,0.0,3.383910894393921,35.90176172218607,35.904753731504954,143.36782035574248,130.9602238218342,0.0013922214275225,0.0979729741811752,0,0,0
12047,419261.4738736922,2010-10-20 13:40:51,0.187350780792128,9,36,-1.9243103452026844e-05,3.383910894393921,35.90176172218607,35.9047537325064,143.36782035574248,130.960223825223,0.0,0.0909321531653404,0,0,0
12048,419266.3018795234,2010-10-20 13:40:56,5.015356707100775,9,36,0.0008838032954372,3.392005205154419,35.90176263114929,35.904753732590024,143.36782343590673,130.96022382550598,0.0011655807029455,0.0909321531653404,0,0,0
