Data_Point,Test_Time(s),Date_Time,Step_Time(s),Step_Index,Cycle_Index,Current(A),Voltage(V),Charge_Capacity(Ah),Discharge_Capacity(Ah),Charge_Energy(Wh),Discharge_Energy(Wh),dV/dt(V/s),Internal_Resistance(Ohm),Is_FC_Data,AC_Impedance(Ohm),ACI_Phase_Angle(Deg)
8755,303252.4824602113,2010-10-19 05:27:10,30.015080897004843,1,27,0.0,3.4022040367126465,26.05157132430001,26.05970844773141,103.9690753503735,95.15959509106392,0.0008094310760498,0.0923885703086853,0,0,0
8756,303282.4975547273,2010-10-19 05:27:40,60.03017537786483,1,27,0.0,3.4268107414245605,26.05157132430001,26.05970844773141,103.9690753503735,95.15959509106392,0.0005504131549969,0.0923885703086853,0,0,0
8757,303312.5127218292,2010-10-19 05:28:10,90.04534248473117,1,27,0.0,3.445913076400757,26.05157132430001,26.05970844773141,103.9690753503735,95.15959509106392,0.0005180359003134,0.0923885703086853,0,0,0
8758,303342.4810166609,2010-10-19 05:28:40,120.01363733150312,1,27,0.0,3.460806608200073,26.05157132430001,26.05970844773141,103.9690753503735,95.15959509106392,0.0003885269106831,0.0923885703086853,0,0,0
8759,303372.4960030392,2010-10-19 05:29:10,30.01486272324871,2,27,0.5501165986061096,3.615083694458008,26.056157584984323,26.05970844773141,103.98549709379644,95.15959509106392,0.0015541076427325,0.0923885703086853,0,0,0
8760,303402.5112529975,2010-10-19 05:29:40,60.030112741756376,2,27,0.5501165986061096,3.660735607147217,26.06074395621579,26.05970844773141,104.00218879690168,95.15959509106392,0.0010036944877356,0.0923885703086853,0,0,0
8761,303432.52630779444,2010-10-19 05:30:10,90.04516747856195,2,27,0.5501165986061096,3.69359827041626,26.065330219766263,26.05970844773141,104.01905675368836,95.15959509106392,0.0008094310760498,0.0923885703086853,0,0,0
8762,303462.5414608463,2010-10-19 05:30:40,120.06032053039884,2,27,0.550297200679779,3.7188525199890137,26.06991650630491,26.05970844773141,104.0360566941436,95.15959509106392,0.0006151676061563,0.0923885703086853,0,0,0
8763,303492.5566223943,2010-10-19 05:31:10,150.0754820784108,2,27,0.5501165986061096,3.739412069320679,26.074502853416604,26.05970844773141,104.05316169005069,95.15959509106392,0.0005180359003134,0.0923885703086853,0,0,0
8764,303522.57177483966,2010-10-19 05:31:40,180.09063452373607,2,27,0.5501165986061096,3.7560861110687256,26.07908913676459,26.05970844773141,104.07035140388786,95.15959509106392,0.0003885269106831,0.0923885703086853,0,0,0
8765,303552.58694518456,2010-10-19 05:32:10,210.10580489373515,2,27,0.5499359965324402,3.7677419185638423,26.083675465067092,26.05970844773141,104.08760682444132,95.15959509106392,0.0002266406954731,0.0923885703086853,0,0,0
8766,303582.60208002606,2010-10-19 05:32:40,240.1209397101237,2,27,0.5501165986061096,3.775026798248291,26.08826181085037,26.05970844773141,104.10490506332393,95.15959509106392,0.0001618862152099,0.0923885703086853,0,0,0
8767,303612.6172240303,2010-10-19 05:33:10,270.1360837093988,2,27,0.5499359965324402,3.77972149848938,26.092848054827645,26.05970844773141,104.12222918930806,95.15959509106392,0.0001618862152099,0.0923885703086853,0,0,0
8768,303642.6323936384,2010-10-19 05:33:40,300.1512533225115,2,27,0.5501165986061096,3.783444881439209,26.09743438544962,26.05970844773141,104.13957325085988,95.15959509106392,3.237724376958795e-05,0.0923885703086853,0,0,0
8769,303672.6475277079,2010-10-19 05:34:10,330.166387447176,2,27,0.5499359965324402,3.787330150604248,26.102020703621942,26.05970844773141,104.15693476588656,95.15959509106392,9.713172767078504e-05,0.0923885703086853,0,0,0
8770,303702.6626843638,2010-10-19 05:34:40,360.18154404785776,2,27,0.5499359965324402,3.791053533554077,26.106607016491765,26.05970844773141,104.17431330197512,95.15959509106392,0.0001295089750783,0.0923885703086853,0,0,0
8771,303732.67783999204,2010-10-19 05:35:10,390.1966996761158,2,27,0.5501165986061096,3.794776916503906,26.11119334450947,26.05970844773141,104.19170853367874,95.15959509106392,0.0001295089750783,0.0923885703086853,0,0,0
8772,303762.69322438544,2010-10-19 05:35:40,420.2120841848145,2,27,0.5499359965324402,3.7980146408081055,26.11577968113982,26.05970844773141,104.2091203275888,95.15959509106392,6.47544875391759e-05,0.0923885703086853,0,0,0
8773,303792.70842372265,2010-10-19 05:36:10,450.22728346687126,2,27,0.550297200679779,3.8015761375427246,26.12036602933072,26.05970844773141,104.2265483773324,95.15959509106392,6.47544875391759e-05,0.0923885703086853,0,0,0
8774,303822.7233039996,2010-10-19 05:36:40,480.2421636787069,2,27,0.5501165986061096,3.805137634277344,26.124952309403582,26.05970844773141,104.24399199561428,95.15959509106392,6.47544875391759e-05,0.0923885703086853,0,0,0
8775,303852.73850676033,2010-10-19 05:37:10,510.25736657477097,2,27,0.5501165986061096,3.808537244796753,26.12953868934997,26.05970844773141,104.26145164228052,95.15959509106392,6.47544875391759e-05,0.0923885703086853,0,0,0
8776,303882.75361851923,2010-10-19 05:37:40,540.2724782534933,2,27,0.5501165986061096,3.811936855316162,26.13412505939288,26.05970844773141,104.27892664491594,95.15959509106392,9.713172767078504e-05,0.0923885703086853,0,0,0
8777,303912.76875555614,2010-10-19 05:38:10,570.2876152402912,2,27,0.5501165986061096,3.815174579620361,26.138711362339333,26.05970844773141,104.29641664695214,95.15959509106392,9.713172767078504e-05,0.0923885703086853,0,0,0
8778,303942.7839081569,2010-10-19 05:38:40,600.3027678410037,2,27,0.5501165986061096,3.818412303924561,26.14329765570555,26.05970844773141,104.31392156041272,95.15959509106392,9.713172767078504e-05,0.0923885703086853,0,0,0
8779,303972.7992185308,2010-10-19 05:39:10,630.3180782600482,2,27,0.5501165986061096,3.82165002822876,26.147884002851228,26.05970844773141,104.33144138320168,95.15959509106392,9.713172767078504e-05,0.0923885703086853,0,0,0
8780,304002.8142004712,2010-10-19 05:39:40,660.3330601853852,2,27,0.5501165986061096,3.825049638748169,26.15247028926697,26.05970844773141,104.34897564685645,95.15959509106392,9.713172767078504e-05,0.0923885703086853,0,0,0
8781,304032.82958046364,2010-10-19 05:40:10,690.3484401477529,2,27,0.5499359965324402,3.828125476837158,26.157056618421304,26.05970844773141,104.36652486196972,95.15959509106392,0.0001295089750783,0.0923885703086853,0,0,0
8782,304062.8445005148,2010-10-19 05:40:40,720.3633602439928,2,27,0.5501165986061096,3.831201314926148,26.161642842427288,26.05970844773141,104.38408860197008,95.15959509106392,9.713172767078504e-05,0.0923885703086853,0,0,0
8783,304092.8597801772,2010-10-19 05:41:10,750.3786399113945,2,27,0.5501165986061096,3.8346006870269775,26.16622920049835,26.05970844773141,104.40166801533287,95.15959509106392,9.713172767078504e-05,0.0923885703086853,0,0,0
8784,304122.8749501361,2010-10-19 05:41:40,780.3938098503191,2,27,0.5499359965324402,3.8378384113311768,26.17081551803113,26.05970844773141,104.41926274354564,95.15959509106392,3.237724376958795e-05,0.0923885703086853,0,0,0
8785,304152.8899554197,2010-10-19 05:42:10,810.4088151288596,2,27,0.5499359965324402,3.841399908065796,26.17540171635837,26.05970844773141,104.4368726811822,95.15959509106392,6.47544875391759e-05,0.0923885703086853,0,0,0
8786,304182.9052769164,2010-10-19 05:42:41,840.4241366355377,2,27,0.5501165986061096,3.844961404800415,26.179987908566964,26.05970844773141,104.45449837487628,95.15959509106392,6.47544875391759e-05,0.0923885703086853,0,0,0
8787,304212.9202629169,2010-10-19 05:43:11,870.439122661094,2,27,0.5501165986061096,3.848361015319824,26.184574083321277,26.05970844773141,104.47213980947252,95.15959509106392,9.713172767078504e-05,0.0923885703086853,0,0,0
8788,304242.9354198934,2010-10-19 05:43:41,900.454279582575,2,27,0.5501165986061096,3.8517606258392334,26.189160240955637,26.05970844773141,104.48979678548665,95.15959509106392,9.713172767078504e-05,0.0923885703086853,0,0,0
8789,304272.9505701684,2010-10-19 05:44:11,930.469429907616,2,27,0.5499359965324402,3.8549983501434326,26.19374645196269,26.05970844773141,104.507469242513,95.15959509106392,9.713172767078504e-05,0.0923885703086853,0,0,0
8790,304302.96571623784,2010-10-19 05:44:41,960.484575972038,2,27,0.5501165986061096,3.858236074447632,26.198332698674555,26.05970844773141,104.52515697869798,95.15959509106392,6.47544875391759e-05,0.0923885703086853,0,0,0
8791,304332.9808680566,2010-10-19 05:45:11,990.4997277657392,2,27,0.5499359965324402,3.861473798751831,26.202918937841098,26.05970844773141,104.54285942403504,95.15959509106392,6.47544875391759e-05,0.0923885703086853,0,0,0
8792,304362.9961614582,2010-10-19 05:45:41,1020.5150212024585,2,27,0.5501165986061096,3.86454963684082,26.20750526917016,26.05970844773141,104.56057669007797,95.15959509106392,6.47544875391759e-05,0.0923885703086853,0,0,0
8793,304393.0111489224,2010-10-19 05:46:11,1050.5300086365248,2,27,0.5499359965324402,3.8676254749298096,26.212091500801428,26.05970844773141,104.57830762723096,95.15959509106392,9.713172767078504e-05,0.0923885703086853,0,0,0
8794,304423.0264231562,2010-10-19 05:46:41,1080.5452829405594,2,27,0.5499359965324402,3.870539426803589,26.21667779239393,26.05970844773141,104.596052450252,95.15959509106392,9.713172767078504e-05,0.0923885703086853,0,0,0
8795,304453.04148068,2010-10-19 05:47:11,1110.5603404191986,2,27,0.550297200679779,3.873615264892578,26.22126407118617,26.05970844773141,104.61381047991648,95.15959509106392,9.713172767078504e-05,0.0923885703086853,0,0,0
8796,304483.0567521319,2010-10-19 05:47:41,1140.575611821,2,27,0.5501165986061096,3.8762054443359375,26.22585039446464,26.05970844773141,104.63158130273152,95.15959509106392,9.713172767078504e-05,0.0923885703086853,0,0,0
8797,304513.0717472852,2010-10-19 05:48:11,1170.5906069893426,2,27,0.550297200679779,3.878795623779297,26.230436578415205,26.05970844773141,104.64936376672964,95.15959509106392,6.47544875391759e-05,0.0923885703086853,0,0,0
8798,304543.0869170637,2010-10-19 05:48:41,1200.6057768731298,2,27,0.5499359965324402,3.881062030792236,26.23502285466984,26.05970844773141,104.6671581459922,95.15959509106392,0.0,0.0923885703086853,0,0,0
8799,304573.10208911286,2010-10-19 05:49:11,1230.6209488220643,2,27,0.5501165986061096,3.8834903240203857,26.239609181699453,26.05970844773141,104.68496363411325,95.15959509106392,6.47544875391759e-05,0.0923885703086853,0,0,0
8800,304603.11747926567,2010-10-19 05:49:41,1260.6363390951294,2,27,0.5501165986061096,3.885756731033325,26.24419553476606,26.05970844773141,104.70277950274468,95.15959509106392,6.47544875391759e-05,0.0923885703086853,0,0,0
8801,304633.1323708107,2010-10-19 05:50:11,1290.6512305249237,2,27,0.5501165986061096,3.8875374794006343,26.24878180077533,26.05970844773141,104.72060462642492,95.15959509106392,6.47544875391759e-05,0.0923885703086853,0,0,0
8802,304663.14752906555,2010-10-19 05:50:41,1320.6663887847403,2,27,0.5501165986061096,3.889642000198364,26.253368171548946,26.05970844773141,104.73843922367644,95.15959509106392,3.237724376958795e-05,0.0923885703086853,0,0,0
8803,304693.16280514904,2010-10-19 05:51:11,1350.6816648331226,2,27,0.5501165986061096,3.891260862350464,26.257954606028683,26.05970844773141,104.756282401487,95.15959509106392,3.237724376958795e-05,0.0923885703086853,0,0,0
8804,304723.178027669,2010-10-19 05:51:41,1380.6968873831704,2,27,0.5499359965324402,3.892879724502564,26.262541010298666,26.05970844773141,104.77413332388926,95.15959509106392,0.0,0.0923885703086853,0,0,0
8805,304753.19565717794,2010-10-19 05:52:11,1410.71451699235,2,27,0.5501165986061096,3.894498586654663,26.267127765046222,26.05970844773141,104.7919929554386,95.15959509106392,3.237724376958795e-05,0.0923885703086853,0,0,0
8806,304783.2081825859,2010-10-19 05:52:41,1440.7270423050525,2,27,0.5501165986061096,3.895793676376343,26.27171375072747,26.05970844773141,104.80985599129222,95.15959509106392,3.237724376958795e-05,0.0923885703086853,0,0,0
8807,304813.22331885085,2010-10-19 05:53:11,1470.7421785850893,2,27,0.5499359965324402,3.897250652313232,26.276300062124207,26.05970844773141,104.82772692062372,95.15959509106392,6.47544875391759e-05,0.0923885703086853,0,0,0
8808,304843.2385882928,2010-10-19 05:53:41,1500.7574480169808,2,27,0.5499359965324402,3.898383855819702,26.28088642527658,26.05970844773141,104.84560428369696,95.15959509106392,-3.237724376958795e-05,0.0923885703086853,0,0,0
8809,304873.2535953959,2010-10-19 05:54:11,1530.7724550799685,2,27,0.5499359965324402,3.899840831756592,26.285472743216072,26.05970844773141,104.8634875716272,95.15959509106392,3.237724376958795e-05,0.0923885703086853,0,0,0
8810,304903.26875917945,2010-10-19 05:54:41,1560.7876188986395,2,27,0.5499359965324402,3.901135921478272,26.290059101570577,26.05970844773141,104.88137680284846,95.15959509106392,6.47544875391759e-05,0.0923885703086853,0,0,0
8811,304933.28406303213,2010-10-19 05:55:11,1590.8029227412935,2,27,0.5499359965324402,3.902431011199951,26.294645467967516,26.05970844773141,104.89927194721096,95.15959509106392,0.0,0.0923885703086853,0,0,0
8812,304963.2990859747,2010-10-19 05:55:41,1620.8179456587957,2,27,0.5501165986061096,3.903726100921631,26.299231748734893,26.05970844773141,104.91717252496198,95.15959509106392,6.47544875391759e-05,0.0923885703086853,0,0,0
8813,304993.3144417869,2010-10-19 05:56:11,1650.833301601299,2,27,0.550297200679779,3.9048593044281006,26.303818111930948,26.05970844773141,104.93507917061048,95.15959509106392,-3.237724376958795e-05,0.0923885703086853,0,0,0
8814,305023.3293763893,2010-10-19 05:56:41,1680.8482361234924,2,27,0.5499359965324402,3.90615439414978,26.308404404551165,26.05970844773141,104.95299114797952,95.15959509106392,3.237724376958795e-05,0.0923885703086853,0,0,0
8815,305053.34452659904,2010-10-19 05:57:11,1710.8633862781085,2,27,0.5501165986061096,3.90744948387146,26.312990636522525,26.05970844773141,104.97090868332695,95.15959509106392,3.237724376958795e-05,0.0923885703086853,0,0,0
8816,305083.3597088386,2010-10-19 05:57:41,1740.878568562803,2,27,0.5501165986061096,3.90874457359314,26.31757697369477,26.05970844773141,104.9888323854673,95.15959509106392,6.47544875391759e-05,0.0923885703086853,0,0,0
8817,305113.374820402,2010-10-19 05:58:11,1770.8936801914,2,27,0.5501165986061096,3.9100396633148193,26.32216317378422,26.05970844773141,105.00676141862098,95.15959509106392,6.47544875391759e-05,0.0923885703086853,0,0,0
8818,305143.39008631016,2010-10-19 05:58:41,1800.9089459992597,2,27,0.5501165986061096,3.911172866821289,26.326749493843945,26.05970844773141,105.0246967552923,95.15959509106392,0.0,0.0923885703086853,0,0,0
8819,305173.4052409309,2010-10-19 05:59:11,1830.9241006149944,2,27,0.5499359965324402,3.912306070327759,26.33133579290105,26.05970844773141,105.04263794439862,95.15959509106392,0.0,0.0923885703086853,0,0,0
8820,305203.420276936,2010-10-19 05:59:41,1860.9391366552024,2,27,0.5501165986061096,3.914086580276489,26.33592203498816,26.05970844773141,105.06058480768812,95.15959509106392,6.47544875391759e-05,0.0923885703086853,0,0,0
8821,305233.435394329,2010-10-19 06:00:11,1890.954254038141,2,27,0.550297200679779,3.915057897567749,26.34050910993803,26.05970844773141,105.0785410184389,95.15959509106392,3.237724376958795e-05,0.0923885703086853,0,0,0
8822,305263.45081395016,2010-10-19 06:00:41,1920.969673679401,2,27,0.5501165986061096,3.916514873504639,26.345096286649504,26.05970844773141,105.0965034420958,95.15959509106392,6.47544875391759e-05,0.0923885703086853,0,0,0
8823,305293.4657107083,2010-10-19 06:01:11,1950.9845704475,2,27,0.550297200679779,3.9178099632263184,26.349683221491325,26.05970844773141,105.11447101276237,95.15959509106392,3.237724376958795e-05,0.0923885703086853,0,0,0
8824,305323.48086928384,2010-10-19 06:01:41,1980.9997289729788,2,27,0.550297200679779,3.919266939163208,26.35427033075068,26.05970844773141,105.1324453608602,95.15959509106392,6.47544875391759e-05,0.0923885703086853,0,0,0
8825,305353.4960006517,2010-10-19 06:02:11,2011.0148603307475,2,27,0.550297200679779,3.920562028884888,26.358857459721463,26.05970844773141,105.15042595075496,95.15959509106392,3.237724376958795e-05,0.0923885703086853,0,0,0
8826,305383.5111573927,2010-10-19 06:02:41,2041.030017081804,2,27,0.550297200679779,3.922019004821777,26.363444634236608,26.05970844773141,105.16841286389868,95.15959509106392,9.713172767078504e-05,0.0923885703086853,0,0,0
8827,305413.5263145698,2010-10-19 06:03:11,2071.04517425391,2,27,0.5499359965324402,3.923314094543457,26.36803126765531,26.05970844773141,105.18640392433028,95.15959509106392,3.237724376958795e-05,0.0923885703086853,0,0,0
8828,305443.5414913809,2010-10-19 06:03:41,2101.0603510950373,2,27,0.5501165986061096,3.9246091842651367,26.37261767769492,26.05970844773141,105.20440039903832,95.15959509106392,6.47544875391759e-05,0.0923885703086853,0,0,0
8829,305473.556618879,2010-10-19 06:04:11,2131.075478563111,2,27,0.5501165986061096,3.925904273986816,26.377204080782978,26.05970844773141,105.22240326826748,95.15959509106392,3.237724376958795e-05,0.0923885703086853,0,0,0
8830,305503.5717657956,2010-10-19 06:04:41,2161.0906254796573,2,27,0.5501165986061096,3.927361249923706,26.381790528754195,26.05970844773141,105.24041260611529,95.15959509106392,3.237724376958795e-05,0.0923885703086853,0,0,0
8831,305533.5869538446,2010-10-19 06:05:11,2191.1058135287176,2,27,0.5501165986061096,3.9286563396453857,26.386376939304892,26.05970844773141,105.25842833373878,95.15959509106392,3.237724376958795e-05,0.0923885703086853,0,0,0
8832,305563.6020791674,2010-10-19 06:05:41,2221.12093888152,2,27,0.5501165986061096,3.9301133155822754,26.390963360153364,26.05970844773141,105.27645069188344,95.15959509106392,3.237724376958795e-05,0.0923885703086853,0,0,0
8833,305593.61721402884,2010-10-19 06:06:11,2251.1360737129457,2,27,0.5501165986061096,3.931570291519165,26.39554982000248,26.05970844773141,105.29447979015244,95.15959509106392,0.0,0.0923885703086853,0,0,0
8834,305623.6324940572,2010-10-19 06:06:41,2281.1513538364848,2,27,0.5501165986061096,3.9331891536712646,26.40013624177905,26.05970844773141,105.3125154182136,95.15959509106392,3.237724376958795e-05,0.0923885703086853,0,0,0
8835,305653.6476612041,2010-10-19 06:07:11,2311.166520918289,2,27,0.5499359965324402,3.9346461296081534,26.404722665082105,26.05970844773141,105.33055778738324,95.15959509106392,3.237724376958795e-05,0.0923885703086853,0,0,0
8836,305683.6629075735,2010-10-19 06:07:41,2341.1817673578767,2,27,0.5499359965324402,3.936264991760254,26.409309186579915,26.05970844773141,105.3486073847676,95.15959509106392,9.713172767078504e-05,0.0923885703086853,0,0,0
8837,305713.6780641943,2010-10-19 06:08:11,2371.196923913446,2,27,0.550297200679779,3.937721967697144,26.413895662938582,26.05970844773141,105.36666354089196,95.15959509106392,6.47544875391759e-05,0.0923885703086853,0,0,0
8838,305743.6929750976,2010-10-19 06:08:41,2401.211834811761,2,27,0.5499359965324402,3.9390170574188232,26.418482032625715,26.05970844773141,105.38472632606948,95.15959509106392,3.237724376958795e-05,0.0923885703086853,0,0,0
8839,305773.7084137161,2010-10-19 06:09:11,2431.227273455381,2,27,0.5501165986061096,3.940635919570923,26.423068501286004,26.05970844773141,105.4027964407755,95.15959509106392,3.237724376958795e-05,0.0923885703086853,0,0,0
8840,305803.7232835772,2010-10-19 06:09:41,2461.2421432662945,2,27,0.5501165986061096,3.942092895507813,26.427654893701387,26.05970844773141,105.42087325149922,95.15959509106392,3.237724376958795e-05,0.0923885703086853,0,0,0
8841,305833.738415742,2010-10-19 06:10:11,2491.257275426062,2,27,0.5499359965324402,3.943711757659912,26.43224128535279,26.05970844773141,105.4389572072026,95.15959509106392,3.237724376958795e-05,0.0923885703086853,0,0,0
8842,305863.7536034502,2010-10-19 06:10:41,2521.272463194423,2,27,0.5501165986061096,3.9454925060272217,26.436827715868823,26.05970844773141,105.45704845248989,95.15959509106392,6.47544875391759e-05,0.0923885703086853,0,0,0
8843,305893.76872910373,2010-10-19 06:11:11,2551.287588812888,2,27,0.5499359965324402,3.946787595748901,26.441414224666893,26.05970844773141,105.47514727940184,95.15959509106392,3.237724376958795e-05,0.0923885703086853,0,0,0
8844,305923.7838925565,2010-10-19 06:11:41,2581.302752245597,2,27,0.5501165986061096,3.948406457901001,26.446000674327937,26.05970844773141,105.49325308174534,95.15959509106392,3.237724376958795e-05,0.0923885703086853,0,0,0
8845,305953.7991682039,2010-10-19 06:12:11,2611.318027918041,2,27,0.5499359965324402,3.9500253200531006,26.45058715966245,26.05970844773141,105.51136633407545,95.15959509106392,6.47544875391759e-05,0.0923885703086853,0,0,0
8846,305983.81430441374,2010-10-19 06:12:41,2641.333164097828,2,27,0.5499359965324402,3.95180606842041,26.45517357456121,26.05970844773141,105.529486670965,95.15959509106392,6.47544875391759e-05,0.0923885703086853,0,0,0
8847,306013.8293464138,2010-10-19 06:13:11,2671.3482060928777,2,27,0.5501165986061096,3.9532630443573,26.45975999629258,26.05970844773141,105.54761434471617,95.15959509106392,3.237724376958795e-05,0.0923885703086853,0,0,0
8848,306043.84463392576,2010-10-19 06:13:41,2701.363493609843,2,27,0.5499359965324402,3.9548819065094,26.46434644090677,26.05970844773141,105.56574960655584,95.15959509106392,0.0,0.0923885703086853,0,0,0
8849,306073.85965121427,2010-10-19 06:14:11,2731.378510958465,2,27,0.5501165986061096,3.956662654876709,26.468932847452347,26.05970844773141,105.58389225304428,95.15959509106392,3.237724376958795e-05,0.0923885703086853,0,0,0
8850,306103.8748899496,2010-10-19 06:14:42,2761.3937496337026,2,27,0.5499359965324402,3.958119630813599,26.47351934220837,26.05970844773141,105.60204269936897,95.15959509106392,6.47544875391759e-05,0.0923885703086853,0,0,0
8851,306133.8899194535,2010-10-19 06:15:12,2791.4087791727075,2,27,0.5501165986061096,3.959900379180908,26.478105829802395,26.05970844773141,105.62020074915888,95.15959509106392,3.237724376958795e-05,0.0923885703086853,0,0,0
8852,306163.9050785955,2010-10-19 06:15:42,2821.4239382796354,2,27,0.5499359965324402,3.9616811275482178,26.48269225193141,26.05970844773141,105.6383662498932,95.15959509106392,6.47544875391759e-05,0.0923885703086853,0,0,0
8853,306193.920219056,2010-10-19 06:16:12,2851.4390787651528,2,27,0.5497553944587708,3.9631381034851074,26.487278731834937,26.05970844773141,105.6565396911012,95.15959509106392,3.237724376958795e-05,0.0923885703086853,0,0,0
8854,306223.9353653861,2010-10-19 06:16:42,2881.454225105262,2,27,0.5501165986061096,3.964918851852417,26.4918651410282,26.05970844773141,105.67472067659988,95.15959509106392,3.237724376958795e-05,0.0923885703086853,0,0,0
8855,306253.9505217412,2010-10-19 06:17:12,2911.469381425244,2,27,0.5501165986061096,3.966699600219727,26.4964516145892,26.05970844773141,105.69290983748004,95.15959509106392,6.47544875391759e-05,0.0923885703086853,0,0,0
8856,306283.96568982047,2010-10-19 06:17:42,2941.4845495346094,2,27,0.5501165986061096,3.968480348587036,26.501038102449662,26.05970844773141,105.71110693684813,95.15959509106392,6.47544875391759e-05,0.0923885703086853,0,0,0
8857,306313.98081166454,2010-10-19 06:18:12,2971.499671373654,2,27,0.550297200679779,3.9702610969543457,26.5056244878497,26.05970844773141,105.7293115926192,95.15959509106392,6.47544875391759e-05,0.0923885703086853,0,0,0
8858,306343.99602408934,2010-10-19 06:18:42,3001.5148838937043,2,27,0.5501165986061096,3.971879959106445,26.51021098986864,26.05970844773141,105.74752475274803,95.15959509106392,3.237724376958795e-05,0.0923885703086853,0,0,0
8859,306374.01124265447,2010-10-19 06:19:12,3031.530102338521,2,27,0.5499359965324402,3.973498821258545,26.51479744552529,26.05970844773141,105.7657457999256,95.15959509106392,0.0,0.0923885703086853,0,0,0
8860,306404.02625830885,2010-10-19 06:19:42,3061.545118022996,2,27,0.5501165986061096,3.975441455841065,26.519383898296716,26.05970844773141,105.78397496248186,95.15959509106392,3.237724376958795e-05,0.0923885703086853,0,0,0
8861,306434.04152021697,2010-10-19 06:20:12,3091.5603799160986,2,27,0.5501165986061096,3.977384090423584,26.52397047976207,26.05970844773141,105.80221286866242,95.15959509106392,9.713172767078504e-05,0.0923885703086853,0,0,0
8862,306464.0566240662,2010-10-19 06:20:42,3121.5754837552827,2,27,0.5499359965324402,3.979002952575684,26.528556920604995,26.05970844773141,105.82045796759073,95.15959509106392,3.237724376958795e-05,0.0923885703086853,0,0,0
8863,306494.071758652,2010-10-19 06:21:12,3151.5906183862085,2,27,0.5501165986061096,3.980945587158203,26.533143281693484,26.05970844773141,105.8387116374429,95.15959509106392,9.713172767078504e-05,0.0923885703086853,0,0,0
8864,306524.08690231043,2010-10-19 06:21:42,3181.6057621148093,2,27,0.5501165986061096,3.9827263355255127,26.53772954091744,26.05970844773141,105.85697333645388,95.15959509106392,3.237724376958795e-05,0.0923885703086853,0,0,0
8865,306554.10203387367,2010-10-19 06:22:12,3211.62089357784,2,27,0.550297200679779,3.984668970108032,26.542315914236603,26.05970844773141,105.87524392814746,95.15959509106392,6.47544875391759e-05,0.0923885703086853,0,0,0
8866,306584.1171859932,2010-10-19 06:22:42,3241.6360457174032,2,27,0.5501165986061096,3.986449718475342,26.546902266799325,26.05970844773141,105.89352299258036,95.15959509106392,6.47544875391759e-05,0.0923885703086853,0,0,0
8867,306614.13233499497,2010-10-19 06:23:12,3271.651194709121,2,27,0.5501165986061096,3.988392353057861,26.551488659924,26.05970844773141,105.9118108349989,95.15959509106392,6.47544875391759e-05,0.0923885703086853,0,0,0
8868,306644.1476689376,2010-10-19 06:23:42,3301.6665286568063,2,27,0.5501165986061096,3.990173101425171,26.55607503745923,26.05970844773141,105.93010729057008,95.15959509106392,3.237724376958795e-05,0.0923885703086853,0,0,0
8869,306674.163699291,2010-10-19 06:24:12,3331.682559100373,2,27,0.5501165986061096,3.9921157360076895,26.56066147694476,26.05970844773141,105.94841275965209,95.15959509106392,3.237724376958795e-05,0.0923885703086853,0,0,0
8870,306704.16480650124,2010-10-19 06:24:42,3361.683666275564,2,27,0.5499359965324402,3.994058132171631,26.56524564701133,26.05970844773141,105.96671801789677,95.15959509106392,3.23295607813634e-05,0.0923885703086853,0,0,0
8871,306734.1773399893,2010-10-19 06:25:12,3391.696199703492,2,27,0.5501165986061096,3.99616265296936,26.56983152457465,26.05970844773141,105.98503906620896,95.15959509106392,6.47544875391759e-05,0.0923885703086853,0,0,0
8872,306764.19245278585,2010-10-19 06:25:42,3421.7113124749376,2,27,0.5501165986061096,3.99810528755188,26.5744178362057,26.05970844773141,106.0033709657018,95.15959509106392,9.713172767078504e-05,0.0923885703086853,0,0,0
8873,306794.2077477915,2010-10-19 06:26:12,3451.7266075106418,2,27,0.5501165986061096,4.000209808349609,26.579004109013187,26.05970844773141,106.021711732658,95.15959509106392,9.713172767078504e-05,0.0923885703086853,0,0,0
8874,306824.22273997235,2010-10-19 06:26:42,3481.7415996564514,2,27,0.5501165986061096,4.002152442932129,26.58359035477739,26.05970844773141,106.04006176096344,95.15959509106392,6.47544875391759e-05,0.0923885703086853,0,0,0
8875,306854.2379136857,2010-10-19 06:27:12,3511.756773394846,2,27,0.5501165986061096,4.0042572021484375,26.58817665771189,26.05970844773141,106.0584214823985,95.15959509106392,6.47544875391759e-05,0.0923885703086853,0,0,0
8876,306884.2530399057,2010-10-19 06:27:42,3541.771899619822,2,27,0.5501165986061096,4.006199836730957,26.592762928317573,26.05970844773141,106.07679065277873,95.15959509106392,6.47544875391759e-05,0.0923885703086853,0,0,0
8877,306914.26819435094,2010-10-19 06:28:12,3571.787054030044,2,27,0.5501165986061096,4.0084662437438965,26.59734922095578,26.05970844773141,106.09516955334136,95.15959509106392,3.24249267578125e-05,0.0923885703086853,0,0,0
8878,306944.2834704645,2010-10-19 06:28:42,3601.8023302438387,2,27,0.5501165986061096,4.010408878326416,26.60193555513236,26.05970844773141,106.11355828585356,95.15959509106392,3.24249267578125e-05,0.0923885703086853,0,0,0
8879,306974.298481332,2010-10-19 06:29:12,3631.8173410461454,2,27,0.550297200679779,4.012836933135986,26.606521852941853,26.05970844773141,106.13195682160328,95.15959509106392,9.70840483205393e-05,0.0923885703086853,0,0,0
8880,307004.31363426853,2010-10-19 06:29:42,3661.832493957633,2,27,0.5501165986061096,4.014779567718506,26.611108204776446,26.05970844773141,106.1503654868074,95.15959509106392,6.47544875391759e-05,0.0923885703086853,0,0,0
8881,307034.32882800174,2010-10-19 06:30:12,3691.847687725948,2,27,0.5501165986061096,4.017208099365234,26.61569448171835,26.05970844773141,106.16878381740388,95.15959509106392,9.71794142969884e-05,0.0923885703086853,0,0,0
8882,307064.3439540162,2010-10-19 06:30:42,3721.862813705311,2,27,0.550297200679779,4.019150733947754,26.62028071655592,26.05970844773141,106.18721209659252,95.15959509106392,3.24249267578125e-05,0.0923885703086853,0,0,0
8883,307094.3590776347,2010-10-19 06:31:12,3751.877937348854,2,27,0.5501165986061096,4.021578788757324,26.624866951089366,26.05970844773141,106.205650536109,95.15959509106392,3.23295607813634e-05,0.0923885703086853,0,0,0
8884,307124.3742383606,2010-10-19 06:31:42,3781.8930980748178,2,27,0.5501165986061096,4.023683547973633,26.629453208128403,26.05970844773141,106.22409949949912,95.15959509106392,0.0,0.0923885703086853,0,0,0
8885,307154.389383187,2010-10-19 06:32:12,3811.908242871079,2,27,0.5501165986061096,4.026111602783203,26.63403946309052,26.05970844773141,106.24255882729231,95.15959509106392,9.70840483205393e-05,0.0923885703086853,0,0,0
8886,307184.4046648293,2010-10-19 06:32:42,3841.92352460864,2,27,0.5501165986061096,4.028378009796143,26.638625763548504,26.05970844773141,106.26102883862993,95.15959509106392,6.47544875391759e-05,0.0923885703086853,0,0,0
8887,307214.42006320256,2010-10-19 06:33:12,3871.938922886656,2,27,0.5501165986061096,4.030806541442871,26.643212130472712,26.05970844773141,106.27950971406776,95.15959509106392,9.71794142969884e-05,0.0923885703086853,0,0,0
8888,307244.43481720984,2010-10-19 06:33:42,3901.953676924026,2,27,0.5499359965324402,4.0329108238220215,26.64779841864985,26.05970844773141,106.29800093246811,95.15959509106392,3.23295607813634e-05,0.0923885703086853,0,0,0
8889,307274.4501114887,2010-10-19 06:34:12,3931.968971192819,2,27,0.5499359965324402,4.035177230834961,26.65238476238181,26.05970844773141,106.31650312498708,95.15959509106392,3.24249267578125e-05,0.0923885703086853,0,0,0
8890,307304.4651196394,2010-10-19 06:34:42,3961.98397940868,2,27,0.550297200679779,4.03776741027832,26.6569710235233,26.05970844773141,106.33501581750608,95.15959509106392,6.47544875391759e-05,0.0923885703086853,0,0,0
8891,307334.48026043567,2010-10-19 06:35:12,3991.999120149835,2,27,0.5501165986061096,4.040195465087891,26.66155736319772,26.05970844773141,106.35353971119925,95.15959509106392,9.70840483205393e-05,0.0923885703086853,0,0,0
8892,307364.49540969805,2010-10-19 06:35:42,4022.014269387165,2,27,0.5501165986061096,4.04246187210083,26.66614369045521,26.05970844773141,106.37207448786695,95.15959509106392,6.47544875391759e-05,0.0923885703086853,0,0,0
8893,307394.5105632461,2010-10-19 06:36:12,4052.029422925214,2,27,0.5501165986061096,4.044890403747559,26.67073007748152,26.05970844773141,106.39062059705503,95.15959509106392,6.47544875391759e-05,0.0923885703086853,0,0,0
8894,307424.5257067843,2010-10-19 06:36:42,4082.044566468352,2,27,0.5499359965324402,4.047480583190918,26.675316392755008,26.05970844773141,106.4091775710265,95.15959509106392,9.71794142969884e-05,0.0923885703086853,0,0,0
8895,307454.5409699906,2010-10-19 06:37:12,4112.059829699791,2,27,0.5497553944587708,4.049746990203857,26.679902823910503,26.05970844773141,106.4277464038244,95.15959509106392,3.24249267578125e-05,0.0923885703086853,0,0,0
8896,307484.55602345424,2010-10-19 06:37:42,4142.074883143373,2,27,0.5499359965324402,4.052175045013428,26.6844891541922,26.05970844773141,106.44632621196703,95.15959509106392,3.23295607813634e-05,0.0923885703086853,0,0,0
8897,307514.5711840749,2010-10-19 06:38:12,4172.090043789136,2,27,0.5501165986061096,4.054927349090576,26.689075577020795,26.05970844773141,106.4649180292526,95.15959509106392,9.71794142969884e-05,0.0923885703086853,0,0,0
8898,307544.5862888565,2010-10-19 06:38:42,4202.105148545606,2,27,0.5501165986061096,4.057517528533936,26.69366195864488,26.05970844773141,106.48352136571904,95.15959509106392,3.24249267578125e-05,0.0923885703086853,0,0,0
8899,307574.60144562763,2010-10-19 06:39:12,4232.120305336763,2,27,0.5501165986061096,4.060107707977295,26.698248371925036,26.05970844773141,106.50213668369872,95.15959509106392,6.47544875391759e-05,0.0923885703086853,0,0,0
8900,307604.61670840794,2010-10-19 06:39:42,4262.135568117076,2,27,0.5501165986061096,4.062697887420654,26.70283474071108,26.05970844773141,106.52076335424746,95.15959509106392,6.47544875391759e-05,0.0923885703086853,0,0,0
8901,307634.63174256345,2010-10-19 06:40:12,4292.150602242512,2,27,0.5501165986061096,4.0654497146606445,26.70742107853553,26.05970844773141,106.53940200893774,95.15959509106392,0.0001295089750783,0.0923885703086853,0,0,0
8902,307664.6470073537,2010-10-19 06:40:42,4322.165867057898,2,27,0.5501165986061096,4.068039894104004,26.712007476463405,26.05970844773141,106.55805300216832,95.15959509106392,6.47544875391759e-05,0.0923885703086853,0,0,0
8903,307694.6621338645,2010-10-19 06:41:12,4352.180993553549,2,27,0.550297200679779,4.070630073547363,26.716593835135043,26.05970844773141,106.57671619704256,95.15959509106392,6.47544875391759e-05,0.0923885703086853,0,0,0
8904,307724.677155203,2010-10-19 06:41:42,4382.19601492219,2,27,0.5501165986061096,4.073382377624512,26.721180103408912,26.05970844773141,106.59539136568588,95.15959509106392,6.47544875391759e-05,0.0923885703086853,0,0,0
8905,307754.6923064554,2010-10-19 06:42:12,4412.211166164518,2,27,0.5499359965324402,4.076134204864502,26.72576633930786,26.05970844773141,106.61407889535016,95.15959509106392,9.70840483205393e-05,0.0923885703086853,0,0,0
8906,307784.70762158115,2010-10-19 06:42:42,4442.226481290293,2,27,0.5501165986061096,4.078724384307861,26.73035268325371,26.05970844773141,106.63277939653344,95.15959509106392,3.23295607813634e-05,0.0923885703086853,0,0,0
8907,307814.7226605788,2010-10-19 06:43:12,4472.241520257796,2,27,0.5501165986061096,4.08147668838501,26.73493905432417,26.05970844773141,106.65149267642428,95.15959509106392,3.24249267578125e-05,0.0923885703086853,0,0,0
8908,307844.7377900417,2010-10-19 06:43:42,4502.256649730868,2,27,0.5499359965324402,4.084390640258789,26.73952542897879,26.05970844773141,106.67021874199013,95.15959509106392,9.71794142969884e-05,0.0923885703086853,0,0,0
8909,307874.75292023167,2010-10-19 06:44:12,4532.271779935763,2,27,0.550297200679779,4.087304592132568,26.744111770384848,26.05970844773141,106.68895766771632,95.15959509106392,9.71794142969884e-05,0.0923885703086853,0,0,0
8910,307904.768206706,2010-10-19 06:44:42,4562.2870664452175,2,27,0.5499359965324402,4.090056419372559,26.748698081605667,26.05970844773141,106.70770950128416,95.15959509106392,6.47544875391759e-05,0.0923885703086853,0,0,0
8911,307934.78323499684,2010-10-19 06:45:12,4592.302094811299,2,27,0.550297200679779,4.093132495880127,26.75328429216233,26.05970844773141,106.72647408473276,95.15959509106392,9.71794142969884e-05,0.0923885703086853,0,0,0
8912,307964.7985535161,2010-10-19 06:45:42,4622.317413210232,2,27,0.550297200679779,4.096046447753906,26.75787062909625,26.05970844773141,106.74525258223755,95.15959509106392,9.71794142969884e-05,0.0923885703086853,0,0,0
8913,307994.81359105505,2010-10-19 06:46:12,4652.332450784263,2,27,0.5501165986061096,4.0989603996276855,26.76245692638568,26.05970844773141,106.76404444626148,95.15959509106392,9.71794142969884e-05,0.0923885703086853,0,0,0
8914,308024.8286918467,2010-10-19 06:46:42,4682.347551540764,2,27,0.5501165986061096,4.101874351501465,26.767043245581267,26.05970844773141,106.78284998851554,95.15959509106392,6.47544875391759e-05,0.0923885703086853,0,0,0
8915,308054.8438356003,2010-10-19 06:47:13,4712.362695309464,2,27,0.550297200679779,4.105112075805664,26.771629515321862,26.05970844773141,106.80166892007368,95.15959509106392,0.0001295089750783,0.0923885703086853,0,0,0
8916,308084.8590493334,2010-10-19 06:47:43,4742.377909147799,2,27,0.5499359965324402,4.107863903045654,26.776215801018317,26.05970844773141,106.82050176807792,95.15959509106392,9.70840483205393e-05,0.0923885703086853,0,0,0
8917,308114.8741650672,2010-10-19 06:48:13,4772.3930248014285,2,27,0.5501165986061096,4.110777854919434,26.780802073554884,26.05970844773141,106.83934844970064,95.15959509106392,6.47544875391759e-05,0.0923885703086853,0,0,0
8918,308144.8892708262,2010-10-19 06:48:43,4802.408130515284,2,27,0.5499359965324402,4.113853931427002,26.78538841859229,26.05970844773141,106.85820943293616,95.15959509106392,6.47544875391759e-05,0.0923885703086853,0,0,0
8919,308174.90442510607,2010-10-19 06:49:13,4832.423284785157,2,27,0.5495747923851013,4.116929531097412,26.78997474399578,26.05970844773141,106.87708447695924,95.15959509106392,3.24249267578125e-05,0.0923885703086853,0,0,0
8920,308204.91958199744,2010-10-19 06:49:43,4862.438441686589,2,27,0.5501165986061096,4.120167255401611,26.794561035376116,26.05970844773141,106.89597364306591,95.15959509106392,6.47544875391759e-05,0.0923885703086853,0,0,0
8921,308234.93472865334,2010-10-19 06:50:13,4892.453588337472,2,27,0.5501165986061096,4.1234049797058105,26.799147378602733,26.05970844773141,106.91487741941457,95.15959509106392,9.71794142969884e-05,0.0923885703086853,0,0,0
8922,308264.9498614347,2010-10-19 06:50:43,4922.4687211639,2,27,0.5501165986061096,4.126480579376221,26.803733645542493,26.05970844773141,106.93379531825552,95.15959509106392,6.47544875391759e-05,0.0923885703086853,0,0,0
8923,308294.96503143373,2010-10-19 06:51:13,4952.483891122875,2,27,0.5501165986061096,4.12971830368042,26.808319973352948,26.05970844773141,106.95272815310835,95.15959509106392,9.70840483205393e-05,0.0923885703086853,0,0,0
8924,308324.9806302917,2010-10-19 06:51:43,4982.499489980798,2,27,0.5499359965324402,4.132956027984619,26.812906350870144,26.05970844773141,106.97167595190795,95.15959509106392,9.70840483205393e-05,0.0923885703086853,0,0,0
8925,308354.9953538832,2010-10-19 06:52:13,5012.514213592337,2,27,0.5499359965324402,4.136193752288818,26.81749258985671,26.05970844773141,106.9906379514706,95.15959509106392,9.70840483205393e-05,0.0923885703086853,0,0,0
8926,308385.01046199806,2010-10-19 06:52:43,5042.529321717203,2,27,0.5501165986061096,4.139431476593018,26.82207890129937,26.05970844773141,107.0096153301072,95.15959509106392,6.47544875391759e-05,0.0923885703086853,0,0,0
8927,308415.0257286329,2010-10-19 06:53:13,5072.5445883320735,2,27,0.550297200679779,4.142992973327637,26.826665254105183,26.05970844773141,107.02860810761652,95.15959509106392,0.0001295089750783,0.0923885703086853,0,0,0
8928,308445.0407403475,2010-10-19 06:53:43,5102.559600046655,2,27,0.5499359965324402,4.146230697631836,26.831251528735635,26.05970844773141,107.047615971458,95.15959509106392,0.0001295089750783,0.0923885703086853,0,0,0
8929,308475.056044115,2010-10-19 06:54:13,5132.574903814121,2,27,0.550297200679779,4.149792194366455,26.83583791166133,26.05970844773141,107.0666399250086,95.15959509106392,0.0001295089750783,0.0923885703086853,0,0,0
8930,308505.0710581102,2010-10-19 06:54:43,5162.589917809387,2,27,0.550297200679779,4.153192043304443,26.84042419708715,26.05970844773141,107.08567898955418,95.15959509106392,0.0001295089750783,0.0923885703086853,0,0,0
8931,308535.08620826487,2010-10-19 06:55:13,5192.605067943953,2,27,0.5501165986061096,4.156429767608643,26.845010491241723,26.05970844773141,107.1047336724467,95.15959509106392,6.47544875391759e-05,0.0923885703086853,0,0,0
8932,308565.10194719187,2010-10-19 06:55:43,5222.620806966208,2,27,0.550297200679779,4.159991264343262,26.84959690620276,26.05970844773141,107.12380447656388,95.15959509106392,9.71794142969884e-05,0.0923885703086853,0,0,0
8933,308595.1166895552,2010-10-19 06:56:13,5252.635549239259,2,27,0.5499359965324402,4.163228988647461,26.854183149323664,26.05970844773141,107.14289038757283,95.15959509106392,6.47544875391759e-05,0.0923885703086853,0,0,0
8934,308625.1344299605,2010-10-19 06:56:43,5282.6532897749,2,27,0.550297200679779,4.16679048538208,26.858769859508676,26.05970844773141,107.16199411292212,95.15959509106392,9.71794142969884e-05,0.0923885703086853,0,0,0
8935,308655.1469041558,2010-10-19 06:57:13,5312.665763854915,2,27,0.5501165986061096,4.170351982116699,26.86335573580823,26.05970844773141,107.18111052728688,95.15959509106392,9.71794142969884e-05,0.0923885703086853,0,0,0
8936,308685.16193124367,2010-10-19 06:57:43,5342.680790957848,2,27,0.5499359965324402,4.173913478851318,26.86794200935594,26.05970844773141,107.20024479121012,95.15959509106392,9.71794142969884e-05,0.0923885703086853,0,0,0
8937,308715.1770880849,2010-10-19 06:58:13,5372.695947774068,2,27,0.5499359965324402,4.177312850952148,26.87252834231713,26.05970844773141,107.21939565848083,95.15959509106392,9.70840483205393e-05,0.0923885703086853,0,0,0
8938,308745.1922318136,2010-10-19 06:58:43,5402.71109164803,2,27,0.550297200679779,4.181198120117188,26.877114624591663,26.05970844773141,107.23856284806662,95.15959509106392,9.70840483205393e-05,0.0923885703086853,0,0,0
8939,308775.20735464507,2010-10-19 06:59:13,5432.726214334187,2,27,0.5501165986061096,4.184759616851807,26.881700958831185,26.05970844773141,107.25774691164284,95.15959509106392,9.70840483205393e-05,0.0923885703086853,0,0,0
8940,308805.2226280519,2010-10-19 06:59:43,5462.741487740985,2,27,0.5501165986061096,4.188321113586426,26.886287215451897,26.05970844773141,107.27694717811802,95.15959509106392,9.70840483205393e-05,0.0923885703086853,0,0,0
8941,308835.23766515974,2010-10-19 07:00:13,5492.756524868903,2,27,0.5501165986061096,4.191882610321045,26.89087343541752,26.05970844773141,107.29616404296226,95.15959509106392,9.70840483205393e-05,0.0923885703086853,0,0,0
8942,308865.25303281646,2010-10-19 07:00:43,5522.771892625852,2,27,0.5501165986061096,4.195605754852295,26.895459769142192,26.05970844773141,107.31539816740474,95.15959509106392,9.70840483205393e-05,0.0923885703086853,0,0,0
8943,308895.26794187014,2010-10-19 07:01:13,5552.786801554258,2,27,0.5499359965324402,4.199329376220703,26.900045990988552,26.05970844773141,107.33464882518714,95.15959509106392,9.71794142969884e-05,0.0923885703086853,0,0,0
8944,308899.90850404394,2010-10-19 07:01:18,5557.4273637330725,2,27,0.550297200679779,4.200138568878174,26.900755065840347,26.05970844773141,107.3376267053046,95.15959509106392,0.0001618385285837,0.0923885703086853,0,0,0
8945,308929.9337602214,2010-10-19 07:01:48,30.01525344204016,3,27,0.0,4.111749172210693,26.900755065840347,26.05970844773141,107.3376267053046,95.15959509106392,-0.0003885269106831,0.0923885703086853,0,0,0
8946,308959.94877154,2010-10-19 07:02:18,60.03026473557173,3,27,0.0,4.100579261779785,26.900755065840347,26.05970844773141,107.3376267053046,95.15959509106392,-0.0002265930233988,0.0923885703086853,0,0,0
8947,308989.9644950937,2010-10-19 07:02:48,90.0459884246121,3,27,0.0,4.093780040740967,26.900755065840347,26.05970844773141,107.3376267053046,95.15959509106392,-0.0001295089750783,0.0923885703086853,0,0,0
8948,309019.9322136141,2010-10-19 07:03:18,120.01370683472656,3,27,0.0,4.089247226715088,26.900755065840347,26.05970844773141,107.3376267053046,95.15959509106392,-0.0001295089750783,0.0923885703086853,0,0,0
8949,309019.9443481729,2010-10-19 07:03:18,0.015855592013942,4,27,1.0021816492080688,4.199814796447754,26.90075947978001,26.05970844773141,107.33764524303372,95.15959509106392,0.0,0.0923885703086853,0,0,0
8950,309020.7879753213,2010-10-19 07:03:19,0.859482770520374,4,27,0.9514304399490356,4.199814796447754,26.90098662043372,26.05970844773141,107.33859918766429,95.15959509106392,0.0,0.0923885703086853,0,0,0
8951,309022.8971800184,2010-10-19 07:03:21,2.968687432524137,4,27,0.900859832763672,4.199814796447754,26.901528133216967,26.05970844773141,107.34087343054496,95.15959509106392,0.0,0.0923885703086853,0,0,0
8952,309026.10038660985,2010-10-19 07:03:24,6.171894028964496,4,27,0.8508310317993164,4.199976921081543,26.90230624450737,26.05970844773141,107.34414133258848,95.15959509106392,3.24249267578125e-05,0.0923885703086853,0,0,0
8953,309030.4284254343,2010-10-19 07:03:28,10.499932878481756,4,27,0.8008022904396057,4.199814796447754,26.9032975921368,26.05970844773141,107.348304800655,95.15959509106392,0.0,0.0923885703086853,0,0,0
8954,309036.0532565943,2010-10-19 07:03:34,16.12476400837472,4,27,0.7504122853279114,4.199653148651123,26.904508257899305,26.05970844773141,107.35338936798604,95.15959509106392,-3.23295607813634e-05,0.0923885703086853,0,0,0
8955,309043.4439973543,2010-10-19 07:03:41,23.515504868672693,4,27,0.7003835439682007,4.199653148651123,26.90599587838106,26.05970844773141,107.35963708116356,95.15959509106392,-3.23295607813634e-05,0.0923885703086853,0,0,0
8956,309053.02170144994,2010-10-19 07:03:51,33.09320887403991,4,27,0.6501741409301758,4.199814796447754,26.907790192875595,26.05970844773141,107.3671728547737,95.15959509106392,-3.24249267578125e-05,0.0923885703086853,0,0,0
8957,309066.5840022716,2010-10-19 07:04:05,46.6555097207656,4,27,0.5999647974967957,4.199814796447754,26.91014108942655,26.05970844773141,107.37704616219123,95.15959509106392,3.23295607813634e-05,0.0923885703086853,0,0,0
8958,309086.7086646525,2010-10-19 07:04:25,66.78017208658503,4,27,0.5499359965324402,4.199814796447754,26.91334585049008,26.05970844773141,107.39050556457632,95.15959509106392,0.0,0.0923885703086853,0,0,0
8959,309120.7862090986,2010-10-19 07:04:59,100.85771651269316,4,27,0.4999072253704071,4.199653148651123,26.918293861277512,26.05970844773141,107.411286245984,95.15959509106392,0.0,0.0923885703086853,0,0,0
8960,309184.191429452,2010-10-19 07:06:02,164.26293686611243,4,27,0.4496978521347046,4.199653148651123,26.92661805462633,26.05970844773141,107.44624583520662,95.15959509106392,-3.23295607813634e-05,0.0923885703086853,0,0,0
8961,309286.3304622792,2010-10-19 07:07:44,266.40196968328763,4,27,0.3996690809726715,4.199491024017334,26.938636512775453,26.05970844773141,107.49672030485048,95.15959509106392,-3.24249267578125e-05,0.0923885703086853,0,0,0
8962,309417.140985713,2010-10-19 07:09:55,397.21249314715135,4,27,0.3496403098106384,4.199814796447754,26.95223889231412,26.05970844773141,107.55384746484414,95.15959509106392,0.0,0.0923885703086853,0,0,0
8963,309570.7166328748,2010-10-19 07:12:29,550.7881403289738,4,27,0.2994309365749359,4.199653148651123,26.96606992401431,26.05970844773141,107.61193521036942,95.15959509106392,-3.23295607813634e-05,0.0923885703086853,0,0,0
8964,309756.60418811365,2010-10-19 07:15:35,736.6756955276999,4,27,0.2492215633392334,4.199653148651123,26.980214759340097,26.05970844773141,107.67134092372508,95.15959509106392,-3.23295607813634e-05,0.0923885703086853,0,0,0
8965,309985.5068290514,2010-10-19 07:19:24,965.5783364654984,4,27,0.1991927921772003,4.199814796447754,26.99443973533108,26.05970844773141,107.73108317700245,95.15959509106392,0.0,0.0923885703086853,0,0,0
8966,310283.15828728536,2010-10-19 07:24:21,1263.2297947245445,4,27,0.1491640210151672,4.199653148651123,27.00876180582908,26.05970844773141,107.79123323657412,95.15959509106392,-3.23295607813634e-05,0.0923885703086853,0,0,0
8967,310712.338933346,2010-10-19 07:31:30,1692.4104407550358,4,27,0.0991352498531341,4.199653148651123,27.02338701742972,26.05970844773141,107.85265645002303,95.15959509106392,-3.23295607813634e-05,0.0923885703086853,0,0,0
8968,311505.4511977183,2010-10-19 07:44:43,2485.522705167494,4,27,0.0498289167881011,4.199814796447754,27.039154212456204,26.05970844773141,107.91887593669412,95.15959509106392,-3.24249267578125e-05,0.0923885703086853,0,0,0
8969,311535.4711915177,2010-10-19 07:45:14,30.015154500447267,5,27,0.0,4.191397190093994,27.039154212456204,26.05970844773141,107.91887593669412,95.15959509106392,-9.70840483205393e-05,0.0923885703086853,0,0,0
8970,311565.47072508105,2010-10-19 07:45:44,60.01468807373762,5,27,0.0,4.190263748168945,27.039154212456204,26.05970844773141,107.91887593669412,95.15959509106392,-3.24249267578125e-05,0.0923885703086853,0,0,0
8971,311565.6483216376,2010-10-19 07:45:44,0.187430429300719,6,27,-1.9243103452026844e-05,4.190425872802734,27.039154212456204,26.05970844873328,107.91887593669412,95.1595950952622,0.0,0.0977962836623191,0,0,0
8972,311570.47635838075,2010-10-19 07:45:49,5.015467147351862,6,27,0.0010644125286489,4.190425872802734,27.039155209656062,26.05970844881709,107.91888011534604,95.15959509561335,0.0,0.0977962836623191,0,0,0
8973,311600.49573666387,2010-10-19 07:46:19,30.013482633640766,7,27,-1.0997490882873535,4.005552291870117,27.039155209656062,26.06887512519493,107.91888011534604,95.19652164755688,-0.001003646873869,0.0977962836623191,0,0,0
8974,311630.5108729138,2010-10-19 07:46:49,60.028618758289895,7,27,-1.0992072820663452,3.976736545562744,27.039155209656062,26.07804226103192,107.91888011534604,95.23309953017782,-0.0006151676061563,0.0977962836623191,0,0,0
8975,311660.5260076601,2010-10-19 07:47:19,90.04375350450351,7,27,-1.0993878841400146,3.956500768661499,27.039155209656062,26.0872093061826,107.91888011534604,95.26945626627528,-0.0004532813909463,0.0977962836623191,0,0,0
8976,311690.5411190631,2010-10-19 07:47:49,120.0588649075388,7,27,-1.099568486213684,3.940959692001343,27.039155209656062,26.09637634140943,107.91888011534604,95.30565191132229,-0.0003885269106831,0.0977962836623191,0,0,0
8977,311720.5562725611,2010-10-19 07:48:19,150.07401840548752,7,27,-1.0993878841400146,3.928332567214966,27.039155209656062,26.105543339433304,107.91888011534604,95.34171876365448,-0.0002913951757363,0.0977962836623191,0,0,0
8978,311750.5714407356,2010-10-19 07:48:49,180.08918660507726,7,27,-1.099568486213684,3.917000532150269,27.039155209656062,26.11471041673635,107.91888011534604,95.3776768533265,-0.0002913951757363,0.0977962836623191,0,0,0
8979,311780.58665581205,2010-10-19 07:49:19,210.10440171157344,7,27,-1.0993878841400146,3.90680193901062,27.039155209656062,26.12387748340845,107.91888011534604,95.41353766100704,-0.0002913951757363,0.0977962836623191,0,0,0
8980,311810.6018503924,2010-10-19 07:49:49,240.11959628689968,7,27,-1.099568486213684,3.8974125385284415,27.039155209656062,26.13304463725267,107.91888011534604,95.44930881483202,-0.0002266406954731,0.0977962836623191,0,0,0
8981,311840.61689313926,2010-10-19 07:50:19,270.1346390137728,7,27,-1.099568486213684,3.8881850242614746,27.039155209656062,26.142211631764507,107.91888011534604,95.48499413512826,-0.0002913951757363,0.0977962836623191,0,0,0
8982,311870.6319798608,2010-10-19 07:50:49,300.1497257352941,7,27,-1.0993878841400146,3.8794431686401367,27.039155209656062,26.15137866081359,107.91888011534604,95.52059757080308,-0.0002590179501567,0.0977962836623191,0,0,0
8983,311900.64716944366,2010-10-19 07:51:19,330.16491528810263,7,27,-1.099568486213684,3.870863199234009,27.039155209656062,26.160545748344656,107.91888011534604,95.55612165503152,-0.0002266406954731,0.0977962836623191,0,0,0
8984,311930.6623915276,2010-10-19 07:51:49,360.1801373820136,7,27,-1.099568486213684,3.862607002258301,27.039155209656062,26.16971281858317,107.91888011534604,95.5915683220898,-0.0001942634553415,0.0977962836623191,0,0,0
8985,311960.67740833486,2010-10-19 07:52:19,390.1951541692372,7,27,-1.0993878841400146,3.8543508052825928,27.039155209656062,26.17887979445223,107.91888011534604,95.62693892246612,-0.0002266406954731,0.0977962836623191,0,0,0
8986,311990.6925588052,2010-10-19 07:52:49,420.2103046747279,7,27,-1.099568486213684,3.846256494522095,27.039155209656062,26.188046880880048,107.91888011534604,95.66223460598016,-0.0001942634553415,0.0977962836623191,0,0,0
8987,312020.70771569165,2010-10-19 07:53:19,450.22546155610905,7,27,-1.099568486213684,3.8381621837615967,27.039155209656062,26.19721387333184,107.91888011534604,95.69745639282418,-0.0002266406954731,0.0977962836623191,0,0,0
8988,312050.7228720918,2010-10-19 07:53:49,480.240617986366,7,27,-1.099568486213684,3.830553770065308,27.039155209656062,26.206380964437447,107.91888011534604,95.73260635298458,-0.0001942634553415,0.0977962836623191,0,0,0
8989,312080.73826088617,2010-10-19 07:54:19,510.2560067606959,7,27,-1.0997490882873535,3.82262134552002,27.039155209656062,26.2155481783566,107.91888011534604,95.76768616286954,-0.0002590179501567,0.0977962836623191,0,0,0
8990,312110.75313378475,2010-10-19 07:54:49,540.2708796843672,7,27,-1.099568486213684,3.8153364658355713,27.039155209656062,26.224715241806223,107.91888011534604,95.80269621242198,-0.0002266406954731,0.0977962836623191,0,0,0
8991,312140.7682862602,2010-10-19 07:55:19,570.2860320996175,7,27,-1.099568486213684,3.807889699935913,27.039155209656062,26.233882323643098,107.91888011534604,95.83763785908236,-0.0001618862152099,0.0977962836623191,0,0,0
8992,312170.7834187608,2010-10-19 07:55:49,600.3011646403343,7,27,-1.099568486213684,3.800766706466675,27.039155209656062,26.243049414250866,107.91888011534604,95.87251274787512,-0.0001942634553415,0.0977962836623191,0,0,0
8993,312200.7985611461,2010-10-19 07:56:19,630.3163069854869,7,27,-1.099568486213684,3.793643712997437,27.039155209656062,26.252216566991525,107.91888011534604,95.90732252476826,-0.0001942634553415,0.0977962836623191,0,0,0
8994,312230.8137070351,2010-10-19 07:56:49,660.3314529195842,7,27,-1.0993878841400146,3.786682605743408,27.039155209656062,26.26138370108126,107.91888011534604,95.9420674969446,-0.0001942634553415,0.0977962836623191,0,0,0
8995,312260.8288735003,2010-10-19 07:57:19,690.3466193597891,7,27,-1.099568486213684,3.77972149848938,27.039155209656062,26.27055077031029,107.91888011534604,95.97674866905407,-0.0001942634553415,0.0977962836623191,0,0,0
8996,312290.8439954947,2010-10-19 07:57:49,720.3617413391837,7,27,-1.099568486213684,3.773084163665772,27.039155209656062,26.279717941228927,107.91888011534604,96.01136820426106,-0.0001942634553415,0.0977962836623191,0,0,0
8997,312320.8592591021,2010-10-19 07:58:19,750.3770049415466,7,27,-1.099568486213684,3.766608715057373,27.039155209656062,26.28888506476008,107.91888011534604,96.04592701942664,-0.0001618862152099,0.0977962836623191,0,0,0
8998,312350.87431426503,2010-10-19 07:58:49,780.3920601344889,7,27,-1.0993878841400146,3.760295152664185,27.039155209656062,26.29805215451,107.91888011534604,96.08042649555236,-0.0001618862152099,0.0977962836623191,0,0,0
8999,312380.88944650994,2010-10-19 07:59:19,810.4071923844813,7,27,-1.0993878841400146,3.753981590270996,27.039155209656062,26.307219233498863,107.91888011534604,96.11486790389203,-0.0001618862152099,0.0977962836623191,0,0,0
9000,312410.9047287137,2010-10-19 07:59:49,840.4224745681546,7,27,-1.099568486213684,3.7475063800811768,27.039155209656062,26.31638641862837,107.91888011534604,96.1492522252276,-0.0001942634553415,0.0977962836623191,0,0,0
9001,312440.9197112505,2010-10-19 08:00:19,870.4374570949907,7,27,-1.0993878841400146,3.741516590118408,27.039155209656062,26.325553519918124,107.91888011534604,96.183579374926,-0.0001295089750783,0.0977962836623191,0,0,0
9002,312470.9348747635,2010-10-19 08:00:49,900.4526206580247,7,27,-1.099568486213684,3.73552680015564,27.039155209656062,26.334720674228087,107.91888011534604,96.21785131010463,-0.0001295089750783,0.0977962836623191,0,0,0
9003,312500.95037751686,2010-10-19 08:01:19,930.4681234565378,7,27,-1.099568486213684,3.729698896408081,27.039155209656062,26.343887914178392,107.91888011534604,96.25206929688667,-0.0001295089750783,0.0977962836623191,0,0,0
9004,312530.965264681,2010-10-19 08:01:49,960.4830105254632,7,27,-1.099568486213684,3.7238709926605225,27.039155209656062,26.35305489106995,107.91888011534604,96.28623362268208,-0.0001618862152099,0.0977962836623191,0,0,0
9005,312560.98029116745,2010-10-19 08:02:19,990.4980370519604,7,27,-1.099568486213684,3.718204975128174,27.039155209656062,26.36222193581527,107.91888011534604,96.32034549706356,-0.0001618862152099,0.0977962836623191,0,0,0
9006,312590.9954391767,2010-10-19 08:02:49,1020.5131850612296,7,27,-1.0993878841400146,3.712862730026245,27.039155209656062,26.371389025422943,107.91888011534604,96.354405936052,-0.0001295089750783,0.0977962836623191,0,0,0
9007,312621.0105923939,2010-10-19 08:03:19,1050.5283382534162,7,27,-1.0993878841400146,3.7073585987091056,27.039155209656062,26.38055613846712,107.91888011534604,96.388416103849,-0.0001295089750783,0.0977962836623191,0,0,0
9008,312651.02571447863,2010-10-19 08:03:49,1080.5434603480985,7,27,-1.099568486213684,3.7020163536071777,27.039155209656062,26.389723228460223,107.91888011534604,96.42237670092254,-0.0001618862152099,0.0977962836623191,0,0,0
9009,312681.04091548995,2010-10-19 08:04:19,1110.5586613594653,7,27,-1.099568486213684,3.696512222290039,27.039155209656062,26.39889034551864,107.91888011534604,96.45628829095016,-0.0001618862152099,0.0977962836623191,0,0,0
9010,312711.0560047378,2010-10-19 08:04:49,1140.5737506323453,7,27,-1.099568486213684,3.69133186340332,27.039155209656062,26.408057449343826,107.91888011534604,96.49015174812656,-0.0001618862152099,0.0977962836623191,0,0,0
9011,312741.07115619566,2010-10-19 08:05:19,1170.588902055122,7,27,-1.099568486213684,3.686313390731812,27.039155209656062,26.417224576772227,107.91888011534604,96.52396794945092,-0.0001618862152099,0.0977962836623191,0,0,0
9012,312771.08644190815,2010-10-19 08:05:49,1200.6041879831273,7,27,-1.0993878841400146,3.681618690490722,27.039155209656062,26.426391725019823,107.91888011534604,96.55773830088717,-6.47544875391759e-05,0.0977962836623191,0,0,0
9013,312801.1014388709,2010-10-19 08:06:19,1230.619184745443,7,27,-1.0993878841400146,3.676438331604004,27.039155209656062,26.4355588203807,107.91888011534604,96.59146333706292,-0.0001295089750783,0.0977962836623191,0,0,0
9014,312831.116555517,2010-10-19 08:06:49,1260.6343013965577,7,27,-1.0993878841400146,3.671743869781494,27.039155209656062,26.444725968939405,107.91888011534604,96.62514360701594,-6.47544875391759e-05,0.0977962836623191,0,0,0
9015,312861.131733095,2010-10-19 08:07:19,1290.6494789494586,7,27,-1.0993878841400146,3.666725397109986,27.039155209656062,26.453893146204077,107.91888011534604,96.65877903421068,-9.713172767078504e-05,0.0977962836623191,0,0,0
9016,312891.1469114298,2010-10-19 08:07:49,1320.6646573244084,7,27,-1.099568486213684,3.661706924438477,27.039155209656062,26.463060251077657,107.91888011534604,96.6923701744513,-0.0001942634553415,0.0977962836623191,0,0,0
9017,312921.1620282113,2010-10-19 08:08:20,1350.6797740507109,7,27,-1.099929690361023,3.657012224197388,27.039155209656062,26.47222742866438,107.91888011534604,96.72591764632148,-0.0001618862152099,0.0977962836623191,0,0,0
9018,312951.1771758847,2010-10-19 08:08:50,1380.6949217792808,7,27,-1.0993878841400146,3.652479410171509,27.039155209656062,26.481394476550467,107.91888011534604,96.75942147337516,-0.0001295089750783,0.0977962836623191,0,0,0
9019,312981.1923322348,2010-10-19 08:09:20,1410.7100780691878,7,27,-1.0993878841400146,3.64794659614563,27.039155209656062,26.49056152971487,107.91888011534604,96.79288264533378,-0.0001295089750783,0.0977962836623191,0,0,0
9020,313011.20748986304,2010-10-19 08:09:50,1440.7252357375305,7,27,-1.099568486213684,3.643413782119751,27.039155209656062,26.49972858366232,107.91888011534604,96.82630227320004,-9.713172767078504e-05,0.0977962836623191,0,0,0
9021,313041.2226059126,2010-10-19 08:10:20,1470.7403517771215,7,27,-1.0992072820663452,3.639042854309082,27.039155209656062,26.50889563421876,107.91888011534604,96.8596812265054,-9.713172767078504e-05,0.0977962836623191,0,0,0
9022,313071.2377518818,2010-10-19 08:10:50,1500.7554977763812,7,27,-1.099568486213684,3.634671926498413,27.039155209656062,26.51806274118376,107.91888011534604,96.89302064865277,-0.0001295089750783,0.0977962836623191,0,0,0
9023,313101.2529153446,2010-10-19 08:11:20,1530.7706612391653,7,27,-1.0993878841400146,3.630462884902954,27.039155209656062,26.527229809519422,107.91888011534604,96.92632052556368,-9.713172767078504e-05,0.0977962836623191,0,0,0
9024,313131.268033695,2010-10-19 08:11:50,1560.7857795393904,7,27,-1.099568486213684,3.626415729522705,27.039155209656062,26.536396900119456,107.91888011534604,96.9595819290932,-9.713172767078504e-05,0.0977962836623191,0,0,0
9025,313161.2831857443,2010-10-19 08:12:20,1590.8009316037662,7,27,-1.099568486213684,3.622206687927246,27.039155209656062,26.545564008892825,107.91888011534604,96.99280533106544,-6.47544875391759e-05,0.0977962836623191,0,0,0
9026,313191.29833009443,2010-10-19 08:12:50,1620.8160759388784,7,27,-1.0993878841400146,3.618159532546997,27.039155209656062,26.55473112695668,107.91888011534604,97.02599133650742,-9.713172767078504e-05,0.0977962836623191,0,0,0
9027,313221.3135381083,2010-10-19 08:13:20,1650.83128397776,7,27,-1.099568486213684,3.614112377166748,27.039155209656062,26.56389819587121,107.91888011534604,97.05914015056896,-9.713172767078504e-05,0.0977962836623191,0,0,0
9028,313251.3286108349,2010-10-19 08:13:50,1680.846356709414,7,27,-1.099568486213684,3.610065221786499,27.039155209656062,26.57306526001713,107.91888011534604,97.09225298593417,-0.0001295089750783,0.0977962836623191,0,0,0
9029,313281.34393847187,2010-10-19 08:14:20,1710.8616843714335,7,27,-1.099568486213684,3.60650372505188,27.039155209656062,26.582232439242368,107.91888011534604,97.12533047465315,-6.47544875391759e-05,0.0977962836623191,0,0,0
9030,313311.3589072695,2010-10-19 08:14:50,1740.8766531339647,7,27,-1.099568486213684,3.602618455886841,27.039155209656062,26.591399481703395,107.91888011534604,97.15837295169877,-0.0001618862152099,0.0977962836623191,0,0,0
9031,313341.3740481059,2010-10-19 08:15:20,1770.891793970357,7,27,-1.099568486213684,3.5990569591522217,27.039155209656062,26.600566560491707,107.91888011534604,97.1913824661688,-9.713172767078504e-05,0.0977962836623191,0,0,0
9032,313371.3891880099,2010-10-19 08:15:50,1800.9069338844504,7,27,-1.0993878841400146,3.5954954624176025,27.039155209656062,26.609733718990185,107.91888011534604,97.22435974128308,-9.713172767078504e-05,0.0977962836623191,0,0,0
9033,313401.4043496432,2010-10-19 08:16:20,1830.9220955226872,7,27,-1.0993878841400146,3.5922577381134038,27.039155209656062,26.618900774999226,107.91888011534604,97.2573048990453,-6.47544875391759e-05,0.0977962836623191,0,0,0
9034,313431.4194740035,2010-10-19 08:16:50,1860.9372198729911,7,27,-1.0993878841400146,3.588858366012573,27.039155209656062,26.62806790915857,107.91888011534604,97.29021922460566,-6.47544875391759e-05,0.0977962836623191,0,0,0
9035,313461.4347797609,2010-10-19 08:17:20,1890.9525256404424,7,27,-1.0993878841400146,3.585620641708374,27.039155209656062,26.63723511853048,107.91888011534604,97.32310331806252,-9.713172767078504e-05,0.0977962836623191,0,0,0
9036,313491.45240100427,2010-10-19 08:17:50,1920.970146873747,7,27,-1.099568486213684,3.582059144973755,27.039155209656062,26.64640291462905,107.91888011534604,97.35595907519692,-0.0001295089750783,0.0977962836623191,0,0,0
9037,313521.4649357855,2010-10-19 08:18:20,1950.9826816400105,7,27,-1.0993878841400146,3.5789833068847656,27.039155209656062,26.655569211254004,107.91888011534604,97.38877888792528,-3.237724376958795e-05,0.0977962836623191,0,0,0
9038,313551.48008324346,2010-10-19 08:18:50,1980.997829082868,7,27,-1.0993878841400146,3.5755836963653564,27.039155209656062,26.664736301859868,107.91888011534604,97.42157158371236,-9.713172767078504e-05,0.0977962836623191,0,0,0
9039,313581.49520654115,2010-10-19 08:19:20,2011.0129524356853,7,27,-1.099568486213684,3.572345972061157,27.039155209656062,26.673903440737643,107.91888011534604,97.45433470114467,-6.47544875391759e-05,0.0977962836623191,0,0,0
9040,313611.5103422297,2010-10-19 08:19:50,2041.0280880941727,7,27,-1.0993878841400146,3.569270133972168,27.039155209656062,26.68307056183593,107.91888011534604,97.48706881173278,-6.47544875391759e-05,0.0977962836623191,0,0,0
9041,313641.52547414886,2010-10-19 08:20:20,2071.0432199832658,7,27,-1.0993878841400146,3.5661942958831787,27.039155209656062,26.692237729011048,107.91888011534604,97.51977422965362,-6.47544875391759e-05,0.0977962836623191,0,0,0
9042,313671.5407411998,2010-10-19 08:20:50,2101.058487049261,7,27,-1.0997490882873535,3.5629565715789795,27.039155209656062,26.701404831058777,107.91888011534604,97.55245109300915,-9.713172767078504e-05,0.0977962836623191,0,0,0
9043,313701.55589324416,2010-10-19 08:21:20,2131.073639093587,7,27,-1.099568486213684,3.5600426197052,27.039155209656062,26.710571846930588,107.91888011534604,97.58510040283464,-9.713172767078504e-05,0.0977962836623191,0,0,0
9044,313731.5709698905,2010-10-19 08:21:50,2161.0887157349857,7,27,-1.099568486213684,3.556804895401001,27.039155209656062,26.719738908541345,107.91888011534604,97.6177211451031,-0.0001295089750783,0.0977962836623191,0,0,0
9045,313761.5860388077,2010-10-19 08:22:20,2191.103784672183,7,27,-1.099568486213684,3.553729057312012,27.039155209656062,26.728906053179912,107.91888011534604,97.6503136376373,-0.0001295089750783,0.0977962836623191,0,0,0
9046,313791.6011348925,2010-10-19 08:22:50,2221.118880767065,7,27,-1.0993878841400146,3.5506532192230225,27.039155209656062,26.73807311140881,107.91888011534604,97.68287736005824,-9.713172767078504e-05,0.0977962836623191,0,0,0
9047,313821.6163668059,2010-10-19 08:23:20,2251.134112655387,7,27,-1.099568486213684,3.547577381134033,27.039155209656062,26.747240258834427,107.91888011534604,97.71541295087697,-6.47544875391759e-05,0.0977962836623191,0,0,0
9048,313851.63149720134,2010-10-19 08:23:50,2281.149243080832,7,27,-1.0993878841400146,3.544339656829834,27.039155209656062,26.75640739257054,107.91888011534604,97.74791954679752,-9.713172767078504e-05,0.0977962836623191,0,0,0
9049,313881.64664365165,2010-10-19 08:24:20,2311.164389546254,7,27,-1.099568486213684,3.5412638187408447,27.039155209656062,26.765574550135707,107.91888011534604,97.78039762152191,-0.0001295089750783,0.0977962836623191,0,0,0
9050,313911.661789676,2010-10-19 08:24:50,2341.179535555538,7,27,-1.0993878841400146,3.5381879806518555,27.039155209656062,26.774741653107355,107.91888011534604,97.81284653493744,-3.237724376958795e-05,0.0977962836623191,0,0,0
9051,313941.677027449,2010-10-19 08:25:20,2371.1947733285265,7,27,-1.099568486213684,3.5346264839172363,27.039155209656062,26.783908839134888,107.91888011534604,97.84526580060133,-9.713172767078504e-05,0.0977962836623191,0,0,0
9052,313971.6920865015,2010-10-19 08:25:50,2401.2098323861005,7,27,-1.099568486213684,3.531550645828247,27.039155209656062,26.793075951258924,107.91888011534604,97.8776543849404,-6.47544875391759e-05,0.0977962836623191,0,0,0
9053,314001.7074844337,2010-10-19 08:26:20,2431.225230278155,7,27,-1.0997490882873535,3.528151035308838,27.039155209656062,26.80224320370414,107.91888011534604,97.91001306384749,-6.47544875391759e-05,0.0977962836623191,0,0,0
9054,314031.7223666205,2010-10-19 08:26:50,2461.240112489975,7,27,-1.0993878841400146,3.5247514247894287,27.039155209656062,26.81141025646551,107.91888011534604,97.94234021042062,-9.713172767078504e-05,0.0977962836623191,0,0,0
9055,314061.7375211059,2010-10-19 08:27:20,2491.2552669503225,7,27,-1.0993878841400146,3.5211899280548096,27.039155209656062,26.82057744801956,107.91888011534604,97.97463538390836,-6.47544875391759e-05,0.0977962836623191,0,0,0
9056,314091.7526555714,2010-10-19 08:27:50,2521.2704014559363,7,27,-1.099568486213684,3.5174665451049805,27.039155209656062,26.82974454059937,107.91888011534604,98.00689698637368,-9.713172767078504e-05,0.0977962836623191,0,0,0
9057,314121.7677911998,2010-10-19 08:28:20,2551.285537049261,7,27,-1.099568486213684,3.5135812759399414,27.039155209656062,26.83891166569452,107.91888011534604,98.03912458209176,-9.713172767078504e-05,0.0977962836623191,0,0,0
9058,314151.78297592554,2010-10-19 08:28:50,2581.300721920402,7,27,-1.0997490882873535,3.509696245193481,27.039155209656062,26.848078821406915,107.91888011534604,98.07131707691111,-0.0001295089750783,0.0977962836623191,0,0,0
9059,314181.7981072884,2010-10-19 08:29:20,2611.315853167895,7,27,-1.099568486213684,3.5056490898132324,27.039155209656062,26.857246019382515,107.91888011534604,98.10347263903245,-9.713172767078504e-05,0.0977962836623191,0,0,0
9060,314211.8132265009,2010-10-19 08:29:50,2641.330972340294,7,27,-1.099568486213684,3.501116275787353,27.039155209656062,26.86641319807909,107.91888011534604,98.13558927905127,-0.0001618862152099,0.0977962836623191,0,0,0
9061,314241.8283786605,2010-10-19 08:30:20,2671.346124540007,7,27,-1.099568486213684,3.4964215755462646,27.039155209656062,26.87558032744096,107.91888011534604,98.16766456177162,-0.0001942634553415,0.0977962836623191,0,0,0
9062,314271.8435256272,2010-10-19 08:30:50,2701.3612715066783,7,27,-1.099568486213684,3.491726875305176,27.039155209656062,26.88474744874585,107.91888011534604,98.19969629305646,-0.0001295089750783,0.0977962836623191,0,0,0
9063,314301.8587601772,2010-10-19 08:31:20,2731.376506071671,7,27,-1.0993878841400146,3.486222743988037,27.039155209656062,26.893914627274757,107.91888011534604,98.23168112270868,-0.0001618862152099,0.0977962836623191,0,0,0
9064,314331.8738028438,2010-10-19 08:31:50,2761.3915486882693,7,27,-1.0993878841400146,3.4803948402404785,27.039155209656062,26.90308177075687,107.91888011534604,98.26361500031253,-0.0002266406954731,0.0977962836623191,0,0,0
9065,314361.88896680286,2010-10-19 08:32:20,2791.406712702428,7,27,-1.0993878841400146,3.4742431640625,27.039155209656062,26.91224886936654,107.91888011534604,98.29549374491698,-0.0001942634553415,0.0977962836623191,0,0,0
9066,314391.9041032283,2010-10-19 08:32:50,2821.4218490827134,7,27,-1.099568486213684,3.467282056808472,27.039155209656062,26.921415982188144,107.91888011534604,98.32731153119052,-0.0001942634553415,0.0977962836623191,0,0,0
9067,314421.9194715216,2010-10-19 08:33:20,2851.4372174612117,7,27,-1.0993878841400146,3.4591877460479736,27.039155209656062,26.9305831814122,107.91888011534604,98.3590606580526,-0.0002266406954731,0.0977962836623191,0,0,0
9068,314451.93451129104,2010-10-19 08:33:50,2881.452257175576,7,27,-1.099568486213684,3.449960231781006,27.039155209656062,26.939750281358613,107.91888011534604,98.39073005963176,-0.0002590179501567,0.0977962836623191,0,0,0
9069,314481.94953718595,2010-10-19 08:34:20,2911.4672831156117,7,27,-1.0993878841400146,3.4395995140075684,27.039155209656062,26.94891736313366,107.91888011534604,98.42230891758,-0.0002913951757363,0.0977962836623191,0,0,0
9070,314511.9646878368,2010-10-19 08:34:50,2941.4824337063146,7,27,-1.099568486213684,3.4269726276397705,27.039155209656062,26.9580845068935,107.91888011534604,98.45378300411664,-0.0003561496851034,0.0977962836623191,0,0,0
9071,314541.9798297709,2010-10-19 08:35:20,2971.4975756404424,7,27,-1.0997490882873535,3.412079095840454,27.039155209656062,26.96725167645204,107.91888011534604,98.4851327260415,-0.0004532813909463,0.0977962836623191,0,0,0
9072,314571.994984933,2010-10-19 08:35:50,3001.512730777476,7,27,-1.099568486213684,3.3941097259521484,27.039155209656062,26.97641887606692,107.91888011534604,98.51633236123014,-0.0005180359003134,0.0977962836623191,0,0,0
9073,314602.01011548884,2010-10-19 08:36:20,3031.527861363321,7,27,-1.099568486213684,3.371283769607544,27.039155209656062,26.985586061935244,107.91888011534604,98.54734682605876,-0.0006799221155233,0.0977962836623191,0,0,0
9074,314632.0253309111,2010-10-19 08:36:50,3061.543076860792,7,27,-1.099568486213684,3.3416588306427,27.039155209656062,26.994753333210426,107.91888011534604,98.57812352433116,-0.0008741855854168,0.0977962836623191,0,0,0
9075,314662.040421372,2010-10-19 08:37:20,3091.558167241433,7,27,-1.099568486213684,3.3021585941314697,27.039155209656062,27.003920500695845,107.91888011534604,98.60858576421626,-0.0011979580158367,0.0977962836623191,0,0,0
9076,314692.0556674807,2010-10-19 08:37:50,3121.573413320121,7,27,-1.0993878841400146,3.247441291809082,27.039155209656062,27.01308703471726,107.91888011534604,98.63861786652444,-0.0016512393485754,0.0977962836623191,0,0,0
9077,314722.0706817968,2010-10-19 08:38:20,3151.5884276361858,7,27,-1.0993878841400146,3.1674697399139404,27.039155209656062,27.02225343759241,107.91888011534604,98.66804240447304,-0.0024930476211011,0.0977962836623191,0,0,0
9078,314752.08586534456,2010-10-19 08:38:50,3181.6036111890403,7,27,-1.099568486213684,3.0428175926208496,27.039155209656062,27.03142058159245,107.91888011534604,98.69655478412668,-0.0041442872025072,0.0977962836623191,0,0,0
9079,314777.8979520769,2010-10-19 08:39:16,3207.415697921358,7,27,-1.099568486213684,2.842726945877075,27.039155209656062,27.03930413466612,107.91888011534604,98.719845234613,-0.0081590171903371,0.0977962836623191,0,0,0
9080,314789.6164980642,2010-10-19 08:39:28,3219.134243943752,7,27,-1.099568486213684,2.699620008468628,27.039155209656062,27.042883181253003,107.91888011534604,98.72977365855505,-0.0105225564911961,0.0977962836623191,0,0,0
9081,314849.6418276885,2010-10-19 08:40:28,60.01474626376507,8,27,0.0,3.3782448768615723,27.039155209656062,27.042883181253003,107.91888011534604,98.72977365855505,0.0013598442310467,0.0977962836623191,0,0,0
9082,314849.8406787934,2010-10-19 08:40:28,0.187426048382122,9,27,-1.9243103452026844e-05,3.3780829906463623,27.039155209656062,27.04288318225485,107.91888011534604,98.72977366193938,0.0,0.0907677188515663,0,0,0
9083,314854.6687203334,2010-10-19 08:40:33,5.015467568401246,9,27,0.0007031940040178,3.3865010738372803,27.039156134965097,27.04288318233867,107.91888324565078,98.72977366222251,0.0011979580158367,0.0907677188515663,0,0,0
