Data_Point,Test_Time(s),Date_Time,Step_Time(s),Step_Index,Cycle_Index,Current(A),Voltage(V),Charge_Capacity(Ah),Discharge_Capacity(Ah),Charge_Energy(Wh),Discharge_Energy(Wh),dV/dt(V/s),Internal_Resistance(Ohm),Is_FC_Data,AC_Impedance(Ohm),ACI_Phase_Angle(Deg)
15981,558148.4592357964,2010-10-22 04:15:54,30.015149367654768,1,49,0.0,3.3905482292175293,47.66589290539834,47.6777998022146,190.4297610030829,173.7797337353234,0.0008094310760498,0.0922218039631843,0,0,0
15982,558178.474406036,2010-10-22 04:16:24,60.03031962236651,1,49,0.0,3.4154787063598637,47.66589290539834,47.6777998022146,190.4297610030829,173.7797337353234,0.0006151676061563,0.0922218039631843,0,0,0
15983,558208.4895537646,2010-10-22 04:16:54,90.04546733088621,1,49,0.0,3.43393349647522,47.66589290539834,47.6777998022146,190.4297610030829,173.7797337353234,0.0004209041653666,0.0922218039631843,0,0,0
15984,558238.4579065257,2010-10-22 04:17:24,120.01382019224836,1,49,0.0,3.448988914489746,47.66589290539834,47.6777998022146,190.4297610030829,173.7797337353234,0.0003885269106831,0.0922218039631843,0,0,0
15985,558268.4806421036,2010-10-22 04:17:54,30.01518282103088,2,49,0.5499359965324402,3.60650372505188,47.67047923521278,47.6777998022146,190.4461384300647,173.7797337353234,0.0016188621520996,0.0922218039631843,0,0,0
15986,558298.495782945,2010-10-22 04:18:24,60.03032370253555,2,49,0.5501165986061096,3.654422044754028,47.67506559340281,47.6777998022146,190.4627959314859,173.7797337353234,0.0011008263099938,0.0922218039631843,0,0,0
15987,558328.5110738202,2010-10-22 04:18:54,90.04561468313334,2,49,0.5501165986061096,3.688903570175171,47.67965193644351,47.6777998022146,190.47963877347092,173.7797337353234,0.0008094310760498,0.0922218039631843,0,0,0
15988,558358.5262044562,2010-10-22 04:19:24,120.0607452338906,2,49,0.5501165986061096,3.715452909469605,47.68423821936528,47.6777998022146,190.49662017129563,173.7797337353234,0.0006475448608398,0.0922218039631843,0,0,0
15989,558388.5412392934,2010-10-22 04:19:54,150.07578003601284,2,49,0.5501165986061096,3.737307548522949,47.68882445468046,47.6777998022146,190.51371198834883,173.7797337353234,0.0005827903514727,0.0922218039631843,0,0,0
15990,558418.556518625,2010-10-22 04:20:24,180.09105938762764,2,49,0.5501165986061096,3.754952907562256,47.69341079833821,47.6777998022146,190.5308944496608,173.7797337353234,0.0004208564641885,0.0922218039631843,0,0,0
15991,558448.5715589509,2010-10-22 04:20:54,210.1060996734168,2,49,0.5501165986061096,3.7682275772094727,47.69799702717819,47.6777998022146,190.5481478978876,173.7797337353234,0.0002913951757363,0.0922218039631843,0,0,0
15992,558478.5867226442,2010-10-22 04:21:24,240.1212634018631,2,49,0.5499359965324402,3.7763218879699703,47.70258326463139,47.6777998022146,190.56545008489968,173.7797337353234,0.0001618862152099,0.0922218039631843,0,0,0
15993,558508.6018565333,2010-10-22 04:21:54,270.13639727590305,2,49,0.5501165986061096,3.78134036064148,47.70716958145092,47.6777998022146,190.58278196845464,173.7797337353234,9.713172767078504e-05,0.0922218039631843,0,0,0
15994,558538.6170172192,2010-10-22 04:22:24,300.15155797179125,2,49,0.5501165986061096,3.7855494022369385,47.711756543302776,47.6777998022146,190.60013696269107,173.7797337353234,0.0001295089750783,0.0922218039631843,0,0,0
15995,558568.6323279089,2010-10-22 04:22:54,330.16686863644776,2,49,0.5501165986061096,3.789272785186768,47.71634358545111,47.6777998022146,190.6175101866133,173.7797337353234,9.713172767078504e-05,0.0922218039631843,0,0,0
15996,558598.6474756827,2010-10-22 04:23:24,360.1820164201548,2,49,0.5499359965324402,3.7929961681365967,47.720929994242624,47.6777998022146,190.63489820663196,173.7797337353234,9.713172767078504e-05,0.0922218039631843,0,0,0
15997,558628.6624908056,2010-10-22 04:23:54,390.1970315332058,2,49,0.5501165986061096,3.796719551086426,47.72551629643921,47.6777998022146,190.65230290548624,173.7797337353234,6.47544875391759e-05,0.0922218039631843,0,0,0
15998,558658.6776481231,2010-10-22 04:24:24,420.21218888074895,2,49,0.5501165986061096,3.800442934036255,47.73010257051151,47.6777998022146,190.6697242200721,173.7797337353234,9.713172767078504e-05,0.0922218039631843,0,0,0
15999,558688.6929086128,2010-10-22 04:24:54,450.2274493553164,2,49,0.5495747923851013,3.803842544555664,47.73468890936884,47.6777998022146,190.68716216136812,173.7797337353234,9.713172767078504e-05,0.0922218039631843,0,0,0
16000,558718.7080840705,2010-10-22 04:25:24,480.2426249032203,2,49,0.5501165986061096,3.807404041290283,47.73927519170715,47.6777998022146,190.7046159371096,173.7797337353234,0.0001295089750783,0.0922218039631843,0,0,0
16001,558748.7231071985,2010-10-22 04:25:54,510.25764794102224,2,49,0.5501165986061096,3.810803651809693,47.74386144426752,47.6777998022146,190.72208541587736,173.7797337353234,0.0001295089750783,0.0922218039631843,0,0,0
16002,558778.7382557641,2010-10-22 04:26:24,540.2727965167032,2,49,0.5501165986061096,3.814365148544312,47.74844774349304,47.6777998022146,190.73957063531108,173.7797337353234,0.0001295089750783,0.0922218039631843,0,0,0
16003,558808.7561218727,2010-10-22 04:26:54,570.2906627355871,2,49,0.5499359965324402,3.817440986633301,47.75303446051009,47.6777998022146,190.75707290667395,173.7797337353234,6.47544875391759e-05,0.0922218039631843,0,0,0
16004,558838.7686018224,2010-10-22 04:27:24,600.3031425849811,2,49,0.5499359965324402,3.8206787109375,47.75762041379445,47.6777998022146,190.7745873457823,173.7797337353234,6.47544875391759e-05,0.0922218039631843,0,0,0
16005,558868.7837152604,2010-10-22 04:27:54,630.3182559980258,2,49,0.5499359965324402,3.824078321456909,47.76220672629989,47.6777998022146,190.7921180319535,173.7797337353234,9.713172767078504e-05,0.0922218039631843,0,0,0
16006,558898.7989065828,2010-10-22 04:28:24,660.3334473453067,2,49,0.5501165986061096,3.827316045761109,47.76679302001632,47.6777998022146,190.8096635931204,173.7797337353234,9.713172767078504e-05,0.0922218039631843,0,0,0
16007,558928.814046612,2010-10-22 04:28:54,690.3485873345877,2,49,0.5501165986061096,3.830553770065308,47.771379295405005,47.6777998022146,190.82722396887925,173.7797337353234,9.713172767078504e-05,0.0922218039631843,0,0,0
16008,558958.8291696692,2010-10-22 04:29:24,720.363710406706,2,49,0.5501165986061096,3.833791255950928,47.775965584399934,47.6777998022146,190.8447994825154,173.7797337353234,6.47544875391759e-05,0.0922218039631843,0,0,0
16009,558988.8445401529,2010-10-22 04:29:54,750.3790809054875,2,49,0.5501165986061096,3.837352752685547,47.7805518725166,47.6777998022146,190.8623902887764,173.7797337353234,9.713172767078504e-05,0.0922218039631843,0,0,0
16010,559018.8594899782,2010-10-22 04:30:24,780.394030715784,2,49,0.5499359965324402,3.840590476989746,47.78513806942348,47.6777998022146,190.87999616673343,173.7797337353234,9.713172767078504e-05,0.0922218039631843,0,0,0
16011,559048.8747643123,2010-10-22 04:30:54,810.409305064931,2,49,0.5501165986061096,3.8439900875091553,47.789724367682375,47.6777998022146,190.8976180623121,173.7797337353234,9.713172767078504e-05,0.0922218039631843,0,0,0
16012,559078.8897924278,2010-10-22 04:31:24,840.4243331553256,2,49,0.5499359965324402,3.847389698028565,47.79431053597424,47.6777998022146,190.9152551162932,173.7797337353234,6.47544875391759e-05,0.0922218039631843,0,0,0
16013,559108.9051239094,2010-10-22 04:31:54,870.4396646468892,2,49,0.5499359965324402,3.8507893085479736,47.7988969090245,47.6777998022146,190.93290876074852,173.7797337353234,9.713172767078504e-05,0.0922218039631843,0,0,0
16014,559138.9200841505,2010-10-22 04:32:24,900.4546248781579,2,49,0.5497553944587708,3.854027032852173,47.80348318582448,47.6777998022146,190.950577550114,173.7797337353234,9.713172767078504e-05,0.0922218039631843,0,0,0
16015,559168.9352428867,2010-10-22 04:32:54,930.4697836141614,2,49,0.5501165986061096,3.857426643371582,47.8080694999878,47.6777998022146,190.9682618079898,173.7797337353234,9.713172767078504e-05,0.0922218039631843,0,0,0
16016,559198.9503841992,2010-10-22 04:33:24,960.4849249668404,2,49,0.5501165986061096,3.860826253890991,47.8126548850021,47.6777998022146,190.9859574641038,173.7797337353234,6.47544875391759e-05,0.0922218039631843,0,0,0
16017,559228.965528013,2010-10-22 04:33:54,990.5000687355408,2,49,0.5499359965324402,3.8640639781951904,47.817240194222,47.6777998022146,191.00366763188177,173.7797337353234,9.713172767078504e-05,0.0922218039631843,0,0,0
16018,559258.9807045634,2010-10-22 04:34:24,1020.5152453210308,2,49,0.5501165986061096,3.86713981628418,47.821826344937016,47.6777998022146,191.0213956206664,173.7797337353234,9.713172767078504e-05,0.0922218039631843,0,0,0
16019,559288.995857094,2010-10-22 04:34:54,1050.5303978164811,2,49,0.5501165986061096,3.870215654373169,47.82641257869475,47.6777998022146,191.0391382034872,173.7797337353234,9.713172767078504e-05,0.0922218039631843,0,0,0
16020,559319.0110160806,2010-10-22 04:35:24,1080.5455568331845,2,49,0.5501165986061096,3.873129606246948,47.830998829847104,47.6777998022146,191.0568946732329,173.7797337353234,6.47544875391759e-05,0.0922218039631843,0,0,0
16021,559349.0261445962,2010-10-22 04:35:54,1110.5606853238069,2,49,0.5501165986061096,3.8758816719055176,47.83558508743182,47.6777998022146,191.07466447481937,173.7797337353234,6.47544875391759e-05,0.0922218039631843,0,0,0
16022,559379.0412995578,2010-10-22 04:36:24,1140.575840315479,2,49,0.5501165986061096,3.878795623779297,47.84017133074729,47.6777998022146,191.09244708235937,173.7797337353234,6.47544875391759e-05,0.0922218039631843,0,0,0
16023,559409.056463161,2010-10-22 04:36:54,1170.59100393365,2,49,0.5499359965324402,3.881385803222656,47.84475765417015,47.6777998022146,191.11024227420228,173.7797337353234,6.47544875391759e-05,0.0922218039631843,0,0,0
16024,559439.0717213248,2010-10-22 04:37:24,1200.6062620523458,2,49,0.5499359965324402,3.8838140964508057,47.849343981904994,47.6777998022146,191.12804924604376,173.7797337353234,3.237724376958795e-05,0.0922218039631843,0,0,0
16025,559469.087145001,2010-10-22 04:37:54,1230.6216857436998,2,49,0.5499359965324402,3.886242389678955,47.853930398561445,47.6777998022146,191.14586757691376,173.7797337353234,6.47544875391759e-05,0.0922218039631843,0,0,0
16026,559499.1019111737,2010-10-22 04:38:24,1260.636451931352,2,49,0.5501165986061096,3.888346910476685,47.858516657532725,47.6777998022146,191.16369575093373,173.7797337353234,6.47544875391759e-05,0.0922218039631843,0,0,0
16027,559529.1170737293,2010-10-22 04:38:54,1290.6516144568,2,49,0.5501165986061096,3.890613317489624,47.863103009780936,47.6777998022146,191.1815341218908,173.7797337353234,6.47544875391759e-05,0.0922218039631843,0,0,0
16028,559559.1321877638,2010-10-22 04:39:24,1320.6667284913938,2,49,0.5501165986061096,3.8923940658569336,47.867689275430486,47.6777998022146,191.19938133090184,173.7797337353234,0.0,0.0922218039631843,0,0,0
16029,559589.1474189304,2010-10-22 04:39:54,1350.6819596529042,2,49,0.5501165986061096,3.894336700439453,47.87227564251392,47.6777998022146,191.2172375151446,173.7797337353234,6.47544875391759e-05,0.0922218039631843,0,0,0
16030,559619.1625367594,2010-10-22 04:40:24,1380.69707763233,2,49,0.5501165986061096,3.8959555625915527,47.87686203601563,47.6777998022146,191.235101420861,173.7797337353234,6.47544875391759e-05,0.0922218039631843,0,0,0
16031,559649.177666052,2010-10-22 04:40:54,1410.7122068046515,2,49,0.5499359965324402,3.8974125385284415,47.881448304797374,47.6777998022146,191.25297235310956,173.7797337353234,6.47544875391759e-05,0.0922218039631843,0,0,0
16032,559679.1929128725,2010-10-22 04:41:24,1440.7274537254389,2,49,0.5499359965324402,3.898869514465332,47.886034614620485,47.6777998022146,191.2708504873065,173.7797337353234,3.237724376958795e-05,0.0922218039631843,0,0,0
16033,559709.2080743203,2010-10-22 04:41:54,1470.7426150478886,2,49,0.550297200679779,3.9003264904022217,47.89062089841387,47.6777998022146,191.2887352091728,173.7797337353234,3.237724376958795e-05,0.0922218039631843,0,0,0
16034,559739.2231074433,2010-10-22 04:42:24,1500.757648175838,2,49,0.550297200679779,3.9017834663391113,47.89520711883685,47.6777998022146,191.30662603102817,173.7797337353234,6.47544875391759e-05,0.0922218039631843,0,0,0
16035,559769.2382404953,2010-10-22 04:42:54,1530.7727812428668,2,49,0.5501165986061096,3.903078556060791,47.899793347936026,47.6777998022146,191.3245230878567,173.7797337353234,6.47544875391759e-05,0.0922218039631843,0,0,0
16036,559799.2533830008,2010-10-22 04:43:24,1560.787923738394,2,49,0.5499359965324402,3.9042117595672607,47.90437962632148,47.6777998022146,191.342426368305,173.7797337353234,0.0,0.0922218039631843,0,0,0
16037,559829.2685249299,2010-10-22 04:43:55,1590.80306568756,2,49,0.5501165986061096,3.9053449630737305,47.9089659294422,47.6777998022146,191.36033560486425,173.7797337353234,-3.237724376958795e-05,0.0922218039631843,0,0,0
16038,559859.2837120919,2010-10-22 04:44:25,1620.8182528143218,2,49,0.5501165986061096,3.90680193901062,47.91355207536721,47.6777998022146,191.37825010976155,173.7797337353234,0.0,0.0922218039631843,0,0,0
16039,559889.2988411739,2010-10-22 04:44:55,1650.8333819214813,2,49,0.5499359965324402,3.9080970287323,47.91813831705068,47.6777998022146,191.3961708626108,173.7797337353234,0.0,0.0922218039631843,0,0,0
16040,559919.313975459,2010-10-22 04:45:25,1680.8485162165705,2,49,0.5501165986061096,3.9095540046691895,47.922724508121725,47.6777998022146,191.4140973566891,173.7797337353234,6.47544875391759e-05,0.0922218039631843,0,0,0
16041,559949.329133834,2010-10-22 04:45:55,1710.8636745515748,2,49,0.5501165986061096,3.910525321960449,47.92731081778003,47.6777998022146,191.43203021290844,173.7797337353234,0.0,0.0922218039631843,0,0,0
16042,559979.3442689062,2010-10-22 04:46:25,1740.8788096336257,2,49,0.5501165986061096,3.911982297897339,47.93189711677592,47.6777998022146,191.44996901013607,173.7797337353234,3.237724376958795e-05,0.0922218039631843,0,0,0
16043,560009.359648673,2010-10-22 04:46:55,1770.8941895408557,2,49,0.5499359965324402,3.9132773876190186,47.936483411712125,47.6777998022146,191.46791373598472,173.7797337353234,3.237724376958795e-05,0.0922218039631843,0,0,0
16044,560039.3745705887,2010-10-22 04:47:25,1800.909111356381,2,49,0.5499359965324402,3.914734125137329,47.94106967303042,47.6777998022146,191.4858643489449,173.7797337353234,9.713172767078504e-05,0.0922218039631843,0,0,0
16045,560069.3897279513,2010-10-22 04:47:55,1830.924268668836,2,49,0.5501165986061096,3.916029214859009,47.94565599110158,47.6777998022146,191.5038211331918,173.7797337353234,9.713172767078504e-05,0.0922218039631843,0,0,0
16046,560099.4049127172,2010-10-22 04:48:25,1860.9394535800768,2,49,0.5499359965324402,3.9171624183654794,47.95024227418464,47.6777998022146,191.52178387145804,173.7797337353234,0.0,0.0922218039631843,0,0,0
16047,560129.4200291177,2010-10-22 04:48:55,1890.954569835205,2,49,0.5501165986061096,3.918619394302368,47.95482850524712,47.6777998022146,191.5397525092173,173.7797337353234,3.237724376958795e-05,0.0922218039631843,0,0,0
16048,560159.4351481698,2010-10-22 04:49:25,1920.9696889374288,2,49,0.5501165986061096,3.920076370239258,47.95941474349375,47.6777998022146,191.55772733765457,173.7797337353234,3.237724376958795e-05,0.0922218039631843,0,0,0
16049,560189.4502940788,2010-10-22 04:49:55,1950.984834886564,2,49,0.5501165986061096,3.9213714599609375,47.96400099116147,47.6777998022146,191.57570832491783,173.7797337353234,3.237724376958795e-05,0.0922218039631843,0,0,0
16050,560219.4654227799,2010-10-22 04:50:25,1980.999963517536,2,49,0.5499359965324402,3.9225046634674072,47.96858719303314,47.6777998022146,191.5936953607998,173.7797337353234,0.0,0.0922218039631843,0,0,0
16051,560249.4805851049,2010-10-22 04:50:55,2011.0151258575213,2,49,0.5499359965324402,3.923961639404297,47.97317339770998,47.6777998022146,191.61168869254624,173.7797337353234,0.0,0.0922218039631843,0,0,0
16052,560279.4957208335,2010-10-22 04:51:25,2041.0302615711464,2,49,0.5499359965324402,3.9254186153411865,47.9777596757437,47.6777998022146,191.62968866434545,173.7797337353234,3.237724376958795e-05,0.0922218039631843,0,0,0
16053,560309.5108767526,2010-10-22 04:51:55,2071.045417510179,2,49,0.5499359965324402,3.926713705062866,47.98234596299909,47.6777998022146,191.6476949328222,173.7797337353234,3.237724376958795e-05,0.0922218039631843,0,0,0
16054,560339.5260252781,2010-10-22 04:52:25,2101.06056604576,2,49,0.5501165986061096,3.928170680999756,47.98693222316446,47.6777998022146,191.66570758241716,173.7797337353234,3.237724376958795e-05,0.0922218039631843,0,0,0
16055,560369.5411880893,2010-10-22 04:52:55,2131.07572881682,2,49,0.5501165986061096,3.9296276569366455,47.99151852966005,47.6777998022146,191.6837268610399,173.7797337353234,3.237724376958795e-05,0.0922218039631843,0,0,0
16056,560399.5563109209,2010-10-22 04:53:25,2161.090851648339,2,49,0.550297200679779,3.931246519088745,47.99610476588116,47.6777998022146,191.7017524284664,173.7797337353234,6.47544875391759e-05,0.0922218039631843,0,0,0
16057,560429.5714554715,2010-10-22 04:53:55,2191.105996204001,2,49,0.550297200679779,3.932541608810425,48.00069106166296,47.6777998022146,191.7197847415236,173.7797337353234,3.237724376958795e-05,0.0922218039631843,0,0,0
16058,560459.586616463,2010-10-22 04:54:25,2221.121157245751,2,49,0.5499359965324402,3.9339985847473145,48.00527737381926,47.6777998022146,191.73782388019868,173.7797337353234,6.47544875391759e-05,0.0922218039631843,0,0,0
16059,560489.6018764916,2010-10-22 04:54:55,2251.136417224082,2,49,0.5501165986061096,3.935617446899414,48.00986374339226,47.6777998022146,191.75586995059052,173.7797337353234,9.713172767078504e-05,0.0922218039631843,0,0,0
16060,560519.6169051684,2010-10-22 04:55:25,2281.1514459059504,2,49,0.5501165986061096,3.937074422836304,48.01445007746994,47.6777998022146,191.7739225233398,173.7797337353234,6.47544875391759e-05,0.0922218039631843,0,0,0
16061,560549.6320484058,2010-10-22 04:55:55,2311.1665891282887,2,49,0.5499359965324402,3.938369512557984,48.01903632506815,47.6777998022146,191.7919816896963,173.7797337353234,3.237724376958795e-05,0.0922218039631843,0,0,0
16062,560579.6472929055,2010-10-22 04:56:25,2341.1818336330543,2,49,0.5499359965324402,3.939826488494873,48.02362265013171,47.6777998022146,191.8100480699752,173.7797337353234,3.237724376958795e-05,0.0922218039631843,0,0,0
16063,560609.6623515672,2010-10-22 04:56:55,2371.1968923197046,2,49,0.5501165986061096,3.9414453506469727,48.0282088973335,47.6777998022146,191.8281210962339,173.7797337353234,3.237724376958795e-05,0.0922218039631843,0,0,0
16064,560639.677731289,2010-10-22 04:57:25,2401.2122721417227,2,49,0.5501165986061096,3.9429023265838623,48.03279522411041,47.6777998022146,191.8462013218329,173.7797337353234,3.237724376958795e-05,0.0922218039631843,0,0,0
16065,560669.6927590233,2010-10-22 04:57:55,2431.22729987623,2,49,0.5501165986061096,3.944521188735962,48.03738148062564,47.6777998022146,191.8642883746645,173.7797337353234,3.237724376958795e-05,0.0922218039631843,0,0,0
16066,560699.7077872541,2010-10-22 04:58:25,2461.242328011737,2,49,0.5499359965324402,3.945978164672852,48.041967758297,47.6777998022146,191.8823826203272,173.7797337353234,3.237724376958795e-05,0.0922218039631843,0,0,0
16067,560729.7239976161,2010-10-22 04:58:55,2491.258538463941,2,49,0.5501165986061096,3.947597026824951,48.0465542208936,47.6777998022146,191.9004846489835,173.7797337353234,3.237724376958795e-05,0.0922218039631843,0,0,0
16068,560759.7251561292,2010-10-22 04:59:25,2521.2596969921187,2,49,0.5501165986061096,3.949215888977051,48.05113841611449,47.6777998022146,191.9185850133545,173.7797337353234,6.47544875391759e-05,0.0922218039631843,0,0,0
16069,560789.7376365601,2010-10-22 04:59:55,2551.2721773176995,2,49,0.5501165986061096,3.9508347511291504,48.05572432166955,47.6777998022146,191.93669937854813,173.7797337353234,6.47544875391759e-05,0.0922218039631843,0,0,0
16070,560819.7527395472,2010-10-22 05:00:25,2581.28728030476,2,49,0.5499359965324402,3.95229172706604,48.06031067779454,47.6777998022146,191.95482286451767,173.7797337353234,3.237724376958795e-05,0.0922218039631843,0,0,0
16071,560849.7680365077,2010-10-22 05:00:55,2611.3025773705235,2,49,0.5499359965324402,3.95391058921814,48.06489703854518,47.6777998022146,191.97295373502268,173.7797337353234,3.237724376958795e-05,0.0922218039631843,0,0,0
16072,560879.7830484427,2010-10-22 05:01:25,2641.3175891703168,2,49,0.5501165986061096,3.9555294513702393,48.06948335342573,47.6777998022146,191.9910918194431,173.7797337353234,3.237724376958795e-05,0.0922218039631843,0,0,0
16073,560909.7982383865,2010-10-22 05:01:55,2671.332779239412,2,49,0.5501165986061096,3.957148313522339,48.074069650795,47.6777998022146,192.00923727666373,173.7797337353234,3.237724376958795e-05,0.0922218039631843,0,0,0
16074,560939.813568595,2010-10-22 05:02:25,2701.3481093274777,2,49,0.5501165986061096,3.9590909481048575,48.07865596090642,47.6777998022146,192.0273902463279,173.7797337353234,6.47544875391759e-05,0.0922218039631843,0,0,0
16075,560969.8284734181,2010-10-22 05:02:55,2731.363014180727,2,49,0.5501165986061096,3.960709810256958,48.08324223991496,47.6777998022146,192.04555068773303,173.7797337353234,6.47544875391759e-05,0.0922218039631843,0,0,0
16076,560999.843825536,2010-10-22 05:03:25,2761.3783662636106,2,49,0.5501165986061096,3.9623286724090576,48.08782858497905,47.6777998022146,192.06371905637732,173.7797337353234,3.237724376958795e-05,0.0922218039631843,0,0,0
16077,561029.8587634567,2010-10-22 05:03:55,2791.393304309587,2,49,0.5499359965324402,3.9637856483459473,48.09241482212832,47.6777998022146,192.0818946331918,173.7797337353234,3.237724376958795e-05,0.0922218039631843,0,0,0
16078,561059.8740338159,2010-10-22 05:04:25,2821.4085745535026,2,49,0.5499359965324402,3.965566396713257,48.09700115561007,47.6777998022146,192.1000783617111,173.7797337353234,3.237724376958795e-05,0.0922218039631843,0,0,0
16079,561089.889056197,2010-10-22 05:04:55,2851.423596944693,2,49,0.5501165986061096,3.9673471450805664,48.101587493858,47.6777998022146,192.118270000808,173.7797337353234,3.237724376958795e-05,0.0922218039631843,0,0,0
16080,561119.9043655335,2010-10-22 05:05:25,2881.4389063612384,2,49,0.5501165986061096,3.969127893447876,48.10617381255312,47.6777998022146,192.13646926052573,173.7797337353234,6.47544875391759e-05,0.0922218039631843,0,0,0
16081,561149.9193722506,2010-10-22 05:05:55,2911.45391302824,2,49,0.5497553944587708,3.9705848693847656,48.1107601051308,47.6777998022146,192.15467632690732,173.7797337353234,0.0,0.0922218039631843,0,0,0
16082,561179.9344985507,2010-10-22 05:06:25,2941.4690392883035,2,49,0.5499359965324402,3.972365617752075,48.11534637657295,47.6777998022146,192.17289129407607,173.7797337353234,0.0,0.0922218039631843,0,0,0
16083,561209.9496366703,2010-10-22 05:06:55,2971.4841773878748,2,49,0.5501165986061096,3.9743082523345943,48.11993266122478,47.6777998022146,192.1911143450433,173.7797337353234,6.47544875391759e-05,0.0922218039631843,0,0,0
16084,561239.964799266,2010-10-22 05:07:25,3001.4993400336225,2,49,0.5501165986061096,3.976089000701904,48.12451905186893,47.6777998022146,192.2093459410904,173.7797337353234,6.47544875391759e-05,0.0922218039631843,0,0,0
16085,561269.9799386086,2010-10-22 05:07:55,3031.514479371279,2,49,0.5501165986061096,3.977707862854004,48.12910540504788,47.6777998022146,192.2275855289477,173.7797337353234,0.0,0.0922218039631843,0,0,0
16086,561299.9950764877,2010-10-22 05:08:25,3061.5296172152134,2,49,0.5501165986061096,3.979650497436523,48.13369170654782,47.6777998022146,192.245832652662,173.7797337353234,3.237724376958795e-05,0.0922218039631843,0,0,0
16087,561330.0102216649,2010-10-22 05:08:55,3091.544762392424,2,49,0.550297200679779,3.981431245803833,48.13827797635842,47.6777998022146,192.2640884340807,173.7797337353234,3.237724376958795e-05,0.0922218039631843,0,0,0
16088,561360.02538802,2010-10-22 05:09:25,3121.559928782504,2,49,0.5501165986061096,3.983211994171143,48.14286422544075,47.6777998022146,192.28235243664383,173.7797337353234,3.237724376958795e-05,0.0922218039631843,0,0,0
16089,561390.0406342188,2010-10-22 05:09:55,3151.575174986505,2,49,0.5501165986061096,3.985154628753662,48.14745043979107,47.6777998022146,192.30062468652864,173.7797337353234,9.713172767078504e-05,0.0922218039631843,0,0,0
16090,561420.0556327155,2010-10-22 05:10:25,3181.5901734831427,2,49,0.5499359965324402,3.986935377120972,48.152036603674375,47.6777998022146,192.31890523248128,173.7797337353234,3.237724376958795e-05,0.0922218039631843,0,0,0
16091,561450.0709083779,2010-10-22 05:10:55,3211.605449115488,2,49,0.5501165986061096,3.988716125488281,48.15662287764221,47.6777998022146,192.33719475671023,173.7797337353234,0.0,0.0922218039631843,0,0,0
16092,561480.0859877311,2010-10-22 05:11:25,3241.62052849872,2,49,0.5499359965324402,3.990658760070801,48.1612089944917,47.6777998022146,192.3554922428435,173.7797337353234,6.47544875391759e-05,0.0922218039631843,0,0,0
16093,561510.1011139159,2010-10-22 05:11:55,3271.6356546685583,2,49,0.5499359965324402,3.99260139465332,48.1657951603824,47.6777998022146,192.3737985771735,173.7797337353234,0.0,0.0922218039631843,0,0,0
16094,561540.1162612234,2010-10-22 05:12:25,3301.650801951016,2,49,0.5499359965324402,3.9945437908172607,48.17038131837183,47.6777998022146,192.3921136148614,173.7797337353234,3.237724376958795e-05,0.0922218039631843,0,0,0
16095,561570.131425764,2010-10-22 05:12:55,3331.6659664914864,2,49,0.5501165986061096,3.99648642539978,48.17496751071365,47.6777998022146,192.41043767555013,173.7797337353234,6.47544875391759e-05,0.0922218039631843,0,0,0
16096,561600.1465602193,2010-10-22 05:13:25,3361.681100946975,2,49,0.5501165986061096,3.9984290599823,48.17955373961832,47.6777998022146,192.4287709569592,173.7797337353234,6.47544875391759e-05,0.0922218039631843,0,0,0
16097,561630.1618312753,2010-10-22 05:13:55,3391.696372032989,2,49,0.5501165986061096,4.000533580780029,48.18413992507725,47.6777998022146,192.4471130207644,173.7797337353234,9.70840483205393e-05,0.0922218039631843,0,0,0
16098,561660.1768651752,2010-10-22 05:14:25,3421.711405927851,2,49,0.5501165986061096,4.002476215362549,48.1887260682818,47.6777998022146,192.465464267914,173.7797337353234,6.47544875391759e-05,0.0922218039631843,0,0,0
16099,561690.1920237759,2010-10-22 05:14:55,3451.7265645034545,2,49,0.5501165986061096,4.004580974578857,48.19331235958827,47.6777998022146,192.48382543658275,173.7797337353234,3.24249267578125e-05,0.0922218039631843,0,0,0
16100,561720.2072692781,2010-10-22 05:15:25,3481.7418100057066,2,49,0.5501165986061096,4.006523609161377,48.197898543558125,47.6777998022146,192.5021955000212,173.7797337353234,3.24249267578125e-05,0.0922218039631843,0,0,0
16101,561750.2222764062,2010-10-22 05:15:55,3511.7568171539065,2,49,0.5499359965324402,4.008627891540527,48.20248479229072,47.6777998022146,192.5205753934848,173.7797337353234,3.23295607813634e-05,0.0922218039631843,0,0,0
16102,561780.2374465858,2010-10-22 05:16:26,3541.771987313381,2,49,0.5501165986061096,4.010732650756836,48.2070710713997,47.6777998022146,192.5389649156573,173.7797337353234,6.47544875391759e-05,0.0922218039631843,0,0,0
16103,561810.2525745351,2010-10-22 05:16:56,3571.7871152827047,2,49,0.550297200679779,4.012999057769775,48.21165731610153,47.6777998022146,192.5573641105813,173.7797337353234,6.47544875391759e-05,0.0922218039631843,0,0,0
16104,561840.267727201,2010-10-22 05:17:26,3601.8022679586047,2,49,0.5501165986061096,4.015103340148926,48.21624360593744,47.6777998022146,192.5757732980608,173.7797337353234,6.47544875391759e-05,0.0922218039631843,0,0,0
16105,561870.2828524384,2010-10-22 05:17:56,3631.817393161032,2,49,0.550297200679779,4.017369747161865,48.22082980258527,47.6777998022146,192.59419204274064,173.7797337353234,6.47544875391759e-05,0.0922218039631843,0,0,0
16106,561900.2980145379,2010-10-22 05:18:26,3661.8325552955057,2,49,0.550297200679779,4.019312381744385,48.22541611930577,47.6777998022146,192.61262130442927,173.7797337353234,6.47544875391759e-05,0.0922218039631843,0,0,0
16107,561930.3132781603,2010-10-22 05:18:56,3691.847818897869,2,49,0.5499359965324402,4.021578788757324,48.23000235789377,47.6777998022146,192.6310603748849,173.7797337353234,6.47544875391759e-05,0.0922218039631843,0,0,0
16108,561960.3285166752,2010-10-22 05:19:26,3721.8630573926553,2,49,0.5499359965324402,4.023845195770264,48.2345886236497,47.6777998022146,192.64950990709252,173.7797337353234,0.0,0.0922218039631843,0,0,0
16109,561990.3434584404,2010-10-22 05:19:56,3751.877999198002,2,49,0.5499359965324402,4.026273727416992,48.23917480509673,47.6777998022146,192.6679694548836,173.7797337353234,9.71794142969884e-05,0.0922218039631843,0,0,0
16110,562020.3587186192,2010-10-22 05:20:26,3781.8932593768313,2,49,0.5501165986061096,4.028540134429932,48.243761055984685,47.6777998022146,192.68643984628395,173.7797337353234,6.47544875391759e-05,0.0922218039631843,0,0,0
16111,562050.3737310456,2010-10-22 05:20:56,3811.908271808199,2,49,0.5499359965324402,4.030806541442871,48.24834723800336,47.6777998022146,192.70492053467447,173.7797337353234,3.24249267578125e-05,0.0922218039631843,0,0,0
16112,562080.3890418506,2010-10-22 05:21:26,3841.92358272348,2,49,0.5501165986061096,4.0330729484558105,48.2529334746418,47.6777998022146,192.72341218809024,173.7797337353234,3.24249267578125e-05,0.0922218039631843,0,0,0
16113,562110.4040240215,2010-10-22 05:21:56,3871.938564749066,2,49,0.5501165986061096,4.035501003265381,48.257519659120696,47.6777998022146,192.74191441178408,173.7797337353234,6.47544875391759e-05,0.0922218039631843,0,0,0
16114,562140.4191610884,2010-10-22 05:22:26,3901.953701816065,2,49,0.5501165986061096,4.037929058074951,48.2621058712714,47.6777998022146,192.7604275936698,173.7797337353234,6.47544875391759e-05,0.0922218039631843,0,0,0
16115,562170.4343028421,2010-10-22 05:22:56,3931.9688435647295,2,49,0.5499359965324402,4.04035758972168,48.26669209173246,47.6777998022146,192.77895170680787,173.7797337353234,9.71794142969884e-05,0.0922218039631843,0,0,0
16116,562200.4494698789,2010-10-22 05:23:26,3961.9840106064353,2,49,0.550297200679779,4.042623996734619,48.27127837007994,47.6777998022146,192.79748711215723,173.7797337353234,6.47544875391759e-05,0.0922218039631843,0,0,0
16117,562230.4647126293,2010-10-22 05:23:56,3991.9992533919153,2,49,0.5501165986061096,4.0452141761779785,48.27586462076754,47.6777998022146,192.81603354694212,173.7797337353234,9.71794142969884e-05,0.0922218039631843,0,0,0
16118,562260.4797342335,2010-10-22 05:24:26,4022.014274961057,2,49,0.5501165986061096,4.047642230987549,48.28045086156641,47.6777998022146,192.83459114724653,173.7797337353234,6.47544875391759e-05,0.0922218039631843,0,0,0
16119,562290.4948890648,2010-10-22 05:24:56,4052.029429787316,2,49,0.5499359965324402,4.050070762634277,48.28503711201356,47.6777998022146,192.85316012061736,173.7797337353234,3.24249267578125e-05,0.0922218039631843,0,0,0
16120,562320.5100774898,2010-10-22 05:25:26,4082.044618272464,2,49,0.5501165986061096,4.052498817443848,48.28962337080981,47.6777998022146,192.8717404666169,173.7797337353234,9.70840483205393e-05,0.0922218039631843,0,0,0
16121,562350.5252890675,2010-10-22 05:25:56,4112.059829795027,2,49,0.550297200679779,4.055251121520996,48.29420962782278,47.6777998022146,192.89033239376863,173.7797337353234,9.71794142969884e-05,0.0922218039631843,0,0,0
16122,562380.5403035039,2010-10-22 05:26:26,4142.0748442313925,2,49,0.5499359965324402,4.057517528533936,48.29879586715253,47.6777998022146,192.908935852505,173.7797337353234,3.24249267578125e-05,0.0922218039631843,0,0,0
16123,562410.5557463629,2010-10-22 05:26:56,4172.090287240892,2,49,0.5501165986061096,4.060269355773926,48.30338223357331,47.6777998022146,192.92755163638608,173.7797337353234,6.47544875391759e-05,0.0922218039631843,0,0,0
16124,562440.5718657031,2010-10-22 05:27:26,4202.106406470743,2,49,0.550297200679779,4.062859535217285,48.307968679112,47.6777998022146,192.94617916994912,173.7797337353234,6.47544875391759e-05,0.0922218039631843,0,0,0
16125,562470.5861551675,2010-10-22 05:27:56,4232.1206961006665,2,49,0.550297200679779,4.0654497146606445,48.312554782238735,47.6777998022146,192.96481733554404,173.7797337353234,6.47544875391759e-05,0.0922218039631843,0,0,0
16126,562500.6008799521,2010-10-22 05:28:26,4262.135420669592,2,49,0.5499359965324402,4.067878246307373,48.31714093425733,47.6777998022146,192.98346766819623,173.7797337353234,3.24249267578125e-05,0.0922218039631843,0,0,0
16127,562530.6161572937,2010-10-22 05:28:56,4292.150698026234,2,49,0.5497553944587708,4.070630073547363,48.32172718082106,47.6777998022146,193.00213056705343,173.7797337353234,6.47544875391759e-05,0.0922218039631843,0,0,0
16128,562560.6311862412,2010-10-22 05:29:26,4322.165726998827,2,49,0.5499359965324402,4.073220252990723,48.326313422538576,47.6777998022146,193.0208057123837,173.7797337353234,3.23295607813634e-05,0.0922218039631843,0,0,0
16129,562590.646446004,2010-10-22 05:29:56,4352.180986761621,2,49,0.5501165986061096,4.076134204864502,48.33089971146934,47.6777998022146,193.03949351097657,173.7797337353234,9.70840483205393e-05,0.0922218039631843,0,0,0
16130,562620.6614936682,2010-10-22 05:30:26,4382.196034490962,2,49,0.5501165986061096,4.078724384307861,48.33548596822018,47.6777998022146,193.05819364632697,173.7797337353234,3.23295607813634e-05,0.0922218039631843,0,0,0
16131,562650.6766350509,2010-10-22 05:30:56,4412.211175778479,2,49,0.5499359965324402,4.08147668838501,48.34007226395535,47.6777998022146,193.07690659789836,173.7797337353234,6.47544875391759e-05,0.0922218039631843,0,0,0
16132,562680.6945310942,2010-10-22 05:31:26,4442.229071957031,2,49,0.5499359965324402,4.084390640258789,48.344659000953705,47.6777998022146,193.0956340408301,173.7797337353234,6.47544875391759e-05,0.0922218039631843,0,0,0
16133,562710.7069102926,2010-10-22 05:31:56,4472.241451045297,2,49,0.5499359965324402,4.087304592132568,48.34924481311016,47.6777998022146,193.11437061993533,173.7797337353234,9.71794142969884e-05,0.0922218039631843,0,0,0
16134,562740.7220474248,2010-10-22 05:32:26,4502.256588152395,2,49,0.5501165986061096,4.090056419372559,48.35383109937577,47.6777998022146,193.13312218044905,173.7797337353234,9.70840483205393e-05,0.0922218039631843,0,0,0
16135,562770.7371927273,2010-10-22 05:32:56,4532.271733454919,2,49,0.5499359965324402,4.092970371246338,48.35841731428472,47.6777998022146,193.15188654565785,173.7797337353234,9.70840483205393e-05,0.0922218039631843,0,0,0
16136,562800.7523664056,2010-10-22 05:33:26,4562.28690712815,2,49,0.5501165986061096,4.095722675323486,48.36300353289352,47.6777998022146,193.17066413488573,173.7797337353234,9.71794142969884e-05,0.0922218039631843,0,0,0
16137,562830.7674917835,2010-10-22 05:33:56,4592.302032511027,2,49,0.5499359965324402,4.098636627197266,48.36758980623529,47.6777998022146,193.1894552357807,173.7797337353234,3.24249267578125e-05,0.0922218039631843,0,0,0
16138,562860.7828361071,2010-10-22 05:34:26,4622.317376844597,2,49,0.5501165986061096,4.101550579071045,48.372176066398666,47.6777998022146,193.20825974269653,173.7797337353234,6.47544875391759e-05,0.0922218039631843,0,0,0
16139,562890.7977687647,2010-10-22 05:34:56,4652.332309522194,2,49,0.5499359965324402,4.104464530944824,48.37676229678565,47.6777998022146,193.22707760882653,173.7797337353234,6.47544875391759e-05,0.0922218039631843,0,0,0
16140,562920.8130902362,2010-10-22 05:35:26,4682.347630963709,2,49,0.5501165986061096,4.107702255249023,48.38134854696696,47.6777998022146,193.24590930607783,173.7797337353234,0.0001295089750783,0.0922218039631843,0,0,0
16141,562950.8280420664,2010-10-22 05:35:56,4712.362582799053,2,49,0.5501165986061096,4.110616207122803,48.38593471083129,47.6777998022146,193.26475447729663,173.7797337353234,6.47544875391759e-05,0.0922218039631843,0,0,0
16142,562980.8431873589,2010-10-22 05:36:26,4742.377728086539,2,49,0.5501165986061096,4.113691806793213,48.39052094197358,47.6777998022146,193.2836138116589,173.7797337353234,9.70840483205393e-05,0.0922218039631843,0,0,0
16143,563010.858334446,2010-10-22 05:36:56,4772.392875193559,2,49,0.5501165986061096,4.116929531097412,48.395107169142776,47.6777998022146,193.302487193056,173.7797337353234,9.71794142969884e-05,0.0922218039631843,0,0,0
16144,563040.8734994075,2010-10-22 05:37:26,4802.408040250316,2,49,0.5501165986061096,4.119681358337402,48.39969342081769,47.6777998022146,193.3213748104701,173.7797337353234,3.23295607813634e-05,0.0922218039631843,0,0,0
16145,563070.8886340284,2010-10-22 05:37:56,4832.42317475593,2,49,0.5501165986061096,4.122919082641602,48.40427970393507,47.6777998022146,193.34027681566496,173.7797337353234,6.47544875391759e-05,0.0922218039631843,0,0,0
16146,563100.9038866484,2010-10-22 05:38:26,4862.438427380935,2,49,0.5501165986061096,4.12631893157959,48.40886598340204,47.6777998022146,193.35919316755613,173.7797337353234,0.0001295089750783,0.0922218039631843,0,0,0
16147,563130.9189045634,2010-10-22 05:38:56,4892.453445290956,2,49,0.5499359965324402,4.12939453125,48.413452221986624,47.6777998022146,193.37812407078752,173.7797337353234,0.0001618385285837,0.0922218039631843,0,0,0
16148,563160.9340712792,2010-10-22 05:39:26,4922.468612056972,2,49,0.5501165986061096,4.132632255554199,48.41803855690527,47.6777998022146,193.39707008769057,173.7797337353234,9.70840483205393e-05,0.0922218039631843,0,0,0
16149,563190.9491946773,2010-10-22 05:39:56,4952.48373542984,2,49,0.5501165986061096,4.135708332061768,48.42262483895981,47.6777998022146,193.41603054153072,173.7797337353234,3.24249267578125e-05,0.0922218039631843,0,0,0
16150,563220.964335243,2010-10-22 05:40:26,4982.498876010596,2,49,0.5501165986061096,4.139107704162598,48.42721115427553,47.6777998022146,193.43500595347888,173.7797337353234,9.70840483205393e-05,0.0922218039631843,0,0,0
16151,563250.9795048512,2010-10-22 05:40:56,5012.514045598646,2,49,0.5501165986061096,4.142507553100586,48.43179746863764,47.6777998022146,193.453996348166,173.7797337353234,0.0001295089750783,0.0922218039631843,0,0,0
16152,563280.9946309708,2010-10-22 05:41:26,5042.529171698309,2,49,0.5499359965324402,4.145745277404785,48.43638374203829,47.6777998022146,193.47300178774512,173.7797337353234,9.71794142969884e-05,0.0922218039631843,0,0,0
16153,563311.0098876208,2010-10-22 05:41:56,5072.544428373408,2,49,0.5499359965324402,4.149144649505615,48.44097007516884,47.6777998022146,193.49202295657813,173.7797337353234,9.70840483205393e-05,0.0922218039631843,0,0,0
16154,563341.0249058416,2010-10-22 05:42:26,5102.559446569142,2,49,0.5499359965324402,4.152382373809815,48.4455563261474,47.6777998022146,193.51105919399745,173.7797337353234,6.47544875391759e-05,0.0922218039631843,0,0,0
16155,563371.0400540063,2010-10-22 05:42:56,5132.574594723773,2,49,0.5501165986061096,4.155943870544434,48.45014260517354,47.6777998022146,193.5301111817717,173.7797337353234,9.70840483205393e-05,0.0922218039631843,0,0,0
16156,563401.055204166,2010-10-22 05:43:26,5162.589744893427,2,49,0.5501165986061096,4.159343719482422,48.454728837424085,47.6777998022146,193.54917873714052,173.7797337353234,9.71794142969884e-05,0.0922218039631843,0,0,0
16157,563431.0704703046,2010-10-22 05:43:56,5192.605011042136,2,49,0.5499359965324402,4.162581443786621,48.45931512294504,47.6777998022146,193.5682623472447,173.7797337353234,6.47544875391759e-05,0.0922218039631843,0,0,0
16158,563461.0855083849,2010-10-22 05:44:26,5222.620049122428,2,49,0.5501165986061096,4.166304588317871,48.46390139139296,47.6777998022146,193.58736168762368,173.7797337353234,0.0001295089750783,0.0922218039631843,0,0,0
16159,563491.1007459022,2010-10-22 05:44:56,5252.635286669854,2,49,0.5501165986061096,4.169704437255859,48.46848768370662,47.6777998022146,193.60647713162268,173.7797337353234,6.47544875391759e-05,0.0922218039631843,0,0,0
16160,563521.1157790201,2010-10-22 05:45:26,5282.650319752692,2,49,0.5501165986061096,4.173265933990479,48.47307391311808,47.6777998022146,193.62560836171207,173.7797337353234,9.71794142969884e-05,0.0922218039631843,0,0,0
16161,563551.1310405022,2010-10-22 05:45:56,5312.665581229758,2,49,0.5501165986061096,4.176827430725098,48.477660275829805,47.6777998022146,193.6447563199828,173.7797337353234,0.0001295089750783,0.0922218039631843,0,0,0
16162,563581.146136958,2010-10-22 05:46:26,5342.680677695564,2,49,0.5501165986061096,4.180226802825928,48.48224659586276,47.6777998022146,193.66392039285745,173.7797337353234,9.70840483205393e-05,0.0922218039631843,0,0,0
16163,563611.1612056796,2010-10-22 05:46:56,5372.6957464372745,2,49,0.5501165986061096,4.183950424194336,48.486832829009295,47.6777998022146,193.68310048276612,173.7797337353234,9.71794142969884e-05,0.0922218039631843,0,0,0
16164,563641.1763760196,2010-10-22 05:47:26,5402.710916782212,2,49,0.5499359965324402,4.187511920928955,48.49141912128053,47.6777998022146,193.7022974123294,173.7797337353234,6.47544875391759e-05,0.0922218039631843,0,0,0
16165,563671.1914997534,2010-10-22 05:47:56,5432.726040470866,2,49,0.5501165986061096,4.191235065460205,48.49600539432465,47.6777998022146,193.72151098376463,173.7797337353234,9.70840483205393e-05,0.0922218039631843,0,0,0
16166,563701.2066223442,2010-10-22 05:48:27,5462.74116307181,2,49,0.5501165986061096,4.194796562194824,48.50059166748578,47.6777998022146,193.74074141286985,173.7797337353234,3.23295607813634e-05,0.0922218039631843,0,0,0
16167,563731.2217715015,2010-10-22 05:48:57,5492.756312223927,2,49,0.5499359965324402,4.198519706726074,48.50517790721352,47.6777998022146,193.759988548706,173.7797337353234,6.47544875391759e-05,0.0922218039631843,0,0,0
16168,563742.0966036844,2010-10-22 05:49:07,5503.6311444018165,2,49,0.5501165986061096,4.200138568878174,48.50683957428844,47.6777998022146,193.7669663010272,173.7797337353234,0.0001618385285837,0.0922218039631843,0,0,0
16169,563772.1132360738,2010-10-22 05:49:38,30.015148380193715,3,49,0.0,4.110939979553223,48.50683957428844,47.6777998022146,193.7669663010272,173.7797337353234,-0.0003561019839253,0.0922218039631843,0,0,0
16170,563802.12839094,2010-10-22 05:50:08,60.03030330670286,3,49,0.0,4.099445819854736,48.50683957428844,47.6777998022146,193.7669663010272,173.7797337353234,-0.0002590179501567,0.0922218039631843,0,0,0
16171,563832.1435152252,2010-10-22 05:50:38,90.04542752668189,3,49,0.0,4.092646598815918,48.50683957428844,47.6777998022146,193.7669663010272,173.7797337353234,-0.0001295089750783,0.0922218039631843,0,0,0
16172,563862.1117829243,2010-10-22 05:51:08,120.01369526088097,3,49,0.0,4.088275909423828,48.50683957428844,47.6777998022146,193.7669663010272,173.7797337353234,-9.70840483205393e-05,0.0922218039631843,0,0,0
16173,563862.1152105362,2010-10-22 05:51:08,2.706746044e-06,4,49,0.9967633485794068,4.199653148651123,48.506839575037866,47.6777998022146,193.7669663041746,173.7797337353234,0.0,0.0922218039631843,0,0,0
16174,563863.0526469912,2010-10-22 05:51:09,0.937439191909066,4,49,0.9465540051460266,4.199814796447754,48.5070910169993,47.6777998022146,193.7680222972297,173.7797337353234,3.23295607813634e-05,0.0922218039631843,0,0,0
16175,563865.2244572657,2010-10-22 05:51:11,3.109249446312348,4,49,0.8963446021080017,4.199814796447754,48.5076456739964,47.6777998022146,193.77035171652057,173.7797337353234,3.23295607813634e-05,0.0922218039631843,0,0,0
16176,563868.4587913564,2010-10-22 05:51:14,6.34358350697122,4,49,0.8459545969963074,4.199653148651123,48.50842736278955,47.6777998022146,193.7736346162406,173.7797337353234,-3.23295607813634e-05,0.0922218039631843,0,0,0
16177,563872.9744197067,2010-10-22 05:51:19,10.85921199258151,4,49,0.7957452535629272,4.199653148651123,48.509455874857736,47.6777998022146,193.77795410784768,173.7797337353234,0.0,0.0922218039631843,0,0,0
16178,563878.7867393306,2010-10-22 05:51:24,16.67153147112804,4,49,0.7457164525985718,4.199653148651123,48.51069854977487,47.6777998022146,193.78317302559995,173.7797337353234,-3.23295607813634e-05,0.0922218039631843,0,0,0
16179,563886.3803587868,2010-10-22 05:51:32,24.265150967411085,4,49,0.6955071091651917,4.199814796447754,48.51221633930744,47.6777998022146,193.7895473675394,173.7797337353234,-3.24249267578125e-05,0.0922218039631843,0,0,0
16180,563896.4583433152,2010-10-22 05:51:42,34.34313549076159,4,49,0.6454783082008362,4.199814796447754,48.51409017112361,47.6777998022146,193.79741701627103,173.7797337353234,0.0,0.0922218039631843,0,0,0
16181,563910.4737393947,2010-10-22 05:51:56,48.35853154014622,4,49,0.5950883030891418,4.199814796447754,48.51650067273311,47.6777998022146,193.80754054745893,173.7797337353234,-3.24249267578125e-05,0.0922218039631843,0,0,0
16182,563932.1764941873,2010-10-22 05:52:18,70.06128638298529,4,49,0.5450595617294312,4.199653148651123,48.5199283699842,47.6777998022146,193.8219360828143,173.7797337353234,-3.23295607813634e-05,0.0922218039631843,0,0,0
16183,563969.3790222141,2010-10-22 05:52:55,107.26381446990962,4,49,0.495030790567398,4.199653148651123,48.52527915112786,47.6777998022146,193.84440811412523,173.7797337353234,0.0,0.0922218039631843,0,0,0
16184,564038.5655302854,2010-10-22 05:54:04,176.4503224760171,4,49,0.445002019405365,4.199814796447754,48.5342714301896,47.6777998022146,193.8821736140532,173.7797337353234,0.0,0.0922218039631843,0,0,0
16185,564143.6574782458,2010-10-22 05:55:49,281.5422705365681,4,49,0.3949732482433319,4.199814796447754,48.54650494875384,47.6777998022146,193.9335515747708,173.7797337353234,0.0,0.0922218039631843,0,0,0
16186,564276.577330957,2010-10-22 05:58:02,414.4621231176162,4,49,0.3449444770812988,4.199653148651123,48.5601509887623,47.6777998022146,193.9908618026686,173.7797337353234,0.0,0.0922218039631843,0,0,0
16187,564434.7934292258,2010-10-22 06:00:40,572.6782213964034,4,49,0.2947351038455963,4.199814796447754,48.57419537697445,47.6777998022146,194.0498450549277,173.7797337353234,0.0,0.0922218039631843,0,0,0
16188,564626.5403035355,2010-10-22 06:03:52,764.4250956861716,4,49,0.2447063326835632,4.199653148651123,48.58853996255747,47.6777998022146,194.1100890218704,173.7797337353234,0.0,0.0922218039631843,0,0,0
16189,564862.9583939761,2010-10-22 06:07:49,1000.8431861516394,4,49,0.1946775615215301,4.199653148651123,48.6029209964921,47.6777998022146,194.17048607580384,173.7797337353234,-3.23295607813634e-05,0.0922218039631843,0,0,0
16190,565173.2034083469,2010-10-22 06:12:59,1311.0882005274684,4,49,0.144648790359497,4.199653148651123,48.6174523903328,47.6777998022146,194.2315147367416,173.7797337353234,-6.47544875391759e-05,0.0922218039631843,0,0,0
16191,565630.2585039826,2010-10-22 06:20:36,1768.1432961631297,4,49,0.0946200191974639,4.199814796447754,48.6324507971173,47.6777998022146,194.29450484550816,173.7797337353234,3.23295607813634e-05,0.0922218039631843,0,0,0
16192,566397.1679430418,2010-10-22 06:33:23,2535.0527352123754,4,49,0.0498289167881011,4.199814796447754,48.64732504317691,47.6777998022146,194.356973246333,173.7797337353234,-3.24249267578125e-05,0.0922218039631843,0,0,0
16193,566427.1649075447,2010-10-22 06:33:53,30.01511306217033,5,49,0.0,4.191397190093994,48.64732504317691,47.6777998022146,194.356973246333,173.7797337353234,-3.23295607813634e-05,0.0922218039631843,0,0,0
16194,566457.1644014643,2010-10-22 06:34:23,60.01460699666862,5,49,0.0,4.1901021003723145,48.64732504317691,47.6777998022146,194.356973246333,173.7797337353234,0.0,0.0922218039631843,0,0,0
16195,566457.3348944607,2010-10-22 06:34:23,0.187628994185508,6,49,-1.9243103452026844e-05,4.1901021003723145,48.64732504688065,47.6777998022146,194.3569732618521,173.7797337353234,0.0,0.0971632748842239,0,0,0
16196,566462.1628214053,2010-10-22 06:34:28,5.015555948672075,6,49,0.0008838032954372,4.1901021003723145,48.64732605266247,47.67779980238094,194.35697747622805,173.77973373602038,-3.23295607813634e-05,0.0971632748842239,0,0,0
16197,566492.2077627191,2010-10-22 06:34:58,30.01513419985194,7,49,-1.099568486213684,4.001990795135498,48.64732605266247,47.68696682903142,194.35697747622805,173.8166322175691,-0.001003646873869,0.0971632748842239,0,0,0
16198,566522.2229415403,2010-10-22 06:35:28,60.03031301590117,7,49,-1.0993878841400146,3.972365617752075,48.64732605266247,47.69613381757899,194.35697747622805,173.8531741681431,-0.0007122993702068,0.0971632748842239,0,0,0
16199,566552.2382169319,2010-10-22 06:35:58,90.04558837757179,7,49,-1.0993878841400146,3.95180606842041,48.64732605266247,47.705300800763,194.35697747622805,173.88948966882103,-0.0004856586456298,0.0971632748842239,0,0,0
16200,566582.253299889,2010-10-22 06:36:28,120.06067136478607,7,49,-1.099568486213684,3.935779333114624,48.64732605266247,47.71446768493021,194.35697747622805,173.92563879846566,-0.0003885269106831,0.0971632748842239,0,0,0
16201,566612.2684853919,2010-10-22 06:36:58,150.07585684243807,7,49,-1.099568486213684,3.922666549682617,48.64732605266247,47.72363460735875,194.35697747622805,173.96165597498907,-0.0003237724304199,0.0971632748842239,0,0,0
16202,566642.283511432,2010-10-22 06:37:28,180.09088287771058,7,49,-1.099568486213684,3.911172866821289,48.64732605266247,47.73280155421907,194.35697747622805,173.9975613176682,-0.0002913951757363,0.0971632748842239,0,0,0
16203,566672.2986439327,2010-10-22 06:37:58,210.10601536830256,7,49,-1.0993878841400146,3.900812149047852,48.64732605266247,47.74196846621278,194.35697747622805,174.03336751875185,-0.0002913951757363,0.0971632748842239,0,0,0
16204,566702.313852904,2010-10-22 06:38:28,240.1212243495327,7,49,-1.099568486213684,3.891260862350464,48.64732605266247,47.751135342902806,194.35697747622805,174.06908162027858,-0.0002590179501567,0.0971632748842239,0,0,0
16205,566732.3289040768,2010-10-22 06:38:58,270.13627554751844,7,49,-1.0993878841400146,3.881871461868286,48.64732605266247,47.76030220681846,194.35697747622805,174.10470896949468,-0.0002266406954731,0.0971632748842239,0,0,0
16206,566762.3440525022,2010-10-22 06:39:28,300.15142397783706,7,49,-1.099568486213684,3.873129606246948,48.64732605266247,47.76946912013749,194.35697747622805,174.14025296453954,-0.0001942634553415,0.0971632748842239,0,0,0
16207,566792.3591973184,2010-10-22 06:39:58,330.1665687841235,7,49,-1.0993878841400146,3.8643877506256095,48.64732605266247,47.77863603250093,194.35697747622805,174.17571620637543,-0.0002266406954731,0.0971632748842239,0,0,0
16208,566822.3744454022,2010-10-22 06:40:28,360.18181687282146,7,49,-1.0993878841400146,3.855969667434693,48.64732605266247,47.78780298239669,194.35697747622805,174.21110159369283,-0.0002266406954731,0.0971632748842239,0,0,0
16209,566852.3896017171,2010-10-22 06:40:58,390.1969731727536,7,49,-1.0993878841400146,3.847713470458984,48.64732605266247,47.79696986976799,194.35697747622805,174.24641060835694,-0.0002266406954731,0.0971632748842239,0,0,0
16210,566882.4045986398,2010-10-22 06:41:28,420.2119700854437,7,49,-1.099568486213684,3.8396191596984863,48.64732605266247,47.806136690628925,194.35697747622805,174.2816445116477,-0.0001942634553415,0.0971632748842239,0,0,0
16211,566912.419744569,2010-10-22 06:41:58,450.227116009516,7,49,-1.099568486213684,3.831686973571777,48.64732605266247,47.81530365926516,194.35697747622805,174.31680521750286,-0.0001942634553415,0.0971632748842239,0,0,0
16212,566942.4348682625,2010-10-22 06:42:28,480.24223970819577,7,49,-1.099568486213684,3.823754549026489,48.64732605266247,47.82447054426667,194.35697747622805,174.35189369073666,-0.0002266406954731,0.0971632748842239,0,0,0
16213,566972.4501023815,2010-10-22 06:42:58,510.257473952389,7,49,-1.0993878841400146,3.816307783126831,48.64732605266247,47.83363745489319,194.35697747622805,174.38691201058865,-0.0001942634553415,0.0971632748842239,0,0,0
16214,567002.4651472486,2010-10-22 06:43:28,540.2725187193467,7,49,-1.0993878841400146,3.808861017227173,48.64732605266247,47.84280430410985,194.35697747622805,174.42186012965615,-0.0001618862152099,0.0971632748842239,0,0,0
16215,567032.4802893031,2010-10-22 06:43:58,570.2876607938246,7,49,-1.099568486213684,3.801414251327514,48.64732605266247,47.851971195014414,194.35697747622805,174.45673950240874,-0.0001618862152099,0.0971632748842239,0,0,0
16216,567062.4956936562,2010-10-22 06:44:28,600.3030652372065,7,49,-1.0993878841400146,3.7941293716430655,48.64732605266247,47.86113816855383,194.35697747622805,174.49155228820297,-0.0001942634553415,0.0971632748842239,0,0,0
16217,567092.5105591814,2010-10-22 06:44:58,630.3179306571762,7,49,-1.099568486213684,3.787006378173828,48.64732605266247,47.87030493938973,194.35697747622805,174.52629865393783,-0.0001618862152099,0.0971632748842239,0,0,0
16218,567122.5257033261,2010-10-22 06:45:28,660.3330747968013,7,49,-1.0992072820663452,3.7802071571350098,48.64732605266247,47.87947188524753,194.35697747622805,174.56098215618562,-0.0001618862152099,0.0971632748842239,0,0,0
16219,567152.5408522728,2010-10-22 06:45:58,690.348223738394,7,49,-1.099568486213684,3.773246049880981,48.64732605266247,47.88863882460082,194.35697747622805,174.59560365401836,-0.0001942634553415,0.0971632748842239,0,0,0
16220,567182.5559788586,2010-10-22 06:46:28,720.3633503042198,7,49,-1.099568486213684,3.766770601272583,48.64732605266247,47.897805752462986,194.35697747622805,174.63016327423614,-0.0001618862152099,0.0971632748842239,0,0,0
16221,567212.5711133241,2010-10-22 06:46:59,750.3784847847712,7,49,-1.099568486213684,3.7599713802337646,48.64732605266247,47.906972671132685,194.35697747622805,174.6646620283014,-0.0001942634553415,0.0971632748842239,0,0,0
16222,567242.5862614285,2010-10-22 06:47:29,780.3936328592031,7,49,-1.0997490882873535,3.753495931625366,48.64732605266247,47.91613963905299,194.35697747622805,174.69910137934718,-0.0001942634553415,0.0971632748842239,0,0,0
16223,567272.6014355279,2010-10-22 06:47:59,810.4088069685215,7,49,-1.0993878841400146,3.747344493865967,48.64732605266247,47.92530656253401,194.35697747622805,174.73348197041832,-0.0001942634553415,0.0971632748842239,0,0,0
16224,567302.6166496219,2010-10-22 06:48:29,840.4240210775317,7,49,-1.0993878841400146,3.741192817687988,48.64732605266247,47.93447354627833,194.35697747622805,174.7678054446546,-0.0001295089750783,0.0971632748842239,0,0,0
16225,567332.6316616122,2010-10-22 06:48:59,870.4390330527623,7,49,-1.099568486213684,3.7350411415100098,48.64732605266247,47.94364052321853,194.35697747622805,174.80207237488193,-0.0001942634553415,0.0971632748842239,0,0,0
16226,567362.6468219471,2010-10-22 06:49:29,900.4541934178259,7,49,-1.099568486213684,3.729051351547241,48.64732605266247,47.952807486868345,194.35697747622805,174.83628415575873,-0.0001942634553415,0.0971632748842239,0,0,0
16227,567392.6619722922,2010-10-22 06:49:59,930.4693437579044,7,49,-1.0993878841400146,3.7232234477996826,48.64732605266247,47.96197444782305,194.35697747622805,174.8704426768919,-0.0001618862152099,0.0971632748842239,0,0,0
16228,567422.6771129331,2010-10-22 06:50:29,960.4844843887844,7,49,-1.0993878841400146,3.717719316482544,48.64732605266247,47.971141393880245,194.35697747622805,174.9045484052417,-9.713172767078504e-05,0.0971632748842239,0,0,0
16229,567452.6922220554,2010-10-22 06:50:59,990.499593496098,7,49,-1.099568486213684,3.7120532989501953,48.64732605266247,47.98030836205332,194.35697747622805,174.9386022264084,-0.0001618862152099,0.0971632748842239,0,0,0
16230,567482.7073831623,2010-10-22 06:51:29,1020.5147546080232,7,49,-1.099568486213684,3.706387281417847,48.64732605266247,47.9894753426436,194.35697747622805,174.9726044478013,-0.0001618862152099,0.0971632748842239,0,0,0
16231,567512.7225101693,2010-10-22 06:51:59,1050.529881604923,7,49,-1.099568486213684,3.700721263885498,48.64732605266247,47.99864230806077,194.35697747622805,175.00655563267364,-0.0001942634553415,0.0971632748842239,0,0,0
16232,567542.7376352765,2010-10-22 06:52:29,1080.545006747201,7,49,-1.0993878841400146,3.695379018783569,48.64732605266247,48.0078092611341,194.35697747622805,175.04045611094932,-0.0001295089750783,0.0971632748842239,0,0,0
16233,567572.7527876766,2010-10-22 06:52:59,1110.5601591173388,7,49,-1.099568486213684,3.6900367736816406,48.64732605266247,48.01697629906689,194.35697747622805,175.07430710958198,-0.0001295089750783,0.0971632748842239,0,0,0
16234,567602.7679150145,2010-10-22 06:53:29,1140.5752864851631,7,49,-1.0997490882873535,3.684694528579712,48.64732605266247,48.02614324560641,194.35697747622805,175.10810918263658,-0.0001618862152099,0.0971632748842239,0,0,0
16235,567632.7830584324,2010-10-22 06:53:59,1170.590429872914,7,49,-1.0993878841400146,3.679676055908203,48.64732605266247,48.03531022275392,194.35697747622805,175.14186307561414,-6.47544875391759e-05,0.0971632748842239,0,0,0
16236,567662.7981906373,2010-10-22 06:54:29,1200.6055621128814,7,49,-1.099568486213684,3.674171924591065,48.64732605266247,48.04447718375094,194.35697747622805,175.17556934992297,-0.0001942634553415,0.0971632748842239,0,0,0
16237,567692.8133439146,2010-10-22 06:54:59,1230.6207153501805,7,49,-1.0993878841400146,3.6693155765533447,48.64732605266247,48.05364419860669,194.35697747622805,175.20922924488391,-0.0001618862152099,0.0971632748842239,0,0,0
16238,567722.8284563252,2010-10-22 06:55:29,1260.6358277958143,7,49,-1.0993878841400146,3.664458990097046,48.64732605266247,48.06281117936018,194.35697747622805,175.24284368512977,-0.0001618862152099,0.0971632748842239,0,0,0
16239,567752.8436307603,2010-10-22 06:55:59,1290.6510022259324,7,49,-1.099568486213684,3.659602403640747,48.64732605266247,48.071978156122086,194.35697747622805,175.2764132805951,-0.0001295089750783,0.0971632748842239,0,0,0
16240,567782.8587379378,2010-10-22 06:56:29,1320.666109433511,7,49,-1.099568486213684,3.654745817184448,48.64732605266247,48.08114508604896,194.35697747622805,175.30993851642026,-0.0001618862152099,0.0971632748842239,0,0,0
16241,567812.8738815159,2010-10-22 06:56:59,1350.681252981662,7,49,-1.099568486213684,3.65005111694336,48.64732605266247,48.09031201758816,194.35697747622805,175.34342006331315,-0.0001295089750783,0.0971632748842239,0,0,0
16242,567842.889023791,2010-10-22 06:57:29,1380.696395291727,7,49,-1.0997490882873535,3.6453564167022714,48.64732605266247,48.09947892427643,194.35697747622805,175.37685825213333,-0.0001295089750783,0.0971632748842239,0,0,0
16243,567872.9041668228,2010-10-22 06:57:59,1410.7115382885036,7,49,-1.099568486213684,3.6406617164611816,48.64732605266247,48.108645830200935,194.35697747622805,175.4102535914702,-9.713172767078504e-05,0.0971632748842239,0,0,0
16244,567902.9193041055,2010-10-22 06:58:29,1440.726675576051,7,49,-1.0993878841400146,3.6362907886505127,48.64732605266247,48.11781272440008,194.35697747622805,175.44360700170583,-9.713172767078504e-05,0.0971632748842239,0,0,0
16245,567932.9344254532,2010-10-22 06:58:59,1470.7417969238718,7,49,-1.099568486213684,3.631757974624634,48.64732605266247,48.12697962363722,194.35697747622805,175.47691935157354,-9.713172767078504e-05,0.0971632748842239,0,0,0
16246,567962.9495610164,2010-10-22 06:59:29,1500.7569324670717,7,49,-1.0993878841400146,3.627387046813965,48.64732605266247,48.13614653120047,194.35697747622805,175.5101909438977,-0.0001295089750783,0.0971632748842239,0,0,0
16247,567992.9647097726,2010-10-22 06:59:59,1530.7720812131774,7,49,-1.0993878841400146,3.622854232788086,48.64732605266247,48.14531348886591,194.35697747622805,175.54342222016444,-9.713172767078504e-05,0.0971632748842239,0,0,0
16248,568022.9800820758,2010-10-22 07:00:29,1560.7874536267311,7,49,-1.099568486213684,3.618645191192627,48.64732605266247,48.15448053093142,194.35697747622805,175.57661446185173,-9.713172767078504e-05,0.0971632748842239,0,0,0
16249,568052.9949835907,2010-10-22 07:00:59,1590.8023550363985,7,49,-1.0993878841400146,3.614598035812378,48.64732605266247,48.16364740473509,194.35697747622805,175.6097675179086,-9.713172767078504e-05,0.0971632748842239,0,0,0
16250,568083.0102534137,2010-10-22 07:01:29,1620.8176249093897,7,49,-1.0993878841400146,3.610550880432129,48.64732605266247,48.172814417613054,194.35697747622805,175.64288352146858,-0.0001295089750783,0.0971632748842239,0,0,0
16251,568113.0265905716,2010-10-22 07:01:59,1650.8339621375585,7,49,-1.099568486213684,3.60650372505188,48.64732605266247,48.181981710326255,194.35697747622805,175.67596356439404,-0.0001295089750783,0.0971632748842239,0,0,0
16252,568143.0404263905,2010-10-22 07:02:29,1680.8477979865202,7,49,-1.0993878841400146,3.602618455886841,48.64732605266247,48.19114825004098,194.35697747622805,175.7090048469634,-9.713172767078504e-05,0.0971632748842239,0,0,0
16253,568173.0555282097,2010-10-22 07:02:59,1710.862899670332,7,49,-1.0993878841400146,3.598895072937012,48.64732605266247,48.200315173939885,194.35697747622805,175.74201234364958,-9.713172767078504e-05,0.0971632748842239,0,0,0
16254,568203.0706673618,2010-10-22 07:03:29,1740.8780388074897,7,49,-1.0993878841400146,3.5951716899871826,48.64732605266247,48.20948213118031,194.35697747622805,175.77498535078442,-6.47544875391759e-05,0.0971632748842239,0,0,0
16255,568233.0861360253,2010-10-22 07:03:59,1770.893507511027,7,49,-1.0993878841400146,3.5916104316711426,48.64732605266247,48.21864914123352,194.35697747622805,175.80792495187734,-3.237724376958795e-05,0.0971632748842239,0,0,0
16256,568263.1010942967,2010-10-22 07:04:29,1800.9084657423116,7,49,-1.099568486213684,3.587887048721313,48.64732605266247,48.22781611774914,194.35697747622805,175.84083120583773,-6.47544875391759e-05,0.0971632748842239,0,0,0
16257,568293.116296095,2010-10-22 07:04:59,1830.92366754064,7,49,-1.099568486213684,3.5841636657714844,48.64732605266247,48.23698311029421,194.35697747622805,175.87370489774483,-0.0001295089750783,0.0971632748842239,0,0,0
16258,568323.1313655735,2010-10-22 07:05:29,1860.9387370241984,7,49,-1.099568486213684,3.580925941467285,48.64732605266247,48.24615004683152,194.35697747622805,175.90654635016907,-6.47544875391759e-05,0.0971632748842239,0,0,0
16259,568353.1465687754,2010-10-22 07:05:59,1890.9539402210123,7,49,-1.099568486213684,3.577526330947876,48.64732605266247,48.25531706797239,194.35697747622805,175.93935666955466,-9.713172767078504e-05,0.0971632748842239,0,0,0
16260,568383.1614891023,2010-10-22 07:06:29,1920.9688605478268,7,49,-1.0993878841400146,3.574126720428467,48.64732605266247,48.26448401576771,194.35697747622805,175.97213572089527,-9.713172767078504e-05,0.0971632748842239,0,0,0
16261,568413.1766294925,2010-10-22 07:06:59,1950.9840009280824,7,49,-1.099568486213684,3.570888996124268,48.64732605266247,48.27365097763467,194.35697747622805,176.00488450047598,-9.713172767078504e-05,0.0971632748842239,0,0,0
16262,568443.1917714116,2010-10-22 07:07:29,1980.999142857198,7,49,-1.099568486213684,3.5673274993896484,48.64732605266247,48.28281795714663,194.35697747622805,176.03760291205114,-0.0001295089750783,0.0971632748842239,0,0,0
16263,568473.2069205387,2010-10-22 07:07:59,2011.0142919842533,7,49,-1.0997490882873535,3.564089775085449,48.64732605266247,48.29198496315587,194.35697747622805,176.0702906888597,-9.713172767078504e-05,0.0971632748842239,0,0,0
16264,568503.222038513,2010-10-22 07:08:29,2041.029409973704,7,49,-1.099568486213684,3.56101393699646,48.64732605266247,48.30115185572254,194.35697747622805,176.10294800360992,-6.47544875391759e-05,0.0971632748842239,0,0,0
16265,568533.2371898005,2010-10-22 07:08:59,2071.044561266156,7,49,-1.099568486213684,3.5577762126922607,48.64732605266247,48.31031877556836,194.35697747622805,176.13557602903322,-9.713172767078504e-05,0.0971632748842239,0,0,0
16266,568563.2523103664,2010-10-22 07:09:29,2101.0596818671147,7,49,-1.099568486213684,3.554538488388061,48.64732605266247,48.319485784879625,194.35697747622805,176.1681748804915,-9.713172767078504e-05,0.0971632748842239,0,0,0
16267,568593.2676114421,2010-10-22 07:09:59,2131.0749828977605,7,49,-1.0993878841400146,3.5513007640838623,48.64732605266247,48.32865276234608,194.35697747622805,176.20074424097115,-9.713172767078504e-05,0.0971632748842239,0,0,0
16268,568623.2827112513,2010-10-22 07:10:29,2161.090082701888,7,49,-1.0993878841400146,3.548224925994873,48.64732605266247,48.33781969345506,194.35697747622805,176.23328384614243,-3.237724376958795e-05,0.0971632748842239,0,0,0
16269,568653.297723432,2010-10-22 07:10:59,2191.1050948776174,7,49,-1.099568486213684,3.544825315475464,48.64732605266247,48.346986632866205,194.35697747622805,176.2657938316706,-9.713172767078504e-05,0.0971632748842239,0,0,0
16270,568683.3128642133,2010-10-22 07:11:29,2221.120235688948,7,49,-1.0993878841400146,3.5415875911712646,48.64732605266247,48.356153537938205,194.35697747622805,176.2982737489951,-9.713172767078504e-05,0.0971632748842239,0,0,0
16271,568713.3280057664,2010-10-22 07:11:59,2251.1353772020266,7,49,-1.099568486213684,3.5381879806518555,48.64732605266247,48.36532045671243,194.35697747622805,176.3307236512708,-9.713172767078504e-05,0.0971632748842239,0,0,0
16272,568743.343274281,2010-10-22 07:12:29,2281.15064575172,7,49,-1.099568486213684,3.534950256347656,48.64732605266247,48.374487445812086,194.35697747622805,176.36314336004145,-6.47544875391759e-05,0.0971632748842239,0,0,0
16273,568773.3582879956,2010-10-22 07:12:59,2311.165659441223,7,49,-1.0993878841400146,3.531550645828247,48.64732605266247,48.38365439512224,194.35697747622805,176.39553259995265,-9.713172767078504e-05,0.0971632748842239,0,0,0
16274,568803.373411203,2010-10-22 07:13:29,2341.180782678753,7,49,-1.0993878841400146,3.528474807739258,48.64732605266247,48.39282130559496,194.35697747622805,176.42789153719215,-6.47544875391759e-05,0.0971632748842239,0,0,0
16275,568833.3885855129,2010-10-22 07:13:59,2371.195956988572,7,49,-1.0992072820663452,3.5250751972198486,48.64732605266247,48.40198828961604,194.35697747622805,176.46021985766058,-9.713172767078504e-05,0.0971632748842239,0,0,0
16276,568863.4037124948,2010-10-22 07:14:29,2401.2110840656715,7,49,-1.0993878841400146,3.521513700485229,48.64732605266247,48.4111551862036,194.35697747622805,176.49251640999094,-6.47544875391759e-05,0.0971632748842239,0,0,0
16277,568893.4188649802,2010-10-22 07:14:59,2431.226236541072,7,49,-1.099568486213684,3.5179522037506104,48.64732605266247,48.42032215340853,194.35697747622805,176.52478114652408,-6.47544875391759e-05,0.0971632748842239,0,0,0
16278,568923.4339787542,2010-10-22 07:15:29,2461.241350229804,7,49,-1.0993878841400146,3.514228820800781,48.64732605266247,48.4294891236078,194.35697747622805,176.55701256850304,-0.0001295089750783,0.0971632748842239,0,0,0
16279,568953.4491664873,2010-10-22 07:15:59,2491.2565379731022,7,49,-1.0993878841400146,3.5105056762695312,48.64732605266247,48.43865601018919,194.35697747622805,176.58920981387507,-0.0001618862152099,0.0971632748842239,0,0,0
16280,568983.464361213,2010-10-22 07:16:29,2521.271732683765,7,49,-1.099568486213684,3.5064585208892822,48.64732605266247,48.4478226486691,194.35697747622805,176.62137165460075,-0.0001618862152099,0.0971632748842239,0,0,0
16281,569013.4793241812,2010-10-22 07:16:59,2551.286695626793,7,49,-1.099568486213684,3.502573251724243,48.64732605266247,48.45698924242754,194.35697747622805,176.65349717172597,-0.0001618862152099,0.0971632748842239,0,0,0
16282,569043.4946668055,2010-10-22 07:17:29,2581.3020382912027,7,49,-1.0993878841400146,3.498364210128784,48.64732605266247,48.46615625986498,194.35697747622805,176.68558647484977,-0.0001295089750783,0.0971632748842239,0,0,0
16283,569073.5097063845,2010-10-22 07:17:59,2611.317077865218,7,49,-1.0993878841400146,3.4936695098876958,48.64732605266247,48.47532325757558,194.35697747622805,176.71763544695122,-0.0001295089750783,0.0971632748842239,0,0,0
16284,569103.5248117576,2010-10-22 07:18:29,2641.332183203137,7,49,-1.099568486213684,3.4891366958618164,48.64732605266247,48.48449025023956,194.35697747622805,176.74964178877497,-0.0001295089750783,0.0971632748842239,0,0,0
16285,569133.5399463784,2010-10-22 07:19:00,2671.347317854113,7,49,-1.0993878841400146,3.484118223190308,48.64732605266247,48.49365721657611,194.35697747622805,176.78160295276712,-0.0001295089750783,0.0971632748842239,0,0,0
16286,569163.5551454601,2010-10-22 07:19:30,2701.362517030908,7,49,-1.0993878841400146,3.478452205657959,48.64732605266247,48.50282415940404,194.35697747622805,176.81351511295475,-0.0001295089750783,0.0971632748842239,0,0,0
16287,569193.5702433793,2010-10-22 07:20:00,2731.3776148250254,7,49,-1.099568486213684,3.4723005294799805,48.64732605266247,48.51199106529299,194.35697747622805,176.8453734224067,-0.0001618862152099,0.0971632748842239,0,0,0
16288,569223.5853696646,2010-10-22 07:20:30,2761.392741110152,7,49,-1.099568486213684,3.465501308441162,48.64732605266247,48.52115800369078,194.35697747622805,176.87717376285764,-0.0001942634553415,0.0971632748842239,0,0,0
16289,569253.6005544856,2010-10-22 07:21:00,2791.4079259261543,7,49,-1.099568486213684,3.458054542541504,48.64732605266247,48.5303250517882,194.35697747622805,176.90890838561452,-0.0001942634553415,0.0971632748842239,0,0,0
16290,569283.6156385003,2010-10-22 07:21:30,2821.4230099710044,7,49,-1.0993878841400146,3.449312686920166,48.64732605266247,48.539491984340565,194.35697747622805,176.9405687916447,-0.0002590179501567,0.0971632748842239,0,0,0
16291,569313.6311279805,2010-10-22 07:22:00,2851.4384995515748,7,49,-1.0993878841400146,3.4391138553619385,48.64732605266247,48.54865908521464,194.35697747622805,176.97214472863618,-0.0003561496851034,0.0971632748842239,0,0,0
16292,569343.6459314412,2010-10-22 07:22:30,2881.4533029118725,7,49,-1.099568486213684,3.4277820587158203,48.64732605266247,48.55782594854052,194.35697747622805,177.00362121357028,-0.0003561496851034,0.0971632748842239,0,0,0
16293,569373.6611899558,2010-10-22 07:23:00,2911.468561406505,7,49,-1.099568486213684,3.4140217304229736,48.64732605266247,48.56699297774863,194.35697747622805,177.03498329607046,-0.0004209041653666,0.0971632748842239,0,0,0
16294,569403.6761871543,2010-10-22 07:23:30,2941.4835586349823,7,49,-1.099568486213684,3.3975093364715576,48.64732605266247,48.57615994430553,194.35697747622805,177.06620755650957,-0.0005180359003134,0.0971632748842239,0,0,0
16295,569433.6913308327,2010-10-22 07:24:00,2971.4987022984205,7,49,-1.0997490882873535,3.3774354457855225,48.64732605266247,48.58532694512708,194.35697747622805,177.09726499309852,-0.0006151676061563,0.0971632748842239,0,0,0
16296,569463.7064613084,2010-10-22 07:24:30,3001.5138327539403,7,49,-1.099568486213684,3.3520193099975586,48.64732605266247,48.59449391727311,194.35697747622805,177.1281146057759,-0.0007770538213662,0.0971632748842239,0,0,0
16297,569493.7215935433,2010-10-22 07:25:00,3031.5289649788706,7,49,-1.0997490882873535,3.3189947605133057,48.64732605266247,48.60366089072146,194.35697747622805,177.15869825450818,-0.0009713172912597,0.0971632748842239,0,0,0
16298,569523.7367336629,2010-10-22 07:25:30,3061.5441051085013,7,49,-1.099568486213684,3.2749617099761963,48.64732605266247,48.61282774554705,194.35697747622805,177.1889317421468,-0.0013598442310467,0.0971632748842239,0,0,0
16299,569553.751901306,2010-10-22 07:26:00,3091.559272791804,7,49,-1.099568486213684,3.21425461769104,48.64732605266247,48.62199466074149,194.35697747622805,177.2186914947971,-0.0018778800731524,0.0971632748842239,0,0,0
16300,569583.7670316914,2010-10-22 07:26:30,3121.5744031470745,7,49,-1.099568486213684,3.1253793239593506,48.64732605266247,48.631161592991376,194.35697747622805,177.24777755198377,-0.0028491974808275,0.0971632748842239,0,0,0
16301,569613.7822184974,2010-10-22 07:27:00,3151.589589938,7,49,-1.0993878841400146,2.980005979537964,48.64732605266247,48.64032861930025,194.35697747622805,177.27582948241997,-0.0050508501008152,0.0971632748842239,0,0,0
16302,569636.1257412059,2010-10-22 07:27:22,3173.933112651532,7,49,-1.099568486213684,2.779591560363769,48.64732605266247,48.64715253247066,194.35697747622805,177.29554372154766,-0.0088389394804835,0.0971632748842239,0,0,0
16303,569642.7192517229,2010-10-22 07:27:29,3180.526623369012,7,49,-1.0993878841400146,2.699781894683838,48.64732605266247,48.6491662720783,194.35697747622805,177.30106215430766,-0.0099073890596628,0.0971632748842239,0,0,0
16304,569702.7214226552,2010-10-22 07:28:29,60.014603177149205,8,49,0.0,3.391033887863159,48.64732605266247,48.6491662720783,194.35697747622805,177.30106215430766,0.0013274669181555,0.0971632748842239,0,0,0
16305,569702.8977081422,2010-10-22 07:28:29,0.187640061769333,9,49,-1.9243103452026844e-05,3.391195774078369,48.64732605266247,48.6491662730813,194.35697747622805,177.30106215770903,0.0,0.0940944999456405,0,0,0
16306,569707.7265171299,2010-10-22 07:28:34,5.016449159829112,9,49,0.0008838032954372,3.399290084838867,48.64732702017792,48.64916627324767,194.3569807618152,177.30106215827388,0.0011332035064697,0.0940944999456405,0,0,0
