Data_Point,Test_Time(s),Date_Time,Step_Time(s),Step_Index,Cycle_Index,Current(A),Voltage(V),Charge_Capacity(Ah),Discharge_Capacity(Ah),Charge_Energy(Wh),Discharge_Energy(Wh),dV/dt(V/s),Internal_Resistance(Ohm),Is_FC_Data,AC_Impedance(Ohm),ACI_Phase_Angle(Deg)
10069,349688.32870963577,2010-10-19 18:21:11,30.01529055453592,1,31,0.0,3.4180688858032227,29.987031093403303,29.99129380179008,119.71565605469186,109.44227855049388,0.0007770538213662,0.0931148082017898,0,0,0
10070,349718.343689917,2010-10-19 18:21:41,60.03027083076283,1,31,0.0,3.442513465881348,29.987031093403303,29.99129380179008,119.71565605469186,109.44227855049388,0.0005827903514727,0.0931148082017898,0,0,0
10071,349748.3590358997,2010-10-19 18:22:11,90.0456168986551,1,31,0.0,3.460968494415283,29.987031093403303,29.99129380179008,119.71565605469186,109.44227855049388,0.0004532813909463,0.0931148082017898,0,0,0
10072,349778.32710210665,2010-10-19 18:22:41,120.0136829852864,1,31,0.0,3.4757001399993896,29.987031093403303,29.99129380179008,119.71565605469186,109.44227855049388,0.0003561496851034,0.0931148082017898,0,0,0
10073,349808.3342527226,2010-10-19 18:23:11,30.015323230975664,2,31,0.5499359965324402,3.6288440227508554,29.991617419387225,29.99129380179008,119.7321475008414,109.44227855049388,0.0014569759368896,0.0931148082017898,0,0,0
10074,349838.3492107935,2010-10-19 18:23:41,60.03028129684753,2,31,0.5499359965324402,3.672714948654175,29.996203697759547,29.99129380179008,119.74889784745208,109.44227855049388,0.0009712696191854,0.0931148082017898,0,0,0
10075,349868.36436077266,2010-10-19 18:24:11,90.04543132615133,2,31,0.5499359965324402,3.7037971019744873,30.000789985521056,29.99129380179008,119.76581661005696,109.44227855049388,0.0007446765666827,0.0931148082017898,0,0,0
10076,349898.37950959895,2010-10-19 18:24:41,120.0605801474444,2,31,0.550297200679779,3.728241920471192,30.0053762408917,29.99129380179008,119.78286101620726,109.44227855049388,0.0006151676061563,0.0931148082017898,0,0,0
10077,349928.39483354177,2010-10-19 18:25:11,150.07590409520654,2,31,0.5501165986061096,3.747344493865967,30.009962500229825,29.99129380179008,119.80000475536993,109.44227855049388,0.0004532813909463,0.0931148082017898,0,0,0
10078,349958.40986051434,2010-10-19 18:25:41,180.09093103272772,2,31,0.550297200679779,3.762723445892334,30.01454871493829,29.99129380179008,119.81722802468472,109.44227855049388,0.0003237724304199,0.0931148082017898,0,0,0
10079,349988.4252151185,2010-10-19 18:26:11,210.10628563689505,2,31,0.5499359965324402,3.772760391235352,30.01913505534245,29.99129380179008,119.83451032080964,109.44227855049388,0.0001942634553415,0.0931148082017898,0,0,0
10080,350018.44011811214,2010-10-19 18:26:41,240.12118864053488,2,31,0.5501165986061096,3.77891206741333,30.02372131931868,29.99129380179008,119.85182891353207,109.44227855049388,0.0001295089750783,0.0931148082017898,0,0,0
10081,350048.45527082816,2010-10-19 18:27:11,270.13634134650977,2,31,0.5499359965324402,3.783444881439209,30.0283076376822,29.99129380179008,119.86917121590328,109.44227855049388,0.0001618862152099,0.0931148082017898,0,0,0
10082,350078.4703877599,2010-10-19 18:27:41,300.1514583033869,2,31,0.5501165986061096,3.787492036819458,30.03289389563734,29.99129380179008,119.88653208912116,109.44227855049388,0.0001295089750783,0.0931148082017898,0,0,0
10083,350108.4855439195,2010-10-19 18:28:11,330.1666144629692,2,31,0.5501165986061096,3.791215419769287,30.03748016929979,29.99129380179008,119.90391066790968,109.44227855049388,9.713172767078504e-05,0.0931148082017898,0,0,0
10084,350138.5008078628,2010-10-19 18:28:41,360.1818783861316,2,31,0.550297200679779,3.795100688934326,30.042066496098805,29.99129380179008,119.92130656769784,109.44227855049388,0.0001618862152099,0.0931148082017898,0,0,0
10085,350168.5158349105,2010-10-19 18:29:11,390.19690543392767,2,31,0.5501165986061096,3.798662185668945,30.04665274973133,29.99129380179008,119.93871926562242,109.44227855049388,9.713172767078504e-05,0.0931148082017898,0,0,0
10086,350198.53097713034,2010-10-19 18:29:41,420.2120476437429,2,31,0.5501165986061096,3.802223682403565,30.051239084404283,29.99129380179008,119.9561491116116,109.44227855049388,0.0001295089750783,0.0931148082017898,0,0,0
10087,350228.5462177605,2010-10-19 18:30:11,450.2272883991641,2,31,0.5501165986061096,3.805785179138184,30.05582537112388,29.99129380179008,119.97359529667165,109.44227855049388,9.713172767078504e-05,0.0931148082017898,0,0,0
10088,350258.5612676703,2010-10-19 18:30:41,480.24233820367687,2,31,0.5499359965324402,3.8091847896575928,30.06041171984918,29.99129380179008,119.99105801769612,109.44227855049388,9.713172767078504e-05,0.0931148082017898,0,0,0
10089,350288.57649727294,2010-10-19 18:31:11,510.25756791156414,2,31,0.5499359965324402,3.812908172607422,30.064998110733733,29.99129380179008,120.00853693071436,109.44227855049388,9.713172767078504e-05,0.0931148082017898,0,0,0
10090,350318.5915507616,2010-10-19 18:31:41,540.2726212749468,2,31,0.5497553944587708,3.816145896911621,30.069584418091,29.99129380179008,120.02603182192618,109.44227855049388,3.237724376958795e-05,0.0931148082017898,0,0,0
10091,350348.6066990315,2010-10-19 18:32:11,570.2877695448657,2,31,0.5499359965324402,3.81970739364624,30.074170702106898,29.99129380179008,120.04354224726872,109.44227855049388,9.713172767078504e-05,0.0931148082017898,0,0,0
10092,350378.62196841324,2010-10-19 18:32:41,600.3030389516949,2,31,0.5497553944587708,3.8227832317352295,30.078757049077588,29.99129380179008,120.06106814225096,109.44227855049388,6.47544875391759e-05,0.0931148082017898,0,0,0
10093,350408.63701134064,2010-10-19 18:33:11,630.3180818640303,2,31,0.5499359965324402,3.826182842254639,30.08334320718435,29.99129380179008,120.0786083938158,109.44227855049388,6.47544875391759e-05,0.0931148082017898,0,0,0
10094,350438.65228237153,2010-10-19 18:33:41,660.3333529049323,2,31,0.5501165986061096,3.829420566558838,30.0879295210445,29.99129380179008,120.09616437543856,109.44227855049388,6.47544875391759e-05,0.0931148082017898,0,0,0
10095,350468.66728302854,2010-10-19 18:34:11,690.3483535519294,2,31,0.550297200679779,3.832820177078247,30.09251571747616,29.99129380179008,120.11373509433012,109.44227855049388,9.713172767078504e-05,0.0931148082017898,0,0,0
10096,350498.6824437194,2010-10-19 18:34:41,720.3635142528302,2,31,0.5499359965324402,3.836219549179077,30.09710193868152,29.99129380179008,120.13132112254024,109.44227855049388,6.47544875391759e-05,0.0931148082017898,0,0,0
10097,350528.6978660424,2010-10-19 18:35:11,750.3789366810358,2,31,0.5501165986061096,3.8396191596984863,30.10168827697313,29.99129380179008,120.14892303325615,109.44227855049388,9.713172767078504e-05,0.0931148082017898,0,0,0
10098,350558.7127299335,2010-10-19 18:35:41,780.3938004418704,2,31,0.5499359965324402,3.843018770217896,30.10627447973341,29.99129380179008,120.16654013409418,109.44227855049388,9.713172767078504e-05,0.0931148082017898,0,0,0
10099,350588.7280488788,2010-10-19 18:36:11,810.4091194022024,2,31,0.5499359965324402,3.846256494522095,30.11086073827064,29.99129380179008,120.18417324084588,109.44227855049388,3.237724376958795e-05,0.0931148082017898,0,0,0
10100,350618.7430218368,2010-10-19 18:36:41,840.4240923451525,2,31,0.550297200679779,3.849979877471924,30.115446955014683,29.99129380179008,120.2018220178131,109.44227855049388,9.713172767078504e-05,0.0931148082017898,0,0,0
10101,350648.75819163537,2010-10-19 18:37:11,870.4392621587649,2,31,0.550297200679779,3.853379487991333,30.120033294359576,29.99129380179008,120.21948700041932,109.44227855049388,9.713172767078504e-05,0.0931148082017898,0,0,0
10102,350678.7735484099,2010-10-19 18:37:41,900.4546189333416,2,31,0.5501165986061096,3.856779098510742,30.124619623322765,29.99129380179008,120.2371673471286,109.44227855049388,6.47544875391759e-05,0.0931148082017898,0,0,0
10103,350708.7884478447,2010-10-19 18:38:11,930.469518363074,2,31,0.5501165986061096,3.859854936599731,30.12920580402433,29.99129380179008,120.25486239985597,109.44227855049388,3.237724376958795e-05,0.0931148082017898,0,0,0
10104,350738.80360347294,2010-10-19 18:38:41,960.4846739863196,2,31,0.5501165986061096,3.8632545471191406,30.133792091086065,29.99129380179008,120.27257273230512,109.44227855049388,9.713172767078504e-05,0.0931148082017898,0,0,0
10105,350768.8187714069,2010-10-19 18:39:11,990.4998419503224,2,31,0.5501165986061096,3.86633038520813,30.13837834699945,29.99129380179008,120.2902974461586,109.44227855049388,9.713172767078504e-05,0.0931148082017898,0,0,0
10106,350798.8338882585,2010-10-19 18:39:41,1020.5149587668498,2,31,0.5501165986061096,3.869406223297119,30.14296471893113,29.99129380179008,120.30803679121588,109.44227855049388,9.713172767078504e-05,0.0931148082017898,0,0,0
10107,350828.8490367489,2010-10-19 18:40:12,1050.5301072974182,2,31,0.5499359965324402,3.872158288955689,30.14755097851286,29.99129380179008,120.32578949417088,109.44227855049388,6.47544875391759e-05,0.0931148082017898,0,0,0
10108,350858.8642261414,2010-10-19 18:40:42,1080.5452966848145,2,31,0.5501165986061096,3.875072240829468,30.152137311539683,29.99129380179008,120.34355582165212,109.44227855049388,3.237724376958795e-05,0.0931148082017898,0,0,0
10109,350888.879347003,2010-10-19 18:41:12,1110.5604175464234,2,31,0.5499359965324402,3.877824306488037,30.156723605271925,29.99129380179008,120.36133483458823,109.44227855049388,6.47544875391759e-05,0.0931148082017898,0,0,0
10110,350918.8944917291,2010-10-19 18:41:42,1140.57556227251,2,31,0.5501165986061096,3.8805763721466064,30.16130992949992,29.99129380179008,120.37912626052837,109.44227855049388,6.47544875391759e-05,0.0931148082017898,0,0,0
10111,350948.9096414476,2010-10-19 18:42:12,1170.5907119860267,2,31,0.5501165986061096,3.883004665374756,30.16589629582701,29.99129380179008,120.39692961171885,109.44227855049388,6.47544875391759e-05,0.0931148082017898,0,0,0
10112,350978.9247793316,2010-10-19 18:42:42,1200.6058498850982,2,31,0.5501165986061096,3.8852710723876953,30.1704826212898,29.99129380179008,120.4147438044368,109.44227855049388,3.237724376958795e-05,0.0931148082017898,0,0,0
10113,351008.93992755644,2010-10-19 18:43:12,1230.6209980948672,2,31,0.5501165986061096,3.8876993656158447,30.175068857736186,29.99129380179008,120.43256808822332,109.44227855049388,3.237724376958795e-05,0.0931148082017898,0,0,0
10114,351038.9550618565,2010-10-19 18:43:42,1260.6361324100064,2,31,0.5499359965324402,3.8894801139831534,30.17965516579942,29.99129380179008,120.45040250796188,109.44227855049388,0.0,0.0931148082017898,0,0,0
10115,351068.97022034694,2010-10-19 18:44:12,1290.6512909003975,2,31,0.5499359965324402,3.891584634780884,30.184241563043702,29.99129380179008,120.46824641566889,109.44227855049388,3.237724376958795e-05,0.0931148082017898,0,0,0
10116,351098.9853595793,2010-10-19 18:44:42,1320.6664301227677,2,31,0.5501165986061096,3.8935272693634033,30.18882792157372,29.99129380179008,120.486098818671,109.44227855049388,3.237724376958795e-05,0.0931148082017898,0,0,0
10117,351129.0005179745,2010-10-19 18:45:12,1350.6815885279466,2,31,0.5497553944587708,3.894822359085083,30.19341428099236,29.99129380179008,120.50395922711736,109.44227855049388,3.237724376958795e-05,0.0931148082017898,0,0,0
10118,351159.0156496079,2010-10-19 18:45:42,1380.6967201513771,2,31,0.5499359965324402,3.8966031074523926,30.19800062097732,29.99129380179008,120.52182661404188,109.44227855049388,3.237724376958795e-05,0.0931148082017898,0,0,0
10119,351189.0307938228,2010-10-19 18:46:12,1410.7118643361146,2,31,0.5501165986061096,3.898060083389282,30.20258695286088,29.99129380179008,120.539701147453,109.44227855049388,3.237724376958795e-05,0.0931148082017898,0,0,0
10120,351219.0459340275,2010-10-19 18:46:42,1440.7270045309078,2,31,0.5501165986061096,3.899517059326172,30.20717317016338,29.99129380179008,120.55758187977176,109.44227855049388,3.237724376958795e-05,0.0931148082017898,0,0,0
10121,351249.0612380106,2010-10-19 18:47:12,1470.7423085540115,2,31,0.550297200679779,3.9009740352630615,30.21175951269865,29.99129380179008,120.57546938754857,109.44227855049388,9.713172767078504e-05,0.0931148082017898,0,0,0
10122,351279.07624528406,2010-10-19 18:47:42,1500.757315857599,2,31,0.5497553944587708,3.901945352554321,30.21634580124897,29.99129380179008,120.59336285559638,109.44227855049388,3.237724376958795e-05,0.0931148082017898,0,0,0
10123,351309.09137869696,2010-10-19 18:48:12,1530.7724492504396,2,31,0.5501165986061096,3.903240442276001,30.2209321045102,29.99129380179008,120.61126234823124,109.44227855049388,0.0,0.0931148082017898,0,0,0
10124,351339.106523789,2010-10-19 18:48:42,1560.7875943324127,2,31,0.5501165986061096,3.90469741821289,30.22551845491667,29.99129380179008,120.62916794605728,109.44227855049388,3.237724376958795e-05,0.0931148082017898,0,0,0
10125,351369.12167471054,2010-10-19 18:49:12,1590.8027452338906,2,31,0.5501165986061096,3.9059925079345694,30.23010480651251,29.99129380179008,120.64707921342205,109.44227855049388,6.47544875391759e-05,0.0931148082017898,0,0,0
10126,351399.1368183138,2010-10-19 18:49:42,1620.8178888472037,2,31,0.5501165986061096,3.90712571144104,30.234691040031,29.99129380179008,120.66499582914624,109.44227855049388,3.237724376958795e-05,0.0931148082017898,0,0,0
10127,351429.1519613958,2010-10-19 18:50:12,1650.833031934205,2,31,0.5499359965324402,3.90842080116272,30.239277334652723,29.99129380179008,120.68291840074394,109.44227855049388,3.237724376958795e-05,0.0931148082017898,0,0,0
10128,351459.1671700211,2010-10-19 18:50:42,1680.8482405595485,2,31,0.5501165986061096,3.9097158908844,30.243863551297355,29.99129380179008,120.70084643011307,109.44227855049388,3.237724376958795e-05,0.0931148082017898,0,0,0
10129,351489.1826337072,2010-10-19 18:51:12,1710.863704220519,2,31,0.550297200679779,3.911172866821289,30.24844995942979,29.99129380179008,120.71878089819369,109.44227855049388,6.47544875391759e-05,0.0931148082017898,0,0,0
10130,351519.19746070134,2010-10-19 18:51:42,1740.8785313400322,2,31,0.5499359965324402,3.912306070327759,30.253036209513382,29.99129380179008,120.73672050049127,109.44227855049388,6.47544875391759e-05,0.0931148082017898,0,0,0
10131,351549.2125633977,2010-10-19 18:52:12,1770.8936339361176,2,31,0.5501165986061096,3.9136011600494394,30.25762254964554,29.99129380179008,120.75466625021014,109.44227855049388,3.237724376958795e-05,0.0931148082017898,0,0,0
10132,351579.2278512906,2010-10-19 18:52:42,1800.9089218440574,2,31,0.550297200679779,3.914896011352539,30.262208865035863,29.99129380179008,120.77261774350288,109.44227855049388,6.47544875391759e-05,0.0931148082017898,0,0,0
10133,351609.2432797037,2010-10-19 18:53:12,1830.9243503624416,2,31,0.5501165986061096,3.916029214859009,30.266795345406983,29.99129380179008,120.79057571249716,109.44227855049388,0.0,0.0931148082017898,0,0,0
10134,351639.2582450978,2010-10-19 18:53:42,1860.939315716478,2,31,0.5499359965324402,3.9174861907958975,30.27138157790814,29.99129380179008,120.80853874341892,109.44227855049388,3.237724376958795e-05,0.0931148082017898,0,0,0
10135,351669.2731328685,2010-10-19 18:54:12,1890.9542033919151,2,31,0.5499359965324402,3.918619394302368,30.27596783809468,29.99129380179008,120.82650788116077,109.44227855049388,3.237724376958795e-05,0.0931148082017898,0,0,0
10136,351699.28830168967,2010-10-19 18:54:42,1920.9693722080417,2,31,0.5501165986061096,3.920076370239258,30.28055411325214,29.99129380179008,120.84448321496816,109.44227855049388,3.237724376958795e-05,0.0931148082017898,0,0,0
10137,351729.30363575765,2010-10-19 18:55:12,1950.9847063010889,2,31,0.550297200679779,3.9213714599609375,30.285140473918865,29.99129380179008,120.86246496475512,109.44227855049388,0.0,0.0931148082017898,0,0,0
10138,351759.318577573,2010-10-19 18:55:42,1980.9996481064345,2,31,0.5499359965324402,3.922666549682617,30.28972677139669,29.99129380179008,120.88045270354785,109.44227855049388,0.0,0.0931148082017898,0,0,0
10139,351789.33371448965,2010-10-19 18:56:12,2011.014785003007,2,31,0.5501165986061096,3.924123525619507,30.29431315093496,29.99129380179008,120.89844691096962,109.44227855049388,3.237724376958795e-05,0.0931148082017898,0,0,0
10140,351819.34885937616,2010-10-19 18:56:42,2041.0299299145563,2,31,0.5499359965324402,3.9254186153411865,30.29889941556899,29.99129380179008,120.91644697102004,109.44227855049388,3.237724376958795e-05,0.0931148082017898,0,0,0
10141,351849.3640187637,2010-10-19 18:57:12,2071.0450893071966,2,31,0.5501165986061096,3.926713705062866,30.303485717715137,29.99129380179008,120.93445336995885,109.44227855049388,3.237724376958795e-05,0.0931148082017898,0,0,0
10142,351879.379179986,2010-10-19 18:57:42,2101.0602505293964,2,31,0.5499359965324402,3.928170680999756,30.30807198748491,29.99129380179008,120.95246606638035,109.44227855049388,3.237724376958795e-05,0.0931148082017898,0,0,0
10143,351909.3945957425,2010-10-19 18:58:12,2131.075666290986,2,31,0.5501165986061096,3.9296276569366455,30.312658287920385,29.99129380179008,120.97048525182952,109.44227855049388,6.47544875391759e-05,0.0931148082017898,0,0,0
10144,351939.4094657389,2010-10-19 18:58:42,2161.090536307412,2,31,0.5499359965324402,3.930922746658325,30.317244568036223,29.99129380179008,120.98851091629562,109.44227855049388,3.237724376958795e-05,0.0931148082017898,0,0,0
10145,351969.4246553669,2010-10-19 18:59:12,2191.1057259103454,2,31,0.5501165986061096,3.932541608810425,30.321830849675507,29.99129380179008,121.00654302701454,109.44227855049388,3.237724376958795e-05,0.0931148082017898,0,0,0
10146,351999.4397216024,2010-10-19 18:59:42,2221.120792140797,2,31,0.5501165986061096,3.9339985847473145,30.32641709092009,29.99129380179008,121.02458168011036,109.44227855049388,3.237724376958795e-05,0.0931148082017898,0,0,0
10147,352029.4548715013,2010-10-19 19:00:12,2251.135942034764,2,31,0.5501165986061096,3.935617446899414,30.331003401632923,29.99129380179008,121.04262730014004,109.44227855049388,9.713172767078504e-05,0.0931148082017898,0,0,0
10148,352059.4701494846,2010-10-19 19:00:42,2281.151219997918,2,31,0.5499359965324402,3.936750650405884,30.335589701545736,29.99129380179008,121.06067956760556,109.44227855049388,3.237724376958795e-05,0.0931148082017898,0,0,0
10149,352089.48518920894,2010-10-19 19:01:12,2311.1662597072705,2,31,0.5501165986061096,3.938369512557984,30.340175938346903,29.99129380179008,121.07873849051676,109.44227855049388,3.237724376958795e-05,0.0931148082017898,0,0,0
10150,352119.5004593426,2010-10-19 19:01:42,2341.181529865973,2,31,0.5499359965324402,3.939826488494873,30.34476226909721,29.99129380179008,121.09680464567114,109.44227855049388,3.237724376958795e-05,0.0931148082017898,0,0,0
10151,352149.5154671173,2010-10-19 19:02:12,2371.1965376307103,2,31,0.5501165986061096,3.9414453506469727,30.34934849387751,29.99129380179008,121.11487731485072,109.44227855049388,3.237724376958795e-05,0.0931148082017898,0,0,0
10152,352179.5307258475,2010-10-19 19:02:42,2401.211796370955,2,31,0.5499359965324402,3.942740440368652,30.35393478253215,29.99129380179008,121.13295712033263,109.44227855049388,0.0,0.0931148082017898,0,0,0
10153,352209.54576708074,2010-10-19 19:03:12,2431.2268376241555,2,31,0.550297200679779,3.944521188735962,30.35852105511482,29.99129380179008,121.15104397702548,109.44227855049388,6.47544875391759e-05,0.0931148082017898,0,0,0
10154,352239.56088508014,2010-10-19 19:03:42,2461.241955588544,2,31,0.5499359965324402,3.9458162784576416,30.36310731588007,29.99129380179008,121.16913788241732,109.44227855049388,-3.237724376958795e-05,0.0931148082017898,0,0,0
10155,352269.5760375305,2010-10-19 19:04:12,2491.2571080438943,2,31,0.5501165986061096,3.947597026824951,30.36769361213707,29.99129380179008,121.18723905303004,109.44227855049388,3.237724376958795e-05,0.0931148082017898,0,0,0
10156,352299.5911883718,2010-10-19 19:04:42,2521.272258910284,2,31,0.5499359965324402,3.949054002761841,30.372279812482823,29.99129380179008,121.20534706412832,109.44227855049388,3.237724376958795e-05,0.0931148082017898,0,0,0
10157,352329.6063661603,2010-10-19 19:05:12,2551.2874368190724,2,31,0.5499359965324402,3.950672864913941,30.37686598678905,29.99129380179008,121.22346223363166,109.44227855049388,3.237724376958795e-05,0.0931148082017898,0,0,0
10158,352359.62159291084,2010-10-19 19:05:42,2581.3026634242265,2,31,0.5501165986061096,3.95245361328125,30.381452292368465,29.99129380179008,121.2415852857322,109.44227855049388,6.47544875391759e-05,0.0931148082017898,0,0,0
10159,352389.6365379793,2010-10-19 19:06:12,2611.3176084876923,2,31,0.5501165986061096,3.95391058921814,30.3860380628896,29.99129380179008,121.25971350034632,109.44227855049388,6.47544875391759e-05,0.0931148082017898,0,0,0
10160,352419.6516895575,2010-10-19 19:06:42,2641.332760055832,2,31,0.5499359965324402,3.9555294513702393,30.390623335369035,29.99129380179008,121.27784700862708,109.44227855049388,3.237724376958795e-05,0.0931148082017898,0,0,0
10161,352449.6668735765,2010-10-19 19:07:12,2671.3479441099357,2,31,0.5499359965324402,3.956986427307129,30.395208799499617,29.99129380179008,121.29598876561172,109.44227855049388,0.0,0.0931148082017898,0,0,0
10162,352479.6820017363,2010-10-19 19:07:42,2701.363072239659,2,31,0.5501165986061096,3.9587671756744394,30.39979415095988,29.99129380179008,121.31413742761968,109.44227855049388,6.47544875391759e-05,0.0931148082017898,0,0,0
10163,352509.69716815144,2010-10-19 19:08:12,2731.378238795151,2,31,0.550297200679779,3.960547924041748,30.40437946178593,29.99129380179008,121.33229346250518,109.44227855049388,6.47544875391759e-05,0.0931148082017898,0,0,0
10164,352539.7123430126,2010-10-19 19:08:42,2761.393413581156,2,31,0.5501165986061096,3.962166786193848,30.408964863601607,29.99129380179008,121.35045755025264,109.44227855049388,6.47544875391759e-05,0.0931148082017898,0,0,0
10165,352569.7274615134,2010-10-19 19:09:12,2791.408532026744,2,31,0.5501165986061096,3.963947534561157,30.413550439418145,29.99129380179008,121.36863001886536,109.44227855049388,3.237724376958795e-05,0.0931148082017898,0,0,0
10166,352599.7427136021,2010-10-19 19:09:42,2821.4237841404733,2,31,0.5501165986061096,3.965728282928467,30.41813673649025,29.99129380179008,121.38681336069378,109.44227855049388,6.47544875391759e-05,0.0931148082017898,0,0,0
10167,352629.75770166266,2010-10-19 19:10:12,2851.438772226164,2,31,0.5501165986061096,3.9673471450805664,30.42272304666865,29.99129380179008,121.40500466169156,109.44227855049388,6.47544875391759e-05,0.0931148082017898,0,0,0
10168,352659.7728439727,2010-10-19 19:10:42,2881.4539145111667,2,31,0.5501165986061096,3.969127893447876,30.427309327176403,29.99129380179008,121.42320361665622,109.44227855049388,6.47544875391759e-05,0.0931148082017898,0,0,0
10169,352689.78800630773,2010-10-19 19:11:12,2911.469076841127,2,31,0.5499359965324402,3.970746755599976,30.43189564020045,29.99129380179008,121.4414107126827,109.44227855049388,6.47544875391759e-05,0.0931148082017898,0,0,0
10170,352719.8031388936,2010-10-19 19:11:42,2941.4842093968814,2,31,0.5499359965324402,3.972365617752075,30.436481922726227,29.99129380179008,121.45962563068782,109.44227855049388,3.237724376958795e-05,0.0931148082017898,0,0,0
10171,352749.81831228104,2010-10-19 19:12:13,2971.499382814476,2,31,0.5499359965324402,3.9743082523345943,30.44106827660804,29.99129380179008,121.47784879981516,109.44227855049388,6.47544875391759e-05,0.0931148082017898,0,0,0
10172,352779.8334303457,2010-10-19 19:12:43,3001.514500854052,2,31,0.5499359965324402,3.9759271144866943,30.445654774088556,29.99129380179008,121.4960807242588,109.44227855049388,3.237724376958795e-05,0.0931148082017898,0,0,0
10173,352809.8485945453,2010-10-19 19:13:13,3031.5296650586847,2,31,0.550297200679779,3.977707862854004,30.45024122360732,29.99129380179008,121.51432055140532,109.44227855049388,3.237724376958795e-05,0.0931148082017898,0,0,0
10174,352839.8638554409,2010-10-19 19:13:43,3061.5449259543016,2,31,0.5499359965324402,3.9794886112213135,30.454827529741465,29.99129380179008,121.53256751756166,109.44227855049388,3.237724376958795e-05,0.0931148082017898,0,0,0
10175,352869.8788569801,2010-10-19 19:14:13,3091.5599275135723,2,31,0.5499359965324402,3.981269359588623,30.45941379247372,29.99129380179008,121.55082306148437,109.44227855049388,0.0,0.0931148082017898,0,0,0
10176,352899.89405410684,2010-10-19 19:14:43,3121.5751246101822,2,31,0.5501165986061096,3.983211994171143,30.46400006274876,29.99129380179008,121.56908693817287,109.44227855049388,3.237724376958795e-05,0.0931148082017898,0,0,0
10177,352929.9091920059,2010-10-19 19:15:13,3151.5902625443414,2,31,0.5499359965324402,3.984992742538452,30.46858631062353,29.99129380179008,121.5873589979018,109.44227855049388,3.237724376958795e-05,0.0931148082017898,0,0,0
10178,352959.9243009879,2010-10-19 19:15:43,3181.60537154138,2,31,0.5501165986061096,3.986935377120972,30.473172562892223,29.99129380179008,121.60563946568986,109.44227855049388,6.47544875391759e-05,0.0931148082017898,0,0,0
10179,352989.93942953367,2010-10-19 19:16:13,3211.620500042028,2,31,0.5501165986061096,3.988716125488281,30.47775883499873,29.99129380179008,121.62392844437048,109.44227855049388,6.47544875391759e-05,0.0931148082017898,0,0,0
10180,353019.9547065144,2010-10-19 19:16:43,3241.6357770277464,2,31,0.5501165986061096,3.990658760070801,30.482345166326137,29.99129380179008,121.64222624603892,109.44227855049388,6.47544875391759e-05,0.0931148082017898,0,0,0
10181,353049.9697296675,2010-10-19 19:17:13,3271.650800175823,2,31,0.5501165986061096,3.9924395084381104,30.486931386537517,29.99129380179008,121.6605322912626,109.44227855049388,3.237724376958795e-05,0.0931148082017898,0,0,0
10182,353079.98487078457,2010-10-19 19:17:43,3301.665941317977,2,31,0.5501165986061096,3.994381904602051,30.491517678607355,29.99129380179008,121.67884734199028,109.44227855049388,3.237724376958795e-05,0.0931148082017898,0,0,0
10183,353110.00000362605,2010-10-19 19:18:13,3331.681074134381,2,31,0.5501165986061096,3.9963245391845694,30.496103959862637,29.99129380179008,121.69717121048754,109.44227855049388,0.0,0.0931148082017898,0,0,0
10184,353140.01515599614,2010-10-19 19:18:43,3361.6962264995063,2,31,0.5501165986061096,3.9984290599823,30.500690242183868,29.99129380179008,121.71550416876948,109.44227855049388,6.47544875391759e-05,0.0931148082017898,0,0,0
10185,353170.03031926847,2010-10-19 19:19:13,3391.711389831966,2,31,0.5499359965324402,4.000209808349609,30.505276488151697,29.99129380179008,121.73384592175958,109.44227855049388,6.47544875391759e-05,0.0931148082017898,0,0,0
10186,353200.04544513253,2010-10-19 19:19:43,3421.7265156409053,2,31,0.5501165986061096,4.002476215362549,30.50986271491553,29.99129380179008,121.75219686046084,109.44227855049388,9.70840483205393e-05,0.0931148082017898,0,0,0
10187,353230.060585984,2010-10-19 19:20:13,3451.741656512385,2,31,0.5499359965324402,4.0042572021484375,30.514449046335063,29.99129380179008,121.7705575852984,109.44227855049388,0.0,0.0931148082017898,0,0,0
10188,353260.0758521728,2010-10-19 19:20:43,3481.7569226861565,2,31,0.5501165986061096,4.006523609161377,30.51903534544273,29.99129380179008,121.78892761829994,109.44227855049388,6.47544875391759e-05,0.0931148082017898,0,0,0
10189,353290.0908903032,2010-10-19 19:21:13,3511.771960816574,2,31,0.5499359965324402,4.0084662437438965,30.523621557620384,29.99129380179008,121.80730680694448,109.44227855049388,6.47544875391759e-05,0.0931148082017898,0,0,0
10190,353320.10601982643,2010-10-19 19:21:43,3541.787090329745,2,31,0.5499359965324402,4.010570526123047,30.52820778908652,29.99129380179008,121.82569564876036,109.44227855049388,3.23295607813634e-05,0.0931148082017898,0,0,0
10191,353350.12115672795,2010-10-19 19:22:13,3571.802227266418,2,31,0.5497553944587708,4.012836933135986,30.532794021755805,29.99129380179008,121.84409431202178,109.44227855049388,3.23295607813634e-05,0.0931148082017898,0,0,0
10192,353380.13633001025,2010-10-19 19:22:43,3601.817400523613,2,31,0.5501165986061096,4.014941692352295,30.5373803289654,29.99129380179008,121.8625031793751,109.44227855049388,6.47544875391759e-05,0.0931148082017898,0,0,0
10193,353410.1516508202,2010-10-19 19:23:13,3631.8327214538544,2,31,0.5499359965324402,4.017045974731445,30.541966645491225,29.99129380179008,121.88092207798572,109.44227855049388,0.0,0.0931148082017898,0,0,0
10194,353440.16664654994,2010-10-19 19:23:43,3661.8477170883584,2,31,0.5501165986061096,4.019312381744385,30.54655286603087,29.99129380179008,121.8993506232533,109.44227855049388,6.47544875391759e-05,0.0931148082017898,0,0,0
10195,353470.1817433716,2010-10-19 19:24:13,3691.8628140052906,2,31,0.5501165986061096,4.021740913391113,30.551139112809828,29.99129380179008,121.91778929620908,109.44227855049388,9.71794142969884e-05,0.0931148082017898,0,0,0
10196,353500.19690805743,2010-10-19 19:24:43,3721.877978595885,2,31,0.5499359965324402,4.023683547973633,30.555725361535533,29.99129380179008,121.93623827911176,109.44227855049388,3.24249267578125e-05,0.0931148082017898,0,0,0
10197,353530.21205390635,2010-10-19 19:25:13,3751.893124449783,2,31,0.5501165986061096,4.026111602783203,30.560311557240524,29.99129380179008,121.95469745965744,109.44227855049388,6.47544875391759e-05,0.0931148082017898,0,0,0
10198,353560.2273225713,2010-10-19 19:25:43,3781.908393204988,2,31,0.5501165986061096,4.028540134429932,30.564897807421264,29.99129380179008,121.9731673859492,109.44227855049388,9.71794142969884e-05,0.0931148082017898,0,0,0
10199,353590.2427467088,2010-10-19 19:26:13,3811.9238172722794,2,31,0.5501165986061096,4.030644416809082,30.56948419405503,29.99129380179008,121.99164838665084,109.44227855049388,6.47544875391759e-05,0.0931148082017898,0,0,0
10200,353620.25753123715,2010-10-19 19:26:43,3841.938601780592,2,31,0.5501165986061096,4.0330729484558105,30.57407043826752,29.99129380179008,122.01013936661322,109.44227855049388,9.71794142969884e-05,0.0931148082017898,0,0,0
10201,353650.2729057208,2010-10-19 19:27:13,3871.95397637458,2,31,0.5501165986061096,4.035338878631592,30.57865677356813,29.99129380179008,122.02864140678678,109.44227855049388,9.70840483205393e-05,0.0931148082017898,0,0,0
10202,353680.2877392814,2010-10-19 19:27:43,3901.968809794796,2,31,0.5501165986061096,4.03776741027832,30.583243056735657,29.99129380179008,122.04715401649749,109.44227855049388,9.71794142969884e-05,0.0931148082017898,0,0,0
10203,353710.3030188035,2010-10-19 19:28:13,3931.9840893669607,2,31,0.5501165986061096,4.04003381729126,30.5878293577424,29.99129380179008,122.0656775851028,109.44227855049388,6.47544875391759e-05,0.0931148082017898,0,0,0
10204,353740.3180402523,2010-10-19 19:28:43,3961.999110785727,2,31,0.5501165986061096,4.042623996734619,30.59241558211151,29.99129380179008,122.08421168991812,109.44227855049388,9.71794142969884e-05,0.0931148082017898,0,0,0
10205,353770.33318517887,2010-10-19 19:29:13,3992.014255687251,2,31,0.5501165986061096,4.0450520515441895,30.597001806811367,29.99129380179008,122.10275683934586,109.44227855049388,9.70840483205393e-05,0.0931148082017898,0,0,0
10206,353800.3484572574,2010-10-19 19:29:43,4022.029527926139,2,31,0.5501165986061096,4.047480583190918,30.601588079493567,29.99129380179008,122.12131326738438,109.44227855049388,0.0001295089750783,0.0931148082017898,0,0,0
10207,353830.36373076943,2010-10-19 19:30:13,4052.0448012878246,2,31,0.5501165986061096,4.049746990203857,30.606174347603297,29.99129380179008,122.13988090947689,109.44227855049388,6.47544875391759e-05,0.0931148082017898,0,0,0
10208,353860.3786110916,2010-10-19 19:30:43,4082.059681629986,2,31,0.5499359965324402,4.052175045013428,30.610760576965923,29.99129380179008,122.1584595818682,109.44227855049388,6.47544875391759e-05,0.0931148082017898,0,0,0
10209,353890.3937817322,2010-10-19 19:31:13,4112.074852275672,2,31,0.5501165986061096,4.054765224456787,30.615346919409387,29.99129380179008,122.17705010974102,109.44227855049388,0.0001295089750783,0.0931148082017898,0,0,0
10210,353920.40891731053,2010-10-19 19:31:43,4142.089987843934,2,31,0.5501165986061096,4.0573554039001465,30.619933233623968,29.99129380179008,122.19565203370958,109.44227855049388,9.70840483205393e-05,0.0931148082017898,0,0,0
10211,353950.4241689731,2010-10-19 19:32:13,4172.105239501527,2,31,0.5501165986061096,4.059945583343506,30.624519562134733,29.99129380179008,122.21426567627402,109.44227855049388,9.70840483205393e-05,0.0931148082017898,0,0,0
10212,353980.4392030534,2010-10-19 19:32:43,4202.120273581851,2,31,0.5499359965324402,4.062211990356445,30.629105844918428,29.99129380179008,122.23289048812045,109.44227855049388,6.47544875391759e-05,0.0931148082017898,0,0,0
10213,354010.4543611078,2010-10-19 19:33:13,4232.135431671242,2,31,0.5499359965324402,4.064802169799805,30.633692078553462,29.99129380179008,122.2515269992692,109.44227855049388,3.23295607813634e-05,0.0931148082017898,0,0,0
10214,354040.4696132416,2010-10-19 19:33:43,4262.150683759909,2,31,0.5499359965324402,4.067392349243164,30.63827832867666,29.99129380179008,122.27017550626744,109.44227855049388,6.47544875391759e-05,0.0931148082017898,0,0,0
10215,354070.48461567296,2010-10-19 19:34:13,4292.165686186341,2,31,0.5501165986061096,4.0701446533203125,30.642864566759,29.99129380179008,122.28883613062338,109.44227855049388,3.24249267578125e-05,0.0931148082017898,0,0,0
10216,354100.4997612061,2010-10-19 19:34:43,4322.1808317044015,2,31,0.5501165986061096,4.072896480560303,30.64745080202752,29.99129380179008,122.30750888248264,109.44227855049388,9.70840483205393e-05,0.0931148082017898,0,0,0
10217,354130.5149231902,2010-10-19 19:35:13,4352.1959937286,2,31,0.5499359965324402,4.075486660003662,30.65203703072521,29.99129380179008,122.32619391366435,109.44227855049388,6.47544875391759e-05,0.0931148082017898,0,0,0
10218,354160.5300451094,2010-10-19 19:35:43,4382.211115617771,2,31,0.5501165986061096,4.0782389640808105,30.65662327701604,29.99129380179008,122.34489149416676,109.44227855049388,6.47544875391759e-05,0.0931148082017898,0,0,0
10219,354190.54532121297,2010-10-19 19:36:13,4412.226391726303,2,31,0.550297200679779,4.080990791320801,30.66120962297128,29.99129380179008,122.36360211771472,109.44227855049388,9.70840483205393e-05,0.0931148082017898,0,0,0
10220,354220.5604856933,2010-10-19 19:36:43,4442.2415562016095,2,31,0.5501165986061096,4.083743095397949,30.66579585529735,29.99129380179008,122.38232484362145,109.44227855049388,3.24249267578125e-05,0.0931148082017898,0,0,0
10221,354250.57545369887,2010-10-19 19:37:13,4472.256524212267,2,31,0.5501165986061096,4.08649492263794,30.67038252723099,29.99129380179008,122.40106225680252,109.44227855049388,3.23295607813634e-05,0.0931148082017898,0,0,0
10222,354280.5907058878,2010-10-19 19:37:43,4502.27177639116,2,31,0.5504778623580933,4.089570999145508,30.674969622147525,29.99129380179008,122.4198143259372,109.44227855049388,0.0001295089750783,0.0931148082017898,0,0,0
10223,354310.60574776254,2010-10-19 19:38:13,4532.286818300996,2,31,0.550297200679779,4.092322826385498,30.679556523955817,29.99129380179008,122.4385786258494,109.44227855049388,9.70840483205393e-05,0.0931148082017898,0,0,0
10224,354340.6208941377,2010-10-19 19:38:43,4562.301964641106,2,31,0.5501165986061096,4.095236778259277,30.68414361965309,29.99129380179008,122.45735688575373,109.44227855049388,9.70840483205393e-05,0.0931148082017898,0,0,0
10225,354370.636270837,2010-10-19 19:39:13,4592.31734150074,2,31,0.5501165986061096,4.098150730133057,30.688730774580463,29.99129380179008,122.4761487995588,109.44227855049388,9.70840483205393e-05,0.0931148082017898,0,0,0
10226,354400.6511837202,2010-10-19 19:39:43,4622.332254228616,2,31,0.5501165986061096,4.101064682006836,30.69331779579568,29.99129380179008,122.49495358004177,109.44227855049388,6.47544875391759e-05,0.0931148082017898,0,0,0
10227,354430.66635541857,2010-10-19 19:40:13,4652.347425926926,2,31,0.5501165986061096,4.103816986083984,30.69790460765425,29.99129380179008,122.51377102858424,109.44227855049388,3.24249267578125e-05,0.0931148082017898,0,0,0
10228,354460.68147674133,2010-10-19 19:40:43,4682.362547254696,2,31,0.5501165986061096,4.107054710388184,30.702491017953697,29.99129380179008,122.53260061924644,109.44227855049388,9.71794142969884e-05,0.0931148082017898,0,0,0
10229,354490.69665638945,2010-10-19 19:41:13,4712.377726927882,2,31,0.5499359965324402,4.109968662261963,30.70707740240024,29.99129380179008,122.55144386250792,109.44227855049388,6.47544875391759e-05,0.0931148082017898,0,0,0
10230,354520.711900819,2010-10-19 19:41:43,4742.392971332397,2,31,0.5501165986061096,4.113044261932373,30.711663866423116,29.99129380179008,122.57030129539214,109.44227855049388,9.70840483205393e-05,0.0931148082017898,0,0,0
10231,354550.726919917,2010-10-19 19:42:13,4772.40799043038,2,31,0.5499359965324402,4.115958213806152,30.716250239697796,29.99129380179008,122.58917229531518,109.44227855049388,3.24249267578125e-05,0.0931148082017898,0,0,0
10232,354580.7421206126,2010-10-19 19:42:43,4802.423191251272,2,31,0.5499359965324402,4.119195938110352,30.72083669128912,29.99129380179008,122.60805779405992,109.44227855049388,9.71794142969884e-05,0.0931148082017898,0,0,0
10233,354610.7572097351,2010-10-19 19:43:13,4832.43828027854,2,31,0.5499359965324402,4.122433662414551,30.72542319071732,29.99129380179008,122.62695779540296,109.44227855049388,9.71794142969884e-05,0.0931148082017898,0,0,0
10234,354640.7723645914,2010-10-19 19:43:43,4862.453435119837,2,31,0.5501165986061096,4.125509262084961,30.73000958534656,29.99129380179008,122.64587178051656,109.44227855049388,6.47544875391759e-05,0.0931148082017898,0,0,0
10235,354670.7875385654,2010-10-19 19:44:14,4892.468609103844,2,31,0.5501165986061096,4.12874698638916,30.73459605279084,29.99129380179008,122.66480063783423,109.44227855049388,0.0001295089750783,0.0931148082017898,0,0,0
10236,354700.8027594513,2010-10-19 19:44:44,4922.483829964682,2,31,0.5501165986061096,4.1318230628967285,30.739182481026777,29.99129380179008,122.6837438895231,109.44227855049388,6.47544875391759e-05,0.0931148082017898,0,0,0
10237,354730.8178147696,2010-10-19 19:45:14,4952.498885307999,2,31,0.550297200679779,4.135222434997559,30.743768961277347,29.99129380179008,122.70270201602033,109.44227855049388,9.70840483205393e-05,0.0931148082017898,0,0,0
10238,354760.8330389837,2010-10-19 19:45:44,4982.51410949713,2,31,0.5501165986061096,4.138298511505127,30.74835548403476,29.99129380179008,122.72167518179184,109.44227855049388,9.71794142969884e-05,0.0931148082017898,0,0,0
10239,354790.84805619204,2010-10-19 19:46:14,5012.529126705404,2,31,0.5501165986061096,4.141697883605957,30.75294191744773,29.99129380179008,122.74066306450617,109.44227855049388,0.0001295089750783,0.0931148082017898,0,0,0
10240,354820.8632091386,2010-10-19 19:46:44,5042.544279656991,2,31,0.5499359965324402,4.144935607910156,30.757528404434183,29.99129380179008,122.75966630550572,109.44227855049388,9.70840483205393e-05,0.0931148082017898,0,0,0
10241,354850.8785349209,2010-10-19 19:47:14,5072.559605459375,2,31,0.5501165986061096,4.1483354568481445,30.76211481379499,29.99129380179008,122.7786847860536,109.44227855049388,6.47544875391759e-05,0.0931148082017898,0,0,0
10242,354880.893515939,2010-10-19 19:47:44,5102.574586477452,2,31,0.5501165986061096,4.151734828948975,30.7667011996033,29.99129380179008,122.79771857024204,109.44227855049388,9.70840483205393e-05,0.0931148082017898,0,0,0
10243,354910.9086643694,2010-10-19 19:48:14,5132.589734912783,2,31,0.5501165986061096,4.155134677886963,30.771287595917578,29.99129380179008,122.81676798139657,109.44227855049388,6.47544875391759e-05,0.0931148082017898,0,0,0
10244,354940.92378781235,2010-10-19 19:48:44,5162.604858315726,2,31,0.5499359965324402,4.158534049987793,30.775874061104748,29.99129380179008,122.83583338594644,109.44227855049388,6.47544875391759e-05,0.0931148082017898,0,0,0
10245,354970.9389613152,2010-10-19 19:49:14,5192.620031868657,2,31,0.5501165986061096,4.161933898925781,30.78046045692926,29.99129380179008,122.8549141532724,109.44227855049388,6.47544875391759e-05,0.0931148082017898,0,0,0
10246,355000.9540703172,2010-10-19 19:49:44,5222.635140850659,2,31,0.5501165986061096,4.165333271026611,30.785046921031988,29.99129380179008,122.87401099324454,109.44227855049388,6.47544875391759e-05,0.0931148082017898,0,0,0
10247,355030.9692127426,2010-10-19 19:50:14,5252.650283255961,2,31,0.550297200679779,4.16905689239502,30.78963336717516,29.99129380179008,122.89312377252476,109.44227855049388,9.71794142969884e-05,0.0931148082017898,0,0,0
10248,355060.9843506116,2010-10-19 19:50:44,5282.66542117007,2,31,0.5499359965324402,4.17245626449585,30.7942198149761,29.99129380179008,122.91225269240245,109.44227855049388,9.70840483205393e-05,0.0931148082017898,0,0,0
10249,355090.99949251564,2010-10-19 19:51:14,5312.680563079136,2,31,0.5499359965324402,4.176017761230469,30.79880626517801,29.99129380179008,122.93139776835704,109.44227855049388,9.70840483205393e-05,0.0931148082017898,0,0,0
10250,355121.01467858977,2010-10-19 19:51:44,5342.695749213424,2,31,0.5501165986061096,4.179579257965088,30.80339268797836,29.99129380179008,122.95055907767062,109.44227855049388,9.70840483205393e-05,0.0931148082017898,0,0,0
10251,355151.0298070403,2010-10-19 19:52:14,5372.710877553673,2,31,0.5501165986061096,4.183140754699707,30.8079790463122,29.99129380179008,122.96973651819944,109.44227855049388,6.47544875391759e-05,0.0931148082017898,0,0,0
10252,355181.0449625282,2010-10-19 19:52:44,5402.726033066643,2,31,0.5501165986061096,4.186864376068115,30.812565424814803,29.99129380179008,122.98893050804242,109.44227855049388,9.71794142969884e-05,0.0931148082017898,0,0,0
10253,355211.0601137956,2010-10-19 19:53:14,5432.741184303958,2,31,0.5501165986061096,4.190425872802734,30.817151832746013,29.99129380179008,123.00814124349375,109.44227855049388,6.47544875391759e-05,0.0931148082017898,0,0,0
10254,355241.0753683905,2010-10-19 19:53:44,5462.756438918921,2,31,0.5499359965324402,4.1939873695373535,30.821738204762475,29.99129380179008,123.027368506774,109.44227855049388,6.47544875391759e-05,0.0931148082017898,0,0,0
10255,355271.0904079094,2010-10-19 19:54:14,5492.771478447824,2,31,0.5501165986061096,4.197872161865234,30.826324563020048,29.99129380179008,123.04661256845826,109.44227855049388,9.70840483205393e-05,0.0931148082017898,0,0,0
10256,355288.8088799285,2010-10-19 19:54:32,5510.489950456908,2,31,0.550297200679779,4.200138568878174,30.829032016291286,29.99129380179008,123.05798083369656,109.44227855049388,0.0001295089750783,0.0931148082017898,0,0,0
10257,355318.81025391043,2010-10-19 19:55:02,30.015127723711405,3,31,0.0,4.1111016273498535,30.829032016291286,29.99129380179008,123.05798083369656,109.44227855049388,-0.0004532813909463,0.0931148082017898,0,0,0
10258,355348.8254141001,2010-10-19 19:55:32,60.03028789328789,3,31,0.0,4.099931716918945,30.829032016291286,29.99129380179008,123.05798083369656,109.44227855049388,-0.0002590179501567,0.0931148082017898,0,0,0
10259,355378.8405522297,2010-10-19 19:56:02,90.0454260129091,3,31,0.0,4.093294143676758,30.829032016291286,29.99129380179008,123.05798083369656,109.44227855049388,-0.0001295089750783,0.0931148082017898,0,0,0
10260,355408.8089389705,2010-10-19 19:56:32,120.01381275370925,3,31,0.0,4.088923454284668,30.829032016291286,29.99129380179008,123.05798083369656,109.44227855049388,-9.70840483205393e-05,0.0931148082017898,0,0,0
10261,355408.8126337228,2010-10-19 19:56:32,2.847095839e-06,4,31,1.0097671747207642,4.199814796447754,30.829032017089872,29.99129380179008,123.05798083705044,109.44227855049388,0.0,0.0931148082017898,0,0,0
10262,355409.4376688626,2010-10-19 19:56:32,0.62503807720781,4,31,0.9590160250663756,4.199814796447754,30.829201228073707,29.99129380179008,123.05869148162026,109.44227855049388,0.0,0.0931148082017898,0,0,0
10263,355411.3909422609,2010-10-19 19:56:34,2.578311465498627,4,31,0.908445417881012,4.199653148651123,30.82970662084853,29.99129380179008,123.06081402239889,109.44227855049388,-3.23295607813634e-05,0.0931148082017898,0,0,0
10264,355414.39096352697,2010-10-19 19:56:37,5.578332646364786,4,31,0.8582360148429871,4.199814796447754,30.83044178801878,29.99129380179008,123.06390156385208,109.44227855049388,0.0,0.0931148082017898,0,0,0
10265,355418.6249493223,2010-10-19 19:56:42,9.812318411656744,4,31,0.8080266714096069,4.199814796447754,30.83142047261837,29.99129380179008,123.06801185564356,109.44227855049388,3.23295607813634e-05,0.0931148082017898,0,0,0
10266,355424.0935910151,2010-10-19 19:56:47,15.280960099401586,4,31,0.7579978704452515,4.199653148651123,30.83260826398491,29.99129380179008,123.07300033897566,109.44227855049388,-6.47544875391759e-05,0.0931148082017898,0,0,0
10267,355431.2028567227,2010-10-19 19:56:54,22.39022581202381,4,31,0.7076079249382019,4.199814796447754,30.834053604225343,29.99129380179008,123.0790705058534,109.44227855049388,0.0,0.0931148082017898,0,0,0
10268,355440.6090878048,2010-10-19 19:57:04,31.796456924180266,4,31,0.6575791239738464,4.199814796447754,30.835834426393824,29.99129380179008,123.08654963400804,109.44227855049388,0.0,0.0931148082017898,0,0,0
10269,355453.4369164759,2010-10-19 19:57:16,44.62428558021531,4,31,0.6075503826141357,4.199653148651123,30.83808360595341,29.99129380179008,123.0959957863837,109.44227855049388,-6.47544875391759e-05,0.0931148082017898,0,0,0
10270,355472.57721592643,2010-10-19 19:57:36,63.76458506084395,4,31,0.5575215816497803,4.199653148651123,30.84117155488279,29.99129380179008,123.10896461218776,109.44227855049388,-3.23295607813634e-05,0.0931148082017898,0,0,0
10271,355504.248574903,2010-10-19 19:58:07,95.4359440173972,4,31,0.5074928402900696,4.199814796447754,30.845838717944336,29.99129380179008,123.1285658386558,109.44227855049388,0.0,0.0931148082017898,0,0,0
10272,355563.13826905075,2010-10-19 19:59:06,154.32563816511922,4,31,0.4574640691280365,4.199653148651123,30.853696021695928,29.99129380179008,123.1615650625206,109.44227855049388,-6.47544875391759e-05,0.0931148082017898,0,0,0
10273,355659.9648525496,2010-10-19 20:00:43,251.15222166900585,4,31,0.4074352979660034,4.199653148651123,30.86529875970572,29.99129380179008,123.21029444892724,109.44227855049388,0.0,0.0931148082017898,0,0,0
10274,355787.1035809053,2010-10-19 20:02:50,378.2909500347018,4,31,0.3572258949279785,4.199653148651123,30.87878484541872,29.99129380179008,123.26693338909888,109.44227855049388,-3.23295607813634e-05,0.0931148082017898,0,0,0
10275,355942.21035080607,2010-10-19 20:05:25,533.3977199154045,4,31,0.3071971237659454,4.199814796447754,30.893078607108382,29.99129380179008,123.32696416806736,109.44227855049388,0.0,0.0931148082017898,0,0,0
10276,356125.8637456748,2010-10-19 20:08:29,717.0511147941793,4,31,0.2571683526039123,4.199653148651123,30.907459079085232,29.99129380179008,123.38735905882652,109.44227855049388,-3.23295607813634e-05,0.0931148082017898,0,0,0
10277,356353.5321213788,2010-10-19 20:12:17,944.7194904781918,4,31,0.2071395963430404,4.199653148651123,30.9221196669467,29.99129380179008,123.44893036980343,109.44227855049388,-3.23295607813634e-05,0.0931148082017898,0,0,0
10278,356644.4805727272,2010-10-19 20:17:08,1235.6679418415897,4,31,0.1571108251810073,4.199653148651123,30.936775798281545,29.99129380179008,123.5104830032428,109.44227855049388,0.0,0.0931148082017898,0,0,0
10279,357050.9117544628,2010-10-19 20:23:54,1642.099123547148,4,31,0.1070820614695549,4.199814796447754,30.95154956597464,29.99129380179008,123.57252966942472,109.44227855049388,-3.24249267578125e-05,0.0931148082017898,0,0,0
10280,357772.54137824016,2010-10-19 20:35:56,2363.7287473645856,4,31,0.0568726807832717,4.199653148651123,30.96746292646228,29.99129380179008,123.63936225719902,109.44227855049388,-3.23295607813634e-05,0.0931148082017898,0,0,0
10281,357931.6482138254,2010-10-19 20:38:35,2522.835582914726,4,31,0.0498289167881011,4.199653148651123,30.969838027548704,29.99129380179008,123.64933716250871,109.44227855049388,-6.47544875391759e-05,0.0931148082017898,0,0,0
10282,357961.6598967321,2010-10-19 20:39:05,30.01536010287177,5,31,0.0,4.191720962524414,30.969838027548704,29.99129380179008,123.64933716250871,109.44227855049388,-3.23295607813634e-05,0.0931148082017898,0,0,0
10283,357991.6594854027,2010-10-19 20:39:35,60.01494874841914,5,31,0.0,4.190263748168945,30.969838027548704,29.99129380179008,123.64933716250871,109.44227855049388,-6.47544875391759e-05,0.0931148082017898,0,0,0
10284,357991.84410093667,2010-10-19 20:39:35,0.187608523165428,6,31,-1.9243103452026844e-05,4.190425872802734,30.969838027548704,29.991293802792907,123.64933716250871,109.44227855469612,0.0,0.0955438911914825,0,0,0
10285,357996.67202479846,2010-10-19 20:39:40,5.015532379931522,6,31,0.0008838032954372,4.190263748168945,30.969838977453364,29.9912938029592,123.64934114313364,109.44227855539296,-9.71794142969884e-05,0.0955438911914825,0,0,0
10286,358026.6998678256,2010-10-19 20:40:10,30.014901399642184,7,31,-1.099568486213684,4.010408878326416,30.969838977453364,30.000461747923243,123.64934114313364,109.4792491000974,-0.001003646873869,0.0955438911914825,0,0,0
10287,358056.715040351,2010-10-19 20:40:40,60.03007390496314,7,31,-1.0993878841400146,3.9827263355255127,30.969838977453364,30.00962979592417,123.64934114313364,109.5158807813768,-0.0005504131549969,0.0955438911914825,0,0,0
10288,358086.73021585384,2010-10-19 20:41:10,90.04524941777969,7,31,-1.0993878841400146,3.963299989700317,30.969838977453364,30.01879773218732,123.64934114313364,109.5523000746412,-0.0004532813909463,0.0955438911914825,0,0,0
10289,358116.74536519137,2010-10-19 20:41:40,120.06039873530956,7,31,-1.0993878841400146,3.948568344116211,30.969838977453364,30.02796569197193,123.64934114313364,109.5885650183106,-0.0003561496851034,0.0955438911914825,0,0,0
10290,358146.76054461894,2010-10-19 20:42:10,150.07557819295783,7,31,-1.099568486213684,3.936103105545044,30.969838977453364,30.037133633708105,123.64934114313364,109.62470577801794,-0.0002913951757363,0.0955438911914825,0,0,0
10291,358176.7757080767,2010-10-19 20:42:40,180.090741645717,7,31,-1.099568486213684,3.925256729125977,30.969838977453364,30.0463015608507,123.64934114313364,109.66074063002372,-0.0002913951757363,0.0955438911914825,0,0,0
10292,358206.7908702613,2010-10-19 20:43:10,210.10590382530307,7,31,-1.0997490882873535,3.915381669998169,30.969838977453364,30.05546950459339,123.64934114313364,109.6966806356018,-0.0002266406954731,0.0955438911914825,0,0,0
10293,358236.80605481163,2010-10-19 20:43:40,240.1210883856689,7,31,-1.099568486213684,3.90583062171936,30.969838977453364,30.064637457381476,123.64934114313364,109.73253212163266,-0.0002590179501567,0.0955438911914825,0,0,0
10294,358266.8211834326,2010-10-19 20:44:10,270.13621700661645,7,31,-1.099568486213684,3.896926879882813,30.969838977453364,30.073805292916223,123.64934114313364,109.76829921852644,-0.0002266406954731,0.0955438911914825,0,0,0
10295,358296.8363634817,2010-10-19 20:44:40,300.15139707578885,7,31,-1.099568486213684,3.888346910476685,30.969838977453364,30.082973123939105,123.64934114313364,109.8039862486766,-0.0002266406954731,0.0955438911914825,0,0,0
10296,358326.85163523443,2010-10-19 20:45:10,330.16666878836486,7,31,-1.099568486213684,3.880090713500977,30.969838977453364,30.092141088875035,123.64934114313364,109.83959641428544,-0.0001942634553415,0.0955438911914825,0,0,0
10297,358356.8666781116,2010-10-19 20:45:40,360.1817116856627,7,31,-1.0993878841400146,3.8719964027404794,30.969838977453364,30.10130897259952,123.64934114313364,109.87513108265188,-0.0002266406954731,0.0955438911914825,0,0,0
10298,358386.88196965365,2010-10-19 20:46:10,390.1970032076098,7,31,-1.099568486213684,3.863902091979981,30.969838977453364,30.110476880221423,123.64934114313364,109.91059207851788,-0.0002266406954731,0.0955438911914825,0,0,0
10299,358416.89704060584,2010-10-19 20:46:40,420.2120741698541,7,31,-1.0997490882873535,3.855969667434693,30.969838977453364,30.119644740533023,123.64934114313364,109.94598025103863,-0.0002590179501567,0.0955438911914825,0,0,0
10300,358446.91232942103,2010-10-19 20:47:10,450.2273629850551,7,31,-1.099568486213684,3.848361015319824,30.969838977453364,30.12881262255994,123.64934114313364,109.98129702474728,-0.0001942634553415,0.0955438911914825,0,0,0
10301,358476.92729957204,2010-10-19 20:47:40,480.24233316612174,7,31,-1.0997490882873535,3.840914249420166,30.969838977453364,30.13798047410805,123.64934114313364,110.01654341838584,-0.0001295089750783,0.0955438911914825,0,0,0
10302,358506.9425322473,2010-10-19 20:48:10,510.2575658163423,7,31,-1.0997490882873535,3.833305597305298,30.969838977453364,30.147149243266647,123.64934114313364,110.05172416845996,-0.0001942634553415,0.0955438911914825,0,0,0
10303,358536.9580280133,2010-10-19 20:48:40,540.2730616725532,7,31,-1.099929690361023,3.8258590698242183,30.969838977453364,30.15631799415345,123.64934114313364,110.08683699288636,-0.0002266406954731,0.0955438911914825,0,0,0
10304,358566.9728517343,2010-10-19 20:49:10,570.287885268284,7,31,-1.099568486213684,3.818736076354981,30.969838977453364,30.165486523566138,123.64934114313364,110.12188227479848,-0.0001942634553415,0.0955438911914825,0,0,0
10305,358596.9881125698,2010-10-19 20:49:40,600.3031462390882,7,31,-1.0997490882873535,3.811613082885742,30.969838977453364,30.17465520754671,123.64934114313364,110.15686297335938,-0.0001942634553415,0.0955438911914825,0,0,0
10306,358627.0031981185,2010-10-19 20:50:10,630.3182316824239,7,31,-1.099568486213684,3.804813861846924,30.969838977453364,30.183823017985432,123.64934114313364,110.19177579550248,-0.0001618862152099,0.0955438911914825,0,0,0
10307,358657.01837791194,2010-10-19 20:50:40,660.3334114558592,7,31,-1.099568486213684,3.797852754592896,30.969838977453364,30.19299088360767,123.64934114313364,110.22662595313344,-0.0001942634553415,0.0955438911914825,0,0,0
10308,358687.03367722826,2010-10-19 20:51:10,690.3487108023072,7,31,-1.099568486213684,3.791215419769287,30.969838977453364,30.20215885620001,123.64934114313364,110.26141414270694,-0.0001618862152099,0.0955438911914825,0,0,0
10309,358717.0487354438,2010-10-19 20:51:40,720.3637690177827,7,31,-1.099568486213684,3.7847399711608887,30.969838977453364,30.211326712003125,123.64934114313364,110.296141017925,-0.0001618862152099,0.0955438911914825,0,0,0
10310,358747.063851734,2010-10-19 20:52:10,750.378885292961,7,31,-1.099568486213684,3.77826452255249,30.969838977453364,30.22049458527764,123.64934114313364,110.33080801314972,-0.0001618862152099,0.0955438911914825,0,0,0
10311,358777.0790292969,2010-10-19 20:52:40,780.394062855887,7,31,-1.0993878841400146,3.7719509601593018,30.969838977453364,30.22966238982159,123.64934114313364,110.36541630178752,-0.0001618862152099,0.0955438911914825,0,0,0
10312,358807.0941846796,2010-10-19 20:53:10,810.409218218483,7,31,-1.099568486213684,3.7654755115509033,30.969838977453364,30.23883017289239,123.64934114313364,110.39996712059934,-0.0001942634553415,0.0955438911914825,0,0,0
10313,358837.10935625754,2010-10-19 20:53:41,840.4243898265677,7,31,-1.0993878841400146,3.7598094940185542,30.969838977453364,30.247998007300342,123.64934114313364,110.43446189107922,-9.713172767078504e-05,0.0955438911914825,0,0,0
10314,358867.1245664167,2010-10-19 20:54:11,870.4395999706961,7,31,-1.0997490882873535,3.753495931625366,30.969838977453364,30.257165907882893,123.64934114313364,110.46890179961515,-0.0001942634553415,0.0955438911914825,0,0,0
10315,358897.13983364817,2010-10-19 20:54:41,900.4548672021036,7,31,-1.099568486213684,3.7478301525115967,30.969838977453364,30.266333858547576,123.64934114313364,110.50328799086864,-0.0001618862152099,0.0955438911914825,0,0,0
10316,358927.1548801293,2010-10-19 20:55:11,930.4699136933588,7,31,-1.099568486213684,3.742002248764038,30.969838977453364,30.27550172413244,123.64934114313364,110.53762109945195,-0.0001618862152099,0.0955438911914825,0,0,0
10317,358957.1700372915,2010-10-19 20:55:41,960.4850708353896,7,31,-1.099568486213684,3.7363362312316895,30.969838977453364,30.2846696181878,123.64934114313364,110.57190207910628,-0.0001618862152099,0.0955438911914825,0,0,0
10318,358987.1852084384,2010-10-19 20:56:11,990.5002419773128,7,31,-1.099568486213684,3.7309939861297607,30.969838977453364,30.29383753656801,123.64934114313364,110.6061317212817,-0.0001295089750783,0.0955438911914825,0,0,0
10319,359017.2003917456,2010-10-19 20:56:41,1020.5154253196428,7,31,-1.099568486213684,3.725327968597412,30.969838977453364,30.30300543721505,123.64934114313364,110.6403109773665,-0.0001618862152099,0.0955438911914825,0,0,0
10320,359047.215673809,2010-10-19 20:57:11,1050.5307073930412,7,31,-1.0993878841400146,3.7199857234954834,30.969838977453364,30.312173382202065,123.64934114313364,110.67444119199205,-0.0001942634553415,0.0955438911914825,0,0,0
10321,359077.2307109018,2010-10-19 20:57:41,1080.5457444858723,7,31,-1.099568486213684,3.7148053646087646,30.969838977453364,30.32134126514753,123.64934114313364,110.70852214202952,-0.0001618862152099,0.0955438911914825,0,0,0
10322,359107.2460379623,2010-10-19 20:58:11,1110.5610715163175,7,31,-1.0997490882873535,3.709786891937256,30.969838977453364,30.330509272561603,123.64934114313364,110.74255558257036,-9.713172767078504e-05,0.0955438911914825,0,0,0
10323,359137.2610774411,2010-10-19 20:58:41,1140.5761110051203,7,31,-1.0993878841400146,3.704768419265747,30.969838977453364,30.33967715420942,123.64934114313364,110.77654143150129,-9.713172767078504e-05,0.0955438911914825,0,0,0
10324,359167.27636345936,2010-10-19 20:59:11,1170.591397038388,7,31,-1.099568486213684,3.6994261741638175,30.969838977453364,30.34884515200728,123.64934114313364,110.81048121367124,-0.0001295089750783,0.0955438911914825,0,0,0
10325,359197.2913750035,2010-10-19 20:59:41,1200.6064085474568,7,31,-1.0993878841400146,3.69456958770752,30.969838977453364,30.358013086069832,123.64934114313364,110.84437476681212,-0.0001295089750783,0.0955438911914825,0,0,0
10326,359227.3065562255,2010-10-19 21:00:11,1230.6215898196274,7,31,-1.0997490882873535,3.6895511150360103,30.969838977453364,30.36718107089158,123.64934114313364,110.87822321799312,-0.0001295089750783,0.0955438911914825,0,0,0
10327,359257.32172443013,2010-10-19 21:00:41,1260.6367579791172,7,31,-1.0997490882873535,3.684694528579712,30.969838977453364,30.37634898299359,123.64934114313364,110.91202681172652,-0.0001295089750783,0.0955438911914825,0,0,0
10328,359287.33688399324,2010-10-19 21:01:11,1290.6519175672445,7,31,-1.0997490882873535,3.679999828338623,30.969838977453364,30.385516933280567,123.64934114313364,110.9457868713876,-0.0001295089750783,0.0955438911914825,0,0,0
10329,359317.3520526991,2010-10-19 21:01:41,1320.6670862680835,7,31,-1.099568486213684,3.675305128097534,30.969838977453364,30.394684820012905,123.64934114313364,110.9795033659804,-0.0001295089750783,0.0955438911914825,0,0,0
10330,359347.3672470037,2010-10-19 21:02:11,1350.68228060281,7,31,-1.099568486213684,3.6707725524902335,30.969838977453364,30.40385280663581,123.64934114313364,111.0131774446264,-0.0001295089750783,0.0955438911914825,0,0,0
10331,359377.38241851155,2010-10-19 21:02:41,1380.69745208057,7,31,-1.0997490882873535,3.6660778522491455,30.969838977453364,30.413020758212312,123.64934114313364,111.04680964450807,-0.0001295089750783,0.0955438911914825,0,0,0
10332,359407.397582225,2010-10-19 21:03:11,1410.7126157689163,7,31,-1.0993878841400146,3.6618688106536874,30.969838977453364,30.42218869583725,123.64934114313364,111.08040055755968,-6.47544875391759e-05,0.0955438911914825,0,0,0
10333,359437.4127632866,2010-10-19 21:03:41,1440.7277968556248,7,31,-1.099568486213684,3.657335996627808,30.969838977453364,30.431356645039905,123.64934114313364,111.11395066239184,-9.713172767078504e-05,0.0955438911914825,0,0,0
10334,359467.4279227495,2010-10-19 21:04:11,1470.7429562833524,7,31,-1.0997490882873535,3.6529650688171382,30.969838977453364,30.44052457690385,123.64934114313364,111.14746039848508,-9.713172767078504e-05,0.0955438911914825,0,0,0
10335,359497.44338554324,2010-10-19 21:04:41,1500.7584191172614,7,31,-1.099568486213684,3.6485941410064697,30.969838977453364,30.449692610797577,123.64934114313364,111.18093100230492,-0.0001295089750783,0.0955438911914825,0,0,0
10336,359527.4583037598,2010-10-19 21:05:11,1530.7733373237916,7,31,-1.0993878841400146,3.6443850994110103,30.969838977453364,30.45886038146156,123.64934114313364,111.21436107961378,-9.713172767078504e-05,0.0955438911914825,0,0,0
10337,359557.4734604256,2010-10-19 21:05:41,1560.7884942101855,7,31,-1.099568486213684,3.6403379440307617,30.969838977453364,30.46802823294612,123.64934114313364,111.24775285494316,-6.47544875391759e-05,0.0955438911914825,0,0,0
10338,359587.48860987846,2010-10-19 21:06:11,1590.8036434174403,7,31,-1.099568486213684,3.636128902435303,30.969838977453364,30.47719612654781,123.64934114313364,111.2811071777349,-0.0001295089750783,0.0955438911914825,0,0,0
10339,359617.503790068,2010-10-19 21:06:41,1620.8188236119252,7,31,-1.0997490882873535,3.6320817470550537,30.969838977453364,30.486364026768943,123.64934114313364,111.31442455347,-0.0001295089750783,0.0955438911914825,0,0,0
10340,359647.51908790565,2010-10-19 21:07:11,1650.8341215849505,7,31,-1.099568486213684,3.628196477890015,30.969838977453364,30.495531969442467,123.64934114313364,111.34770561739708,-0.0001295089750783,0.0955438911914825,0,0,0
10341,359677.5341214246,2010-10-19 21:07:41,1680.849154998612,7,31,-1.0997490882873535,3.6241493225097656,30.969838977453364,30.50469978988825,123.64934114313364,111.38095079477078,-0.0001295089750783,0.0955438911914825,0,0,0
10342,359707.54929887725,2010-10-19 21:08:11,1710.8643324211882,7,31,-1.0997490882873535,3.620425939559937,30.969838977453364,30.513867638056137,123.64934114313364,111.41416149815348,-0.0001295089750783,0.0955438911914825,0,0,0
10343,359737.5644774477,2010-10-19 21:08:41,1740.8795109916252,7,31,-1.0997490882873535,3.6170263290405273,30.969838977453364,30.523035582265106,123.64934114313364,111.4473386380232,-0.0001295089750783,0.0955438911914825,0,0,0
10344,359767.5797743029,2010-10-19 21:09:11,1770.8948078568894,7,31,-1.099568486213684,3.613464832305908,30.969838977453364,30.532203564900037,123.64934114313364,111.48048308087743,-0.0001295089750783,0.0955438911914825,0,0,0
10345,359797.5948039071,2010-10-19 21:09:41,1800.909837451032,7,31,-1.0997490882873535,3.609903335571289,30.969838977453364,30.541371456274,123.64934114313364,111.51359529778402,-0.0001295089750783,0.0955438911914825,0,0,0
10346,359827.61010438635,2010-10-19 21:10:11,1830.9251379303032,7,31,-1.099568486213684,3.60666561126709,30.969838977453364,30.550539449229632,123.64934114313364,111.54667631022755,-6.47544875391759e-05,0.0955438911914825,0,0,0
10347,359857.6251528476,2010-10-19 21:10:41,1860.940186391468,7,31,-1.099568486213684,3.6032660007476807,30.969838977453364,30.559707328944803,123.64934114313364,111.57972601895877,-0.0001295089750783,0.0955438911914825,0,0,0
10348,359887.64049702574,2010-10-19 21:11:11,1890.9555306999755,7,31,-1.0997490882873535,3.600028276443481,30.969838977453364,30.56887535712752,123.64934114313364,111.61274620289338,-9.713172767078504e-05,0.0955438911914825,0,0,0
10349,359917.6557572797,2010-10-19 21:11:41,1920.9707908537432,7,31,-1.099568486213684,3.5967905521392822,30.969838977453364,30.57804330405851,123.64934114313364,111.6457365027552,-9.713172767078504e-05,0.0955438911914825,0,0,0
10350,359947.6706639776,2010-10-19 21:12:11,1950.9856975165023,7,31,-1.099568486213684,3.593876600265503,30.969838977453364,30.587211166000905,123.64934114313364,111.67869772483186,-6.47544875391759e-05,0.0955438911914825,0,0,0
10351,359977.685868232,2010-10-19 21:12:41,1981.0009018260896,7,31,-1.099568486213684,3.590639114379883,30.969838977453364,30.596379057809955,123.64934114313364,111.71163075134122,-9.713172767078504e-05,0.0955438911914825,0,0,0
10352,360007.7010082815,2010-10-19 21:13:11,2011.016041850458,7,31,-1.099568486213684,3.5875632762908936,30.969838977453364,30.605547007750367,123.64934114313364,111.74453570810574,-9.713172767078504e-05,0.0955438911914825,0,0,0
10353,360037.7161799647,2010-10-19 21:13:41,2041.031213508668,7,31,-1.099568486213684,3.5844874382019043,30.969838977453364,30.614714999285887,123.64934114313364,111.77741296183126,-9.713172767078504e-05,0.0955438911914825,0,0,0
10354,360067.7313686454,2010-10-19 21:14:11,2071.0464022093524,7,31,-1.099568486213684,3.581573486328125,30.969838977453364,30.62388256642337,123.64934114313364,111.81026128647149,-6.47544875391759e-05,0.0955438911914825,0,0,0
10355,360097.7465322635,2010-10-19 21:14:41,2101.061565807474,7,31,-1.0992072820663452,3.5786595344543457,30.969838977453364,30.633049769285595,123.64934114313364,111.8430811317484,-6.47544875391759e-05,0.0955438911914825,0,0,0
10356,360127.7616931749,2010-10-19 21:15:11,2131.0767267138867,7,31,-1.099568486213684,3.5755836963653564,30.969838977453364,30.642217005901426,123.64934114313364,111.87587384605638,-9.713172767078504e-05,0.0955438911914825,0,0,0
10357,360157.7768798155,2010-10-19 21:15:41,2161.0919133895245,7,31,-1.0997490882873535,3.572669744491577,30.969838977453364,30.65138427420747,123.64934114313364,111.90863946973936,-9.713172767078504e-05,0.0955438911914825,0,0,0
10358,360187.79210016003,2010-10-19 21:16:11,2191.1071337541257,7,31,-1.099568486213684,3.569755792617798,30.969838977453364,30.660551904027624,123.64934114313364,111.94137966280095,-9.713172767078504e-05,0.0955438911914825,0,0,0
10359,360217.8072382596,2010-10-19 21:16:41,2221.122271803572,7,31,-1.0997490882873535,3.5666799545288086,30.969838977453364,30.669719768724995,123.64934114313364,111.9740935386895,-9.713172767078504e-05,0.0955438911914825,0,0,0
10360,360247.8223979981,2010-10-19 21:17:11,2251.137431532049,7,31,-1.099568486213684,3.5637660026550293,30.969838977453364,30.67888769293952,123.64934114313364,112.006780356051,-9.713172767078504e-05,0.0955438911914825,0,0,0
10361,360277.8375624183,2010-10-19 21:17:41,2281.1525959622445,7,31,-1.0993878841400146,3.56101393699646,30.969838977453364,30.688055530938385,123.64934114313364,112.0394402360444,-9.713172767078504e-05,0.0955438911914825,0,0,0
10362,360307.8527305076,2010-10-19 21:18:11,2311.1677641718597,7,31,-1.099568486213684,3.5579380989074707,30.969838977453364,30.697223470067996,123.64934114313364,112.07207327269474,-9.713172767078504e-05,0.0955438911914825,0,0,0
10363,360337.86802243046,2010-10-19 21:18:41,2341.1830559995683,7,31,-1.099568486213684,3.554862260818481,30.969838977453364,30.706391448653704,123.64934114313364,112.10467872424304,-9.713172767078504e-05,0.0955438911914825,0,0,0
10364,360367.8832015373,2010-10-19 21:19:11,2371.198235106342,7,31,-1.099568486213684,3.551786422729492,30.969838977453364,30.715559406992035,123.64934114313364,112.13725588877524,-9.713172767078504e-05,0.0955438911914825,0,0,0
10365,360397.8982746349,2010-10-19 21:19:41,2401.213308193883,7,31,-1.099568486213684,3.548548698425293,30.969838977453364,30.724727331770097,123.64934114313364,112.16980457070434,-0.0001295089750783,0.0955438911914825,0,0,0
10366,360427.9135675503,2010-10-19 21:20:11,2431.228601119328,7,31,-1.0997490882873535,3.545472860336304,30.969838977453364,30.733895304491444,123.64934114313364,112.2023243493577,-9.713172767078504e-05,0.0955438911914825,0,0,0
10367,360457.9287962357,2010-10-19 21:20:41,2461.2438299049168,7,31,-1.0997490882873535,3.5422351360321045,30.969838977453364,30.743063225133703,123.64934114313364,112.23481440439478,-9.713172767078504e-05,0.0955438911914825,0,0,0
10368,360487.943886917,2010-10-19 21:21:11,2491.25892047102,7,31,-1.099568486213684,3.5389974117279053,30.969838977453364,30.752231167916108,123.64934114313364,112.26727461618545,-6.47544875391759e-05,0.0955438911914825,0,0,0
10369,360517.9590641341,2010-10-19 21:21:41,2521.274097708134,7,31,-1.0993878841400146,3.535597801208496,30.969838977453364,30.761399156181863,123.64934114313364,112.29970416574533,-9.713172767078504e-05,0.0955438911914825,0,0,0
10370,360547.9741066505,2010-10-19 21:22:11,2551.2891401893958,7,31,-1.0997490882873535,3.531874418258667,30.969838977453364,30.77056711994772,123.64934114313364,112.33210223830189,-9.713172767078504e-05,0.0955438911914825,0,0,0
10371,360577.9893014413,2010-10-19 21:22:41,2581.304335010333,7,31,-1.0997490882873535,3.528312921524048,30.969838977453364,30.779735098172647,123.64934114313364,112.36446804653671,-0.0001295089750783,0.0955438911914825,0,0,0
10372,360608.004596853,2010-10-19 21:23:11,2611.319630432,7,31,-1.0993878841400146,3.5249133110046387,30.969838977453364,30.78890310721914,123.64934114313364,112.39680011102084,-6.47544875391759e-05,0.0955438911914825,0,0,0
10373,360638.0196559406,2010-10-19 21:23:41,2641.334689509624,7,31,-1.099568486213684,3.5208661556243896,30.969838977453364,30.798071062261396,123.64934114313364,112.4290967289357,-6.47544875391759e-05,0.0955438911914825,0,0,0
10374,360668.0348085063,2010-10-19 21:24:11,2671.349842045174,7,31,-1.0997490882873535,3.5166571140289307,30.969838977453364,30.80723898856574,123.64934114313364,112.4613563896762,-9.713172767078504e-05,0.0955438911914825,0,0,0
10375,360698.04998039,2010-10-19 21:24:41,2701.365013938971,7,31,-1.0997490882873535,3.5122861862182617,30.969838977453364,30.81640699763668,123.64934114313364,112.4935774830217,-0.0001295089750783,0.0955438911914825,0,0,0
10376,360728.0652648343,2010-10-19 21:25:11,2731.380298373253,7,31,-1.0997490882873535,3.507591724395752,30.969838977453364,30.825575064381653,123.64934114313364,112.52575779251616,-0.0001618862152099,0.0955438911914825,0,0,0
10377,360758.08031699975,2010-10-19 21:25:42,2761.3953505436625,7,31,-1.0997490882873535,3.502573251724243,30.969838977453364,30.83474312581404,123.64934114313364,112.55789394000226,-0.0001942634553415,0.0955438911914825,0,0,0
10378,360788.09561347903,2010-10-19 21:26:12,2791.410647113189,7,31,-1.0997490882873535,3.4972310066223145,30.969838977453364,30.843911193917748,123.64934114313364,112.58998214487782,-0.0001618862152099,0.0955438911914825,0,0,0
10379,360818.1106813635,2010-10-19 21:26:42,2821.4257149275886,7,31,-1.099568486213684,3.491403102874756,30.969838977453364,30.853079137897485,123.64934114313364,112.6220176049317,-0.0001295089750783,0.0955438911914825,0,0,0
10380,360848.1259661437,2010-10-19 21:27:12,2851.440999697708,7,31,-1.0997490882873535,3.484603881835937,30.969838977453364,30.862247148466302,123.64934114313364,112.65399548237616,-0.0001942634553415,0.0955438911914825,0,0,0
10381,360878.14100454986,2010-10-19 21:27:42,2881.456038088775,7,31,-1.099568486213684,3.4771571159362797,30.969838977453364,30.871415078057957,123.64934114313364,112.68590792218497,-0.0001618862152099,0.0955438911914825,0,0,0
10382,360908.15619041846,2010-10-19 21:28:12,2911.4712239874766,7,31,-1.099568486213684,3.4684152603149414,30.969838977453364,30.880583057480244,123.64934114313364,112.71774629094875,-0.0002590179501567,0.0955438911914825,0,0,0
10383,360938.1713647834,2010-10-19 21:28:42,2941.486398317345,7,31,-1.0993878841400146,3.458378314971924,30.969838977453364,30.88975104852279,123.64934114313364,112.74949909288894,-0.0002590179501567,0.0955438911914825,0,0,0
10384,360968.1865290282,2010-10-19 21:29:12,2971.5015626222275,7,31,-1.0997490882873535,3.4463987350463867,30.969838977453364,30.89891902587626,123.64934114313364,112.7811520627574,-0.0003561496851034,0.0955438911914825,0,0,0
10385,360998.2017020246,2010-10-19 21:29:42,3001.5167355937106,7,31,-1.099568486213684,3.43231463432312,30.969838977453364,30.908087007925715,123.64934114313364,112.81268669194384,-0.0004209041653666,0.0955438911914825,0,0,0
10386,361028.21690670017,2010-10-19 21:30:12,3031.53194028926,7,31,-1.099568486213684,3.4148311614990234,30.969838977453364,30.917255000016905,123.64934114313364,112.84407730137828,-0.0005504131549969,0.0955438911914825,0,0,0
10387,361058.2320655765,2010-10-19 21:30:42,3061.547099165613,7,31,-1.0997490882873535,3.392328977584839,30.969838977453364,30.926423421460782,123.64934114313364,112.87528728194064,-0.0006475448608398,0.0955438911914825,0,0,0
10388,361088.2472302974,2010-10-19 21:31:12,3091.562263851445,7,31,-1.0997490882873535,3.362056255340576,30.969838977453364,30.93559220173873,123.64934114313364,112.90625936823652,-0.0008741855854168,0.0955438911914825,0,0,0
10389,361118.2624176046,2010-10-19 21:31:42,3121.5774511787067,7,31,-1.099568486213684,3.3202898502349854,30.969838977453364,30.94476059417437,123.64934114313364,112.93690296000412,-0.0012303352123126,0.0955438911914825,0,0,0
10390,361148.2775918494,2010-10-19 21:32:12,3151.592625393288,7,31,-1.099568486213684,3.259906530380249,30.969838977453364,30.95392860686432,123.64934114313364,112.96708314781708,-0.0018778800731524,0.0955438911914825,0,0,0
10391,361178.2927725552,2010-10-19 21:32:42,3181.607806099047,7,31,-1.099568486213684,3.171516895294189,30.969838977453364,30.963096581909262,123.64934114313364,112.99659320419995,-0.0027844428550451,0.0955438911914825,0,0,0
10392,361208.30795705534,2010-10-19 21:33:12,3211.622990619313,7,31,-1.0997490882873535,3.0298666954040527,30.969838977453364,30.97226462445061,123.64934114313364,113.02508013055731,-0.0048242090269923,0.0955438911914825,0,0,0
10393,361229.97948506125,2010-10-19 21:33:33,3233.2945186352918,7,31,-1.099568486213684,2.8296141624450684,30.969838977453364,30.97888407326693,123.64934114313364,113.0445544645164,-0.0097778793424367,0.0955438911914825,0,0,0
10394,361239.0105860237,2010-10-19 21:33:42,3242.3256195676145,7,31,-1.099568486213684,2.699781894683838,30.969838977453364,30.981642580021905,123.64934114313364,113.0521863404386,-0.0120442863553762,0.0955438911914825,0,0,0
10395,361299.04052827467,2010-10-19 21:34:43,60.01474904569852,8,31,0.0,3.3369641304016118,30.969838977453364,30.981642580021905,123.64934114313364,113.0521863404386,0.0013598442310467,0.0955438911914825,0,0,0
10396,361299.22858938784,2010-10-19 21:34:43,0.187634287377772,9,31,-1.9243103452026844e-05,3.3371260166168213,30.969838981157203,30.981642580021905,123.6493411554938,113.0521863404386,0.0,0.0900387018918991,0,0,0
10397,361304.05652063806,2010-10-19 21:34:48,5.015565532558068,9,31,0.0007031940040178,3.3453822135925293,30.96983989777826,30.981642580271807,123.64934421874486,113.05218634127274,0.0011979580158367,0.0900387018918991,0,0,0
