Data_Point,Test_Time(s),Date_Time,Step_Time(s),Step_Index,Cycle_Index,Current(A),Voltage(V),Charge_Capacity(Ah),Discharge_Capacity(Ah),Charge_Energy(Wh),Discharge_Energy(Wh),dV/dt(V/s),Internal_Resistance(Ohm),Is_FC_Data,AC_Impedance(Ohm),ACI_Phase_Angle(Deg)
11064,384507.0328077969,2010-10-20 04:01:33,30.015173813581544,1,34,0.0,3.3690173625946045,32.95357987170608,32.96902270379409,131.57047702832696,120.30603462208344,0.0008418083307333,0.0908498615026474,0,0,0
11065,384537.0480064825,2010-10-20 04:02:03,60.03037250416423,1,34,0.0,3.3944334983825684,32.95357987170608,32.96902270379409,131.57047702832696,120.30603462208344,0.0005827903514727,0.0908498615026474,0,0,0
11066,384567.0631932333,2010-10-20 04:02:33,90.04555924997686,1,34,0.0,3.4140217304229736,32.95357987170608,32.96902270379409,131.57047702832696,120.30603462208344,0.0004532813909463,0.0908498615026474,0,0,0
11067,384597.0314983557,2010-10-20 04:03:03,120.01386436734632,1,34,0.0,3.42956280708313,32.95357987170608,32.96902270379409,131.57047702832696,120.30603462208344,0.0003561496851034,0.0908498615026474,0,0,0
11068,384627.04602207255,2010-10-20 04:03:33,30.014715857213364,2,34,0.5499359965324402,3.586106300354004,32.95816640538762,32.96902270379409,131.5867562814937,120.30603462208344,0.0016188621520996,0.0908498615026474,0,0,0
11069,384657.06130624615,2010-10-20 04:04:03,60.03000004588358,2,34,0.5501165986061096,3.6359670162200928,32.962752945179034,32.96902270379409,131.60332642738533,120.30603462208344,0.0010684489971026,0.0908498615026474,0,0,0
11070,384687.07643242105,2010-10-20 04:04:33,90.0451262608347,2,34,0.5501165986061096,3.672391414642334,32.967339436202394,32.96902270379409,131.6200907114981,120.30603462208344,0.0008741855854168,0.0908498615026474,0,0,0
11071,384717.09154955833,2010-10-20 04:05:03,120.06024334803664,2,34,0.5499359965324402,3.700559377670288,32.971925888730055,32.96902270379409,131.6370011919509,120.30603462208344,0.0006799221155233,0.0908498615026474,0,0,0
11072,384747.1067288154,2010-10-20 04:05:33,150.0754226302477,2,34,0.550297200679779,3.7238709926605225,32.97651232558768,32.96902270379409,131.65402866894152,120.30603462208344,0.0006151676061563,0.0908498615026474,0,0,0
11073,384777.1218913058,2010-10-20 04:06:03,180.09058509554583,2,34,0.5499359965324402,3.742649793624878,32.98109879953767,32.96902270379409,131.67115219300968,120.30603462208344,0.0004532813909463,0.0908498615026474,0,0,0
11074,384807.13708197646,2010-10-20 04:06:34,210.10577576112777,2,34,0.5499359965324402,3.7575430870056152,32.98568524888247,32.96902270379409,131.68835403691142,120.30603462208344,0.0003237724304199,0.0908498615026474,0,0,0
11075,384837.1522611184,2010-10-20 04:07:04,240.1209548979765,2,34,0.5501165986061096,3.767580032348633,32.99027168872149,32.96902270379409,131.70561344716535,120.30603462208344,0.0001942634553415,0.0908498615026474,0,0,0
11076,384867.1674835381,2010-10-20 04:07:34,270.1361773728369,2,34,0.5499359965324402,3.773569822311402,32.99485814555028,32.96902270379409,131.72290837688644,120.30603462208344,9.713172767078504e-05,0.0908498615026474,0,0,0
11077,384897.18262692576,2010-10-20 04:08:04,300.1513207355255,2,34,0.5501165986061096,3.777778863906861,32.999444606274274,32.96902270379409,131.7402260407346,120.30603462208344,6.47544875391759e-05,0.0908498615026474,0,0,0
11078,384927.1977940426,2010-10-20 04:08:34,330.16648785742933,2,34,0.5501165986061096,3.7816641330718994,33.00403106533753,32.96902270379409,131.7575620024279,120.30603462208344,6.47544875391759e-05,0.0908498615026474,0,0,0
11079,384957.21298941,2010-10-20 04:09:04,360.18168319465434,2,34,0.5499359965324402,3.785225629806519,33.00861751155605,32.96902270379409,131.7749151570837,120.30603462208344,3.237724376958795e-05,0.0908498615026474,0,0,0
11080,384987.2282041606,2010-10-20 04:09:34,390.19689798536353,2,34,0.5499359965324402,3.788949012756348,33.013203998939616,32.96902270379409,131.79228529418958,120.30603462208344,3.237724376958795e-05,0.0908498615026474,0,0,0
11081,385017.24333514745,2010-10-20 04:10:04,420.2120289321078,2,34,0.5501165986061096,3.7926723957061768,33.0177904830955,32.96902270379409,131.80967206355436,120.30603462208344,9.713172767078504e-05,0.0908498615026474,0,0,0
11082,385047.258528605,2010-10-20 04:10:34,450.2272224147106,2,34,0.5501165986061096,3.796233892440796,33.02237689582339,32.96902270379409,131.8270748376112,120.30603462208344,9.713172767078504e-05,0.0908498615026474,0,0,0
11083,385077.2738309088,2010-10-20 04:11:04,480.24252470850433,2,34,0.5501165986061096,3.799633502960205,33.026963303302864,32.96902270379409,131.84449340927517,120.30603462208344,9.713172767078504e-05,0.0908498615026474,0,0,0
11084,385107.2888636408,2010-10-20 04:11:34,510.2575575106419,2,34,0.5499359965324402,3.8030331134796143,33.03154967838869,32.96902270379409,131.86192750813814,120.30603462208344,9.713172767078504e-05,0.0908498615026474,0,0,0
11085,385137.3040278053,2010-10-20 04:12:04,540.2727216150251,2,34,0.5501165986061096,3.8062708377838135,33.036136082922155,32.96902270379409,131.87937705120217,120.30603462208344,6.47544875391759e-05,0.0908498615026474,0,0,0
11086,385167.3191901302,2010-10-20 04:12:34,570.2878839499984,2,34,0.5501165986061096,3.809670448303223,33.04072249638662,32.96902270379409,131.89684186378437,120.30603462208344,6.47544875391759e-05,0.0908498615026474,0,0,0
11087,385197.3345270653,2010-10-20 04:13:04,600.3032208600666,2,34,0.550297200679779,3.813070058822632,33.04530899487681,32.96902270379409,131.91432199769338,120.30603462208344,0.0001295089750783,0.0908498615026474,0,0,0
11088,385227.3495446145,2010-10-20 04:13:34,630.318238409189,2,34,0.550297200679779,3.816145896911621,33.04989538533403,32.96902270379409,131.93181686505466,120.30603462208344,9.713172767078504e-05,0.0908498615026474,0,0,0
11089,385257.36470526026,2010-10-20 04:14:04,660.3333990800148,2,34,0.5501165986061096,3.8195455074310303,33.054481786373834,32.96902270379409,131.94932648312147,120.30603462208344,0.0001295089750783,0.0908498615026474,0,0,0
11090,385287.37989439705,2010-10-20 04:14:34,690.3485882167865,2,34,0.5501165986061096,3.82262134552002,33.0590682217953,32.96902270379409,131.96685102793134,120.30603462208344,6.47544875391759e-05,0.0908498615026474,0,0,0
11091,385317.39505000017,2010-10-20 04:15:04,720.3637439051945,2,34,0.5499359965324402,3.825697183609009,33.06365453314713,32.96902270379409,131.98438996298657,120.30603462208344,6.47544875391759e-05,0.0908498615026474,0,0,0
11092,385347.4102207813,2010-10-20 04:15:34,750.3789145709308,2,34,0.550297200679779,3.829096794128418,33.06824091705984,32.96902270379409,132.0019442861345,120.30603462208344,9.713172767078504e-05,0.0908498615026474,0,0,0
11093,385377.42535607377,2010-10-20 04:16:04,780.3940498635059,2,34,0.5499359965324402,3.832496404647827,33.072827320826875,32.96902270379409,132.01951410111226,120.30603462208344,6.47544875391759e-05,0.0908498615026474,0,0,0
11094,385407.4406537862,2010-10-20 04:16:34,810.4093476159812,2,34,0.5499359965324402,3.835895776748657,33.077413707929615,32.96902270379409,132.03709940386508,120.30603462208344,9.713172767078504e-05,0.0908498615026474,0,0,0
11095,385437.455734588,2010-10-20 04:17:04,840.424428377649,2,34,0.5497553944587708,3.8392953872680655,33.082000028002184,32.96902270379409,132.05470041573383,120.30603462208344,6.47544875391759e-05,0.0908498615026474,0,0,0
11096,385467.471235592,2010-10-20 04:17:34,870.4399294969771,2,34,0.5499359965324402,3.8428568840026855,33.0865865101192,32.96902270379409,132.07231813144352,120.30603462208344,6.47544875391759e-05,0.0908498615026474,0,0,0
11097,385497.47328131634,2010-10-20 04:18:04,900.441975231346,2,34,0.5499359965324402,3.846256494522095,33.09117098557229,32.96902270379409,132.08994399720893,120.30603462208344,3.237724376958795e-05,0.0908498615026474,0,0,0
11098,385527.4856356479,2010-10-20 04:18:34,930.4543294375984,2,34,0.5501165986061096,3.849817991256714,33.09575701774261,32.96902270379409,132.10759171836855,120.30603462208344,6.47544875391759e-05,0.0908498615026474,0,0,0
11099,385557.50077277,2010-10-20 04:19:04,960.4694665998336,2,34,0.5501165986061096,3.853379487991333,33.10034348277832,32.96902270379409,132.12525671899962,120.30603462208344,9.713172767078504e-05,0.0908498615026474,0,0,0
11100,385587.51593787695,2010-10-20 04:19:34,990.4846316666152,2,34,0.5501165986061096,3.856455326080322,33.10492990823801,32.96902270379409,132.14293680853228,120.30603462208344,6.47544875391759e-05,0.0908498615026474,0,0,0
11101,385617.5311112895,2010-10-20 04:20:04,1020.4998050791974,2,34,0.5501165986061096,3.859854936599731,33.109516305219465,32.96902270379409,132.1606318854411,120.30603462208344,9.713172767078504e-05,0.0908498615026474,0,0,0
11102,385647.5464071923,2010-10-20 04:20:34,1050.5151010121378,2,34,0.5499359965324402,3.8629307746887207,33.11410279202956,32.96902270379409,132.17834196292665,120.30603462208344,9.713172767078504e-05,0.0908498615026474,0,0,0
11103,385677.5614382301,2010-10-20 04:21:04,1080.5301321451154,2,34,0.5499359965324402,3.86600661277771,33.11868919166194,32.96902270379409,132.19606597198774,120.30603462208344,9.713172767078504e-05,0.0908498615026474,0,0,0
11104,385707.5766296877,2010-10-20 04:21:34,1110.5453234974093,2,34,0.550297200679779,3.869082450866699,33.12327563075076,32.96902270379409,132.21380407712493,120.30603462208344,9.713172767078504e-05,0.0908498615026474,0,0,0
11105,385737.5917730253,2010-10-20 04:22:04,1140.56046682501,2,34,0.5501165986061096,3.871834516525269,33.12786209246886,32.96902270379409,132.23155569324638,120.30603462208344,6.47544875391759e-05,0.0908498615026474,0,0,0
11106,385767.6069145534,2010-10-20 04:22:34,1170.5756083681638,2,34,0.5499359965324402,3.874586582183838,33.1324486194717,32.96902270379409,132.24932042821013,120.30603462208344,6.47544875391759e-05,0.0908498615026474,0,0,0
11107,385797.6220777405,2010-10-20 04:23:04,1200.5907715502483,2,34,0.5501165986061096,3.8773386478424072,33.13703505617998,32.96902270379409,132.2670970616154,120.30603462208344,6.47544875391759e-05,0.0908498615026474,0,0,0
11108,385827.63735919737,2010-10-20 04:23:34,1230.6060529920726,2,34,0.5501165986061096,3.8794431686401367,33.1416215225451,32.96902270379409,132.28488549338928,120.30603462208344,3.237724376958795e-05,0.0908498615026474,0,0,0
11109,385857.65242300177,2010-10-20 04:24:04,1260.6211167964775,2,34,0.550297200679779,3.882033348083496,33.14620793041338,32.96902270379409,132.30268471228425,120.30603462208344,3.237724376958795e-05,0.0908498615026474,0,0,0
11110,385887.6677146792,2010-10-20 04:24:34,1290.6364084788245,2,34,0.5499359965324402,3.884299755096436,33.15079452233734,32.96902270379409,132.32049511048226,120.30603462208344,6.47544875391759e-05,0.0908498615026474,0,0,0
11111,385917.6829859105,2010-10-20 04:25:04,1320.6516797001757,2,34,0.5499359965324402,3.886242389678955,33.15538100635884,32.96902270379409,132.33831470437605,120.30603462208344,6.47544875391759e-05,0.0908498615026474,0,0,0
11112,385947.698002843,2010-10-20 04:25:34,1350.6666966728617,2,34,0.5501165986061096,3.888346910476685,33.15996741923372,32.96902270379409,132.3561431369296,120.30603462208344,6.47544875391759e-05,0.0908498615026474,0,0,0
11113,385977.7130470888,2010-10-20 04:26:04,1380.681740883433,2,34,0.5499359965324402,3.889803886413574,33.1645538174771,32.96902270379409,132.37397996288396,120.30603462208344,0.0,0.0908498615026474,0,0,0
11114,386007.72819181485,2010-10-20 04:26:34,1410.6968856095193,2,34,0.550297200679779,3.891584634780884,33.16914032840983,32.96902270379409,132.39182520955205,120.30603462208344,3.237724376958795e-05,0.0908498615026474,0,0,0
11115,386037.7433467113,2010-10-20 04:27:04,1440.7120405009407,2,34,0.5499359965324402,3.893203496932984,33.17372681505857,32.96902270379409,132.40967773127645,120.30603462208344,3.237724376958795e-05,0.0908498615026474,0,0,0
11116,386067.7585606548,2010-10-20 04:27:34,1470.727254499676,2,34,0.5501165986061096,3.894660472869873,33.178313323921124,32.96902270379409,132.4275373480183,120.30603462208344,6.47544875391759e-05,0.0908498615026474,0,0,0
11117,386097.77370609273,2010-10-20 04:28:04,1500.7423999124742,2,34,0.5499359965324402,3.8959555625915527,33.18289985507328,32.96902270379409,132.44540311649374,120.30603462208344,0.0,0.0908498615026474,0,0,0
11118,386127.7889543418,2010-10-20 04:28:34,1530.7576481665842,2,34,0.5501165986061096,3.8974125385284415,33.18748630156514,32.96902270379409,132.4632750528269,120.30603462208344,3.237724376958795e-05,0.0908498615026474,0,0,0
11119,386157.8039794648,2010-10-20 04:29:04,1560.7726732595083,2,34,0.5499359965324402,3.898707628250122,33.19207269020197,32.96902270379409,132.4811529258112,120.30603462208344,0.0,0.0908498615026474,0,0,0
11120,386187.8191521406,2010-10-20 04:29:34,1590.7878459502915,2,34,0.550297200679779,3.900164604187012,33.19665916681596,32.96902270379409,132.49903725331268,120.30603462208344,9.713172767078504e-05,0.0908498615026474,0,0,0
11121,386217.83431684144,2010-10-20 04:30:04,1620.8030106311114,2,34,0.5501165986061096,3.901135921478272,33.20124559669604,32.96902270379409,132.51692725222253,120.30603462208344,0.0,0.0908498615026474,0,0,0
11122,386247.84946981806,2010-10-20 04:30:34,1650.8181636027484,2,34,0.5497553944587708,3.902592897415161,33.20583204238939,32.96902270379409,132.53482329306402,120.30603462208344,3.237724376958795e-05,0.0908498615026474,0,0,0
11123,386277.8646609247,2010-10-20 04:31:04,1680.8333547395046,2,34,0.5501165986061096,3.903887987136841,33.210418428613,32.96902270379409,132.55272500787973,120.30603462208344,3.237724376958795e-05,0.0908498615026474,0,0,0
11124,386307.87978260336,2010-10-20 04:31:34,1710.848476428175,2,34,0.5499359965324402,3.905021190643311,33.215004908403934,32.96902270379409,132.57063305122554,120.30603462208344,0.0,0.0908498615026474,0,0,0
11125,386337.894947164,2010-10-20 04:32:04,1740.8636409536075,2,34,0.5501165986061096,3.9064781665802,33.21959130301742,32.96902270379409,132.58854652979298,120.30603462208344,3.237724376958795e-05,0.0908498615026474,0,0,0
11126,386367.9102176133,2010-10-20 04:32:34,1770.878911403035,2,34,0.5501165986061096,3.90761137008667,33.22417769539017,32.96902270379409,132.60646603993362,120.30603462208344,3.237724376958795e-05,0.0908498615026474,0,0,0
11127,386397.9252478641,2010-10-20 04:33:04,1800.8939416488015,2,34,0.5499359965324402,3.90906834602356,33.22876412285481,32.96902270379409,132.62439159489662,120.30603462208344,6.47544875391759e-05,0.0908498615026474,0,0,0
11128,386427.9404012818,2010-10-20 04:33:34,1830.909095076575,2,34,0.5501165986061096,3.9103634357452393,33.23335057213523,32.96902270379409,132.6423232942716,120.30603462208344,6.47544875391759e-05,0.0908498615026474,0,0,0
11129,386457.95558961167,2010-10-20 04:34:04,1860.9242834013232,2,34,0.5499359965324402,3.911496639251709,33.2379370426085,32.96902270379409,132.6602610659559,120.30603462208344,3.237724376958795e-05,0.0908498615026474,0,0,0
11130,386487.9707416008,2010-10-20 04:34:34,1890.939435390512,2,34,0.5501165986061096,3.9131155014038086,33.242523396139944,32.96902270379409,132.67820447445197,120.30603462208344,3.237724376958795e-05,0.0908498615026474,0,0,0
11131,386517.9858891289,2010-10-20 04:35:04,1920.9545829135693,2,34,0.550297200679779,3.914410352706909,33.24710979042374,32.96902270379409,132.69615413271143,120.30603462208344,3.237724376958795e-05,0.0908498615026474,0,0,0
11132,386548.0010363612,2010-10-20 04:35:34,1950.9697301509143,2,34,0.550297200679779,3.915705442428589,33.25169627497345,32.96902270379409,132.71411026811862,120.30603462208344,3.237724376958795e-05,0.0908498615026474,0,0,0
11133,386578.0162437335,2010-10-20 04:36:04,1980.9849375181225,2,34,0.5501165986061096,3.917000532150269,33.25628267836518,32.96902270379409,132.7320721163089,120.30603462208344,3.237724376958795e-05,0.0908498615026474,0,0,0
11134,386608.0314759828,2010-10-20 04:36:34,2011.000169772356,2,34,0.5501165986061096,3.918295621871948,33.26086903445324,32.96902270379409,132.750040089422,120.30603462208344,3.237724376958795e-05,0.0908498615026474,0,0,0
11135,386638.0465081332,2010-10-20 04:37:04,2041.015201947932,2,34,0.5501165986061096,3.919914484024048,33.265455345051976,32.96902270379409,132.76801418410838,120.30603462208344,3.237724376958795e-05,0.0908498615026474,0,0,0
11136,386668.06166047824,2010-10-20 04:37:34,2071.03035425792,2,34,0.5501165986061096,3.921209573745728,33.27004177929771,32.96902270379409,132.7859950949138,120.30603462208344,6.47544875391759e-05,0.0908498615026474,0,0,0
11137,386698.07683906873,2010-10-20 04:38:04,2101.0455328834946,2,34,0.550297200679779,3.922666549682617,33.27462818540811,32.96902270379409,132.80398225929065,120.30603462208344,3.237724376958795e-05,0.0908498615026474,0,0,0
11138,386728.0919742912,2010-10-20 04:38:34,2131.060668100882,2,34,0.5499359965324402,3.923961639404297,33.27921455430221,32.96902270379409,132.8219757579718,120.30603462208344,3.237724376958795e-05,0.0908498615026474,0,0,0
11139,386758.1070851879,2010-10-20 04:39:05,2161.0757790227185,2,34,0.5501165986061096,3.9254186153411865,33.28380133577257,32.96902270379409,132.8399774174887,120.30603462208344,3.237724376958795e-05,0.0908498615026474,0,0,0
11140,386788.1222436031,2010-10-20 04:39:35,2191.090937382785,2,34,0.5501165986061096,3.926713705062866,33.288388601787815,32.96902270379409,132.85798745962097,120.30603462208344,0.0,0.0908498615026474,0,0,0
11141,386818.1374172463,2010-10-20 04:40:05,2221.106111030954,2,34,0.5501165986061096,3.928332567214966,33.29297568871917,32.96902270379409,132.87600341228477,120.30603462208344,3.237724376958795e-05,0.0908498615026474,0,0,0
11142,386848.152716728,2010-10-20 04:40:35,2251.121410517752,2,34,0.550297200679779,3.929789543151856,33.29756284468404,32.96902270379409,132.8940262647162,120.30603462208344,9.713172767078504e-05,0.0908498615026474,0,0,0
11143,386878.1677281118,2010-10-20 04:41:05,2281.136421926571,2,34,0.550297200679779,3.931246519088745,33.30214999143374,32.96902270379409,132.91205579682563,120.30603462208344,3.237724376958795e-05,0.0908498615026474,0,0,0
11144,386908.1830343053,2010-10-20 04:41:35,2311.1517280950216,2,34,0.550297200679779,3.932541608810425,33.30673725162214,32.96902270379409,132.9300924511633,120.30603462208344,3.237724376958795e-05,0.0908498615026474,0,0,0
11145,386938.19804920285,2010-10-20 04:42:05,2341.16674302261,2,34,0.5501165986061096,3.9339985847473145,33.311324237017864,32.96902270379409,132.94813481262898,120.30603462208344,0.0,0.0908498615026474,0,0,0
11146,386968.2131915079,2010-10-20 04:42:35,2371.1818852925758,2,34,0.550297200679779,3.935779333114624,33.31591078594201,32.96902270379409,132.96618225742858,120.30603462208344,6.47544875391759e-05,0.0908498615026474,0,0,0
11147,386998.22834574274,2010-10-20 04:43:05,2401.19703952736,2,34,0.5501165986061096,3.937074422836304,33.32049739278366,32.96902270379409,132.9842366587456,120.30603462208344,6.47544875391759e-05,0.0908498615026474,0,0,0
11148,387028.24362719455,2010-10-20 04:43:35,2431.212321019309,2,34,0.5501165986061096,3.938531398773194,33.32508391843688,32.96902270379409,133.00229779047103,120.30603462208344,3.237724376958795e-05,0.0908498615026474,0,0,0
11149,387058.2586724477,2010-10-20 04:44:05,2461.2273662574416,2,34,0.5501165986061096,3.940312147140503,33.329670480405824,32.96902270379409,133.02036602414535,120.30603462208344,9.713172767078504e-05,0.0908498615026474,0,0,0
11150,387088.27381918376,2010-10-20 04:44:35,2491.2425129935377,2,34,0.5501165986061096,3.9417691230773926,33.33425706220149,32.96902270379409,133.03844137801266,120.30603462208344,6.47544875391759e-05,0.0908498615026474,0,0,0
11151,387118.2889901803,2010-10-20 04:45:05,2521.257684020173,2,34,0.550297200679779,3.943387985229492,33.33884361611667,32.96902270379409,133.05652368984812,120.30603462208344,6.47544875391759e-05,0.0908498615026474,0,0,0
11152,387148.3041203953,2010-10-20 04:45:35,2551.272814184969,2,34,0.5501165986061096,3.944844961166382,33.34343020338453,32.96902270379409,133.0746132775328,120.30603462208344,6.47544875391759e-05,0.0908498615026474,0,0,0
11153,387178.3192736376,2010-10-20 04:46:05,2581.2879674673804,2,34,0.550297200679779,3.9464638233184814,33.34801679576701,32.96902270379409,133.09271013458937,120.30603462208344,9.713172767078504e-05,0.0908498615026474,0,0,0
11154,387208.3344191256,2010-10-20 04:46:35,2611.303112915266,2,34,0.550297200679779,3.947920799255371,33.35260331622697,32.96902270379409,133.1108138143649,120.30603462208344,6.47544875391759e-05,0.0908498615026474,0,0,0
11155,387238.3497111889,2010-10-20 04:47:05,2641.318405018662,2,34,0.5501165986061096,3.9493777751922607,33.35718989500167,32.96902270379409,133.12892505102946,120.30603462208344,0.0,0.0908498615026474,0,0,0
11156,387268.36475483805,2010-10-20 04:47:35,2671.3334486177087,2,34,0.5501165986061096,3.9511585235595694,33.36177645234843,32.96902270379409,133.14704357008614,120.30603462208344,6.47544875391759e-05,0.0908498615026474,0,0,0
11157,387298.380157497,2010-10-20 04:48:05,2701.34885143203,2,34,0.550297200679779,3.95293927192688,33.366363064273315,32.96902270379409,133.1651697028123,120.30603462208344,6.47544875391759e-05,0.0908498615026474,0,0,0
11158,387328.3950576434,2010-10-20 04:48:35,2731.363751453237,2,34,0.5497553944587708,3.9543962478637695,33.370949532708345,32.96902270379409,133.18330279382542,120.30603462208344,3.237724376958795e-05,0.0908498615026474,0,0,0
11159,387358.4103158474,2010-10-20 04:49:05,2761.3790096471207,2,34,0.550297200679779,3.956176996231079,33.37553615168766,32.96902270379409,133.20144395278348,120.30603462208344,6.47544875391759e-05,0.0908498615026474,0,0,0
11160,387388.4253363489,2010-10-20 04:49:35,2791.394030138576,2,34,0.5501165986061096,3.9576339721679688,33.38012274784524,32.96902270379409,133.21959252569818,120.30603462208344,0.0,0.0908498615026474,0,0,0
11161,387418.4408328818,2010-10-20 04:50:05,2821.4095268218484,2,34,0.550297200679779,3.9594147205352783,33.38470935617735,32.96902270379409,133.23774879846496,120.30603462208344,3.237724376958795e-05,0.0908498615026474,0,0,0
11162,387448.4562041274,2010-10-20 04:50:35,2851.424897962229,2,34,0.550297200679779,3.961195468902588,33.3892959602592,32.96902270379409,133.25591277946882,120.30603462208344,6.47544875391759e-05,0.0908498615026474,0,0,0
11163,387478.45638259297,2010-10-20 04:51:05,2881.425076518014,2,34,0.550297200679779,3.962814331054688,33.393880271560725,32.96902270379409,133.27407545324817,120.30603462208344,6.47544875391759e-05,0.0908498615026474,0,0,0
11164,387508.4703310276,2010-10-20 04:51:35,2911.439024827262,2,34,0.5501165986061096,3.964595079421997,33.39846669102077,32.96902270379409,133.29225423986406,120.30603462208344,9.713172767078504e-05,0.0908498615026474,0,0,0
11165,387538.4856406496,2010-10-20 04:52:05,2941.4543345846573,2,34,0.550297200679779,3.9662139415740967,33.40305321433086,32.96902270379409,133.31044124004285,120.30603462208344,6.47544875391759e-05,0.0908498615026474,0,0,0
11166,387568.50016038807,2010-10-20 04:52:35,2971.468854167694,2,34,0.5501165986061096,3.967832803726196,33.407637435072814,32.96902270379409,133.328627002025,120.30603462208344,6.47544875391759e-05,0.0908498615026474,0,0,0
11167,387598.5001781931,2010-10-20 04:53:05,3001.468871982865,2,34,0.5501165986061096,3.969613552093506,33.41222403658672,32.96902270379409,133.3468301741783,120.30603462208344,3.237724376958795e-05,0.0908498615026474,0,0,0
11168,387628.5154539157,2010-10-20 04:53:35,3031.4841478056846,2,34,0.550297200679779,3.971394300460816,33.41681067390548,32.96902270379409,133.36504141445863,120.30603462208344,6.47544875391759e-05,0.0908498615026474,0,0,0
11169,387658.53052401583,2010-10-20 04:54:05,3061.499217920818,2,34,0.5501165986061096,3.973175048828125,33.42139738111831,32.96902270379409,133.38326098875936,120.30603462208344,3.237724376958795e-05,0.0908498615026474,0,0,0
11170,387688.54601483454,2010-10-20 04:54:35,3091.5147086241864,2,34,0.5501165986061096,3.9747939109802246,33.42598405879257,32.96902270379409,133.40148862038745,120.30603462208344,3.237724376958795e-05,0.0908498615026474,0,0,0
11171,387718.5609130864,2010-10-20 04:55:05,3121.529606880996,2,34,0.5499359965324402,3.976736545562744,33.43057065262436,32.96902270379409,133.4197241205495,120.30603462208344,3.237724376958795e-05,0.0908498615026474,0,0,0
11172,387748.57591005415,2010-10-20 04:55:35,3151.5446038438104,2,34,0.5501165986061096,3.978355407714844,33.435157345704646,32.96902270379409,133.43796786440288,120.30603462208344,9.713172767078504e-05,0.0908498615026474,0,0,0
11173,387778.5910629456,2010-10-20 04:56:05,3181.559756725223,2,34,0.5499359965324402,3.980136156082153,33.439743888966845,32.96902270379409,133.45621976149158,120.30603462208344,-3.237724376958795e-05,0.0908498615026474,0,0,0
11174,387808.606176524,2010-10-20 04:56:35,3211.574870313705,2,34,0.5501165986061096,3.982240676879883,33.444330414167375,32.96902270379409,133.47447995417744,120.30603462208344,3.237724376958795e-05,0.0908498615026474,0,0,0
11175,387838.6215114491,2010-10-20 04:57:05,3241.590205233814,2,34,0.5501165986061096,3.984021425247192,33.44891701072228,32.96902270379409,133.49274887734848,120.30603462208344,6.47544875391759e-05,0.0908498615026474,0,0,0
11176,387868.63653030654,2010-10-20 04:57:35,3271.6052241112466,2,34,0.5501165986061096,3.985802173614502,33.45350359649596,32.96902270379409,133.5110263174445,120.30603462208344,3.237724376958795e-05,0.0908498615026474,0,0,0
11177,387898.65206060855,2010-10-20 04:58:05,3301.6207544584195,2,34,0.5501165986061096,3.987906694412232,33.458090278483034,32.96902270379409,133.52931274008586,120.30603462208344,6.47544875391759e-05,0.0908498615026474,0,0,0
11178,387928.66678222513,2010-10-20 04:58:35,3331.6354760198496,2,34,0.5499359965324402,3.989525556564331,33.46267682872154,32.96902270379409,133.5476072179416,120.30603462208344,3.237724376958795e-05,0.0908498615026474,0,0,0
11179,387958.682108213,2010-10-20 04:59:05,3361.650802002684,2,34,0.5499359965324402,3.9914681911468506,33.467263423300416,32.96902270379409,133.56591073691442,120.30603462208344,0.0,0.0908498615026474,0,0,0
11180,387988.6971163586,2010-10-20 04:59:35,3391.665810143357,2,34,0.5499359965324402,3.99357271194458,33.47184998873032,32.96902270379409,133.5842230777025,120.30603462208344,6.47544875391759e-05,0.0908498615026474,0,0,0
11181,388018.7122736712,2010-10-20 05:00:05,3421.6809674508004,2,34,0.550297200679779,3.9956769943237305,33.4764365430845,32.96902270379409,133.60254430260048,120.30603462208344,6.47544875391759e-05,0.0908498615026474,0,0,0
11182,388048.7274498105,2010-10-20 05:00:35,3451.696143595191,2,34,0.5501165986061096,3.99745774269104,33.48102307453417,32.96902270379409,133.62087451049206,120.30603462208344,3.237724376958795e-05,0.0908498615026474,0,0,0
11183,388078.74260526337,2010-10-20 05:01:05,3481.7112990730743,2,34,0.550297200679779,3.99972414970398,33.485609665502714,32.96902270379409,133.63921406100863,120.30603462208344,6.47544875391759e-05,0.0908498615026474,0,0,0
11184,388108.75772786426,2010-10-20 05:01:35,3511.726421648956,2,34,0.550297200679779,4.001504898071289,33.49019616019712,32.96902270379409,133.65756253025972,120.30603462208344,6.47544875391759e-05,0.0908498615026474,0,0,0
11185,388138.7728757783,2010-10-20 05:02:05,3541.7415695880504,2,34,0.5501165986061096,4.003609657287598,33.4947826838115,32.96902270379409,133.67592062733928,120.30603462208344,3.24249267578125e-05,0.0908498615026474,0,0,0
11186,388168.7880263991,2010-10-20 05:02:35,3571.7567201787533,2,34,0.5501165986061096,4.005713939666748,33.499369209037006,32.96902270379409,133.6942882546338,120.30603462208344,3.23295607813634e-05,0.0908498615026474,0,0,0
11187,388198.8031942127,2010-10-20 05:03:05,3601.7718879973936,2,34,0.5499359965324402,4.007818698883057,33.50395574673703,32.96902270379409,133.7126656110195,120.30603462208344,3.24249267578125e-05,0.0908498615026474,0,0,0
11188,388228.8183322672,2010-10-20 05:03:35,3631.7870260769146,2,34,0.550297200679779,4.010085105895996,33.508542240258976,32.96902270379409,133.73105248429417,120.30603462208344,6.47544875391759e-05,0.0908498615026474,0,0,0
11189,388258.8334958302,2010-10-20 05:04:05,3661.802189614886,2,34,0.5499359965324402,4.0121893882751465,33.51312876646754,32.96902270379409,133.74944935369427,120.30603462208344,6.47544875391759e-05,0.0908498615026474,0,0,0
11190,388288.8486293434,2010-10-20 05:04:35,3691.8173231330393,2,34,0.5501165986061096,4.014294147491455,33.517715292611435,32.96902270379409,133.76785620009647,120.30603462208344,6.47544875391759e-05,0.0908498615026474,0,0,0
11191,388318.8637878388,2010-10-20 05:05:05,3721.832481628443,2,34,0.5501165986061096,4.0165605545043945,33.52230182717153,32.96902270379409,133.78627309549182,120.30603462208344,6.47544875391759e-05,0.0908498615026474,0,0,0
11192,388348.87904593744,2010-10-20 05:05:35,3751.847739717064,2,34,0.550297200679779,4.018826961517334,33.52688843618295,32.96902270379409,133.80470050001364,120.30603462208344,6.47544875391759e-05,0.0908498615026474,0,0,0
11193,388378.8942291444,2010-10-20 05:06:05,3781.862922944106,2,34,0.5499359965324402,4.020931243896484,33.53147487957886,32.96902270379409,133.82313730930383,120.30603462208344,6.47544875391759e-05,0.0908498615026474,0,0,0
11194,388408.909261771,2010-10-20 05:06:35,3811.877955585845,2,34,0.5501165986061096,4.023197650909424,33.53606132724428,32.96902270379409,133.84158464902973,120.30603462208344,3.23295607813634e-05,0.0908498615026474,0,0,0
11195,388438.9247360033,2010-10-20 05:07:05,3841.8934299134,2,34,0.5501165986061096,4.025626182556152,33.54064790383079,32.96902270379409,133.86004296047244,120.30603462208344,6.47544875391759e-05,0.0908498615026474,0,0,0
11196,388468.93955698266,2010-10-20 05:07:35,3871.9082508073966,2,34,0.5501165986061096,4.027892589569092,33.54523434687712,32.96902270379409,133.8785112625717,120.30603462208344,6.47544875391759e-05,0.0908498615026474,0,0,0
11197,388498.9546835484,2010-10-20 05:08:05,3901.923377333123,2,34,0.5501165986061096,4.030158996582031,33.549820878263056,32.96902270379409,133.89699052735284,120.30603462208344,9.71794142969884e-05,0.0908498615026474,0,0,0
11198,388528.9699619377,2010-10-20 05:08:35,3931.938655767451,2,34,0.5501165986061096,4.032587051391602,33.5544073772268,32.96902270379409,133.91548029458053,120.30603462208344,9.70840483205393e-05,0.0908498615026474,0,0,0
11199,388558.9849884441,2010-10-20 05:09:05,3961.9536822287855,2,34,0.5501165986061096,4.034853458404541,33.558993874378885,32.96902270379409,133.93398088060724,120.30603462208344,6.47544875391759e-05,0.0908498615026474,0,0,0
11200,388589.0002553697,2010-10-20 05:09:35,3991.9689491845065,2,34,0.5501165986061096,4.037281513214111,33.563580382824505,32.96902270379409,133.95249235641273,120.30603462208344,6.47544875391759e-05,0.0908498615026474,0,0,0
11201,388619.0152415708,2010-10-20 05:10:05,4021.9839353604366,2,34,0.5501165986061096,4.03971004486084,33.56816691184349,32.96902270379409,133.9710148783379,120.30603462208344,6.47544875391759e-05,0.0908498615026474,0,0,0
11202,388649.03039688827,2010-10-20 05:10:35,4051.999090672908,2,34,0.5499359965324402,4.04213809967041,33.57275335694314,32.96902270379409,133.98954793316747,120.30603462208344,6.47544875391759e-05,0.0908498615026474,0,0,0
11203,388679.0455712332,2010-10-20 05:11:05,4082.014265047889,2,34,0.5501165986061096,4.044566631317139,33.577339794352056,32.96902270379409,134.00809215471884,120.30603462208344,9.71794142969884e-05,0.0908498615026474,0,0,0
11204,388709.0607074931,2010-10-20 05:11:35,4112.029401312888,2,34,0.5499359965324402,4.046994686126709,33.581926281622025,32.96902270379409,134.0266478783462,120.30603462208344,6.47544875391759e-05,0.0908498615026474,0,0,0
11205,388739.0758438734,2010-10-20 05:12:06,4142.044537663099,2,34,0.5501165986061096,4.049584865570068,33.58651274866032,32.96902270379409,134.04521494557952,120.30603462208344,9.70840483205393e-05,0.0908498615026474,0,0,0
11206,388769.09101053415,2010-10-20 05:12:36,4172.059704318841,2,34,0.5501165986061096,4.052013397216797,33.591099350119286,32.96902270379409,134.0637939308517,120.30603462208344,9.71794142969884e-05,0.0908498615026474,0,0,0
11207,388799.1061797914,2010-10-20 05:13:06,4202.074873606141,2,34,0.5501165986061096,4.054441452026367,33.59568586957314,32.96902270379409,134.08238416160918,120.30603462208344,6.47544875391759e-05,0.0908498615026474,0,0,0
11208,388829.1214608974,2010-10-20 05:13:36,4232.090154717141,2,34,0.5501165986061096,4.057031631469727,33.60027242190056,32.96902270379409,134.10098620747831,120.30603462208344,9.70840483205393e-05,0.0908498615026474,0,0,0
11209,388859.1364571484,2010-10-20 05:14:06,4262.105150948132,2,34,0.5501165986061096,4.059783935546875,33.60485903087137,32.96902270379409,134.11960028462792,120.30603462208344,9.71794142969884e-05,0.0908498615026474,0,0,0
11210,388889.1516335384,2010-10-20 05:14:36,4292.12032732811,2,34,0.5499359965324402,4.062211990356445,33.60944552209803,32.96902270379409,134.13822541398562,120.30603462208344,9.70840483205393e-05,0.0908498615026474,0,0,0
11211,388919.1667677683,2010-10-20 05:15:06,4322.1354615530245,2,34,0.5501165986061096,4.064802169799805,33.61403201699005,32.96902270379409,134.1568625544789,120.30603462208344,6.47544875391759e-05,0.0908498615026474,0,0,0
11212,388949.181907482,2010-10-20 05:15:36,4352.1506012616055,2,34,0.5501165986061096,4.067554473876953,33.61861848258909,32.96902270379409,134.17551171767315,120.30603462208344,0.0001295089750783,0.0908498615026474,0,0,0
11213,388979.19705244864,2010-10-20 05:16:06,4382.165746263379,2,34,0.5501165986061096,4.070306301116943,33.6232050150679,32.96902270379409,134.19417341736826,120.30603462208344,9.70840483205393e-05,0.0908498615026474,0,0,0
11214,389009.2122171093,2010-10-20 05:16:36,4412.180910894074,2,34,0.5501165986061096,4.072896480560303,33.62779159941893,32.96902270379409,134.21284767814512,120.30603462208344,6.47544875391759e-05,0.0908498615026474,0,0,0
11215,389039.2273634345,2010-10-20 05:17:06,4442.196057249221,2,34,0.550297200679779,4.075648784637451,33.63237809401215,32.96902270379409,134.23153406175877,120.30603462208344,6.47544875391759e-05,0.0908498615026474,0,0,0
11216,389069.2425015592,2010-10-20 05:17:36,4472.211195378867,2,34,0.5501165986061096,4.0782389640808105,33.63696464360321,32.96902270379409,134.2502332242841,120.30603462208344,3.24249267578125e-05,0.0908498615026474,0,0,0
11217,389099.2576624405,2010-10-20 05:18:06,4502.22635622513,2,34,0.5501165986061096,4.081314563751221,33.64155122657747,32.96902270379409,134.2689453024244,120.30603462208344,9.70840483205393e-05,0.0908498615026474,0,0,0
11218,389129.2727999686,2010-10-20 05:18:36,4532.241493783352,2,34,0.5501165986061096,4.08390474319458,33.646137704927554,32.96902270379409,134.28766962563128,120.30603462208344,3.23295607813634e-05,0.0908498615026474,0,0,0
11219,389159.2880787437,2010-10-20 05:19:06,4562.256772563544,2,34,0.5501165986061096,4.0866570472717285,33.65072422336083,32.96902270379409,134.30640702464845,120.30603462208344,6.47544875391759e-05,0.0908498615026474,0,0,0
11220,389189.3031027991,2010-10-20 05:19:36,4592.271796583793,2,34,0.5499359965324402,4.089408874511719,33.65531075559619,32.96902270379409,134.32515748396102,120.30603462208344,3.23295607813634e-05,0.0908498615026474,0,0,0
11221,389219.3183719503,2010-10-20 05:20:06,4622.287065739999,2,34,0.5501165986061096,4.092322826385498,33.65989734654992,32.96902270379409,134.34392135101382,120.30603462208344,3.23295607813634e-05,0.0908498615026474,0,0,0
11222,389249.3333997199,2010-10-20 05:20:36,4652.302093504581,2,34,0.5499359965324402,4.095236778259277,33.664483875793906,32.96902270379409,134.36269814648398,120.30603462208344,9.70840483205393e-05,0.0908498615026474,0,0,0
11223,389279.3485552279,2010-10-20 05:21:06,4682.317249007527,2,34,0.5501165986061096,4.098312854766846,33.669070406790205,32.96902270379409,134.3814883103214,120.30603462208344,6.47544875391759e-05,0.0908498615026474,0,0,0
11224,389309.3637074176,2010-10-20 05:21:36,4712.332401222277,2,34,0.550297200679779,4.101388454437256,33.673656926726814,32.96902270379409,134.40029203331068,120.30603462208344,9.70840483205393e-05,0.0908498615026474,0,0,0
11225,389339.3789639924,2010-10-20 05:22:06,4742.347657782088,2,34,0.550297200679779,4.104464530944824,33.678243531041296,32.96902270379409,134.41910981280105,120.30603462208344,0.0001295089750783,0.0908498615026474,0,0,0
11226,389369.39399796753,2010-10-20 05:22:36,4772.362691742111,2,34,0.5501165986061096,4.107216358184815,33.68283006554651,32.96902270379409,134.43794116874227,120.30603462208344,6.47544875391759e-05,0.0908498615026474,0,0,0
11227,389399.4093108026,2010-10-20 05:23:06,4802.378004612264,2,34,0.550297200679779,4.110292434692383,33.68741665850777,32.96902270379409,134.45678667554614,120.30603462208344,6.47544875391759e-05,0.0908498615026474,0,0,0
11228,389429.42436578486,2010-10-20 05:23:36,4832.393059679895,2,34,0.5499359965324402,4.113368034362793,33.692003233137456,32.96902270379409,134.47564620408002,120.30603462208344,6.47544875391759e-05,0.0908498615026474,0,0,0
11229,389459.4394371982,2010-10-20 05:24:06,4862.408131058176,2,34,0.5499359965324402,4.116443634033203,33.69658977472821,32.96902270379409,134.49451975350726,120.30603462208344,9.70840483205393e-05,0.0908498615026474,0,0,0
11230,389489.4547086101,2010-10-20 05:24:36,4892.423402394815,2,34,0.550297200679779,4.119681358337402,33.70117637398516,32.96902270379409,134.513407638689,120.30603462208344,9.70840483205393e-05,0.0908498615026474,0,0,0
11231,389519.4697017835,2010-10-20 05:25:06,4922.438395563173,2,34,0.5501165986061096,4.122757434844971,33.70576294163409,32.96902270379409,134.53230975231105,120.30603462208344,9.71794142969884e-05,0.0908498615026474,0,0,0
11232,389549.4850136662,2010-10-20 05:25:36,4952.453707551127,2,34,0.5499359965324402,4.125833034515381,33.71034869930419,32.96902270379409,134.55122269507694,120.30603462208344,9.70840483205393e-05,0.0908498615026474,0,0,0
11233,389579.500033065,2010-10-20 05:26:06,4982.468726914772,2,34,0.5499359965324402,4.12907075881958,33.71493433833672,32.96902270379409,134.57014984158764,120.30603462208344,6.47544875391759e-05,0.0908498615026474,0,0,0
11234,389609.5151757159,2010-10-20 05:26:36,5012.483869520574,2,34,0.5499359965324402,4.132308483123779,33.719519988078815,32.96902270379409,134.58909181428953,120.30603462208344,9.70840483205393e-05,0.0908498615026474,0,0,0
11235,389639.5302691992,2010-10-20 05:27:06,5042.498963003948,2,34,0.5501165986061096,4.1355462074279785,33.72410564984112,32.96902270379409,134.60804872411535,120.30603462208344,6.47544875391759e-05,0.0908498615026474,0,0,0
11236,389669.545591513,2010-10-20 05:27:36,5072.514285297588,2,34,0.5501165986061096,4.138946056365967,33.7286913426852,32.96902270379409,134.62702070689485,120.30603462208344,9.71794142969884e-05,0.0908498615026474,0,0,0
11237,389699.5605720348,2010-10-20 05:28:06,5102.52926584449,2,34,0.5501165986061096,4.142183780670166,33.733277019158706,32.96902270379409,134.64600781067622,120.30603462208344,9.71794142969884e-05,0.0908498615026474,0,0,0
11238,389729.57593773154,2010-10-20 05:28:36,5132.54463157639,2,34,0.5501165986061096,4.145583152770996,33.737863542099824,32.96902270379409,134.6650138570059,120.30603462208344,9.70840483205393e-05,0.0908498615026474,0,0,0
11239,389759.5909432256,2010-10-20 05:29:06,5162.559637035381,2,34,0.5499359965324402,4.148983001708984,33.74244997960647,32.96902270379409,134.68403512837438,120.30603462208344,9.71794142969884e-05,0.0908498615026474,0,0,0
11240,389789.6061013802,2010-10-20 05:29:36,5192.57479515986,2,34,0.5501165986061096,4.152382373809815,33.74703647470273,32.96902270379409,134.70307210795477,120.30603462208344,9.70840483205393e-05,0.0908498615026474,0,0,0
11241,389819.62150484114,2010-10-20 05:30:06,5222.5901986659055,2,34,0.5497553944587708,4.155782222747803,33.75162301765861,32.96902270379409,134.72212495797004,120.30603462208344,9.71794142969884e-05,0.0908498615026474,0,0,0
11242,389849.63638316834,2010-10-20 05:30:36,5252.605076988032,2,34,0.5499359965324402,4.159181594848633,33.75620937651871,32.96902270379409,134.74119276952644,120.30603462208344,9.70840483205393e-05,0.0908498615026474,0,0,0
11243,389879.6516668606,2010-10-20 05:31:06,5282.6203606754525,2,34,0.5499359965324402,4.162581443786621,33.760795801272224,32.96902270379409,134.76027675464246,120.30603462208344,6.47544875391759e-05,0.0908498615026474,0,0,0
11244,389909.6666758434,2010-10-20 05:31:36,5312.6353696582255,2,34,0.5499359965324402,4.16614294052124,33.7653822745484,32.96902270379409,134.7793768301199,120.30603462208344,9.71794142969884e-05,0.0908498615026474,0,0,0
11245,389939.68184655433,2010-10-20 05:32:06,5342.650540399149,2,34,0.5501165986061096,4.16954231262207,33.76996872664636,32.96902270379409,134.79849281680328,120.30603462208344,9.70840483205393e-05,0.0908498615026474,0,0,0
11246,389969.6969894909,2010-10-20 05:32:36,5372.6656833057,2,34,0.5501165986061096,4.173265933990479,33.774555156011,32.96902270379409,134.81762485392474,120.30603462208344,0.0001295089750783,0.0908498615026474,0,0,0
11247,389999.7121455402,2010-10-20 05:33:06,5402.68083936002,2,34,0.5501165986061096,4.176827430725098,33.779141627064284,32.96902270379409,134.8367732500415,120.30603462208344,0.0001295089750783,0.0908498615026474,0,0,0
11248,390029.7272729181,2010-10-20 05:33:36,5432.69596669777,2,34,0.5499359965324402,4.180065155029297,33.78372808535212,32.96902270379409,134.85593790718585,120.30603462208344,3.24249267578125e-05,0.0908498615026474,0,0,0
11249,390059.7424160803,2010-10-20 05:34:06,5462.711109869984,2,34,0.5499359965324402,4.183788299560547,33.78831452410682,32.96902270379409,134.87511897412736,120.30603462208344,9.70840483205393e-05,0.0908498615026474,0,0,0
11250,390089.7575607613,2010-10-20 05:34:36,5492.726254545945,2,34,0.5501165986061096,4.187511920928955,33.792901086815775,32.96902270379409,134.8943171615212,120.30603462208344,9.71794142969884e-05,0.0908498615026474,0,0,0
11251,390119.7727273017,2010-10-20 05:35:06,5522.741421121487,2,34,0.5501165986061096,4.191073417663574,33.797487534018295,32.96902270379409,134.9135316442908,120.30603462208344,3.24249267578125e-05,0.0908498615026474,0,0,0
11252,390149.7878761932,2010-10-20 05:35:36,5552.7565699929055,2,34,0.5501165986061096,4.195120334625244,33.80207397213412,32.96902270379409,134.93276294247894,120.30603462208344,0.0001295089750783,0.0908498615026474,0,0,0
11253,390179.80314305366,2010-10-20 05:36:06,5582.771836843363,2,34,0.5501165986061096,4.198519706726074,33.80666040216963,32.96902270379409,134.952011102591,120.30603462208344,6.47544875391759e-05,0.0908498615026474,0,0,0
11254,390190.78720448446,2010-10-20 05:36:17,5593.755898264135,2,34,0.5501165986061096,4.200138568878174,33.80833877269897,32.96902270379409,134.95905910834162,120.30603462208344,0.0001618385285837,0.0908498615026474,0,0,0
11255,390220.7957572451,2010-10-20 05:36:47,30.015144976711188,3,34,0.0,4.112396717071533,33.80833877269897,32.96902270379409,134.95905910834162,120.30603462208344,-0.0004209518374409,0.0908498615026474,0,0,0
11256,390250.8108801719,2010-10-20 05:37:17,60.03026792852957,3,34,0.0,4.101226806640625,33.80833877269897,32.96902270379409,134.95905910834162,120.30603462208344,-0.0002590179501567,0.0908498615026474,0,0,0
11257,390280.826160115,2010-10-20 05:37:47,90.04554798189335,3,34,0.0,4.0945892333984375,33.80833877269897,32.96902270379409,134.95905910834162,120.30603462208344,-0.0001619339018361,0.0908498615026474,0,0,0
11258,390310.794429353,2010-10-20 05:38:17,120.01381711457788,3,34,0.0,4.0903801918029785,33.80833877269897,32.96902270379409,134.95905910834162,120.30603462208344,-9.71794142969884e-05,0.0908498615026474,0,0,0
11259,390310.805243123,2010-10-20 05:38:18,2.837070854e-06,4,34,1.0086835622787476,4.199976921081543,33.80833877349389,32.96902270379409,134.95905911168026,120.30603462208344,0.0,0.0908498615026474,0,0,0
11260,390311.4302048951,2010-10-20 05:38:18,0.624964594065209,4,34,0.9575711488723756,4.199814796447754,33.808507726689,32.96902270379409,134.9597686773437,120.30603462208344,-3.24249267578125e-05,0.0908498615026474,0,0,0
11261,390313.35218900087,2010-10-20 05:38:20,2.546948704849008,4,34,0.9073617458343506,4.199814796447754,33.809004400991874,32.96902270379409,134.96185458536667,120.30603462208344,-3.24249267578125e-05,0.0908498615026474,0,0,0
11262,390316.3521404378,2010-10-20 05:38:23,5.546900136879608,4,34,0.856971800327301,4.199653148651123,33.80973849860435,32.96902270379409,134.96493760584588,120.30603462208344,0.0,0.0908498615026474,0,0,0
11263,390320.50818841823,2010-10-20 05:38:27,9.702948117230637,4,34,0.8067623972892761,4.199653148651123,33.81069787880133,32.96902270379409,134.96896676674103,120.30603462208344,0.0,0.0908498615026474,0,0,0
11264,390326.0237427869,2010-10-20 05:38:33,15.218502475785805,4,34,0.7565529942512512,4.199653148651123,33.81189402198762,32.96902270379409,134.9739902964034,120.30603462208344,-3.23295607813634e-05,0.0908498615026474,0,0,0
11265,390333.0548532024,2010-10-20 05:38:40,22.24961291642247,4,34,0.7065242528915405,4.199814796447754,33.81332086401937,32.96902270379409,134.9799827100204,120.30603462208344,-3.24249267578125e-05,0.0908498615026474,0,0,0
11266,390342.3672074095,2010-10-20 05:38:49,31.561967123446127,4,34,0.6564954519271851,4.199814796447754,33.81508107046016,32.96902270379409,134.98737520069872,120.30603462208344,0.0,0.0908498615026474,0,0,0
11267,390355.0702863307,2010-10-20 05:39:02,44.265046029720224,4,34,0.6064667105674744,4.199814796447754,33.81730480181546,32.96902270379409,134.99671439451075,120.30603462208344,0.0,0.0908498615026474,0,0,0
11268,390374.0230800393,2010-10-20 05:39:21,63.21783973325827,4,34,0.5564379096031189,4.199814796447754,33.820357405061735,32.96902270379409,135.00953471017112,120.30603462208344,0.0,0.0908498615026474,0,0,0
11269,390405.50683260296,2010-10-20 05:39:52,94.70159231700544,4,34,0.5064091682434082,4.199653148651123,33.824985859266874,32.96902270379409,135.02897328902395,120.30603462208344,-3.23295607813634e-05,0.0908498615026474,0,0,0
11270,390463.74029374606,2010-10-20 05:40:50,152.93505344011228,4,34,0.4563803970813751,4.199814796447754,33.832735167380285,32.96902270379409,135.0615187710588,120.30603462208344,0.0,0.0908498615026474,0,0,0
11271,390559.301314022,2010-10-20 05:42:26,248.4960737511182,4,34,0.406351625919342,4.199814796447754,33.84415053585866,32.96902270379409,135.10946091890827,120.30603462208344,0.0,0.0908498615026474,0,0,0
11272,390682.9243231486,2010-10-20 05:44:30,372.1190828626732,4,34,0.3563228547573089,4.199653148651123,33.85722567416834,32.96902270379409,135.16437382810062,120.30603462208344,-6.47544875391759e-05,0.0908498615026474,0,0,0
11273,390831.65634935664,2010-10-20 05:46:58,520.8511090556464,4,34,0.3062940835952759,4.199653148651123,33.87089556105607,32.96902270379409,135.22178461383834,120.30603462208344,-3.23295607813634e-05,0.0908498615026474,0,0,0
11274,391010.0598725599,2010-10-20 05:49:57,699.254632283923,4,34,0.2562653124332428,4.199814796447754,33.8848075566774,32.96902270379409,135.28021212932975,120.30603462208344,3.23295607813634e-05,0.0908498615026474,0,0,0
11275,391227.431271279,2010-10-20 05:53:34,916.626030977976,4,34,0.2062365561723709,4.199653148651123,33.89873493745135,32.96902270379409,135.33870423430494,120.30603462208344,-3.23295607813634e-05,0.0908498615026474,0,0,0
11276,391510.7548441992,2010-10-20 05:58:18,1199.949603898177,4,34,0.1562077850103378,4.199653148651123,33.91292939795653,32.96902270379409,135.39831808593604,120.30603462208344,0.0,0.0908498615026474,0,0,0
11277,391912.7172575941,2010-10-20 06:04:59,1601.912017318162,4,34,0.1061790138483047,4.199814796447754,33.92742650683288,32.96902270379409,135.45920290421088,120.30603462208344,0.0,0.0908498615026474,0,0,0
11278,392629.1121024566,2010-10-20 06:16:56,2318.30686219578,4,34,0.0561502426862716,4.199653148651123,33.94305765506189,32.96902270379409,135.52485072768377,120.30603462208344,-3.23295607813634e-05,0.0908498615026474,0,0,0
11279,392775.2503573986,2010-10-20 06:19:22,2464.4451170926,4,34,0.0498289167881011,4.199653148651123,33.94522104066999,32.96902270379409,135.53393654495957,120.30603462208344,-3.23295607813634e-05,0.0908498615026474,0,0,0
11280,392805.25317885226,2010-10-20 06:19:52,30.015144385237058,5,34,0.0,4.191397190093994,33.94522104066999,32.96902270379409,135.53393654495957,120.30603462208344,-9.70840483205393e-05,0.0908498615026474,0,0,0
11281,392835.25271528267,2010-10-20 06:20:22,60.01468085073568,5,34,0.0,4.1901021003723145,33.94522104066999,32.96902270379409,135.53393654495957,120.30603462208344,-6.47544875391759e-05,0.0908498615026474,0,0,0
11282,392835.4440586914,2010-10-20 06:20:22,0.187088527175422,6,34,-1.9243103452026844e-05,4.1901021003723145,33.94522104066999,32.969022704794135,135.53393654495957,120.30603462627374,0.0,0.0978845432400703,0,0,0
11283,392840.27227892686,2010-10-20 06:20:27,5.015308787670811,6,34,0.0010644125286489,4.190263748168945,33.94522199227482,32.969022704961056,135.533940532542,120.30603462697316,-3.24249267578125e-05,0.0978845432400703,0,0,0
11284,392870.2916648246,2010-10-20 06:20:57,30.015224339507697,7,34,-1.0993878841400146,4.006361484527588,33.94522199227482,32.97819007831166,135.533940532542,120.34296909609834,-0.0009713172912597,0.0978845432400703,0,0,0
11285,392900.3068201822,2010-10-20 06:21:27,60.030379677041246,7,34,-1.0993878841400146,3.977545976638794,33.94522199227482,32.987357346560145,135.533940532542,120.37955418853,-0.0006151676061563,0.0978845432400703,0,0,0
11286,392930.3219685624,2010-10-20 06:21:57,90.0455280873099,7,34,-1.0993878841400146,3.957148313522339,33.94522199227482,32.99652449930269,135.533940532542,120.41591912028078,-0.0004856586456298,0.0978845432400703,0,0,0
11287,392960.3370976244,2010-10-20 06:22:27,120.06065711426942,7,34,-1.0993878841400146,3.9417691230773926,33.94522199227482,33.00569169362041,135.533940532542,120.45212338086084,-0.0003885269106831,0.0978845432400703,0,0,0
11288,392990.35211534885,2010-10-20 06:22:57,150.07567484384157,7,34,-1.0993878841400146,3.929141998291016,33.94522199227482,33.01485879412815,135.533940532542,120.4881984195778,-0.0002913951757363,0.0978845432400703,0,0,0
11289,393020.3673997884,2010-10-20 06:23:27,180.09095929316143,7,34,-1.099568486213684,3.9178099632263184,33.94522199227482,33.02402607448863,135.533940532542,120.52416471590284,-0.0002913951757363,0.0978845432400703,0,0,0
11290,393050.3824012173,2010-10-20 06:23:57,210.1059607371449,7,34,-1.099568486213684,3.90761137008667,33.94522199227482,33.033193235593465,135.533940532542,120.56003292407097,-0.0002913951757363,0.0978845432400703,0,0,0
11291,393080.3975556826,2010-10-20 06:24:28,240.12111518245476,7,34,-1.099568486213684,3.898060083389282,33.94522199227482,33.04236043727073,135.533940532542,120.59581054176606,-0.0002590179501567,0.0978845432400703,0,0,0
11292,393110.41270211793,2010-10-20 06:24:58,270.1362615977513,7,34,-1.099568486213684,3.888994455337525,33.94522199227482,33.051527659215466,135.533940532542,120.63150260798469,-0.0002266406954731,0.0978845432400703,0,0,0
11293,393140.42786163086,2010-10-20 06:25:28,300.1514211407662,7,34,-1.0993878841400146,3.880090713500977,33.94522199227482,33.06069485550643,135.533940532542,120.66711191162698,-0.0002266406954731,0.0978845432400703,0,0,0
11294,393170.443066597,2010-10-20 06:25:58,330.16662614708963,7,34,-1.0993878841400146,3.8715107440948486,33.94522199227482,33.06986208841497,135.533940532542,120.70264129542144,-0.0002266406954731,0.0978845432400703,0,0,0
11295,393200.45825730776,2010-10-20 06:26:28,360.18181692294644,7,34,-1.099568486213684,3.86309266090393,33.94522199227482,33.07902937159071,135.533940532542,120.73809333062071,-0.0002266406954731,0.0978845432400703,0,0,0
11296,393230.47328171897,2010-10-20 06:26:58,390.1968412038465,7,34,-1.0993878841400146,3.854836463928223,33.94522199227482,33.088196639097546,135.533940532542,120.77346904613732,-0.0002266406954731,0.0978845432400703,0,0,0
11297,393260.48842414434,2010-10-20 06:27:28,420.211983629199,7,34,-1.0997490882873535,3.846580266952514,33.94522199227482,33.097363863703485,135.533940532542,120.80876982249764,-0.0002590179501567,0.0978845432400703,0,0,0
11298,393290.5037104032,2010-10-20 06:27:58,450.2272699281286,7,34,-1.099568486213684,3.8386478424072266,33.94522199227482,33.106531091791226,135.533940532542,120.84399763836971,-0.0002266406954731,0.0978845432400703,0,0,0
11299,393320.5187045088,2010-10-20 06:28:28,480.24226399873527,7,34,-1.099568486213684,3.830877542495728,33.94522199227482,33.11569827356975,135.533940532542,120.87915261805162,-0.0002590179501567,0.0978845432400703,0,0,0
11300,393350.533880162,2010-10-20 06:28:58,510.2574396819766,7,34,-1.099568486213684,3.8232688903808594,33.94522199227482,33.1248655625773,135.533940532542,120.91423670133608,-0.0001942634553415,0.0978845432400703,0,0,0
11301,393380.54900788073,2010-10-20 06:29:28,540.2725673706005,7,34,-1.0993878841400146,3.815660238265991,33.94522199227482,33.13403273743623,135.533940532542,120.94925023892742,-0.0002266406954731,0.0978845432400703,0,0,0
11302,393410.5641482359,2010-10-20 06:29:58,570.2877077408309,7,34,-1.099568486213684,3.808213472366333,33.94522199227482,33.14319997177541,135.533940532542,120.98419458934612,-0.0001942634553415,0.0978845432400703,0,0,0
11303,393440.5794127155,2010-10-20 06:30:28,600.3029722103549,7,34,-1.099568486213684,3.8009285926818848,33.94522199227482,33.152367195615334,135.533940532542,121.01907160362124,-0.0001942634553415,0.0978845432400703,0,0,0
11304,393470.5944270816,2010-10-20 06:30:58,630.3179865965946,7,34,-1.099568486213684,3.7938055992126474,33.94522199227482,33.16153433820381,135.533940532542,121.05388282383244,-0.0001942634553415,0.0978845432400703,0,0,0
11305,393500.6095778328,2010-10-20 06:31:28,660.3331373276474,7,34,-1.099568486213684,3.786844491958618,33.94522199227482,33.17070149530382,135.533940532542,121.08862981659578,-0.0002266406954731,0.0978845432400703,0,0,0
11306,393530.6247119725,2010-10-20 06:31:58,690.3482714773744,7,34,-1.0992072820663452,3.78036904335022,33.94522199227482,33.17986868547544,135.533940532542,121.12331399816384,-0.0001295089750783,0.0978845432400703,0,0,0
11307,393560.6398899615,2010-10-20 06:32:28,720.3634494463124,7,34,-1.099568486213684,3.773407936096192,33.94522199227482,33.18903591591787,135.533940532542,121.15793615250716,-0.0001618862152099,0.0978845432400703,0,0,0
11308,393590.6551395739,2010-10-20 06:32:58,750.3786990838705,7,34,-1.099568486213684,3.766770601272583,33.94522199227482,33.198203218307,135.533940532542,121.19249720634622,-0.0001618862152099,0.0978845432400703,0,0,0
11309,393620.6701727169,2010-10-20 06:33:28,780.3937322017952,7,34,-1.099568486213684,3.760133266448975,33.94522199227482,33.207370407107454,135.533940532542,121.22699805053747,-0.0002266406954731,0.0978845432400703,0,0,0
11310,393650.6854084899,2010-10-20 06:33:58,810.4089680098863,7,34,-1.0993878841400146,3.753819704055786,33.94522199227482,33.21653773207293,135.533940532542,121.26144022130258,-0.0001942634553415,0.0978845432400703,0,0,0
11311,393680.7004230115,2010-10-20 06:34:28,840.4239825013882,7,34,-1.099568486213684,3.7476682662963863,33.94522199227482,33.225704966972046,135.533940532542,121.29582368116012,-0.0001618862152099,0.0978845432400703,0,0,0
11312,393710.7155820683,2010-10-20 06:34:58,870.439141548166,7,34,-1.099568486213684,3.741192817687988,33.94522199227482,33.2348722900682,135.533940532542,121.3301505153327,-0.0001942634553415,0.0978845432400703,0,0,0
11313,393740.7309131088,2010-10-20 06:35:28,900.4544725886054,7,34,-1.099568486213684,3.73552680015564,33.94522199227482,33.24403958886564,135.533940532542,121.36442179470284,-0.0001295089750783,0.0978845432400703,0,0,0
11314,393770.7459486828,2010-10-20 06:35:58,930.4695083030012,7,34,-1.099568486213684,3.729537010192871,33.94522199227482,33.253206810749305,135.533940532542,121.39863853445776,-0.0001295089750783,0.0978845432400703,0,0,0
11315,393800.7610155248,2010-10-20 06:36:28,960.4845750447269,7,34,-1.0997490882873535,3.723709106445313,33.94522199227482,33.26237404178412,135.533940532542,121.43280252244668,-0.0001942634553415,0.0978845432400703,0,0,0
11316,393830.776275453,2010-10-20 06:36:58,990.4998349378452,7,34,-1.0993878841400146,3.718204975128174,33.94522199227482,33.271541351047084,135.533940532542,121.46691445439242,-0.0001295089750783,0.0978845432400703,0,0,0
11317,393860.79143149225,2010-10-20 06:37:28,1020.51499098214,7,34,-1.099568486213684,3.712700843811035,33.94522199227482,33.28070860908694,135.533940532542,121.50097453109784,-0.0001295089750783,0.0978845432400703,0,0,0
11318,393890.8065706444,2010-10-20 06:37:58,1050.5301301343347,7,34,-1.099568486213684,3.706872940063477,33.94522199227482,33.28987589071303,135.533940532542,121.53498370687778,-0.0001942634553415,0.0978845432400703,0,0,0
11319,393920.82158677006,2010-10-20 06:38:28,1080.5451463100342,7,34,-1.0992072820663452,3.701854467391968,33.94522199227482,33.29904310743802,135.533940532542,121.56894271059254,-0.0001295089750783,0.0978845432400703,0,0,0
11320,393950.8367290751,2010-10-20 06:38:58,1110.560288554937,7,34,-1.0993878841400146,3.696350336074829,33.94522199227482,33.30821039530698,135.533940532542,121.60285257026568,-0.0001618862152099,0.0978845432400703,0,0,0
11321,393980.8518907083,2010-10-20 06:39:28,1140.5754501831486,7,34,-1.0993878841400146,3.691008090972901,33.94522199227482,33.31737777947792,135.533940532542,121.6367140903548,-0.0001618862152099,0.0978845432400703,0,0,0
11322,394010.867008778,2010-10-20 06:39:58,1170.5905682828743,7,34,-1.0993878841400146,3.685989618301392,33.94522199227482,33.32654500607708,135.533940532542,121.67052692943284,-0.0001295089750783,0.0978845432400703,0,0,0
11323,394040.882153875,2010-10-20 06:40:28,1200.6057133498102,7,34,-1.099568486213684,3.680809259414673,33.94522199227482,33.33571229248934,135.533940532542,121.70429282327318,-0.0001295089750783,0.0978845432400703,0,0,0
11324,394070.897296972,2010-10-20 06:40:58,1230.6208564668866,7,34,-1.099568486213684,3.675790786743164,33.94522199227482,33.34487964041962,135.533940532542,121.73801279037588,-0.0001295089750783,0.0978845432400703,0,0,0
11325,394100.912454911,2010-10-20 06:41:28,1260.636014385854,7,34,-1.0993878841400146,3.6707725524902335,33.94522199227482,33.35404697928915,135.533940532542,121.77168679236064,-0.0001295089750783,0.0978845432400703,0,0,0
11326,394130.9276044541,2010-10-20 06:41:58,1290.6511640542583,7,34,-1.099568486213684,3.665915966033936,33.94522199227482,33.36321430522789,135.533940532542,121.80531512187548,-0.0001295089750783,0.0978845432400703,0,0,0
11327,394160.9430222458,2010-10-20 06:42:28,1320.6665817857584,7,34,-1.0997490882873535,3.6608974933624263,33.94522199227482,33.37238170425684,135.533940532542,121.83889920385243,-0.0001618862152099,0.0978845432400703,0,0,0
11328,394190.9579092695,2010-10-20 06:42:58,1350.6814688095717,7,34,-1.0993878841400146,3.656364679336548,33.94522199227482,33.38154895060495,135.533940532542,121.87243890521906,-9.713172767078504e-05,0.0978845432400703,0,0,0
11329,394220.9730439306,2010-10-20 06:43:28,1380.696603420448,7,34,-1.0993878841400146,3.651669979095459,33.94522199227482,33.39071623988221,135.533940532542,121.90593569467936,-0.0001295089750783,0.0978845432400703,0,0,0
11330,394250.9881633987,2010-10-20 06:43:58,1410.7117229136463,7,34,-1.099568486213684,3.64681339263916,33.94522199227482,33.39988353798427,135.533940532542,121.93938973032478,-0.0001618862152099,0.0978845432400703,0,0,0
11331,394281.0033068666,2010-10-20 06:44:28,1440.7268663815971,7,34,-1.099568486213684,3.642280578613281,33.94522199227482,33.40905070031008,135.533940532542,121.97280036559988,-0.0001295089750783,0.0978845432400703,0,0,0
11332,394311.0184704046,2010-10-20 06:44:58,1470.7420299245814,7,34,-1.099568486213684,3.637909650802612,33.94522199227482,33.41821794380768,135.533940532542,122.00616965932817,-9.713172767078504e-05,0.0978845432400703,0,0,0
11333,394341.0336162636,2010-10-20 06:45:28,1500.7571757484036,7,34,-1.0993878841400146,3.633376836776733,33.94522199227482,33.42738508909565,135.533940532542,122.0394975011298,-9.713172767078504e-05,0.0978845432400703,0,0,0
11334,394371.04874379176,2010-10-20 06:45:58,1530.7723032766278,7,34,-1.099568486213684,3.629005908966065,33.94522199227482,33.43655233224727,135.533940532542,122.0727858368942,-0.0001295089750783,0.0978845432400703,0,0,0
11335,394401.0640315593,2010-10-20 06:46:28,1560.7875910993553,7,34,-1.099568486213684,3.6247968673706055,33.94522199227482,33.44571960142593,135.533940532542,122.10603447044478,-0.0001295089750783,0.0978845432400703,0,0,0
11336,394431.0790323768,2010-10-20 06:46:58,1590.8025918566273,7,34,-1.099568486213684,3.620425939559937,33.94522199227482,33.45488677447552,135.533940532542,122.13924384953634,-0.0001295089750783,0.0978845432400703,0,0,0
11337,394461.0941784512,2010-10-20 06:47:28,1620.8177379561369,7,34,-1.0993878841400146,3.6165406703948975,33.94522199227482,33.46405404284901,135.533940532542,122.1724157649664,-9.713172767078504e-05,0.0978845432400703,0,0,0
11338,394491.1093089268,2010-10-20 06:47:58,1650.8328684317066,7,34,-1.099568486213684,3.612493515014648,33.94522199227482,33.473221304946826,135.533940532542,122.20555035936302,-6.47544875391759e-05,0.0978845432400703,0,0,0
11339,394521.1244560438,2010-10-20 06:48:28,1680.8480155537648,7,34,-1.099568486213684,3.60860824584961,33.94522199227482,33.48238850586472,135.533940532542,122.2386486642573,-0.0001295089750783,0.0978845432400703,0,0,0
11340,394551.13960473984,2010-10-20 06:48:58,1710.8631642497455,7,34,-1.0993878841400146,3.6047229766845694,33.94522199227482,33.49155571640544,135.533940532542,122.27171135409736,-0.0001295089750783,0.0978845432400703,0,0,0
11341,394581.1547696412,2010-10-20 06:49:28,1740.8783291761774,7,34,-1.099568486213684,3.601161479949951,33.94522199227482,33.500723005597145,135.533940532542,122.30474026076222,-9.713172767078504e-05,0.0978845432400703,0,0,0
11342,394611.1700315093,2010-10-20 06:49:58,1770.8935910141429,7,34,-1.099568486213684,3.597276210784912,33.94522199227482,33.509890264474535,135.533940532542,122.33773494582626,-9.713172767078504e-05,0.0978845432400703,0,0,0
11343,394641.1849550942,2010-10-20 06:50:28,1800.9085146241405,7,34,-1.099568486213684,3.593876600265503,33.94522199227482,33.519057366083224,135.533940532542,122.37069569283592,-9.713172767078504e-05,0.0978845432400703,0,0,0
11344,394671.2002457138,2010-10-20 06:50:58,1830.923805258876,7,34,-1.099568486213684,3.590315341949463,33.94522199227482,33.52822455310125,135.533940532542,122.40362448744229,-9.713172767078504e-05,0.0978845432400703,0,0,0
11345,394701.2154593867,2010-10-20 06:51:28,1860.939018891699,7,34,-1.099568486213684,3.586591958999634,33.94522199227482,33.53739163951675,135.533940532542,122.4365208611944,-0.0001295089750783,0.0978845432400703,0,0,0
11346,394731.2305531108,2010-10-20 06:51:58,1890.9541126357228,7,34,-1.099568486213684,3.5835161209106445,33.94522199227482,33.54655874556208,135.533940532542,122.46938580285966,-6.47544875391759e-05,0.0978845432400703,0,0,0
11347,394761.2455709506,2010-10-20 06:52:28,1920.969130445495,7,34,-1.099568486213684,3.5799546241760254,33.94522199227482,33.55572585274244,135.533940532542,122.502219859819,-9.713172767078504e-05,0.0978845432400703,0,0,0
11348,394791.26069752144,2010-10-20 06:52:58,1950.984257026358,7,34,-1.0993878841400146,3.576555013656616,33.94522199227482,33.564893052740544,135.533940532542,122.53502369811989,-0.0001618862152099,0.0978845432400703,0,0,0
11349,394821.275870899,2010-10-20 06:53:28,1980.9994304038528,7,34,-1.0993878841400146,3.573479175567627,33.94522199227482,33.57406018974242,135.533940532542,122.56779694127546,-6.47544875391759e-05,0.0978845432400703,0,0,0
11350,394851.2911162608,2010-10-20 06:53:58,2011.014675785805,7,34,-1.099568486213684,3.570241451263428,33.94522199227482,33.58322734497735,135.533940532542,122.60054027088955,-9.713172767078504e-05,0.0978845432400703,0,0,0
11351,394881.306130617,2010-10-20 06:54:28,2041.0296900968567,7,34,-1.099568486213684,3.5668418407440186,33.94522199227482,33.59239449088983,135.533940532542,122.6332539243972,-9.713172767078504e-05,0.0978845432400703,0,0,0
11352,394911.3212703005,2010-10-20 06:54:58,2071.044829805438,7,34,-1.099568486213684,3.5637660026550293,33.94522199227482,33.601561626275696,135.533940532542,122.66593785637862,-6.47544875391759e-05,0.0978845432400703,0,0,0
11353,394941.33644387353,2010-10-20 06:55:28,2101.0600033784203,7,34,-1.099568486213684,3.56069016456604,33.94522199227482,33.61072876570167,135.533940532542,122.69859258785948,-3.237724376958795e-05,0.0978845432400703,0,0,0
11354,394971.3515502991,2010-10-20 06:55:58,2131.075109784,7,34,-1.0993878841400146,3.557452440261841,33.94522199227482,33.61989583423372,135.533940532542,122.73121789975288,-6.47544875391759e-05,0.0978845432400703,0,0,0
11355,395001.36670252896,2010-10-20 06:56:29,2161.0902620338384,7,34,-1.0993878841400146,3.5542147159576416,33.94522199227482,33.62906300554364,135.533940532542,122.76381434945309,-3.237724376958795e-05,0.0978845432400703,0,0,0
11356,395031.38213411,2010-10-20 06:56:59,2191.105693619868,7,34,-1.0992072820663452,3.5511388778686523,33.94522199227482,33.638230235522784,135.533940532542,122.79638183191592,-6.47544875391759e-05,0.0978845432400703,0,0,0
11357,395061.3971271881,2010-10-20 06:57:29,2221.120686682964,7,34,-1.0993878841400146,3.547901153564453,33.94522199227482,33.647397309819134,135.533940532542,122.828919709596,-6.47544875391759e-05,0.0978845432400703,0,0,0
11358,395091.4121455342,2010-10-20 06:57:59,2251.13570502406,7,34,-1.0997490882873535,3.544501543045044,33.94522199227482,33.65656444533004,135.533940532542,122.86142896347988,-0.0001295089750783,0.0978845432400703,0,0,0
11359,395121.4272881851,2010-10-20 06:58:29,2281.1508477902617,7,34,-1.099568486213684,3.5414257049560547,33.94522199227482,33.665731535109565,135.533940532542,122.8939086652142,-0.0001295089750783,0.0978845432400703,0,0,0
11360,395151.44241817447,2010-10-20 06:58:59,2311.1659776543074,7,34,-1.0993878841400146,3.538349866867065,33.94522199227482,33.67489865620061,135.533940532542,122.92635900008896,-6.47544875391759e-05,0.0978845432400703,0,0,0
11361,395181.4576030657,2010-10-20 06:59:29,2341.181162600636,7,34,-1.0997490882873535,3.5347883701324463,33.94522199227482,33.68406588488988,135.533940532542,122.9587799299502,-0.0001295089750783,0.0978845432400703,0,0,0
11362,395211.472714178,2010-10-20 06:59:59,2371.1962736578084,7,34,-1.0993878841400146,3.531874418258667,33.94522199227482,33.69323299980473,135.533940532542,122.99117031367086,-6.47544875391759e-05,0.0978845432400703,0,0,0
11363,395241.4882816727,2010-10-20 07:00:29,2401.211841207702,7,34,-1.099568486213684,3.528312921524048,33.94522199227482,33.70240033567557,135.533940532542,123.02353100949588,-9.713172767078504e-05,0.0978845432400703,0,0,0
11364,395271.5031368321,2010-10-20 07:00:59,2431.226696326999,7,34,-1.099568486213684,3.5249133110046387,33.94522199227482,33.71156737307668,135.533940532542,123.05586001000567,-6.47544875391759e-05,0.0978845432400703,0,0,0
11365,395301.51814745896,2010-10-20 07:01:29,2461.2417069438443,7,34,-1.099568486213684,3.521513700485229,33.94522199227482,33.72073451363221,135.533940532542,123.08815763044744,-6.47544875391759e-05,0.0978845432400703,0,0,0
11366,395331.53325388464,2010-10-20 07:01:59,2491.256813419599,7,34,-1.099568486213684,3.5177903175354004,33.94522199227482,33.72990161995828,135.533940532542,123.1204225541866,-9.713172767078504e-05,0.0978845432400703,0,0,0
11367,395361.54839318217,2010-10-20 07:02:29,2521.271952667032,7,34,-1.099568486213684,3.5139050483703613,33.94522199227482,33.73906877823002,135.533940532542,123.15265361286733,-0.0001295089750783,0.0978845432400703,0,0,0
11368,395391.5635365147,2010-10-20 07:02:59,2551.2870960146824,7,34,-1.099568486213684,3.5101819038391118,33.94522199227482,33.748235922425174,135.533940532542,123.18484937636244,-9.713172767078504e-05,0.0978845432400703,0,0,0
11369,395421.5786917521,2010-10-20 07:03:29,2581.302251251966,7,34,-1.0993878841400146,3.5059728622436523,33.94522199227482,33.757403089051145,135.533940532542,123.21700844582638,-9.713172767078504e-05,0.0978845432400703,0,0,0
11370,395451.5938481372,2010-10-20 07:03:59,2611.3174076772107,7,34,-1.099568486213684,3.5016019344329834,33.94522199227482,33.76657020783746,135.533940532542,123.24912869401672,-0.0001295089750783,0.0978845432400703,0,0,0
11371,395481.6089939209,2010-10-20 07:04:29,2641.332553455921,7,34,-1.099568486213684,3.4970691204071045,33.94522199227482,33.7757373378582,135.533940532542,123.2812084762282,-0.0001618862152099,0.0978845432400703,0,0,0
11372,395511.6241100909,2010-10-20 07:04:59,2671.3476695706995,7,34,-1.0993878841400146,3.492374420166016,33.94522199227482,33.78490446566713,135.533940532542,123.31324591198246,-0.0001618862152099,0.0978845432400703,0,0,0
11373,395541.6392630324,2010-10-20 07:05:29,2701.362822562386,7,34,-1.0993878841400146,3.487517833709717,33.94522199227482,33.794071557021994,135.533940532542,123.34523853182164,-9.713172767078504e-05,0.0978845432400703,0,0,0
11374,395571.6545273266,2010-10-20 07:05:59,2731.378086816373,7,34,-1.099568486213684,3.481851816177368,33.94522199227482,33.80323870806675,135.533940532542,123.3771835657453,-0.0001618862152099,0.0978845432400703,0,0,0
11375,395601.6695136829,2010-10-20 07:06:29,2761.3930731727537,7,34,-1.099568486213684,3.4758620262146,33.94522199227482,33.81240615956986,135.533940532542,123.4090761131646,-0.0001618862152099,0.0978845432400703,0,0,0
11376,395631.6846351159,2010-10-20 07:06:59,2791.408194650899,7,34,-1.099568486213684,3.4689009189605717,33.94522199227482,33.821573943998814,135.533940532542,123.44091075364555,-0.0002266406954731,0.0978845432400703,0,0,0
11377,395661.7000246872,2010-10-20 07:07:29,2821.4235843074275,7,34,-1.0993878841400146,3.461616039276123,33.94522199227482,33.83074177258797,135.533940532542,123.47268038094532,-0.0001942634553415,0.0978845432400703,0,0,0
11378,395691.7004404993,2010-10-20 07:07:59,2851.4240001345665,7,34,-1.099568486213684,3.453036069869995,33.94522199227482,33.83990512289785,135.533940532542,123.50436172196603,-0.0002266406954731,0.0978845432400703,0,0,0
11379,395721.71453983,2010-10-20 07:08:29,2881.438099430118,7,34,-1.099568486213684,3.443322896957397,33.94522199227482,33.84907267146442,135.533940532542,123.53597448245996,-0.0002913951757363,0.0978845432400703,0,0,0
11380,395751.7296101356,2010-10-20 07:08:59,2911.4531696154263,7,34,-1.099568486213684,3.4318289756774902,33.94522199227482,33.858240530816005,135.533940532542,123.56749083805413,-0.0003561496851034,0.0978845432400703,0,0,0
11381,395781.7447511574,2010-10-20 07:09:29,2941.468310662344,7,34,-1.099568486213684,3.4180688858032227,33.94522199227482,33.86740819517815,135.533940532542,123.59889128395312,-0.0004209041653666,0.0978845432400703,0,0,0
11382,395811.7599244096,2010-10-20 07:09:59,2971.4834839195382,7,34,-1.0993878841400146,3.4022040367126465,33.94522199227482,33.876575317755346,135.533940532542,123.6301552901857,-0.0004532813909463,0.0978845432400703,0,0,0
11383,395841.7751665735,2010-10-20 07:10:29,3001.498726068432,7,34,-1.099568486213684,3.3821301460266118,33.94522199227482,33.885742364267614,135.533940532542,123.66125498462088,-0.0006475448608398,0.0978845432400703,0,0,0
11384,395871.79017467407,2010-10-20 07:10:59,3031.5137341790305,7,34,-1.099568486213684,3.3568758964538574,33.94522199227482,33.894909367014336,135.533940532542,123.69214818998164,-0.0007446765666827,0.0978845432400703,0,0,0
11385,395901.8053188789,2010-10-20 07:11:29,3061.5288783888304,7,34,-1.0993878841400146,3.3236894607543945,33.94522199227482,33.90407648447597,135.533940532542,123.722775568083,-0.0010036944877356,0.0978845432400703,0,0,0
11386,395931.82047449215,2010-10-20 07:11:59,3091.5440339719767,7,34,-1.099568486213684,3.2790088653564453,33.94522199227482,33.91324354926325,135.533940532542,123.75305010442504,-0.0013598442310467,0.0978845432400703,0,0,0
11387,395961.8356092383,2010-10-20 07:12:29,3121.5591687683145,7,34,-1.0993878841400146,3.2165210247039795,33.94522199227482,33.92241061841119,135.533940532542,123.78283955332212,-0.0020073889754712,0.0978845432400703,0,0,0
11388,395991.8507492677,2010-10-20 07:12:59,3151.574308797696,7,34,-1.099568486213684,3.123760461807251,33.94522199227482,33.93157775683475,135.533940532542,123.81193071853292,-0.0029463290702551,0.0978845432400703,0,0,0
11389,396021.8659046554,2010-10-20 07:13:29,3181.589464160292,7,34,-1.099568486213684,2.9696452617645264,33.94522199227482,33.94074484114978,135.533940532542,123.83993689145343,-0.0055041313171386,0.0978845432400703,0,0,0
11390,396042.756215954,2010-10-20 07:13:50,3202.479775448811,7,34,-1.099568486213684,2.769230842590332,33.94522199227482,33.94712508171293,135.533940532542,123.85830183714748,-0.0094217304140329,0.0978845432400703,0,0,0
11391,396048.2248925888,2010-10-20 07:13:55,3207.9484520736296,7,34,-1.099568486213684,2.699620008468628,33.94522199227482,33.94879530568614,135.533940532542,123.86287011621134,-0.0102959154173731,0.0978845432400703,0,0,0
11392,396108.24848789687,2010-10-20 07:14:56,60.01461110190012,8,34,0.0,3.383910894393921,33.94522199227482,33.94879530568614,135.533940532542,123.86287011621134,0.0013274669181555,0.0978845432400703,0,0,0
11393,396108.4459935654,2010-10-20 07:14:56,0.187476669545637,9,34,-1.9243103452026844e-05,3.384072780609131,33.94522199227482,33.94879530668826,135.533940532542,123.86287011960258,0.0,0.0922218039631843,0,0,0
11394,396113.2741792447,2010-10-20 07:15:01,5.015662338829082,9,34,0.0005225847125984,3.392328977584839,33.94522291234165,33.948795306856525,135.5339436504625,123.862870120172,0.0011655807029455,0.0922218039631843,0,0,0
