Data_Point,Test_Time(s),Date_Time,Step_Time(s),Step_Index,Cycle_Index,Current(A),Voltage(V),Charge_Capacity(Ah),Discharge_Capacity(Ah),Charge_Energy(Wh),Discharge_Energy(Wh),dV/dt(V/s),Internal_Resistance(Ohm),Is_FC_Data,AC_Impedance(Ohm),ACI_Phase_Angle(Deg)
4399,152113.6726627719,2010-10-17 11:27:55,30.01514220480274,1,14,0.0,3.3571996688842773,13.084131998103793,13.102826459081768,52.20362994995169,47.892188648308334,0.0008094310760498,0.0897949114441871,0,0,0
4400,152143.68801375706,2010-10-17 11:28:25,60.03049317992535,1,14,0.0,3.382777690887451,13.084131998103793,13.102826459081768,52.20362994995169,47.892188648308334,0.0005827903514727,0.0897949114441871,0,0,0
4401,152173.7033435243,2010-10-17 11:28:55,90.04582293716648,1,14,0.0,3.4025278091430664,13.084131998103793,13.102826459081768,52.20362994995169,47.892188648308334,0.0005180359003134,0.0897949114441871,0,0,0
4402,152203.67146726965,2010-10-17 11:29:25,120.01394664741356,1,14,0.0,3.4179069995880127,13.084131998103793,13.102826459081768,52.20362994995169,47.892188648308334,0.0003885269106831,0.0897949114441871,0,0,0
4403,152233.68230093538,2010-10-17 11:29:55,30.015102455735832,2,14,0.5501165986061096,3.573479175567627,13.088718599368931,13.102826459081768,52.219848392180005,47.892188648308334,0.0017483711708337,0.0897949114441871,0,0,0
4404,152263.69748763109,2010-10-17 11:30:25,60.03028921658595,2,14,0.5501165986061096,3.623987436294556,13.093305270426054,13.102826459081768,52.23636092392956,47.892188648308334,0.0011979580158367,0.0897949114441871,0,0,0
4405,152293.7127138954,2010-10-17 11:30:55,90.04551538565347,2,14,0.5501165986061096,3.660411834716797,13.09789199462364,13.102826459081768,52.25307025985704,47.892188648308334,0.0008741855854168,0.0897949114441871,0,0,0
4406,152323.7279366309,2010-10-17 11:31:25,120.060738146226,2,14,0.5501165986061096,3.689227342605591,13.102478657960894,13.102826459081768,52.26992775019383,47.892188648308334,0.0006799221155233,0.0897949114441871,0,0,0
4407,152353.74316071477,2010-10-17 11:31:56,150.07596223009654,2,14,0.5501165986061096,3.712538957595825,13.107065264994825,13.102826459081768,52.28690376178683,47.892188648308334,0.0005827903514727,0.0897949114441871,0,0,0
4408,152383.75833915488,2010-10-17 11:32:26,180.09114064514637,2,14,0.550297200679779,3.731965303421021,13.111651872396813,13.102826459081768,52.303977653700194,47.892188648308334,0.0005504131549969,0.0897949114441871,0,0,0
4409,152413.7735461261,2010-10-17 11:32:56,210.10634762137943,2,14,0.5501165986061096,3.7476682662963863,13.116238491046223,13.102826459081768,52.32113214435995,47.892188648308334,0.0003885269106831,0.0897949114441871,0,0,0
4410,152443.78896215334,2010-10-17 11:33:26,240.1217637037694,2,14,0.5501165986061096,3.758838176727295,13.12082508602057,13.102826459081768,52.338348998767046,47.892188648308334,0.0001942634553415,0.0897949114441871,0,0,0
4411,152473.80414611724,2010-10-17 11:33:56,270.1369476225362,2,14,0.5501165986061096,3.765637397766113,13.12541172452735,13.102826459081768,52.35560623253719,47.892188648308334,0.0001618862152099,0.0897949114441871,0,0,0
4412,152503.81959298634,2010-10-17 11:34:26,300.1523945066936,2,14,0.5501165986061096,3.7700083255767822,13.12999839708278,13.102826459081768,52.372887655296026,47.892188648308334,0.0001618862152099,0.0897949114441871,0,0,0
4413,152533.83452187953,2010-10-17 11:34:56,330.16732340487056,2,14,0.5501165986061096,3.773407936096192,13.134584980037872,13.102826459081768,52.39018636320812,47.892188648308334,9.713172767078504e-05,0.0897949114441871,0,0,0
4414,152563.84962297688,2010-10-17 11:35:26,360.1824244871834,2,14,0.5501165986061096,3.7768075466156006,13.139171554584914,13.102826459081768,52.40750106452293,47.892188648308334,9.713172767078504e-05,0.0897949114441871,0,0,0
4415,152593.86498206723,2010-10-17 11:35:56,390.1977835675068,2,14,0.5501165986061096,3.7802071571350098,13.14375814267668,13.102826459081768,52.42483138183094,47.892188648308334,0.0001295089750783,0.0897949114441871,0,0,0
4416,152623.8800512751,2010-10-17 11:36:26,420.2128527904161,2,14,0.5501165986061096,3.783606767654419,13.14834473645758,13.102826459081768,52.44217696489244,47.892188648308334,9.713172767078504e-05,0.0897949114441871,0,0,0
4417,152653.895240066,2010-10-17 11:36:56,450.22804164147567,2,14,0.550297200679779,3.786682605743408,13.152931325131808,13.102826459081768,52.459537480246325,47.892188648308334,9.713172767078504e-05,0.0897949114441871,0,0,0
4418,152683.91044769887,2010-10-17 11:37:26,480.2432492141954,2,14,0.550297200679779,3.789920330047608,13.15751795197082,13.102826459081768,52.47691287709281,47.892188648308334,6.47544875391759e-05,0.0897949114441871,0,0,0
4419,152713.925820338,2010-10-17 11:37:56,510.2586218783738,2,14,0.5501165986061096,3.7929961681365967,13.162104603694187,13.102826459081768,52.49430269672855,47.892188648308334,9.713172767078504e-05,0.0897949114441871,0,0,0
4420,152743.9408634458,2010-10-17 11:38:26,540.2736649661464,2,14,0.5501165986061096,3.795910120010376,13.166691167256314,13.102826459081768,52.511706327516855,47.892188648308334,9.713172767078504e-05,0.0897949114441871,0,0,0
4421,152773.95609846694,2010-10-17 11:38:56,570.2888999772509,2,14,0.550297200679779,3.798985958099365,13.171277795317048,13.102826459081768,52.52912406553618,47.892188648308334,6.47544875391759e-05,0.0897949114441871,0,0,0
4422,152803.9712953931,2010-10-17 11:39:26,600.3040968783738,2,14,0.550297200679779,3.8020617961883545,13.175864492656675,13.102826459081768,52.54655584440428,47.892188648308334,9.713172767078504e-05,0.0897949114441871,0,0,0
4423,152833.9865404342,2010-10-17 11:39:56,630.3193419295013,2,14,0.5499359965324402,3.804975748062134,13.180451148175653,13.102826459081768,52.56400113306307,47.892188648308334,9.713172767078504e-05,0.0897949114441871,0,0,0
4424,152864.00183091356,2010-10-17 11:40:26,660.3346324389247,2,14,0.5501165986061096,3.807889699935913,13.185037810263532,13.102826459081768,52.58146007136588,47.892188648308334,6.47544875391759e-05,0.0897949114441871,0,0,0
4425,152894.01708530297,2010-10-17 11:40:56,690.3498868533884,2,14,0.550297200679779,3.8109655380249023,13.189624424214998,13.102826459081768,52.59893257451946,47.892188648308334,6.47544875391759e-05,0.0897949114441871,0,0,0
4426,152924.0350710648,2010-10-17 11:41:26,720.3678726853851,2,14,0.5501165986061096,3.8142032623291016,13.194211530518835,13.102826459081768,52.616420950946,47.892188648308334,9.713172767078504e-05,0.0897949114441871,0,0,0
4427,152954.0474971051,2010-10-17 11:41:56,750.3802986103829,2,14,0.5499359965324402,3.817117214202881,13.198797654799412,13.102826459081768,52.63391995185033,47.892188648308334,6.47544875391759e-05,0.0897949114441871,0,0,0
4428,152984.0625754006,2010-10-17 11:42:26,780.3953769109165,2,14,0.5499359965324402,3.82019305229187,13.203384276219602,13.102826459081768,52.65143541190562,47.892188648308334,3.237724376958795e-05,0.0897949114441871,0,0,0
4429,153014.07777005612,2010-10-17 11:42:56,810.4105715463925,2,14,0.5501165986061096,3.823754549026489,13.207970922172995,13.102826459081768,52.66896592592284,47.892188648308334,6.47544875391759e-05,0.0897949114441871,0,0,0
4430,153044.0929798544,2010-10-17 11:43:26,840.4257813797464,2,14,0.5501165986061096,3.8271541595458975,13.21255757621488,13.102826459081768,52.68651185499901,47.892188648308334,9.713172767078504e-05,0.0897949114441871,0,0,0
4431,153074.10820124656,2010-10-17 11:43:56,870.441002766896,2,14,0.5501165986061096,3.830553770065308,13.21714421577208,13.102826459081768,52.70407337026061,47.892188648308334,9.713172767078504e-05,0.0897949114441871,0,0,0
4432,153104.12341124532,2010-10-17 11:44:26,900.456212765662,2,14,0.5501165986061096,3.834115028381348,13.22173082448358,13.102826459081768,52.721650501138285,47.892188648308334,9.713172767078504e-05,0.0897949114441871,0,0,0
4433,153134.13862475785,2010-10-17 11:44:56,930.4714262831982,2,14,0.550297200679779,3.837514638900757,13.226317441197894,13.102826459081768,52.739243363662936,47.892188648308334,0.0001295089750783,0.0897949114441871,0,0,0
4434,153164.15396676562,2010-10-17 11:45:26,960.4867683661588,2,14,0.550297200679779,3.840914249420166,13.23090407728367,13.102826459081768,52.75685175449476,47.892188648308334,9.713172767078504e-05,0.0897949114441871,0,0,0
4435,153194.16908531147,2010-10-17 11:45:56,990.5018868067336,2,14,0.5501165986061096,3.843828201293945,13.235490667577864,13.102826459081768,52.77447521569631,47.892188648308334,6.47544875391759e-05,0.0897949114441871,0,0,0
4436,153224.18424337578,2010-10-17 11:46:26,1020.5170448660508,2,14,0.5501165986061096,3.847389698028565,13.240077209374723,13.102826459081768,52.79211340742873,47.892188648308334,0.0001295089750783,0.0897949114441871,0,0,0
4437,153254.19944903874,2010-10-17 11:46:56,1050.5322505540732,2,14,0.5501165986061096,3.850303649902344,13.244663853030744,13.102826459081768,52.80976667799359,47.892188648308334,3.237724376958795e-05,0.0897949114441871,0,0,0
4438,153284.21480176324,2010-10-17 11:47:26,1080.547603258506,2,14,0.550297200679779,3.853541374206543,13.24925051544898,13.102826459081768,52.8274343516794,47.892188648308334,9.713172767078504e-05,0.0897949114441871,0,0,0
4439,153314.22986536214,2010-10-17 11:47:56,1110.5626668774482,2,14,0.5501165986061096,3.856455326080322,13.253836304000448,13.102826459081768,52.84511240041852,47.892188648308334,9.713172767078504e-05,0.0897949114441871,0,0,0
4440,153344.24516799176,2010-10-17 11:48:26,1140.577969547179,2,14,0.5499359965324402,3.8593692779541016,13.258422017998944,13.102826459081768,52.86280380540325,47.892188648308334,6.47544875391759e-05,0.0897949114441871,0,0,0
4441,153374.26027483342,2010-10-17 11:48:56,1170.5930763637837,2,14,0.5499359965324402,3.862121343612671,13.26300784784932,13.102826459081768,52.88050877997018,47.892188648308334,3.237724376958795e-05,0.0897949114441871,0,0,0
4442,153404.27570012375,2010-10-17 11:49:26,1200.608501759385,2,14,0.5501165986061096,3.86487340927124,13.267593652239254,13.102826459081768,52.898226209552696,47.892188648308334,6.47544875391759e-05,0.0897949114441871,0,0,0
4443,153434.29111777004,2010-10-17 11:49:56,1230.6239193054228,2,14,0.5499359965324402,3.8674635887146,13.272179423628488,13.102826459081768,52.915955445867326,47.892188648308334,6.47544875391759e-05,0.0897949114441871,0,0,0
4444,153464.3060596907,2010-10-17 11:50:26,1260.638861311268,2,14,0.5499359965324402,3.869891881942749,13.27676517308974,13.102826459081768,52.933696011365214,47.892188648308334,6.47544875391759e-05,0.0897949114441871,0,0,0
4445,153494.32124113827,2010-10-17 11:50:56,1290.6540426435888,2,14,0.5501165986061096,3.872158288955689,13.281351629129375,13.102826459081768,52.951450165801056,47.892188648308334,6.47544875391759e-05,0.0897949114441871,0,0,0
4446,153524.3363234438,2010-10-17 11:51:26,1320.669124929054,2,14,0.5501165986061096,3.874262809753418,13.28593830929306,13.102826459081768,52.96921542196188,47.892188648308334,6.47544875391759e-05,0.0897949114441871,0,0,0
4447,153554.3515270366,2010-10-17 11:51:56,1350.6843285519294,2,14,0.550297200679779,3.8762054443359375,13.290524961585364,13.102826459081768,52.98698995590943,47.892188648308334,3.237724376958795e-05,0.0897949114441871,0,0,0
4448,153584.36674103033,2010-10-17 11:52:26,1380.6995426358772,2,14,0.5501165986061096,3.878148078918457,13.295111538289827,13.102826459081768,53.00477304429416,47.892188648308334,6.47544875391759e-05,0.0897949114441871,0,0,0
4449,153614.38196072826,2010-10-17 11:52:56,1410.7147623137666,2,14,0.5501165986061096,3.8797669410705566,13.299698226264006,13.102826459081768,53.02256483854698,47.892188648308334,3.237724376958795e-05,0.0897949114441871,0,0,0
4450,153644.39715579484,2010-10-17 11:53:26,1440.7299573151547,2,14,0.550297200679779,3.881547689437866,13.30428484648036,13.102826459081768,53.0403640275475,47.892188648308334,3.237724376958795e-05,0.0897949114441871,0,0,0
4451,153674.41250853936,2010-10-17 11:53:56,1470.7453100596872,2,14,0.550297200679779,3.883004665374756,13.308871553393033,13.102826459081768,53.05817072222645,47.892188648308334,6.47544875391759e-05,0.0897949114441871,0,0,0
4452,153704.42757541643,2010-10-17 11:54:26,1500.7603769116877,2,14,0.5501165986061096,3.8844616413116455,13.313458257483283,13.102826459081768,53.07598418865376,47.892188648308334,6.47544875391759e-05,0.0897949114441871,0,0,0
4453,153734.44279374593,2010-10-17 11:54:56,1530.775595236204,2,14,0.5499359965324402,3.885756731033325,13.318045057774798,13.102826459081768,53.0938042560113,47.892188648308334,3.237724376958795e-05,0.0897949114441871,0,0,0
4454,153764.4579979152,2010-10-17 11:55:26,1560.790799445541,2,14,0.5499359965324402,3.887051820755005,13.322631745937484,13.102826459081768,53.111630047323466,47.892188648308334,0.0,0.0897949114441871,0,0,0
4455,153794.47322154793,2010-10-17 11:55:56,1590.8060230432,2,14,0.550297200679779,3.888346910476685,13.327218430291326,13.102826459081768,53.12946170971079,47.892188648308334,6.47544875391759e-05,0.0897949114441871,0,0,0
4456,153824.48856085396,2010-10-17 11:56:26,1620.821362379315,2,14,0.5501165986061096,3.8894801139831534,13.331805112939492,13.102826459081768,53.1472992026636,47.892188648308334,3.237724376958795e-05,0.0897949114441871,0,0,0
4457,153854.5036366683,2010-10-17 11:56:56,1650.8364381585643,2,14,0.5501165986061096,3.890937089920044,13.336391882088206,13.102826459081768,53.16514271555058,47.892188648308334,3.237724376958795e-05,0.0897949114441871,0,0,0
4458,153884.51896703205,2010-10-17 11:57:26,1680.8517686376044,2,14,0.5501165986061096,3.8920702934265137,13.340978620034068,13.102826459081768,53.18299173876424,47.892188648308334,3.237724376958795e-05,0.0897949114441871,0,0,0
4459,153914.53408102156,2010-10-17 11:57:56,1710.8668825418736,2,14,0.5501165986061096,3.893365383148194,13.3455653637358,13.102826459081768,53.20084638969561,47.892188648308334,3.237724376958795e-05,0.0897949114441871,0,0,0
4460,153944.5493977112,2010-10-17 11:58:26,1740.8821992866838,2,14,0.5499359965324402,3.894336700439453,13.350152122258256,13.102826459081768,53.21870673926377,47.892188648308334,-3.237724376958795e-05,0.0897949114441871,0,0,0
4461,153974.5644707737,2010-10-17 11:58:56,1770.8972722639503,2,14,0.550297200679779,3.895793676376343,13.354738866848292,13.102826459081768,53.23657215918182,47.892188648308334,6.47544875391759e-05,0.0897949114441871,0,0,0
4462,154004.57966720863,2010-10-17 11:59:26,1800.9124687039234,2,14,0.5499359965324402,3.8967649936676025,13.359325556940652,13.102826459081768,53.254443053254526,47.892188648308334,0.0,0.0897949114441871,0,0,0
4463,154034.59490871592,2010-10-17 11:59:56,1830.9277103515683,2,14,0.5501165986061096,3.898383855819702,13.363912200322323,13.102826459081768,53.27231935921601,47.892188648308334,6.47544875391759e-05,0.0897949114441871,0,0,0
4464,154064.61012943642,2010-10-17 12:00:26,1860.9429309266943,2,14,0.550297200679779,3.899517059326172,13.368498860104935,13.102826459081768,53.29020140594032,47.892188648308334,6.47544875391759e-05,0.0897949114441871,0,0,0
4465,154094.62546632646,2010-10-17 12:00:56,1890.9582678618249,2,14,0.5501165986061096,3.9006502628326416,13.3730856646523,13.102826459081768,53.308089663412105,47.892188648308334,9.713172767078504e-05,0.0897949114441871,0,0,0
4466,154124.64067677135,2010-10-17 12:01:26,1920.973478276628,2,14,0.5501165986061096,3.9017834663391113,13.377672345702628,13.102826459081768,53.325983141256856,47.892188648308334,0.0,0.0897949114441871,0,0,0
4467,154154.65589762214,2010-10-17 12:01:56,1950.9886991424785,2,14,0.550297200679779,3.903078556060791,13.382259080578589,13.102826459081768,53.34388256497083,47.892188648308334,3.237724376958795e-05,0.0897949114441871,0,0,0
4468,154184.67098903033,2010-10-17 12:02:26,1981.00379053063,2,14,0.5501165986061096,3.904373645782471,13.386845721636352,13.102826459081768,53.36178738657476,47.892188648308334,6.47544875391759e-05,0.0897949114441871,0,0,0
4469,154214.68618081874,2010-10-17 12:02:56,2011.018982313998,2,14,0.5501165986061096,3.905506849288941,13.391432434312703,13.102826459081768,53.37969825081877,47.892188648308334,6.47544875391759e-05,0.0897949114441871,0,0,0
4470,154244.7015393627,2010-10-17 12:03:26,2041.0343408629967,2,14,0.5499359965324402,3.90696382522583,13.3960191754288,13.102826459081768,53.39761503464156,47.892188648308334,3.237724376958795e-05,0.0897949114441871,0,0,0
4471,154274.71663485107,2010-10-17 12:03:57,2071.0494363664056,2,14,0.550297200679779,3.9082589149475098,13.400605889163748,13.102826459081768,53.415537650742415,47.892188648308334,6.47544875391759e-05,0.0897949114441871,0,0,0
4472,154304.73185664424,2010-10-17 12:04:27,2101.0646582548043,2,14,0.550297200679779,3.9095540046691895,13.405192539036966,13.102826459081768,53.433465955672204,47.892188648308334,0.0001295089750783,0.0897949114441871,0,0,0
4473,154334.7470268739,2010-10-17 12:04:57,2131.079828399241,2,14,0.5501165986061096,3.910687208175659,13.409779224390398,13.102826459081768,53.4514003554892,47.892188648308334,3.237724376958795e-05,0.0897949114441871,0,0,0
4474,154364.76245542735,2010-10-17 12:05:27,2161.0952569477004,2,14,0.5501165986061096,3.911982297897339,13.414365944443238,13.102826459081768,53.46934095671322,47.892188648308334,0.0,0.0897949114441871,0,0,0
4475,154394.77759149688,2010-10-17 12:05:57,2191.110393002175,2,14,0.5499359965324402,3.913439273834229,13.418952653543467,13.102826459081768,53.4872876587212,47.892188648308334,0.0,0.0897949114441871,0,0,0
4476,154424.7926612862,2010-10-17 12:06:27,2221.1254627764583,2,14,0.550297200679779,3.914896011352539,13.42353933831126,13.102826459081768,53.505240428890765,47.892188648308334,3.237724376958795e-05,0.0897949114441871,0,0,0
4477,154454.80788872845,2010-10-17 12:06:57,2251.140690218698,2,14,0.5501165986061096,3.916029214859009,13.428126110356937,13.102826459081768,53.52319965328809,47.892188648308334,0.0,0.0897949114441871,0,0,0
4478,154484.82308530377,2010-10-17 12:07:27,2281.1558868240845,2,14,0.5501165986061096,3.9174861907958975,13.43271281434304,13.102826459081768,53.54116492614492,47.892188648308334,3.237724376958795e-05,0.0897949114441871,0,0,0
4479,154514.83831049537,2010-10-17 12:07:57,2311.171111985641,2,14,0.550297200679779,3.918781280517578,13.437299497124885,13.102826459081768,53.55913644178089,47.892188648308334,0.0,0.0897949114441871,0,0,0
4480,154544.85353065445,2010-10-17 12:08:27,2341.18633216478,2,14,0.5501165986061096,3.920238256454468,13.441886169543984,13.102826459081768,53.57711427144776,47.892188648308334,3.237724376958795e-05,0.0897949114441871,0,0,0
4481,154574.86872882876,2010-10-17 12:08:57,2371.201530454364,2,14,0.5501165986061096,3.921857118606568,13.446472947122547,13.102826459081768,53.595098913219466,47.892188648308334,6.47544875391759e-05,0.0897949114441871,0,0,0
4482,154604.88393490776,2010-10-17 12:09:27,2401.2167364882475,2,14,0.5499359965324402,3.922990322113037,13.451059584865469,13.102826459081768,53.613089516233856,47.892188648308334,3.237724376958795e-05,0.0897949114441871,0,0,0
4483,154634.89916864567,2010-10-17 12:09:57,2431.2319702612663,2,14,0.5501165986061096,3.924447298049927,13.455646307648106,13.102826459081768,53.631086974189294,47.892188648308334,3.237724376958795e-05,0.0897949114441871,0,0,0
4484,154664.9143742034,2010-10-17 12:10:27,2461.247175763827,2,14,0.5499359965324402,3.9257423877716064,13.460233048356816,13.102826459081768,53.64909110473473,47.892188648308334,3.237724376958795e-05,0.0897949114441871,0,0,0
4485,154694.92957722978,2010-10-17 12:10:57,2491.262378720041,2,14,0.550297200679779,3.927523136138916,13.464819711270168,13.102826459081768,53.667101453256784,47.892188648308334,6.47544875391759e-05,0.0897949114441871,0,0,0
4486,154724.94477391534,2010-10-17 12:11:27,2521.277575440713,2,14,0.5501165986061096,3.9289801120758057,13.469406417048402,13.102826459081768,53.68511872839581,47.892188648308334,3.237724376958795e-05,0.0897949114441871,0,0,0
4487,154754.9599969767,2010-10-17 12:11:57,2551.292798497024,2,14,0.5501165986061096,3.930275201797485,13.473993167089128,13.102826459081768,53.70314293577944,47.892188648308334,0.0,0.0897949114441871,0,0,0
4488,154784.9752043038,2010-10-17 12:12:27,2581.3080057990687,2,14,0.5499359965324402,3.931894063949585,13.478579918295804,13.102826459081768,53.721173911785606,47.892188648308334,6.47544875391759e-05,0.0897949114441871,0,0,0
4489,154814.9904123176,2010-10-17 12:12:57,2611.3232138078747,2,14,0.550297200679779,3.933512926101685,13.483166583936931,13.102826459081768,53.73921139071303,47.892188648308334,6.47544875391759e-05,0.0897949114441871,0,0,0
4490,154845.00854405324,2010-10-17 12:13:27,2641.3413456838584,2,14,0.5501165986061096,3.934808015823364,13.487753743342726,13.102826459081768,53.757257696897,47.892188648308334,6.47544875391759e-05,0.0897949114441871,0,0,0
4491,154875.02088334734,2010-10-17 12:13:57,2671.353684977945,2,14,0.5504778623580933,3.936426877975464,13.492340070525913,13.102826459081768,53.77530773591592,47.892188648308334,6.47544875391759e-05,0.0897949114441871,0,0,0
4492,154905.03606244407,2010-10-17 12:14:27,2701.3688640396063,2,14,0.5501165986061096,3.9378838539123535,13.49692683540614,13.102826459081768,53.79336640099644,47.892188648308334,3.237724376958795e-05,0.0897949114441871,0,0,0
4493,154935.05126096925,2010-10-17 12:14:57,2731.3840625597645,2,14,0.5501165986061096,3.939502716064453,13.50151355083516,13.102826459081768,53.81143200459623,47.892188648308334,3.237724376958795e-05,0.0897949114441871,0,0,0
4494,154965.0664752086,2010-10-17 12:15:27,2761.3992767088744,2,14,0.5501165986061096,3.9411215782165527,13.506100372876045,13.102826459081768,53.82950518720524,47.892188648308334,3.237724376958795e-05,0.0897949114441871,0,0,0
4495,154995.08169778873,2010-10-17 12:15:57,2791.414499288997,2,14,0.5499359965324402,3.9425785541534415,13.510687111942165,13.102826459081768,53.84758516727922,47.892188648308334,6.47544875391759e-05,0.0897949114441871,0,0,0
4496,155025.09689637402,2010-10-17 12:16:27,2821.429697869305,2,14,0.5501165986061096,3.944197416305542,13.515273881797292,13.102826459081768,53.865672550999655,47.892188648308334,3.237724376958795e-05,0.0897949114441871,0,0,0
4497,155055.1122666623,2010-10-17 12:16:57,2851.4450681675867,2,14,0.5501165986061096,3.945654392242432,13.5198606822001,13.102826459081768,53.88376734291876,47.892188648308334,6.47544875391759e-05,0.0897949114441871,0,0,0
4498,155085.12747003455,2010-10-17 12:17:27,2881.460271529813,2,14,0.5499359965324402,3.947435140609741,13.524447452120228,13.102826459081768,53.90186929335199,47.892188648308334,6.47544875391759e-05,0.0897949114441871,0,0,0
4499,155115.1426797075,2010-10-17 12:17:57,2911.475481212792,2,14,0.5501165986061096,3.949054002761841,13.529034211833755,13.102826459081768,53.91997865015084,47.892188648308334,3.237724376958795e-05,0.0897949114441871,0,0,0
4500,155145.1577195472,2010-10-17 12:18:27,2941.4905210474567,2,14,0.5499359965324402,3.9505109786987305,13.533620915770744,13.102826459081768,53.93809521558251,47.892188648308334,3.237724376958795e-05,0.0897949114441871,0,0,0
4501,155175.1729313404,2010-10-17 12:18:57,2971.505732845708,2,14,0.550297200679779,3.95229172706604,13.538207650020324,13.102826459081768,53.95621941821035,47.892188648308334,3.237724376958795e-05,0.0897949114441871,0,0,0
4502,155205.1881948425,2010-10-17 12:19:27,3001.520996337796,2,14,0.5501165986061096,3.9540724754333496,13.542794437559603,13.102826459081768,53.974351470215176,47.892188648308334,6.47544875391759e-05,0.0897949114441871,0,0,0
4503,155235.20343982847,2010-10-17 12:19:57,3031.536241413986,2,14,0.550297200679779,3.955853223800659,13.54738125490821,13.102826459081768,53.9924913833723,47.892188648308334,9.713172767078504e-05,0.0897949114441871,0,0,0
4504,155265.21863243892,2010-10-17 12:20:27,3061.5514340544896,2,14,0.5501165986061096,3.957148313522339,13.55196802734996,13.102826459081768,54.01063882816767,47.892188648308334,3.237724376958795e-05,0.0897949114441871,0,0,0
4505,155295.23388474813,2010-10-17 12:20:57,3091.566686298544,2,14,0.5501165986061096,3.958929061889648,13.556554741752189,13.102826459081768,54.02879380963567,47.892188648308334,3.237724376958795e-05,0.0897949114441871,0,0,0
4506,155325.24902410584,2010-10-17 12:21:27,3121.5818256061257,2,14,0.5499359965324402,3.960709810256958,13.561141453964682,13.102826459081768,54.04695667114066,47.892188648308334,3.237724376958795e-05,0.0897949114441871,0,0,0
4507,155355.264697685,2010-10-17 12:21:57,3151.597499215352,2,14,0.550297200679779,3.962490558624268,13.565728242508092,13.102826459081768,54.06512777150535,47.892188648308334,0.0,0.0897949114441871,0,0,0
4508,155385.27946797287,2010-10-17 12:22:27,3181.6122695232734,2,14,0.5499359965324402,3.964271306991577,13.570314873289869,13.102826459081768,54.08330624381092,47.892188648308334,3.237724376958795e-05,0.0897949114441871,0,0,0
4509,155415.29478109867,2010-10-17 12:22:57,3211.6275826039514,2,14,0.5501165986061096,3.966052055358887,13.57490166583334,13.102826459081768,54.10149340889095,47.892188648308334,3.237724376958795e-05,0.0897949114441871,0,0,0
4510,155445.30988380502,2010-10-17 12:23:27,3241.642685310312,2,14,0.550297200679779,3.967832803726196,13.579488422560546,13.102826459081768,54.11968853203284,47.892188648308334,6.47544875391759e-05,0.0897949114441871,0,0,0
4511,155475.32509322732,2010-10-17 12:23:57,3271.6578947526914,2,14,0.5501165986061096,3.969613552093506,13.584075166158392,13.102826459081768,54.13789180534696,47.892188648308334,6.47544875391759e-05,0.0897949114441871,0,0,0
4512,155505.34044765105,2010-10-17 12:24:27,3301.673249176409,2,14,0.5499359965324402,3.9712324142456055,13.588661973725724,13.102826459081768,54.15610358755426,47.892188648308334,3.237724376958795e-05,0.0897949114441871,0,0,0
4513,155535.35551323992,2010-10-17 12:24:57,3331.688314745211,2,14,0.5501165986061096,3.973336935043335,13.593248716274475,13.102826459081768,54.17432349915061,47.892188648308334,6.47544875391759e-05,0.0897949114441871,0,0,0
4514,155565.37085001965,2010-10-17 12:25:27,3361.70365155503,2,14,0.5501165986061096,3.9749557971954346,13.597835467298976,13.102826459081768,54.19255187626776,47.892188648308334,3.237724376958795e-05,0.0897949114441871,0,0,0
4515,155595.38594155316,2010-10-17 12:25:57,3391.7187430534564,2,14,0.5501165986061096,3.977060317993164,13.602422223990647,13.102826459081768,54.210788812145495,47.892188648308334,6.47544875391759e-05,0.0897949114441871,0,0,0
4516,155625.40113767734,2010-10-17 12:26:27,3421.73393917263,2,14,0.550297200679779,3.978679180145264,13.607009007103924,13.102826459081768,54.229034062948685,47.892188648308334,6.47544875391759e-05,0.0897949114441871,0,0,0
4517,155655.41635462845,2010-10-17 12:26:57,3451.749156118712,2,14,0.5501165986061096,3.980621814727783,13.611595714759844,13.102826459081768,54.24728813500959,47.892188648308334,3.237724376958795e-05,0.0897949114441871,0,0,0
4518,155685.43178836987,2010-10-17 12:27:27,3481.7645899252752,2,14,0.5501165986061096,3.9827263355255127,13.61618243051416,13.102826459081768,54.26555103957194,47.892188648308334,6.47544875391759e-05,0.0897949114441871,0,0,0
4519,155715.44679840526,2010-10-17 12:27:57,3511.7795999205714,2,14,0.5501165986061096,3.9845070838928223,13.620769058495814,13.102826459081768,54.28382243154222,47.892188648308334,0.0,0.0897949114441871,0,0,0
4520,155745.46199275,2010-10-17 12:28:27,3541.7947942653227,2,14,0.5501165986061096,3.986611604690552,13.625355752291243,13.102826459081768,54.3021031239529,47.892188648308334,6.47544875391759e-05,0.0897949114441871,0,0,0
4521,155775.47732188067,2010-10-17 12:28:57,3571.810123385977,2,14,0.5501165986061096,3.9885542392730713,13.629942469856111,13.102826459081768,54.32039302329417,47.892188648308334,6.47544875391759e-05,0.0897949114441871,0,0,0
4522,155805.49254276656,2010-10-17 12:29:27,3601.825344291928,2,14,0.550297200679779,3.9908206462860103,13.63452916562784,13.102826459081768,54.3386920214874,47.892188648308334,9.713172767078504e-05,0.0897949114441871,0,0,0
4523,155835.5077611462,2010-10-17 12:29:57,3631.8405626415065,2,14,0.5501165986061096,3.99260139465332,13.639115885041134,13.102826459081768,54.357000475947366,47.892188648308334,3.237724376958795e-05,0.0897949114441871,0,0,0
4524,155865.52283342677,2010-10-17 12:30:27,3661.855634917024,2,14,0.5501165986061096,3.994705677032471,13.643702590747486,13.102826459081768,54.37531830776883,47.892188648308334,6.47544875391759e-05,0.0897949114441871,0,0,0
4525,155895.53805451316,2010-10-17 12:30:57,3691.870856003424,2,14,0.5499359965324402,3.9966483116149902,13.648289302085708,13.102826459081768,54.393645744449934,47.892188648308334,0.0,0.0897949114441871,0,0,0
4526,155925.55327836145,2010-10-17 12:31:27,3721.8860799118575,2,14,0.550297200679779,3.99907660484314,13.652876052518382,13.102826459081768,54.41198294239164,47.892188648308334,9.713172767078504e-05,0.0897949114441871,0,0,0
4527,155955.5685099841,2010-10-17 12:31:57,3751.9013115044418,2,14,0.5501165986061096,4.001019477844238,13.657462702156351,13.102826459081768,54.43032951648445,47.892188648308334,6.47544875391759e-05,0.0897949114441871,0,0,0
4528,155985.58369264976,2010-10-17 12:32:27,3781.916494175098,2,14,0.5501165986061096,4.003285884857178,13.662049347708107,13.102826459081768,54.44868596261109,47.892188648308334,6.47544875391759e-05,0.0897949114441871,0,0,0
4529,156015.59890194677,2010-10-17 12:32:57,3811.931703442041,2,14,0.5501165986061096,4.005390167236328,13.666636021109532,13.102826459081768,54.46705242638578,47.892188648308334,6.47544875391759e-05,0.0897949114441871,0,0,0
4530,156045.6142360398,2010-10-17 12:33:27,3841.947037565162,2,14,0.5501165986061096,4.007656574249268,13.671222671638857,13.102826459081768,54.48542889364061,47.892188648308334,6.47544875391759e-05,0.0897949114441871,0,0,0
4531,156075.6293481797,2010-10-17 12:33:57,3871.962149710047,2,14,0.5501165986061096,4.009761333465576,13.675809290759986,13.102826459081768,54.50381532306292,47.892188648308334,6.47544875391759e-05,0.0897949114441871,0,0,0
4532,156105.64454284022,2010-10-17 12:34:27,3901.9773443655727,2,14,0.5501165986061096,4.012027740478516,13.680395935343112,13.102826459081768,54.52221208149204,47.892188648308334,3.24249267578125e-05,0.0897949114441871,0,0,0
4533,156135.65976774614,2010-10-17 12:34:57,3931.992569271492,2,14,0.5499359965324402,4.014294147491455,13.684982593601232,13.102826459081768,54.54061921506279,47.892188648308334,3.24249267578125e-05,0.0897949114441871,0,0,0
4534,156165.6749626473,2010-10-17 12:35:27,3962.007764142555,2,14,0.5499359965324402,4.0165605545043945,13.68956926905756,13.102826459081768,54.55903685942275,47.892188648308334,6.47544875391759e-05,0.0897949114441871,0,0,0
4535,156195.6901981847,2010-10-17 12:35:58,3992.022999679972,2,14,0.5497553944587708,4.018826961517334,13.694156017547249,13.102826459081768,54.577465291939234,47.892188648308334,6.47544875391759e-05,0.0897949114441871,0,0,0
4536,156225.70538845428,2010-10-17 12:36:28,4022.0381899796416,2,14,0.5501165986061096,4.021255016326904,13.698742675111289,13.102826459081768,54.59590375902685,47.892188648308334,9.70840483205393e-05,0.0897949114441871,0,0,0
4537,156255.72062188145,2010-10-17 12:36:58,4052.053423376723,2,14,0.5499359965324402,4.023521423339844,13.703329299952994,13.102826459081768,54.61435274620316,47.892188648308334,6.47544875391759e-05,0.0897949114441871,0,0,0
4538,156285.73603005914,2010-10-17 12:37:28,4082.068831554413,2,14,0.5501165986061096,4.025787830352783,13.707916000724218,13.102826459081768,54.63281274131454,47.892188648308334,3.23295607813634e-05,0.0897949114441871,0,0,0
4539,156315.75116071015,2010-10-17 12:37:58,4112.08396220542,2,14,0.550297200679779,4.028216361999512,13.712502659932978,13.102826459081768,54.65128339352056,47.892188648308334,6.47544875391759e-05,0.0897949114441871,0,0,0
4540,156345.76627167207,2010-10-17 12:38:28,4142.099073167356,2,14,0.5501165986061096,4.030644416809082,13.717089401319557,13.102826459081768,54.66976523687689,47.892188648308334,6.47544875391759e-05,0.0897949114441871,0,0,0
4541,156375.7814473503,2010-10-17 12:38:58,4172.11424887566,2,14,0.5501165986061096,4.0330729484558105,13.721676062516554,13.102826459081768,54.68825773168701,47.892188648308334,9.71794142969884e-05,0.0897949114441871,0,0,0
4542,156405.79678236565,2010-10-17 12:39:28,4202.12958386093,2,14,0.5501165986061096,4.035338878631592,13.726262854348594,13.102826459081768,54.706761864576094,47.892188648308334,6.47544875391759e-05,0.0897949114441871,0,0,0
4543,156435.81188898176,2010-10-17 12:39:58,4232.144690477035,2,14,0.5501165986061096,4.037929058074951,13.730849544398096,13.102826459081768,54.725276772367245,47.892188648308334,9.70840483205393e-05,0.0897949114441871,0,0,0
4544,156465.82709771238,2010-10-17 12:40:28,4262.159899227691,2,14,0.550297200679779,4.040519237518311,13.735436261837448,13.102826459081768,54.74380309784553,47.892188648308334,0.0001295089750783,0.0897949114441871,0,0,0
4545,156495.84233944523,2010-10-17 12:40:58,4292.175140975585,2,14,0.550297200679779,4.04310941696167,13.740023012919538,13.102826459081768,54.76234096119899,47.892188648308334,0.0001618385285837,0.0897949114441871,0,0,0
4546,156525.85752041164,2010-10-17 12:41:28,4322.190321906906,2,14,0.5501165986061096,4.045537948608398,13.744609760674493,13.102826459081768,54.78089039426715,47.892188648308334,6.47544875391759e-05,0.0897949114441871,0,0,0
4547,156555.8727652673,2010-10-17 12:41:58,4352.205566822697,2,14,0.5499359965324402,4.047804355621338,13.749196504148818,13.102826459081768,54.79945145976466,47.892188648308334,3.24249267578125e-05,0.0897949114441871,0,0,0
4548,156585.88793903575,2010-10-17 12:42:28,4382.220740551065,2,14,0.5501165986061096,4.050394535064697,13.75378321957712,13.102826459081768,54.818024238468354,47.892188648308334,3.24249267578125e-05,0.0897949114441871,0,0,0
4549,156615.90313080407,2010-10-17 12:42:58,4412.2359323594965,2,14,0.5501165986061096,4.052984714508057,13.75836996723007,13.102826459081768,54.83660905564052,47.892188648308334,3.24249267578125e-05,0.0897949114441871,0,0,0
4550,156645.91848200976,2010-10-17 12:43:28,4442.251283565193,2,14,0.550297200679779,4.055736541748047,13.762956714616282,13.102826459081768,54.85520589341558,47.892188648308334,9.70840483205393e-05,0.0897949114441871,0,0,0
4551,156675.9335870219,2010-10-17 12:43:58,4472.266388547226,2,14,0.5501165986061096,4.058650493621826,13.76754348146507,13.102826459081768,54.873814956798505,47.892188648308334,9.70840483205393e-05,0.0897949114441871,0,0,0
4552,156705.9487964843,2010-10-17 12:44:28,4502.281598004642,2,14,0.5501165986061096,4.060916900634766,13.77213026236834,13.102826459081768,54.89243619628717,47.892188648308334,3.23295607813634e-05,0.0897949114441871,0,0,0
4553,156735.9639937012,2010-10-17 12:44:58,4532.296795226564,2,14,0.5501165986061096,4.063669204711914,13.77671696023982,13.102826459081768,54.9110692522132,47.892188648308334,6.47544875391759e-05,0.0897949114441871,0,0,0
4554,156765.98235784608,2010-10-17 12:45:28,4562.315159371434,2,14,0.5501165986061096,4.066421031951904,13.781304178613206,13.102826459081768,54.92971700064268,47.892188648308334,6.47544875391759e-05,0.0897949114441871,0,0,0
4555,156795.99446265574,2010-10-17 12:45:58,4592.3272641761005,2,14,0.5499359965324402,4.069334983825684,13.7858904697879,13.102826459081768,54.9483736552449,47.892188648308334,9.70840483205393e-05,0.0897949114441871,0,0,0
4556,156826.00964373746,2010-10-17 12:46:28,4622.342445227721,2,14,0.550297200679779,4.072087287902832,13.790477188961177,13.102826459081768,54.96704474633664,47.892188648308334,6.47544875391759e-05,0.0897949114441871,0,0,0
4557,156856.02485363095,2010-10-17 12:46:58,4652.357655156313,2,14,0.5501165986061096,4.074839115142822,13.795063886244767,13.102826459081768,54.98572855556218,47.892188648308334,6.47544875391759e-05,0.0897949114441871,0,0,0
4558,156886.04007129883,2010-10-17 12:47:28,4682.372872789106,2,14,0.5501165986061096,4.077591419219971,13.799650533338363,13.102826459081768,55.004425092660966,47.892188648308334,3.24249267578125e-05,0.0897949114441871,0,0,0
4559,156916.05529286142,2010-10-17 12:47:58,4712.38809438678,2,14,0.5501165986061096,4.080667018890381,13.804237238322075,13.102826459081768,55.02313491392929,47.892188648308334,9.70840483205393e-05,0.0897949114441871,0,0,0
4560,156946.0705218425,2010-10-17 12:48:28,4742.403323362843,2,14,0.5501165986061096,4.08325719833374,13.808823924056718,13.102826459081768,55.041857704816685,47.892188648308334,6.47544875391759e-05,0.0897949114441871,0,0,0
4561,156976.08581718898,2010-10-17 12:48:58,4772.41861872436,2,14,0.550297200679779,4.086333274841309,13.813410640090185,13.102826459081768,55.06059393410179,47.892188648308334,6.47544875391759e-05,0.0897949114441871,0,0,0
4562,157006.1010499144,2010-10-17 12:49:28,4802.433851419692,2,14,0.5501165986061096,4.089247226715088,13.81799731895632,13.102826459081768,55.079343357959445,47.892188648308334,6.47544875391759e-05,0.0897949114441871,0,0,0
4563,157036.11614724738,2010-10-17 12:49:58,4832.448948737623,2,14,0.5501165986061096,4.092161178588867,13.8225839969388,13.102826459081768,55.09810625502434,47.892188648308334,9.71794142969884e-05,0.0897949114441871,0,0,0
4564,157066.13134435902,2010-10-17 12:50:28,4862.464145874333,2,14,0.5501165986061096,4.095236778259277,13.827170684767992,13.102826459081768,55.116882839696586,47.892188648308334,6.47544875391759e-05,0.0897949114441871,0,0,0
4565,157096.14656173115,2010-10-17 12:50:58,4892.479363221413,2,14,0.5499359965324402,4.098150730133057,13.831757358582474,13.102826459081768,55.13567317388205,47.892188648308334,6.47544875391759e-05,0.0897949114441871,0,0,0
4566,157126.1618883205,2010-10-17 12:51:28,4922.494689840833,2,14,0.5501165986061096,4.101226806640625,13.83634413078336,13.102826459081768,55.15447792912413,47.892188648308334,9.71794142969884e-05,0.0897949114441871,0,0,0
4567,157156.17699615462,2010-10-17 12:51:58,4952.509797649913,2,14,0.5501165986061096,4.104302406311035,13.84093086120356,13.102826459081768,55.17329648239831,47.892188648308334,9.70840483205393e-05,0.0897949114441871,0,0,0
4568,157186.19232914492,2010-10-17 12:52:28,4982.525130645224,2,14,0.5501165986061096,4.107378482818604,13.845517567131662,13.102826459081768,55.19212906194223,47.892188648308334,6.47544875391759e-05,0.0897949114441871,0,0,0
4569,157216.2074127637,2010-10-17 12:52:58,5012.540214253987,2,14,0.5501165986061096,4.110777854919434,13.850104228291418,13.102826459081768,55.21097561836845,47.892188648308334,0.0001295089750783,0.0897949114441871,0,0,0
4570,157246.2229809953,2010-10-17 12:53:28,5042.555782480566,2,14,0.550297200679779,4.113691806793213,13.854690925904416,13.102826459081768,55.22983665811872,47.892188648308334,9.70840483205393e-05,0.0897949114441871,0,0,0
4571,157276.2382494648,2010-10-17 12:53:58,5072.571051015222,2,14,0.5501165986061096,4.116929531097412,13.859277594133486,13.102826459081768,55.24871201200243,47.892188648308334,9.71794142969884e-05,0.0897949114441871,0,0,0
4572,157306.25325515438,2010-10-17 12:54:28,5102.586056694763,2,14,0.5501165986061096,4.120167255401611,13.863864176072598,13.102826459081768,55.26760155028792,47.892188648308334,0.0001295089750783,0.0897949114441871,0,0,0
4573,157336.26823973632,2010-10-17 12:54:58,5132.601041271708,2,14,0.5499359965324402,4.1232428550720215,13.868450844737357,13.102826459081768,55.28650615637219,47.892188648308334,9.70840483205393e-05,0.0897949114441871,0,0,0
4574,157366.28344481785,2010-10-17 12:55:28,5162.616246358231,2,14,0.5501165986061096,4.126480579376221,13.873037504137166,13.102826459081768,55.30542554617966,47.892188648308334,6.47544875391759e-05,0.0897949114441871,0,0,0
4575,157396.29869354813,2010-10-17 12:55:58,5192.631495098553,2,14,0.5501165986061096,4.12971830368042,13.877624076186873,13.102826459081768,55.32435946343519,47.892188648308334,6.47544875391759e-05,0.0897949114441871,0,0,0
4576,157426.3138782639,2010-10-17 12:56:28,5222.646679779219,2,14,0.5501165986061096,4.133118152618408,13.882210776005843,13.102826459081768,55.34330900242231,47.892188648308334,6.47544875391759e-05,0.0897949114441871,0,0,0
4577,157456.32917426198,2010-10-17 12:56:58,5252.661975807397,2,14,0.550297200679779,4.136355876922607,13.886798072932642,13.102826459081768,55.362276194283005,47.892188648308334,9.71794142969884e-05,0.0897949114441871,0,0,0
4578,157486.34425181567,2010-10-17 12:57:28,5282.677053300919,2,14,0.550297200679779,4.139917373657227,13.891385602336122,13.102826459081768,55.381259723415376,47.892188648308334,0.0001619339018361,0.0897949114441871,0,0,0
4579,157516.35951630524,2010-10-17 12:57:58,5312.692317800518,2,14,0.550297200679779,4.143155097961426,13.895973042923062,13.102826459081768,55.400258429458205,47.892188648308334,9.71794142969884e-05,0.0897949114441871,0,0,0
4580,157546.37469858996,2010-10-17 12:58:28,5342.7075000802,2,14,0.550297200679779,4.146554470062256,13.900560510433362,13.102826459081768,55.41927298482136,47.892188648308334,6.47544875391759e-05,0.0897949114441871,0,0,0
4581,157576.38993896943,2010-10-17 12:58:58,5372.7227404646965,2,14,0.5501165986061096,4.149954319000244,13.905147978769072,13.102826459081768,55.4383032981201,47.892188648308334,6.47544875391759e-05,0.0897949114441871,0,0,0
4582,157606.4051497301,2010-10-17 12:59:28,5402.737951215337,2,14,0.5501165986061096,4.153515815734863,13.909735483815604,13.102826459081768,55.45734953314688,47.892188648308334,6.47544875391759e-05,0.0897949114441871,0,0,0
4583,157636.4203756335,2010-10-17 12:59:58,5432.753177128767,2,14,0.5501165986061096,4.156915187835693,13.914322561388072,13.102826459081768,55.47640978045551,47.892188648308334,6.47544875391759e-05,0.0897949114441871,0,0,0
4584,157666.4355613367,2010-10-17 13:00:28,5462.7683628219565,2,14,0.5501165986061096,4.1604766845703125,13.918909384002168,13.102826459081768,55.49548505444922,47.892188648308334,9.70840483205393e-05,0.0897949114441871,0,0,0
4585,157696.45090282318,2010-10-17 13:00:58,5492.783704323468,2,14,0.5501165986061096,4.163876533508301,13.923496259450214,13.102826459081768,55.51457668235528,47.892188648308334,6.47544875391759e-05,0.0897949114441871,0,0,0
4586,157726.4661071779,2010-10-17 13:01:28,5522.798908668142,2,14,0.5501165986061096,4.167599678039551,13.928083055715744,13.102826459081768,55.53368412194112,47.892188648308334,0.0001295089750783,0.0897949114441871,0,0,0
4587,157756.4812075885,2010-10-17 13:01:58,5552.814009108856,2,14,0.5501165986061096,4.170999526977539,13.932669875025626,13.102826459081768,55.55280805830958,47.892188648308334,6.47544875391759e-05,0.0897949114441871,0,0,0
4588,157786.4964109708,2010-10-17 13:02:28,5582.829212501157,2,14,0.5501165986061096,4.174722671508789,13.937256709507649,13.102826459081768,55.57194853477815,47.892188648308334,9.70840483205393e-05,0.0897949114441871,0,0,0
4589,157816.51164074385,2010-10-17 13:02:58,5612.844442264181,2,14,0.5501165986061096,4.178284168243408,13.9418435302989,13.102826459081768,55.59110534865543,47.892188648308334,9.70840483205393e-05,0.0897949114441871,0,0,0
4590,157846.52683848207,2010-10-17 13:03:28,5642.859640002391,2,14,0.5501165986061096,4.181845664978027,13.946430370843542,13.102826459081768,55.61027889293866,47.892188648308334,9.70840483205393e-05,0.0897949114441871,0,0,0
4591,157876.5420722451,2010-10-17 13:03:58,5672.874873740322,2,14,0.5501165986061096,4.185730934143066,13.95101726274232,13.102826459081768,55.62946934187267,47.892188648308334,0.0001295089750783,0.0897949114441871,0,0,0
4592,157906.5572711562,2010-10-17 13:04:28,5702.890072676517,2,14,0.550297200679779,4.189454555511475,13.955604038149716,13.102826459081768,55.64867613567005,47.892188648308334,0.0001295089750783,0.0897949114441871,0,0,0
4593,157936.57259666282,2010-10-17 13:04:58,5732.9053981982015,2,14,0.5499359965324402,4.192853927612305,13.960190875398771,13.102826459081768,55.66790018710167,47.892188648308334,3.23295607813634e-05,0.0897949114441871,0,0,0
4594,157966.58781213022,2010-10-17 13:05:28,5762.920613625498,2,14,0.5501165986061096,4.196739196777344,13.964777679899212,13.102826459081768,55.68714114428576,47.892188648308334,0.0001295089750783,0.0897949114441871,0,0,0
4595,157992.05619302683,2010-10-17 13:05:54,5788.388994672491,2,14,0.5501165986061096,4.200138568878174,13.968669646186084,13.102826459081768,55.70348080846258,47.892188648308334,0.0001618385285837,0.0897949114441871,0,0,0
4596,158022.06827523472,2010-10-17 13:06:24,30.01485006169221,3,14,0.0,4.118710041046143,13.968669646186084,13.102826459081768,55.70348080846258,47.892188648308334,-0.0003885269106831,0.0897949114441871,0,0,0
4597,158052.0834715043,2010-10-17 13:06:54,60.03004630617848,3,14,0.0,4.108835220336914,13.968669646186084,13.102826459081768,55.70348080846258,47.892188648308334,-0.0001619339018361,0.0897949114441871,0,0,0
4598,158082.09867997927,2010-10-17 13:07:24,90.04525480620933,3,14,0.0,4.102845668792725,13.968669646186084,13.102826459081768,55.70348080846258,47.892188648308334,-0.0001295089750783,0.0897949114441871,0,0,0
4599,158112.06706427896,2010-10-17 13:07:54,120.01363908086309,3,14,0.0,4.0989603996276855,13.968669646186084,13.102826459081768,55.70348080846258,47.892188648308334,-6.47544875391759e-05,0.0897949114441871,0,0,0
4600,158112.08164777633,2010-10-17 13:07:54,0.015647508405565,4,14,0.9927899241447448,4.199653148651123,13.968673983361738,13.102826459081768,55.703499023445545,47.892188648308334,-3.23295607813634e-05,0.0897949114441871,0,0,0
4601,158113.06598141365,2010-10-17 13:07:55,0.999981130664117,4,14,0.942219376564026,4.199491024017334,13.9689371356682,13.102826459081768,55.70460417360904,47.892188648308334,-6.47544875391759e-05,0.0897949114441871,0,0,0
4602,158115.2066802087,2010-10-17 13:07:57,3.140679995912891,4,14,0.8916487693786621,4.199653148651123,13.969481443233311,13.102826459081768,55.70689008344521,47.892188648308334,-3.23295607813634e-05,0.0897949114441871,0,0,0
4603,158118.40966443592,2010-10-17 13:08:01,6.343664157978346,4,14,0.8416199684143066,4.199653148651123,13.970251482396929,13.102826459081768,55.71012400506178,47.892188648308334,3.24249267578125e-05,0.0897949114441871,0,0,0
4604,158122.76898688378,2010-10-17 13:08:05,10.70298660584842,4,14,0.7914106249809265,4.199653148651123,13.971239025570751,13.102826459081768,55.714271365176,47.892188648308334,-3.23295607813634e-05,0.0897949114441871,0,0,0
4605,158128.45640653855,2010-10-17 13:08:11,16.39040626561584,4,14,0.7410206198692322,4.199814796447754,13.97244812834676,13.102826459081768,55.719349218668405,47.892188648308334,0.0,0.0897949114441871,0,0,0
4606,158135.7845945479,2010-10-17 13:08:18,23.71859430503717,4,14,0.6909918785095215,4.199653148651123,13.973903726470152,13.102826459081768,55.72546228045825,47.892188648308334,-3.23295607813634e-05,0.0897949114441871,0,0,0
4607,158145.48741002957,2010-10-17 13:08:28,33.42140975161171,4,14,0.640963077545166,4.199491024017334,13.975695955858493,13.102826459081768,55.732989130578495,47.892188648308334,-3.24249267578125e-05,0.0897949114441871,0,0,0
4608,158158.95627475475,2010-10-17 13:08:41,46.890274511860326,4,14,0.5907536745071411,4.199653148651123,13.977995202667486,13.102826459081768,55.742645273347975,47.892188648308334,3.24249267578125e-05,0.0897949114441871,0,0,0
4609,158179.28382101964,2010-10-17 13:09:01,67.21782077176964,4,14,0.5407249331474304,4.199653148651123,13.981179616680071,13.102826459081768,55.75601885419287,47.892188648308334,0.0,0.0897949114441871,0,0,0
4610,158213.33026032223,2010-10-17 13:09:35,101.264260164564,4,14,0.4906961619853973,4.199814796447754,13.986036007271396,13.102826459081768,55.77641424812585,47.892188648308334,3.23295607813634e-05,0.0897949114441871,0,0,0
4611,158273.54823376564,2010-10-17 13:10:36,161.4822336180172,4,14,0.4406673908233642,4.199491024017334,13.993792039707952,13.102826459081768,55.808987242226806,47.892188648308334,-3.24249267578125e-05,0.0897949114441871,0,0,0
4612,158366.06252897024,2010-10-17 13:12:08,253.9965287123292,4,14,0.3906386196613312,4.199814796447754,14.004446976599526,13.102826459081768,55.85373482399906,47.892188648308334,-3.24249267578125e-05,0.0897949114441871,0,0,0
4613,158483.1546240896,2010-10-17 13:14:05,371.0886238116536,4,14,0.3406098484992981,4.199653148651123,14.016322212882107,13.102826459081768,55.903607342968456,47.892188648308334,-3.23295607813634e-05,0.0897949114441871,0,0,0
4614,158622.80923190794,2010-10-17 13:16:25,510.743231645023,4,14,0.290581077337265,4.199653148651123,14.028544199672554,13.102826459081768,55.95493607787176,47.892188648308334,0.0,0.0897949114441871,0,0,0
4615,158789.2598427357,2010-10-17 13:19:11,677.1938424727783,4,14,0.2405523210763931,4.199653148651123,14.040800366128927,13.102826459081768,56.00640834761639,47.892188648308334,-3.23295607813634e-05,0.0897949114441871,0,0,0
4616,158997.89761353176,2010-10-17 13:22:40,885.8316133841265,4,14,0.1903429329395294,4.199491024017334,14.053256012106752,13.102826459081768,56.05871842461562,47.892188648308334,-3.24249267578125e-05,0.0897949114441871,0,0,0
4617,159275.56564670673,2010-10-17 13:27:18,1163.4996464538542,4,14,0.1403141617774963,4.199653148651123,14.065935809388495,13.102826459081768,56.11196982344261,47.892188648308334,0.0,0.0897949114441871,0,0,0
4618,159696.87235419464,2010-10-17 13:34:19,1584.8063539417471,4,14,0.0902853980660438,4.199491024017334,14.079216014032411,13.102826459081768,56.16774251533244,47.892188648308334,-3.24249267578125e-05,0.0897949114441871,0,0,0
4619,160310.00462737549,2010-10-17 13:44:32,2197.938627137635,4,14,0.0498289167881011,4.199814796447754,14.090817143072393,13.102826459081768,56.21646384045764,47.892188648308334,3.23295607813634e-05,0.0897949114441871,0,0,0
4620,160340.01766771908,2010-10-17 13:45:02,30.01518880594713,5,14,0.0,4.192206382751465,14.090817143072393,13.102826459081768,56.21646384045764,47.892188648308334,-3.24249267578125e-05,0.0897949114441871,0,0,0
4621,160370.0172588809,2010-10-17 13:45:32,60.01477996776582,5,14,0.0,4.191073417663574,14.090817143072393,13.102826459081768,56.21646384045764,47.892188648308334,-3.23295607813634e-05,0.0897949114441871,0,0,0
4622,160370.2036355606,2010-10-17 13:45:33,0.187644437675437,6,14,-1.9243103452026844e-05,4.190749645233154,14.090817143072393,13.102826460084788,56.21646384045764,47.89218865251173,0.0,0.0915781408548355,0,0,0
4623,160375.03152418457,2010-10-17 13:45:37,5.015533036568062,6,14,0.0007031940040178,4.190911293029785,14.09081797484298,13.10282646025092,56.21646732648681,47.89218865320795,-6.47544875391759e-05,0.0915781408548355,0,0,0
4624,160405.0456248053,2010-10-17 13:46:08,30.01529908078596,7,14,-1.0997490882873535,4.023036003112793,14.09081797484298,13.111995463209976,56.21646732648681,47.92926579903665,-0.0009065627818927,0.0915781408548355,0,0,0
4625,160435.06069822866,2010-10-17 13:46:38,60.03037250416423,7,14,-1.0997490882873535,3.99794340133667,14.09081797484298,13.121164405804397,56.21646732648681,47.96602888596762,-0.0005504608270712,0.0915781408548355,0,0,0
4626,160465.0759491795,2010-10-17 13:47:08,90.04562349008297,7,14,-1.0997490882873535,3.9802980422973633,14.09081797484298,13.130333293288588,56.21646732648681,48.00260042392952,-0.0004209041653666,0.0915781408548355,0,0,0
4627,160495.0913288712,2010-10-17 13:47:38,120.06100317175112,7,14,-1.099568486213684,3.966861486434937,14.09081797484298,13.139502177529629,56.21646732648681,48.03903130803903,-0.0003237724304199,0.0915781408548355,0,0,0
4628,160525.1063853323,2010-10-17 13:48:08,150.0760596428792,7,14,-1.0997490882873535,3.9552056789398193,14.09081797484298,13.148670911494062,56.21646732648681,48.07534718452268,-0.0002590179501567,0.0915781408548355,0,0,0
4629,160555.12172082884,2010-10-17 13:48:38,180.09139510934946,7,14,-1.099568486213684,3.944844961166382,14.09081797484298,13.157839800732573,56.21646732648681,48.11156385139604,-0.0002913951757363,0.0915781408548355,0,0,0
4630,160585.1367597863,2010-10-17 13:49:08,210.10643409189052,7,14,-1.099568486213684,3.935293674468994,14.09081797484298,13.16700859575659,56.21646732648681,48.14768933664054,-0.0002266406954731,0.0915781408548355,0,0,0
4631,160615.15196986025,2010-10-17 13:49:38,240.1216441658441,7,14,-1.1001102924346924,3.9260661602020255,14.09081797484298,13.176177467050628,56.21646732648681,48.1837300781437,-0.0002590179501567,0.0915781408548355,0,0,0
4632,160645.167325507,2010-10-17 13:50:08,270.13699979757246,7,14,-1.0997490882873535,3.9174861907958975,14.09081797484298,13.185346392345387,56.21646732648681,48.21968916779512,-0.0002590179501567,0.0915781408548355,0,0,0
4633,160675.18240070983,2010-10-17 13:50:38,300.15207501041056,7,14,-1.0997490882873535,3.9089064598083496,14.09081797484298,13.194515214980068,56.21646732648681,48.25556854680451,-0.0002266406954731,0.0915781408548355,0,0,0
4634,160705.1976091046,2010-10-17 13:51:08,330.16728341019154,7,14,-1.099568486213684,3.9006502628326416,14.09081797484298,13.203684080876938,56.21646732648681,48.291371014156326,-0.0001942634553415,0.0915781408548355,0,0,0
4635,160735.2129639544,2010-10-17 13:51:38,360.18263822989604,7,14,-1.0997490882873535,3.8923940658569336,14.09081797484298,13.212852903959604,56.21646732648681,48.32709792888976,-0.0002590179501567,0.0915781408548355,0,0,0
4636,160765.22816074523,2010-10-17 13:52:08,390.1978351661063,7,14,-1.099929690361023,3.884299755096436,14.09081797484298,13.222021612637509,56.21646732648681,48.36275048020438,-0.0002590179501567,0.0915781408548355,0,0,0
4637,160795.2432428302,2010-10-17 13:52:38,420.2129171959345,7,14,-1.099929690361023,3.876367330551148,14.09081797484298,13.231190260746594,56.21646732648681,48.39832956599849,-0.0002266406954731,0.0915781408548355,0,0,0
4638,160825.258473305,2010-10-17 13:53:08,450.2281477158457,7,14,-1.099568486213684,3.8687586784362793,14.09081797484298,13.240359098450115,56.21646732648681,48.433836741709335,-0.0001942634553415,0.0915781408548355,0,0,0
4639,160855.2736708728,2010-10-17 13:53:38,480.2433451733551,7,14,-1.0997490882873535,3.860826253890991,14.09081797484298,13.249527950792316,56.21646732648681,48.469272577093,-0.0002266406954731,0.0915781408548355,0,0,0
4640,160885.2889072072,2010-10-17 13:54:08,510.2585815127703,7,14,-1.0997490882873535,3.853379487991333,14.09081797484298,13.25869685870437,56.21646732648681,48.5046383110762,-0.0001942634553415,0.0915781408548355,0,0,0
4641,160915.30409778756,2010-10-17 13:54:38,540.2737720630648,7,14,-1.0993878841400146,3.845932722091675,14.09081797484298,13.267865651069318,56.21646732648681,48.53993482013478,-0.0001942634553415,0.0915781408548355,0,0,0
4642,160945.3194110537,2010-10-17 13:55:08,570.2890853642925,7,14,-1.099568486213684,3.8386478424072266,14.09081797484298,13.277034543920042,56.21646732648681,48.57516363101291,-0.0001618862152099,0.0915781408548355,0,0,0
4643,160975.33744837905,2010-10-17 13:55:38,600.3071226846139,7,14,-1.099568486213684,3.831525087356568,14.09081797484298,13.28620432125973,56.21646732648681,48.610329334466485,-0.0001618862152099,0.0915781408548355,0,0,0
4644,161005.34976588382,2010-10-17 13:56:08,630.3194401843826,7,14,-1.099568486213684,3.824240207672119,14.09081797484298,13.295372299488427,56.21646732648681,48.64542229565279,-0.0001618862152099,0.0915781408548355,0,0,0
4645,161035.36495399804,2010-10-17 13:56:38,660.3346282735433,7,14,-1.0993878841400146,3.817117214202881,14.09081797484298,13.304541221514404,56.21646732648681,48.68045367523218,-0.0001618862152099,0.0915781408548355,0,0,0
4646,161065.38016564594,2010-10-17 13:57:08,690.349839946482,7,14,-1.0997490882873535,3.810156106948853,14.09081797484298,13.313710070180356,56.21646732648681,48.71542069708928,-0.0001942634553415,0.0915781408548355,0,0,0
4647,161095.3953812988,2010-10-17 13:57:38,720.3650555993399,7,14,-1.0997490882873535,3.803518772125244,14.09081797484298,13.322878909524636,56.21646732648681,48.75032467648162,-0.0001295089750783,0.0915781408548355,0,0,0
4648,161125.41073614353,2010-10-17 13:58:08,750.380410424057,7,14,-1.0997490882873535,3.796719551086426,14.09081797484298,13.3320478107664,56.21646732648681,48.785167349373005,-0.0001942634553415,0.0915781408548355,0,0,0
4649,161155.42588581194,2010-10-17 13:58:38,780.3955601375736,7,14,-1.0997490882873535,3.7902441024780273,14.09081797484298,13.341216677870534,56.21646732648681,48.81994927877386,-0.0001942634553415,0.0915781408548355,0,0,0
4650,161185.44116433652,2010-10-17 13:59:08,810.4108386571147,7,14,-1.099568486213684,3.783930540084839,14.09081797484298,13.350385621197615,56.21646732648681,48.85467268100408,-0.0001618862152099,0.0915781408548355,0,0,0
4651,161215.45637055585,2010-10-17 13:59:38,840.4260448413739,7,14,-1.0997490882873535,3.77745509147644,14.09081797484298,13.359554573713668,56.21646732648681,48.88933826664484,-0.0001618862152099,0.0915781408548355,0,0,0
4652,161245.47159486025,2010-10-17 14:00:08,870.4412691457941,7,14,-1.099568486213684,3.771627187728882,14.09081797484298,13.368723465986609,56.21646732648681,48.923947192243546,-0.0001618862152099,0.0915781408548355,0,0,0
4653,161275.48680822243,2010-10-17 14:00:38,900.4564824979177,7,14,-1.0997490882873535,3.765637397766113,14.09081797484298,13.377892341131172,56.21646732648681,48.95850086302247,-0.0001295089750783,0.0915781408548355,0,0,0
4654,161305.50200264738,2010-10-17 14:01:08,930.4716769278816,7,14,-1.0997490882873535,3.7598094940185542,14.09081797484298,13.387061258637592,56.21646732648681,48.99300066724306,-0.0001295089750783,0.0915781408548355,0,0,0
4655,161335.51709289267,2010-10-17 14:01:38,960.486767168173,7,14,-1.0997490882873535,3.753981590270996,14.09081797484298,13.396230098927123,56.21646732648681,49.02744715473455,-0.0001618862152099,0.0915781408548355,0,0,0
4656,161365.53235460533,2010-10-17 14:02:08,990.502028910901,7,14,-1.0997490882873535,3.7483158111572266,14.09081797484298,13.405399038824187,56.21646732648681,49.06184123541932,-0.0001618862152099,0.0915781408548355,0,0,0
4657,161395.54752085003,2010-10-17 14:02:38,1020.5171951556188,7,14,-1.0997490882873535,3.742649793624878,14.09081797484298,13.414567847468534,56.21646732648681,49.09618374760023,-0.0001942634553415,0.0915781408548355,0,0,0
4658,161425.56273063825,2010-10-17 14:03:08,1050.5324049187975,7,14,-1.1001102924346924,3.7371456623077393,14.09081797484298,13.423736784830805,56.21646732648681,49.1304763693649,-0.0001942634553415,0.0915781408548355,0,0,0
4659,161455.57849409644,2010-10-17 14:03:38,1080.5481684070298,7,14,-1.0997490882873535,3.731965303421021,14.09081797484298,13.432905843901272,56.21646732648681,49.164720058485536,-0.0001618862152099,0.0915781408548355,0,0,0
4660,161485.5934978562,2010-10-17 14:04:08,1110.5631722720473,7,14,-1.0997490882873535,3.7267849445343018,14.09081797484298,13.442074672180386,56.21646732648681,49.19891422074623,-9.713172767078504e-05,0.0915781408548355,0,0,0
4661,161515.6084780472,2010-10-17 14:04:38,1140.5781523577994,7,14,-1.0993878841400146,3.721766471862793,14.09081797484298,13.451243405081536,56.21646732648681,49.233060503633645,-9.713172767078504e-05,0.0915781408548355,0,0,0
4662,161545.62360786114,2010-10-17 14:05:08,1170.5932821667077,7,14,-1.099568486213684,3.716424226760864,14.09081797484298,13.460412272004527,56.21646732648681,49.26715995562572,-0.0001618862152099,0.0915781408548355,0,0,0
4663,161575.63882249143,2010-10-17 14:05:38,1200.6084967719546,7,14,-1.0997490882873535,3.711405754089356,14.09081797484298,13.469581076262624,56.21646732648681,49.30121267802912,-0.0001295089750783,0.0915781408548355,0,0,0
4664,161605.65415787272,2010-10-17 14:06:08,1230.6238321832875,7,14,-1.0997490882873535,3.7065491676330566,14.09081797484298,13.478750002869354,56.21646732648681,49.33522005839486,-0.0001295089750783,0.0915781408548355,0,0,0
4665,161635.6692418875,2010-10-17 14:06:38,1260.6389161930504,7,14,-1.0997490882873535,3.701530694961548,14.09081797484298,13.487918898208257,56.21646732648681,49.369182140926725,-0.0001618862152099,0.0915781408548355,0,0,0
4666,161665.68444010688,2010-10-17 14:07:08,1290.6541143823838,7,14,-1.099568486213684,3.696835994720459,14.09081797484298,13.497087826736603,56.21646732648681,49.40309983605827,-0.0001618862152099,0.0915781408548355,0,0,0
4667,161695.69978086653,2010-10-17 14:07:38,1320.6694551420462,7,14,-1.0997490882873535,3.69197940826416,14.09081797484298,13.506256811734692,56.21646732648681,49.43697368473219,-0.0001295089750783,0.0915781408548355,0,0,0
4668,161725.7148818035,2010-10-17 14:08:08,1350.6845561140842,7,14,-1.0997490882873535,3.6872847080230713,14.09081797484298,13.515425756515764,56.21646732648681,49.470803933158805,-9.713172767078504e-05,0.0915781408548355,0,0,0
4669,161755.73008776215,2010-10-17 14:08:38,1380.6997620677687,7,14,-1.0997490882873535,3.682751893997192,14.09081797484298,13.524594699902927,56.21646732648681,49.50459164874876,-0.0001295089750783,0.0915781408548355,0,0,0
4670,161785.7454448676,2010-10-17 14:09:08,1410.7151191481075,7,14,-1.0997490882873535,3.678057193756104,14.09081797484298,13.533763677824714,56.21646732648681,49.538337538546806,-0.0001295089750783,0.0915781408548355,0,0,0
4671,161815.76050884242,2010-10-17 14:09:38,1440.7301831479997,7,14,-1.0997490882873535,3.6736862659454346,14.09081797484298,13.542932561036231,56.21646732648681,49.57204181637826,-0.0001295089750783,0.0915781408548355,0,0,0
4672,161845.77586243907,2010-10-17 14:10:08,1470.7455367195937,7,14,-1.0997490882873535,3.6693155765533447,14.09081797484298,13.552101524021388,56.21646732648681,49.60570575127441,-9.713172767078504e-05,0.0915781408548355,0,0,0
4673,161875.79093376722,2010-10-17 14:10:38,1500.76060804775,7,14,-1.099929690361023,3.664944648742676,14.09081797484298,13.561270422926896,56.21646732648681,49.6393294582979,-9.713172767078504e-05,0.0915781408548355,0,0,0
4674,161905.80615988118,2010-10-17 14:11:08,1530.7758341867425,7,14,-1.0997490882873535,3.660735607147217,14.09081797484298,13.570439323404672,56.21646732648681,49.67291379861828,-6.47544875391759e-05,0.0915781408548355,0,0,0
4675,161935.8216148605,2010-10-17 14:11:38,1560.791289166075,7,14,-1.099568486213684,3.656526565551758,14.09081797484298,13.57960830932448,56.21646732648681,49.70645947315585,-9.713172767078504e-05,0.0915781408548355,0,0,0
4676,161965.83659633974,2010-10-17 14:12:08,1590.8062706352755,7,14,-1.099929690361023,3.652317523956299,14.09081797484298,13.588777607687804,56.21646732648681,49.73996793307272,-9.713172767078504e-05,0.0915781408548355,0,0,0
4677,161995.85182365164,2010-10-17 14:12:38,1620.8214980725038,7,14,-1.099929690361023,3.64827036857605,14.09081797484298,13.597947274684744,56.21646732648681,49.77343984435693,-9.713172767078504e-05,0.0915781408548355,0,0,0
4678,162025.8670309988,2010-10-17 14:13:08,1650.8367052793117,7,14,-1.0997490882873535,3.644223213195801,14.09081797484298,13.60711647451831,56.21646732648681,49.80687270615284,-9.713172767078504e-05,0.0915781408548355,0,0,0
4679,162055.88224483712,2010-10-17 14:13:38,1680.851919117647,7,14,-1.099568486213684,3.640176057815552,14.09081797484298,13.616285333468916,56.21646732648681,49.84026806164274,-9.713172767078504e-05,0.0915781408548355,0,0,0
4680,162085.8974840136,2010-10-17 14:14:08,1710.867158294133,7,14,-1.099929690361023,3.636452674865722,14.09081797484298,13.625454244849635,56.21646732648681,49.873628115652494,-0.0001295089750783,0.0915781408548355,0,0,0
4681,162115.91268906504,2010-10-17 14:14:38,1740.882363375644,7,14,-1.0997490882873535,3.632891178131104,14.09081797484298,13.63462318505174,56.21646732648681,49.906953661453095,-3.237724376958795e-05,0.0915781408548355,0,0,0
4682,162145.9279007079,2010-10-17 14:15:08,1770.8975750185075,7,14,-1.099568486213684,3.6291677951812735,14.09081797484298,13.643792107709244,56.21646732648681,49.94024539060283,-9.713172767078504e-05,0.0915781408548355,0,0,0
4683,162175.94323439998,2010-10-17 14:15:38,1800.912908705543,7,14,-1.0997490882873535,3.625444412231445,14.09081797484298,13.652961060997509,56.21646732648681,49.973504147964185,-0.0001295089750783,0.0915781408548355,0,0,0
4684,162205.95834384311,2010-10-17 14:16:08,1830.9280181787688,7,14,-1.0997490882873535,3.622044801712036,14.09081797484298,13.662129926250072,56.21646732648681,50.006730451355054,-6.47544875391759e-05,0.0915781408548355,0,0,0
4685,162235.97352525062,2010-10-17 14:16:38,1860.943199531139,7,14,-1.099929690361023,3.618645191192627,14.09081797484298,13.671298888383925,56.21646732648681,50.039925647568296,-9.713172767078504e-05,0.0915781408548355,0,0,0
4686,162265.98873391104,2010-10-17 14:17:08,1890.9584082216447,7,14,-1.099568486213684,3.6155693531036377,14.09081797484298,13.680467805156006,56.21646732648681,50.07308994586645,-3.237724376958795e-05,0.0915781408548355,0,0,0
4687,162296.00394726318,2010-10-17 14:17:38,1920.9736215737685,7,14,-1.099568486213684,3.6123316287994394,14.09081797484298,13.689636773002087,56.21646732648681,50.10622450424315,-6.47544875391759e-05,0.0915781408548355,0,0,0
4688,162326.01918704616,2010-10-17 14:18:09,1950.9888613567664,7,14,-1.0997490882873535,3.608932018280029,14.09081797484298,13.698805743741078,56.21646732648681,50.139329908694336,-0.0001295089750783,0.0915781408548355,0,0,0
4689,162356.03441090445,2010-10-17 14:18:39,1981.0040851849992,7,14,-1.0997490882873535,3.60585618019104,14.09081797484298,13.70797476910526,56.21646732648681,50.17240679672087,-9.713172767078504e-05,0.0915781408548355,0,0,0
4690,162386.0495890238,2010-10-17 14:19:09,2011.0192633343872,7,14,-1.0997490882873535,3.602618455886841,14.09081797484298,13.7171437752663,56.21646732648681,50.20545537502453,-0.0001618862152099,0.0915781408548355,0,0,0
4691,162416.06517619258,2010-10-17 14:19:39,2041.0348504981648,7,14,-1.099568486213684,3.5998663902282715,14.09081797484298,13.7263128769662,56.21646732648681,50.23847666560254,-6.47544875391759e-05,0.0915781408548355,0,0,0
4692,162446.08004546716,2010-10-17 14:20:09,2071.049719772742,7,14,-1.099568486213684,3.596952438354492,14.09081797484298,13.735481758896444,56.21646732648681,50.27147002209542,-6.47544875391759e-05,0.0915781408548355,0,0,0
4693,162476.09523281446,2010-10-17 14:20:39,2101.064907120053,7,14,-1.0997490882873535,3.594038486480713,14.09081797484298,13.744650724079484,56.21646732648681,50.30443667298277,-6.47544875391759e-05,0.0915781408548355,0,0,0
4694,162506.11044809638,2010-10-17 14:21:09,2131.080122376924,7,14,-1.099568486213684,3.5912866592407227,14.09081797484298,13.753819723587858,56.21646732648681,50.33737706963184,-6.47544875391759e-05,0.0915781408548355,0,0,0
4695,162536.1256576641,2010-10-17 14:21:39,2161.095331944616,7,14,-1.0997490882873535,3.5882108211517334,14.09081797484298,13.76298873517656,56.21646732648681,50.370291098337695,-9.713172767078504e-05,0.0915781408548355,0,0,0
4696,162566.14088694594,2010-10-17 14:22:09,2191.110561256516,7,14,-1.099568486213684,3.585458755493164,14.09081797484298,13.772157783366174,56.21646732648681,50.4031790449822,-6.47544875391759e-05,0.0915781408548355,0,0,0
4697,162596.15609567653,2010-10-17 14:22:39,2221.125769957047,7,14,-1.099568486213684,3.5825448036193848,14.09081797484298,13.781326721081095,56.21646732648681,50.43604053828771,-3.237724376958795e-05,0.0915781408548355,0,0,0
4698,162626.1712978558,2010-10-17 14:23:09,2251.1409721463497,7,14,-1.099568486213684,3.579630851745605,14.09081797484298,13.790495667945532,56.21646732648681,50.46887595261053,-9.713172767078504e-05,0.0915781408548355,0,0,0
4699,162656.1866228562,2010-10-17 14:23:39,2281.1562971367102,7,14,-1.0997490882873535,3.576878786087036,14.09081797484298,13.799664687198772,56.21646732648681,50.50168529755023,-6.47544875391759e-05,0.0915781408548355,0,0,0
4700,162686.201743006,2010-10-17 14:24:09,2311.171417286545,7,14,-1.0997490882873535,3.573964834213257,14.09081797484298,13.808833666738856,56.21646732648681,50.53446816087737,-9.713172767078504e-05,0.0915781408548355,0,0,0
4701,162716.2169808141,2010-10-17 14:24:39,2341.186655124696,7,14,-1.099568486213684,3.571050882339477,14.09081797484298,13.818002715694682,56.21646732648681,50.56722476170527,-6.47544875391759e-05,0.0915781408548355,0,0,0
4702,162746.23220063734,2010-10-17 14:25:09,2371.201874947947,7,14,-1.099929690361023,3.5681369304656982,14.09081797484298,13.827171743108346,56.21646732648681,50.599954358168524,-3.237724376958795e-05,0.0915781408548355,0,0,0
4703,162776.2473907365,2010-10-17 14:25:39,2401.217065022055,7,14,-1.1001102924346924,3.565061092376709,14.09081797484298,13.83634073162364,56.21646732648681,50.63265654669813,-9.713172767078504e-05,0.0915781408548355,0,0,0
4704,162806.2627496815,2010-10-17 14:26:09,2431.232423967041,7,14,-1.0997490882873535,3.5621471405029297,14.09081797484298,13.845509775375486,56.21646732648681,50.66533119399696,-9.713172767078504e-05,0.0915781408548355,0,0,0
4705,162836.27784318995,2010-10-17 14:26:39,2461.247517470465,7,14,-1.099568486213684,3.5590713024139404,14.09081797484298,13.854678731346038,56.21646732648681,50.69797775612333,-6.47544875391759e-05,0.0915781408548355,0,0,0
4706,162866.2930632137,2010-10-17 14:27:09,2491.26273834634,7,14,-1.099929690361023,3.5556716918945312,14.09081797484298,13.86384777334306,56.21646732648681,50.73059579729819,-9.713172767078504e-05,0.0915781408548355,0,0,0
4707,162896.3099328488,2010-10-17 14:27:39,2521.27960725462,7,14,-1.099568486213684,3.552595853805542,14.09081797484298,13.873017357264482,56.21646732648681,50.76318605854621,-6.47544875391759e-05,0.0915781408548355,0,0,0
4708,162926.32355398263,2010-10-17 14:28:09,2551.293228293207,7,14,-1.0997490882873535,3.549034357070923,14.09081797484298,13.882185862238671,56.21646732648681,50.795742173697896,-0.0001295089750783,0.0915781408548355,0,0,0
4709,162956.33869523005,2010-10-17 14:28:39,2581.308369535612,7,14,-1.099568486213684,3.545796632766724,14.09081797484298,13.8913549156482,56.21646732648681,50.82826881927511,-6.47544875391759e-05,0.0915781408548355,0,0,0
4710,162986.3538970835,2010-10-17 14:29:09,2611.323571389077,7,14,-1.0997490882873535,3.5422351360321045,14.09081797484298,13.900523899475113,56.21646732648681,50.86076291452096,-6.47544875391759e-05,0.0915781408548355,0,0,0
4711,163016.3691055635,2010-10-17 14:29:39,2641.3387798690583,7,14,-1.0997490882873535,3.538349866867065,14.09081797484298,13.909692895403357,56.21646732648681,50.89322372415371,-0.0001295089750783,0.0915781408548355,0,0,0
4712,163046.38435648923,2010-10-17 14:30:09,2671.354030814877,7,14,-1.0997490882873535,3.5344645977020264,14.09081797484298,13.91886199051114,56.21646732648681,50.92565007590565,-9.713172767078504e-05,0.0915781408548355,0,0,0
4713,163076.399559676,2010-10-17 14:30:39,2701.3692340818657,7,14,-1.099929690361023,3.5305793285369877,14.09081797484298,13.92803096760596,56.21646732648681,50.958039977073625,-9.713172767078504e-05,0.0915781408548355,0,0,0
4714,163106.41475198572,2010-10-17 14:31:09,2731.384426256208,7,14,-1.0997490882873535,3.5263702869415283,14.09081797484298,13.937199953777611,56.21646732648681,50.99039238250797,-0.0001295089750783,0.0915781408548355,0,0,0
4715,163136.4300998481,2010-10-17 14:31:39,2761.39977427396,7,14,-1.099568486213684,3.52199935913086,14.09081797484298,13.946369033952957,56.21646732648681,51.022705678692965,-9.713172767078504e-05,0.0915781408548355,0,0,0
4716,163166.4452027048,2010-10-17 14:32:09,2791.4148770103952,7,14,-1.099568486213684,3.5174665451049805,14.09081797484298,13.955537993718378,56.21646732648681,51.05497726381021,-9.713172767078504e-05,0.0915781408548355,0,0,0
4717,163196.46039395183,2010-10-17 14:32:39,2821.430068222339,7,14,-1.0997490882873535,3.512448072433472,14.09081797484298,13.964707013897051,56.21646732648681,51.08720517735768,-0.0001618862152099,0.0915781408548355,0,0,0
4718,163226.4757316689,2010-10-17 14:33:09,2851.4454059745053,7,14,-1.0997490882873535,3.506944179534912,14.09081797484298,13.973876039515122,56.21646732648681,51.1193858706771,-0.0001618862152099,0.0915781408548355,0,0,0
4719,163256.4908354981,2010-10-17 14:33:39,2881.4605098287266,7,14,-1.099929690361023,3.501116275787353,14.09081797484298,13.983045004427025,56.21646732648681,51.1515145021509,-0.0001618862152099,0.0915781408548355,0,0,0
4720,163286.50602824384,2010-10-17 14:34:09,2911.475702564468,7,14,-1.0997490882873535,3.494478940963745,14.09081797484298,13.992214049605796,56.21646732648681,51.183585926378285,-0.0001618862152099,0.0915781408548355,0,0,0
4721,163316.52117424313,2010-10-17 14:34:39,2941.4908485687406,7,14,-1.099568486213684,3.487032175064087,14.09081797484298,14.00138297947224,56.21646732648681,51.21559233766228,-0.0001618862152099,0.0915781408548355,0,0,0
4722,163346.53646343423,2010-10-17 14:35:09,2971.506137759878,7,14,-1.099568486213684,3.478290319442749,14.09081797484298,14.01055133106588,56.21646732648681,51.24752336094021,-0.0002266406954731,0.0915781408548355,0,0,0
4723,163376.55202353056,2010-10-17 14:35:39,3001.5216979313827,7,14,-1.099568486213684,3.4687390327453613,14.09081797484298,14.01971965626186,56.21646732648681,51.27936974014938,-0.0002266406954731,0.0915781408548355,0,0,0
4724,163406.56730627062,2010-10-17 14:36:09,3031.53698058623,7,14,-1.099568486213684,3.456921339035034,14.09081797484298,14.028887948196555,56.21646732648681,51.31111800078081,-0.0003237724304199,0.0915781408548355,0,0,0
4725,163436.58209867863,2010-10-17 14:36:39,3061.5517729591443,7,14,-1.0997490882873535,3.4426753520965576,14.09081797484298,14.038056075432063,56.21646732648681,51.342748854465526,-0.0004209041653666,0.0915781408548355,0,0,0
4726,163466.5973274291,2010-10-17 14:37:09,3091.567001704633,7,14,-1.0997490882873535,3.425515651702881,14.09081797484298,14.047225048679842,56.21646732648681,51.37423927910525,-0.0004532813909463,0.0915781408548355,0,0,0
4727,163496.61251869623,2010-10-17 14:37:39,3121.5821929967765,7,14,-1.0997490882873535,3.4022040367126465,14.09081797484298,14.05639399876326,56.21646732648681,51.40554604425678,-0.0007446765666827,0.0915781408548355,0,0,0
4728,163526.6277819427,2010-10-17 14:38:09,3151.5974562482647,7,14,-1.0997490882873535,3.370636224746704,14.09081797484298,14.065562947978236,56.21646732648681,51.43660557715784,-0.0010036944877356,0.0915781408548355,0,0,0
4729,163556.64294928013,2010-10-17 14:38:39,3181.6126235506185,7,14,-1.0997490882873535,3.325632095336914,14.09081797484298,14.07473192212568,56.21646732648681,51.46731779070161,-0.0013922214275225,0.0915781408548355,0,0,0
4730,163586.65815918866,2010-10-17 14:39:09,3211.6278334892345,7,14,-1.0997490882873535,3.260554075241089,14.09081797484298,14.083900850263555,56.21646732648681,51.497530536636845,-0.0020397186744958,0.0915781408548355,0,0,0
4731,163616.6733805658,2010-10-17 14:39:39,3241.6430548613466,7,14,-1.0997490882873535,3.1637463569641118,14.09081797484298,14.093069796741483,56.21646732648681,51.527013348013874,-0.0031082152854651,0.0915781408548355,0,0,0
4732,163646.68860456446,2010-10-17 14:40:09,3271.65827887003,7,14,-1.0997490882873535,3.004774570465088,14.09081797484298,14.102238769555568,56.21646732648681,51.55536840127681,-0.0056012151762843,0.0915781408548355,0,0,0
4733,163665.0165007461,2010-10-17 14:40:28,3289.986175046655,7,14,-1.099568486213684,2.8046836853027344,14.09081797484298,14.107837524895164,56.21646732648681,51.57169764337393,-0.0112349037081003,0.0915781408548355,0,0,0
4734,163671.61012834986,2010-10-17 14:40:34,3296.579802680527,7,14,-1.0997490882873535,2.699620008468628,14.09081797484298,14.109851712472842,56.21646732648681,51.57724291426849,-0.013015603646636,0.0915781408548355,0,0,0
4735,163731.62203159992,2010-10-17 14:41:34,60.01483042351708,8,14,0.0,3.3110623359680176,14.09081797484298,14.109851712472842,56.21646732648681,51.57724291426849,0.0013598442310467,0.0915781408548355,0,0,0
4736,163731.80754797737,2010-10-17 14:41:35,0.187648703306703,9,14,-1.9243103452026844e-05,3.311386108398437,14.09081797484298,14.109851713475882,56.21646732648681,51.57724291758994,0.0,0.0906857252120971,0,0,0
4737,163736.63550346295,2010-10-17 14:41:39,5.01560424403899,9,14,0.0007031940040178,3.3194804191589355,14.090818802908505,14.10985171372642,56.2164700723616,51.57724291841982,0.0011655807029455,0.0906857252120971,0,0,0
