Data_Point,Test_Time(s),Date_Time,Step_Time(s),Step_Index,Cycle_Index,Current(A),Voltage(V),Charge_Capacity(Ah),Discharge_Capacity(Ah),Charge_Energy(Wh),Discharge_Energy(Wh),dV/dt(V/s),Internal_Resistance(Ohm),Is_FC_Data,AC_Impedance(Ohm),ACI_Phase_Angle(Deg)
11395,396143.29929788335,2010-10-20 07:15:31,30.01515189395108,1,35,0.0,3.4272964000701904,33.94522291234165,33.948795306856525,135.5339436504625,123.862870120172,0.0007770538213662,0.0922218039631843,0,0,0
11396,396173.3144282285,2010-10-20 07:16:01,60.03028220912119,1,35,0.0,3.451579093933105,33.94522291234165,33.948795306856525,135.5339436504625,123.862870120172,0.0005827903514727,0.0922218039631843,0,0,0
11397,396203.3295775411,2010-10-20 07:16:31,90.04543152163855,1,35,0.0,3.469872236251831,33.94522291234165,33.948795306856525,135.5339436504625,123.862870120172,0.0004532813909463,0.0922218039631843,0,0,0
11398,396233.2980077703,2010-10-20 07:17:01,120.01386188616245,1,35,0.0,3.4842801094055176,33.94522291234165,33.948795306856525,135.5339436504625,123.862870120172,0.0003561496851034,0.0922218039631843,0,0,0
11399,396263.32538652816,2010-10-20 07:17:31,30.015505545359204,2,35,0.5501165986061096,3.6371002197265625,33.94980930446037,33.948795306856525,135.5504755845071,123.862870120172,0.0014893531333655,0.0922218039631843,0,0,0
11400,396293.3401471769,2010-10-20 07:18:01,60.030266048844815,2,35,0.550297200679779,3.679999828338623,33.95439553775534,33.948795306856525,135.56726107528957,123.862870120172,0.0009713172912597,0.0922218039631843,0,0,0
11401,396323.355305928,2010-10-20 07:18:31,90.04542483497332,2,35,0.550297200679779,3.7105963230133057,33.958981848645855,33.948795306856525,135.58421206783564,123.862870120172,0.0007446765666827,0.0922218039631843,0,0,0
11402,396353.3705889988,2010-10-20 07:19:01,120.06070792590764,2,35,0.5501165986061096,3.73423171043396,33.96356818928376,33.948795306856525,135.6012861517948,123.862870120172,0.0005827903514727,0.0922218039631843,0,0,0
11403,396383.385579671,2010-10-20 07:19:31,150.07569853789445,2,35,0.5501165986061096,3.7531721591949454,33.96815445650529,33.948795306856525,135.61845733534366,123.862870120172,0.000453233718872,0.0922218039631843,0,0,0
11404,396413.4007105727,2010-10-20 07:20:01,180.09082946960115,2,35,0.5499359965324402,3.7677419185638423,33.972740711929035,33.948795306856525,135.6357058410903,123.862870120172,0.0003561496851034,0.0922218039631843,0,0,0
11405,396443.41597569385,2010-10-20 07:20:31,210.1060945706993,2,35,0.5501165986061096,3.77745509147644,33.97732703422744,33.948795306856525,135.65300987253184,123.862870120172,0.0002266406954731,0.0922218039631843,0,0,0
11406,396473.43101136805,2010-10-20 07:21:01,240.12113023497025,2,35,0.5501165986061096,3.783282995223999,33.98191327779356,33.948795306856525,135.6703478750477,123.862870120172,0.0001295089750783,0.0922218039631843,0,0,0
11407,396503.4461595829,2010-10-20 07:21:31,270.13627847481416,2,35,0.5499359965324402,3.787492036819458,33.9864996189355,33.948795306856525,135.6877093288227,123.862870120172,6.47544875391759e-05,0.0922218039631843,0,0,0
11408,396533.4615989934,2010-10-20 07:22:01,300.15171800564485,2,35,0.5499359965324402,3.791539192199707,33.991085974289206,33.948795306856525,135.70508999629212,123.862870120172,6.47544875391759e-05,0.0922218039631843,0,0,0
11409,396563.4765692848,2010-10-20 07:22:31,330.1666881666615,2,35,0.5501165986061096,3.795586347579956,33.99567226875534,33.948795306856525,135.72248864357712,123.862870120172,9.713172767078504e-05,0.0922218039631843,0,0,0
11410,396593.4916096257,2010-10-20 07:23:01,360.18172850257565,2,35,0.5501165986061096,3.799471616744995,34.00025856854778,33.948795306856525,135.7399051518986,123.862870120172,9.713172767078504e-05,0.0922218039631843,0,0,0
11411,396623.5066974951,2010-10-20 07:23:31,390.1968164020328,2,35,0.550297200679779,3.803194999694824,34.00484489372838,33.948795306856525,135.75733933886622,123.862870120172,9.713172767078504e-05,0.0922218039631843,0,0,0
11412,396653.52183784527,2010-10-20 07:24:01,420.2119567121133,2,35,0.5501165986061096,3.8067564964294434,34.00943126829442,33.948795306856525,135.7747907253335,123.862870120172,9.713172767078504e-05,0.0922218039631843,0,0,0
11413,396683.5369777894,2010-10-20 07:24:31,450.2270967665567,2,35,0.5499359965324402,3.810479879379273,34.01401759105052,33.948795306856525,135.7922586316055,123.862870120172,9.713172767078504e-05,0.0922218039631843,0,0,0
11414,396713.5521205356,2010-10-20 07:25:01,480.24223941245873,2,35,0.5501165986061096,3.8142032623291016,34.01860388355631,33.948795306856525,135.8097429600421,123.862870120172,9.713172767078504e-05,0.0922218039631843,0,0,0
11415,396743.5672545951,2010-10-20 07:25:31,510.2573734569234,2,35,0.5501165986061096,3.817602872848511,34.02319019542034,33.948795306856525,135.82724366600365,123.862870120172,9.713172767078504e-05,0.0922218039631843,0,0,0
11416,396773.5825402273,2010-10-20 07:26:01,540.2726590992164,2,35,0.5501165986061096,3.82100248336792,34.02777654442635,33.948795306856525,135.8447603635807,123.862870120172,9.713172767078504e-05,0.0922218039631843,0,0,0
11417,396803.5975392152,2010-10-20 07:26:31,570.2876581071286,2,35,0.550297200679779,3.824563980102539,34.03236283933159,33.948795306856525,135.8622923539651,123.862870120172,0.0001618862152099,0.0922218039631843,0,0,0
11418,396833.6128165317,2010-10-20 07:27:01,600.3029354236712,2,35,0.550297200679779,3.8278017044067374,34.03694918804809,33.948795306856525,135.87983984274652,123.862870120172,9.713172767078504e-05,0.0922218039631843,0,0,0
11419,396863.62782223633,2010-10-20 07:27:31,630.3179412285234,2,35,0.5501165986061096,3.8310394287109375,34.04153549635279,33.948795306856525,135.89740239709283,123.862870120172,9.713172767078504e-05,0.0922218039631843,0,0,0
11420,396893.6430804853,2010-10-20 07:28:01,660.3331993823067,2,35,0.5501165986061096,3.834438800811768,34.04612181247873,33.948795306856525,135.91498006273858,123.862870120172,0.0001295089750783,0.0922218039631843,0,0,0
11421,396923.65809485153,2010-10-20 07:28:31,690.3482137134088,2,35,0.5501165986061096,3.837514638900757,34.05070802917789,33.948795306856525,135.9325725270409,123.862870120172,6.47544875391759e-05,0.0922218039631843,0,0,0
11422,396953.67337232846,2010-10-20 07:29:01,720.3634912354638,2,35,0.5499359965324402,3.840752363204956,34.055294334024936,33.948795306856525,135.9501805488677,123.862870120172,6.47544875391759e-05,0.0922218039631843,0,0,0
11423,396983.6885169344,2010-10-20 07:29:31,750.3786358011506,2,35,0.5501165986061096,3.844475746154785,34.059880621688635,33.948795306856525,135.96780398528242,123.862870120172,0.0001295089750783,0.0922218039631843,0,0,0
11424,397013.7035168795,2010-10-20 07:30:01,780.3936357764737,2,35,0.5501165986061096,3.8478753566741934,34.06446683022958,33.948795306856525,135.98544272473433,123.862870120172,0.0001295089750783,0.0922218039631843,0,0,0
11425,397043.7186596658,2010-10-20 07:30:31,810.4087785527005,2,35,0.550297200679779,3.851274967193604,34.06905311583061,33.948795306856525,136.0030973208325,123.862870120172,0.0001295089750783,0.0922218039631843,0,0,0
11426,397073.734006671,2010-10-20 07:31:01,840.424125537879,2,35,0.5501165986061096,3.8546745777130127,34.07363944124529,33.948795306856525,136.020767672725,123.862870120172,0.0001295089750783,0.0922218039631843,0,0,0
11427,397103.74906710704,2010-10-20 07:31:31,870.4391859839137,2,35,0.550297200679779,3.857912302017212,34.07822570049982,33.948795306856525,136.03845323794562,123.862870120172,6.47544875391759e-05,0.0922218039631843,0,0,0
11428,397133.7642173669,2010-10-20 07:32:01,900.4543362437921,2,35,0.5501165986061096,3.860988140106201,34.08281193964261,33.948795306856525,136.05615384498918,123.862870120172,3.237724376958795e-05,0.0922218039631843,0,0,0
11429,397163.7792184801,2010-10-20 07:32:31,930.469337387026,2,35,0.5501165986061096,3.8643877506256095,34.0873982077855,33.948795306856525,136.07386937977552,123.862870120172,9.713172767078504e-05,0.0922218039631843,0,0,0
11430,397193.7943826346,2010-10-20 07:33:01,960.4845015515592,2,35,0.550297200679779,3.8674635887146,34.091984490275664,33.948795306856525,136.09159948618395,123.862870120172,9.713172767078504e-05,0.0922218039631843,0,0,0
11431,397223.8096236707,2010-10-20 07:33:31,990.4997425977052,2,35,0.5499359965324402,3.870539426803589,34.0965707948197,33.948795306856525,136.1093438876365,123.862870120172,9.713172767078504e-05,0.0922218039631843,0,0,0
11432,397253.8247666174,2010-10-20 07:34:01,1020.5148855243068,2,35,0.5499359965324402,3.873615264892578,34.10115714797276,33.948795306856525,136.1271024137168,123.862870120172,6.47544875391759e-05,0.0922218039631843,0,0,0
11433,397283.8397750387,2010-10-20 07:34:31,1050.5298939105926,2,35,0.550297200679779,3.876691102981568,34.105743457906726,33.948795306856525,136.1448742185064,123.862870120172,0.0001295089750783,0.0922218039631843,0,0,0
11434,397313.8550596384,2010-10-20 07:35:01,1080.5451785353496,2,35,0.5501165986061096,3.879281282424927,34.1103297860346,33.948795306856525,136.16265918707572,123.862870120172,9.713172767078504e-05,0.0922218039631843,0,0,0
11435,397343.8700655988,2010-10-20 07:35:31,1110.560184505614,2,35,0.5497553944587708,3.881709575653076,34.114916065934246,33.948795306856525,136.18045644455847,123.862870120172,3.237724376958795e-05,0.0922218039631843,0,0,0
11436,397373.88518894144,2010-10-20 07:36:02,1140.5753078032944,2,35,0.5501165986061096,3.8844616413116455,34.11950236675615,33.948795306856525,136.19826581656287,123.862870120172,6.47544875391759e-05,0.0922218039631843,0,0,0
11437,397403.9004750349,2010-10-20 07:36:32,1170.5905939117492,2,35,0.550297200679779,3.886728048324585,34.124088675998955,33.948795306856525,136.21608652235344,123.862870120172,9.713172767078504e-05,0.0922218039631843,0,0,0
11438,397433.9154818072,2010-10-20 07:37:02,1200.605600679,2,35,0.5501165986061096,3.889318227767944,34.128674992547985,33.948795306856525,136.23391806411868,123.862870120172,0.0001295089750783,0.0922218039631843,0,0,0
11439,397463.9307302116,2010-10-20 07:37:32,1230.6208491686973,2,35,0.5501165986061096,3.891260862350464,34.133261409464794,33.948795306856525,136.25176007692045,123.862870120172,6.47544875391759e-05,0.0922218039631843,0,0,0
11440,397493.945733049,2010-10-20 07:38:02,1260.6358519209414,2,35,0.5501165986061096,3.893203496932984,34.13784778494393,33.948795306856525,136.2696114437808,123.862870120172,3.237724376958795e-05,0.0922218039631843,0,0,0
11441,397523.9609009579,2010-10-20 07:38:32,1290.651019824794,2,35,0.550297200679779,3.894984245300293,34.14243418676702,33.948795306856525,136.28747170160133,123.862870120172,3.237724376958795e-05,0.0922218039631843,0,0,0
11442,397553.9762161187,2010-10-20 07:39:02,1320.6663349906687,2,35,0.550297200679779,3.896926879882813,34.14702053198481,33.948795306856525,136.30533961006594,123.862870120172,6.47544875391759e-05,0.0922218039631843,0,0,0
11443,397583.9911872522,2010-10-20 07:39:32,1350.6813061291218,2,35,0.5501165986061096,3.898383855819702,34.15160683354074,33.948795306856525,136.3232152582763,123.862870120172,0.0,0.0922218039631843,0,0,0
11444,397614.0064736164,2010-10-20 07:40:02,1380.696592513264,2,35,0.5499359965324402,3.899840831756592,34.15619321394264,33.948795306856525,136.3410984909247,123.862870120172,3.237724376958795e-05,0.0922218039631843,0,0,0
11445,397644.02147690486,2010-10-20 07:40:32,1410.7115957968322,2,35,0.5501165986061096,3.9014596939086914,34.16077955631232,33.948795306856525,136.35898832263985,123.862870120172,6.47544875391759e-05,0.0922218039631843,0,0,0
11446,397674.0366255508,2010-10-20 07:41:02,1440.7267444076006,2,35,0.5501165986061096,3.902916669845581,34.1653659165294,33.948795306856525,136.37688482896024,123.862870120172,6.47544875391759e-05,0.0922218039631843,0,0,0
11447,397704.0517514399,2010-10-20 07:41:32,1470.741870341852,2,35,0.5499359965324402,3.904049873352051,34.16995229886459,33.948795306856525,136.39478764317184,123.862870120172,3.237724376958795e-05,0.0922218039631843,0,0,0
11448,397734.06688591547,2010-10-20 07:42:02,1500.7570048173911,2,35,0.5501165986061096,3.905506849288941,34.17453864203201,33.948795306856525,136.4126962983721,123.862870120172,6.47544875391759e-05,0.0922218039631843,0,0,0
11449,397764.0820308722,2010-10-20 07:42:32,1530.77214974899,2,35,0.5499359965324402,3.9064781665802,34.17912492553038,33.948795306856525,136.43061045701964,123.862870120172,0.0,0.0922218039631843,0,0,0
11450,397794.0971770467,2010-10-20 07:43:02,1560.787295933712,2,35,0.5501165986061096,3.90793514251709,34.18371125269686,33.948795306856525,136.44853057453813,123.862870120172,6.47544875391759e-05,0.0922218039631843,0,0,0
11451,397824.1123219382,2010-10-20 07:43:32,1590.8024408653105,2,35,0.5499359965324402,3.90906834602356,34.188297539324964,33.948795306856525,136.46645625776156,123.862870120172,0.0,0.0922218039631843,0,0,0
11452,397854.1275702626,2010-10-20 07:44:02,1620.8176891394708,2,35,0.5501165986061096,3.9103634357452393,34.19288389750694,33.948795306856525,136.48438798716995,123.862870120172,0.0,0.0922218039631843,0,0,0
11453,397884.142589541,2010-10-20 07:44:32,1650.8327084078785,2,35,0.5499359965324402,3.911496639251709,34.197470217026165,33.948795306856525,136.50232515671573,123.862870120172,0.0,0.0922218039631843,0,0,0
11454,397914.15785820095,2010-10-20 07:45:02,1680.8479770678462,2,35,0.5501165986061096,3.9127917289733887,34.20205658220105,33.948795306856525,136.5202682483727,123.862870120172,0.0,0.0922218039631843,0,0,0
11455,397944.1728595698,2010-10-20 07:45:32,1710.8629784366422,2,35,0.5499359965324402,3.914086580276489,34.20664290132988,33.948795306856525,136.5382168977362,123.862870120172,3.237724376958795e-05,0.0922218039631843,0,0,0
11456,397974.1881228213,2010-10-20 07:46:02,1740.8782417282305,2,35,0.5499359965324402,3.915381669998169,34.21122934522728,33.948795306856525,136.5561719714848,123.862870120172,0.0,0.0922218039631843,0,0,0
11457,398004.20313796937,2010-10-20 07:46:32,1770.8932568362688,2,35,0.550297200679779,3.9168386459350586,34.21581567722798,33.948795306856525,136.57413220851544,123.862870120172,3.237724376958795e-05,0.0922218039631843,0,0,0
11458,398034.2185139719,2010-10-20 07:47:02,1800.9086328588176,2,35,0.550297200679779,3.9181337356567374,34.22040202405972,33.948795306856525,136.59209853718252,123.862870120172,6.47544875391759e-05,0.0922218039631843,0,0,0
11459,398064.2343671888,2010-10-20 07:47:32,1830.9244862009928,2,35,0.5499359965324402,3.919266939163208,34.2249884183635,33.948795306856525,136.6100709423037,123.862870120172,6.47544875391759e-05,0.0922218039631843,0,0,0
11460,398094.24856921536,2010-10-20 07:48:02,1860.938688117308,2,35,0.5501165986061096,3.920562028884888,34.229574581028736,33.948795306856525,136.62804845468392,123.862870120172,3.237724376958795e-05,0.0922218039631843,0,0,0
11461,398124.2638274042,2010-10-20 07:48:32,1890.953946271091,2,35,0.5499359965324402,3.921857118606568,34.23416096175975,33.948795306856525,136.64603277242136,123.862870120172,3.237724376958795e-05,0.0922218039631843,0,0,0
11462,398154.2788452591,2010-10-20 07:49:02,1920.968964130988,2,35,0.5501165986061096,3.923152208328247,34.238747233434125,33.948795306856525,136.66402276707612,123.862870120172,0.0,0.0922218039631843,0,0,0
11463,398184.2942173218,2010-10-20 07:49:32,1950.9843362889048,2,35,0.550297200679779,3.9247710704803462,34.24333364871361,33.948795306856525,136.68201944271755,123.862870120172,6.47544875391759e-05,0.0922218039631843,0,0,0
11464,398214.3091119245,2010-10-20 07:50:02,1980.9992307913567,2,35,0.5499359965324402,3.925904273986816,34.24791996074639,33.948795306856525,136.7000219155152,123.862870120172,3.237724376958795e-05,0.0922218039631843,0,0,0
11465,398244.3244011707,2010-10-20 07:50:32,2011.0145200727195,2,35,0.5501165986061096,3.927361249923706,34.252506346111424,33.948795306856525,136.71803081346434,123.862870120172,9.713172767078504e-05,0.0922218039631843,0,0,0
11466,398274.3394373914,2010-10-20 07:51:02,2041.029556248265,2,35,0.5501165986061096,3.928818225860596,34.2570926521126,33.948795306856525,136.73604581025606,123.862870120172,3.237724376958795e-05,0.0922218039631843,0,0,0
11467,398304.35453290486,2010-10-20 07:51:32,2071.0446517717232,2,35,0.5501165986061096,3.9301133155822754,34.26167892951089,33.948795306856525,136.7540670048991,123.862870120172,3.237724376958795e-05,0.0922218039631843,0,0,0
11468,398334.3696719117,2010-10-20 07:52:02,2101.059790783568,2,35,0.5497553944587708,3.931084632873535,34.26626534883415,33.948795306856525,136.77209516620331,123.862870120172,-6.47544875391759e-05,0.0922218039631843,0,0,0
11469,398364.384804307,2010-10-20 07:52:32,2131.0749231739105,2,35,0.5501165986061096,3.9328653812408447,34.27085172492887,33.948795306856525,136.7901295807346,123.862870120172,3.237724376958795e-05,0.0922218039631843,0,0,0
11470,398394.3999525268,2010-10-20 07:53:02,2161.090071423779,2,35,0.5501165986061096,3.9343223571777344,34.27543810708802,33.948795306856525,136.80817050028398,123.862870120172,3.237724376958795e-05,0.0922218039631843,0,0,0
11471,398424.4150805964,2010-10-20 07:53:32,2191.105199473303,2,35,0.5501165986061096,3.935779333114624,34.2800244580348,33.948795306856525,136.8262178556028,123.862870120172,6.47544875391759e-05,0.0922218039631843,0,0,0
11472,398454.4305096712,2010-10-20 07:54:02,2221.120628568124,2,35,0.5501165986061096,3.937074422836304,34.28461085880645,33.948795306856525,136.84427185477244,123.862870120172,3.237724376958795e-05,0.0922218039631843,0,0,0
11473,398484.4453733017,2010-10-20 07:54:32,2251.135492173571,2,35,0.5501165986061096,3.938531398773194,34.28919708007744,33.948795306856525,136.8623318724458,123.862870120172,0.0,0.0922218039631843,0,0,0
11474,398514.46054177696,2010-10-20 07:55:02,2281.1506606338103,2,35,0.5499359965324402,3.939988374710083,34.29378343916908,33.948795306856525,136.88039911442198,123.862870120172,3.237724376958795e-05,0.0922218039631843,0,0,0
11475,398544.4756595759,2010-10-20 07:55:32,2311.1657784528365,2,35,0.5501165986061096,3.941607236862183,34.298369781053374,33.948795306856525,136.89847309111693,123.862870120172,3.237724376958795e-05,0.0922218039631843,0,0,0
11476,398574.4907863473,2010-10-20 07:56:02,2341.180905214149,2,35,0.5501165986061096,3.943064212799072,34.302956172652785,33.948795306856525,136.9165540470231,123.862870120172,3.237724376958795e-05,0.0922218039631843,0,0,0
11477,398604.5060652777,2010-10-20 07:56:32,2371.1961841447146,2,35,0.5499359965324402,3.944683074951172,34.30754252195825,33.948795306856525,136.93464172919607,123.862870120172,9.713172767078504e-05,0.0922218039631843,0,0,0
11478,398634.5210859148,2010-10-20 07:57:02,2401.21120477652,2,35,0.5499359965324402,3.9461400508880615,34.31212881273469,33.948795306856525,136.95273612604527,123.862870120172,6.47544875391759e-05,0.0922218039631843,0,0,0
11479,398664.53621893656,2010-10-20 07:57:32,2431.226337833524,2,35,0.5501165986061096,3.947758913040161,34.31671519235534,33.948795306856525,136.97083775741257,123.862870120172,6.47544875391759e-05,0.0922218039631843,0,0,0
11480,398694.5513350063,2010-10-20 07:58:02,2461.2414538781272,2,35,0.5501165986061096,3.949054002761841,34.321301498327664,33.948795306856525,136.98894620372954,123.862870120172,3.237724376958795e-05,0.0922218039631843,0,0,0
11481,398724.56647526624,2010-10-20 07:58:32,2491.25659417317,2,35,0.5501165986061096,3.9508347511291504,34.325887783487175,33.948795306856525,137.0070617427412,123.862870120172,6.47544875391759e-05,0.0922218039631843,0,0,0
11482,398754.5817485327,2010-10-20 07:59:02,2521.271867409544,2,35,0.5497553944587708,3.95212984085083,34.33047418700848,33.948795306856525,137.02518498653046,123.862870120172,3.237724376958795e-05,0.0922218039631843,0,0,0
11483,398784.5967488789,2010-10-20 07:59:32,2551.2868677858664,2,35,0.5501165986061096,3.9540724754333496,34.33506051226353,33.948795306856525,137.0433151659849,123.862870120172,6.47544875391759e-05,0.0922218039631843,0,0,0
11484,398814.61201930325,2010-10-20 08:00:02,2581.302138180157,2,35,0.5499359965324402,3.9555294513702393,34.339646886132584,33.948795306856525,137.06145286979768,123.862870120172,6.47544875391759e-05,0.0922218039631843,0,0,0
11485,398844.6271649166,2010-10-20 08:00:32,2611.3172838135047,2,35,0.5501165986061096,3.956986427307129,34.3442332017995,33.948795306856525,137.07959773734405,123.862870120172,3.237724376958795e-05,0.0922218039631843,0,0,0
11486,398874.6421912476,2010-10-20 08:01:02,2641.332310134489,2,35,0.5499359965324402,3.958605289459229,34.348819536156185,33.948795306856525,137.0977500165765,123.862870120172,0.0,0.0922218039631843,0,0,0
11487,398904.6574383638,2010-10-20 08:01:32,2671.3475572407388,2,35,0.5501165986061096,3.960386037826538,34.35340590357578,33.948795306856525,137.11591000660715,123.862870120172,6.47544875391759e-05,0.0922218039631843,0,0,0
11488,398934.67245346686,2010-10-20 08:02:02,2701.362572358802,2,35,0.5501165986061096,3.9620048999786377,34.357992206652376,33.948795306856525,137.13407732612723,123.862870120172,3.237724376958795e-05,0.0922218039631843,0,0,0
11489,398964.6875913359,2010-10-20 08:02:32,2731.377710212761,2,35,0.5501165986061096,3.963623762130737,34.36257857243989,33.948795306856525,137.15225236850833,123.862870120172,6.47544875391759e-05,0.0922218039631843,0,0,0
11490,398994.7029552533,2010-10-20 08:03:02,2761.3930741652275,2,35,0.5501165986061096,3.965404510498047,34.36716498752349,33.948795306856525,137.17043528667418,123.862870120172,6.47544875391759e-05,0.0922218039631843,0,0,0
11491,399024.717874778,2010-10-20 08:03:32,2791.4079936850303,2,35,0.5499359965324402,3.966861486434937,34.37175136335424,33.948795306856525,137.18862577273012,123.862870120172,3.237724376958795e-05,0.0922218039631843,0,0,0
11492,399054.7330600652,2010-10-20 08:04:02,2821.423178962182,2,35,0.550297200679779,3.968804121017456,34.37633769674758,33.948795306856525,137.20682365838127,123.862870120172,6.47544875391759e-05,0.0922218039631843,0,0,0
11493,399084.74817109737,2010-10-20 08:04:32,2851.4382899942934,2,35,0.5501165986061096,3.970422983169556,34.38092411286701,33.948795306856525,137.2250297032164,123.862870120172,0.0,0.0922218039631843,0,0,0
11494,399114.7633093624,2010-10-20 08:05:02,2881.453428229202,2,35,0.550297200679779,3.972203731536865,34.38551046647495,33.948795306856525,137.2432434037709,123.862870120172,3.237724376958795e-05,0.0922218039631843,0,0,0
11495,399144.7785581778,2010-10-20 08:05:32,2911.468677049724,2,35,0.5501165986061096,3.973822593688965,34.39009684963427,33.948795306856525,137.261465128573,123.862870120172,3.237724376958795e-05,0.0922218039631843,0,0,0
11496,399174.79359659896,2010-10-20 08:06:02,2941.483715515978,2,35,0.5501165986061096,3.9756033420562735,34.394683238680294,33.948795306856525,137.27969487313715,123.862870120172,6.47544875391759e-05,0.0922218039631843,0,0,0
11497,399204.8087063028,2010-10-20 08:06:32,2971.4988251696536,2,35,0.5499359965324402,3.977384090423584,34.39926963264123,33.948795306856525,137.29793267850192,123.862870120172,3.237724376958795e-05,0.0922218039631843,0,0,0
11498,399234.823982276,2010-10-20 08:07:02,3001.514101142848,2,35,0.5501165986061096,3.979002952575684,34.4038560579385,33.948795306856525,137.31617821289467,123.862870120172,0.0,0.0922218039631843,0,0,0
11499,399264.8389907375,2010-10-20 08:07:32,3031.5291096143465,2,35,0.5501165986061096,3.980945587158203,34.40844239569387,33.948795306856525,137.33443208370613,123.862870120172,9.713172767078504e-05,0.0922218039631843,0,0,0
11500,399294.8541525861,2010-10-20 08:08:03,3061.544271478145,2,35,0.550297200679779,3.9827263355255127,34.4130287004517,33.948795306856525,137.35269404534833,123.862870120172,3.237724376958795e-05,0.0922218039631843,0,0,0
11501,399324.8692754428,2010-10-20 08:08:33,3091.5593943347267,2,35,0.5501165986061096,3.9845070838928223,34.41761498054557,33.948795306856525,137.37096411360454,123.862870120172,6.47544875391759e-05,0.0922218039631843,0,0,0
11502,399354.8844171814,2010-10-20 08:09:03,3121.57453607838,2,35,0.5501165986061096,3.986449718475342,34.42220128722972,33.948795306856525,137.38924259216526,123.862870120172,6.47544875391759e-05,0.0922218039631843,0,0,0
11503,399384.89954854926,2010-10-20 08:09:33,3151.589667441161,2,35,0.5501165986061096,3.9880685806274414,34.42678752663877,33.948795306856525,137.4075291202426,123.862870120172,3.237724376958795e-05,0.0922218039631843,0,0,0
11504,399414.9146835511,2010-10-20 08:10:03,3181.6048024480247,2,35,0.5501165986061096,3.990011215209961,34.43137385978057,33.948795306856525,137.42582426029583,123.862870120172,3.237724376958795e-05,0.0922218039631843,0,0,0
11505,399444.9298261067,2010-10-20 08:10:33,3211.6199450087142,2,35,0.5501165986061096,3.991953849792481,34.43596016359777,33.948795306856525,137.444127836191,123.862870120172,9.713172767078504e-05,0.0922218039631843,0,0,0
11506,399474.9449827726,2010-10-20 08:11:03,3241.635101664533,2,35,0.5501165986061096,3.99357271194458,34.440546416563166,33.948795306856525,137.46243978971634,123.862870120172,3.237724376958795e-05,0.0922218039631843,0,0,0
11507,399504.9602649312,2010-10-20 08:11:33,3271.650383823144,2,35,0.5501165986061096,3.9956769943237305,34.44513273574271,33.948795306856525,137.48076071340066,123.862870120172,6.47544875391759e-05,0.0922218039631843,0,0,0
11508,399534.9752367514,2010-10-20 08:12:03,3301.6653556132205,2,35,0.5499359965324402,3.99761962890625,34.44971902168025,33.948795306856525,137.4990902044118,123.862870120172,9.713172767078504e-05,0.0922218039631843,0,0,0
11509,399564.9903902444,2010-10-20 08:12:33,3331.680509151269,2,35,0.5501165986061096,3.9995622634887695,34.45430533740959,33.948795306856525,137.51742865753954,123.862870120172,6.47544875391759e-05,0.0922218039631843,0,0,0
11510,399595.0055270908,2010-10-20 08:13:03,3361.6956459776675,2,35,0.5499359965324402,4.001504898071289,34.45889167607053,33.948795306856525,137.53577620506317,123.862870120172,6.47544875391759e-05,0.0922218039631843,0,0,0
11511,399625.0206790198,2010-10-20 08:13:33,3391.710797896681,2,35,0.5499359965324402,4.003447532653809,34.46347793847152,33.948795306856525,137.5541325498548,123.862870120172,6.47544875391759e-05,0.0922218039631843,0,0,0
11512,399655.03580565576,2010-10-20 08:14:03,3421.725924552731,2,35,0.5499359965324402,4.005552291870117,34.46806427926503,33.948795306856525,137.57249834455686,123.862870120172,9.71794142969884e-05,0.0922218039631843,0,0,0
11513,399685.0509023371,2010-10-20 08:14:33,3451.7410211989886,2,35,0.550297200679779,4.007656574249268,34.472650560447526,33.948795306856525,137.59087330581428,123.862870120172,9.70840483205393e-05,0.0922218039631843,0,0,0
11514,399715.0661013334,2010-10-20 08:15:03,3481.7562202504705,2,35,0.5499359965324402,4.009599208831787,34.47723696682551,33.948795306856525,137.60925813875625,123.862870120172,9.70840483205393e-05,0.0922218039631843,0,0,0
11515,399745.08120892703,2010-10-20 08:15:33,3511.771327808924,2,35,0.5499359965324402,4.011703968048096,34.48182324585403,33.948795306856525,137.62765194890352,123.862870120172,9.71794142969884e-05,0.0922218039631843,0,0,0
11516,399775.09635466064,2010-10-20 08:16:03,3541.786473517459,2,35,0.5501165986061096,4.013646602630615,34.486409498575235,33.948795306856525,137.6460553503334,123.862870120172,3.24249267578125e-05,0.0922218039631843,0,0,0
11517,399805.1114384198,2010-10-20 08:16:33,3571.801557286622,2,35,0.5501165986061096,4.015913009643555,34.49099576892905,33.948795306856525,137.664468538633,123.862870120172,6.47544875391759e-05,0.0922218039631843,0,0,0
11518,399835.1266101531,2010-10-20 08:17:03,3601.816729020019,2,35,0.5501165986061096,4.018179416656494,34.49558207557008,33.948795306856525,137.68289170716392,123.862870120172,9.71794142969884e-05,0.0922218039631843,0,0,0
11519,399865.1417248444,2010-10-20 08:17:33,3631.83184371125,2,35,0.5499359965324402,4.0202836990356445,34.50016835888702,33.948795306856525,137.70132472431558,123.862870120172,6.47544875391759e-05,0.0922218039631843,0,0,0
11520,399895.1569258357,2010-10-20 08:18:03,3661.847044722616,2,35,0.5501165986061096,4.022712230682373,34.504754563331794,33.948795306856525,137.71976751770995,123.862870120172,9.71794142969884e-05,0.0922218039631843,0,0,0
11521,399925.17207930353,2010-10-20 08:18:33,3691.8621981904894,2,35,0.5501165986061096,4.024654865264893,34.50934077636667,33.948795306856525,137.7382204622825,123.862870120172,6.47544875391759e-05,0.0922218039631843,0,0,0
11522,399955.18740594806,2010-10-20 08:19:03,3721.877524860035,2,35,0.5497553944587708,4.026759147644043,34.51392710109292,33.948795306856525,137.75668411604389,123.862870120172,3.23295607813634e-05,0.0922218039631843,0,0,0
11523,399985.2026090997,2010-10-20 08:19:33,3751.8927281019614,2,35,0.5501165986061096,4.029187679290772,34.518513410838466,33.948795306856525,137.7751579899947,123.862870120172,6.47544875391759e-05,0.0922218039631843,0,0,0
11524,400015.2174843793,2010-10-20 08:20:03,3781.907603246167,2,35,0.5501165986061096,4.031454086303711,34.52309967386381,33.948795306856525,137.7936419589107,123.862870120172,6.47544875391759e-05,0.0922218039631843,0,0,0
11525,400045.2326292608,2010-10-20 08:20:33,3811.9227481276416,2,35,0.5499359965324402,4.03372049331665,34.52768592492701,33.948795306856525,137.81213645599206,123.862870120172,3.24249267578125e-05,0.0922218039631843,0,0,0
11526,400075.24777634273,2010-10-20 08:21:03,3841.9378952396746,2,35,0.5501165986061096,4.035986423492432,34.53227219981535,33.948795306856525,137.83064166824386,123.862870120172,6.47544875391759e-05,0.0922218039631843,0,0,0
11527,400105.2630573184,2010-10-20 08:21:33,3871.9531762253614,2,35,0.5499359965324402,4.03841495513916,34.53685855016213,33.948795306856525,137.84915793355782,123.862870120172,3.24249267578125e-05,0.0922218039631843,0,0,0
11528,400135.27805690776,2010-10-20 08:22:03,3901.968175794673,2,35,0.5501165986061096,4.0408430099487305,34.54144484671544,33.948795306856525,137.86768483300918,123.862870120172,6.47544875391759e-05,0.0922218039631843,0,0,0
11529,400165.2931842154,2010-10-20 08:22:33,3931.9833030822974,2,35,0.5499359965324402,4.043271541595459,34.5460311008686,33.948795306856525,137.88622244287492,123.862870120172,3.24249267578125e-05,0.0922218039631843,0,0,0
11530,400195.30832895153,2010-10-20 08:23:03,3961.9984478384586,2,35,0.5501165986061096,4.045537948608398,34.550617322889934,33.948795306856525,137.90477087404835,123.862870120172,6.47544875391759e-05,0.0922218039631843,0,0,0
11531,400225.3234546452,2010-10-20 08:23:33,3992.0135735120607,2,35,0.5501165986061096,4.047966003417969,34.55520365183503,33.948795306856525,137.92333083796376,123.862870120172,6.47544875391759e-05,0.0922218039631843,0,0,0
11532,400255.3385899929,2010-10-20 08:24:03,4022.0287088547607,2,35,0.5501165986061096,4.050556182861328,34.55978996002832,33.948795306856525,137.94190186685802,123.862870120172,6.47544875391759e-05,0.0922218039631843,0,0,0
11533,400285.3538624775,2010-10-20 08:24:33,4052.043981404423,2,35,0.5499359965324402,4.052822589874268,34.564376301405474,33.948795306856525,137.96048422121714,123.862870120172,6.47544875391759e-05,0.0922218039631843,0,0,0
11534,400315.368878588,2010-10-20 08:25:03,4082.058997474861,2,35,0.5499359965324402,4.055412769317627,34.5689626039341,33.948795306856525,137.9790778727442,123.862870120172,6.47544875391759e-05,0.0922218039631843,0,0,0
11535,400345.38416323776,2010-10-20 08:25:33,4112.07428216478,2,35,0.5501165986061096,4.058002948760986,34.57354895905801,33.948795306856525,137.9976832301066,123.862870120172,6.47544875391759e-05,0.0922218039631843,0,0,0
11536,400375.3994155671,2010-10-20 08:26:03,4142.089534463972,2,35,0.5499359965324402,4.060431480407715,34.578135346477254,33.948795306856525,138.01630036869733,123.862870120172,6.47544875391759e-05,0.0922218039631843,0,0,0
11537,400405.4142884005,2010-10-20 08:26:33,4172.104407292406,2,35,0.5499359965324402,4.062859535217285,34.58272162888996,33.948795306856525,138.03492833766242,123.862870120172,6.47544875391759e-05,0.0922218039631843,0,0,0
11538,400435.4294331115,2010-10-20 08:27:03,4202.119551998442,2,35,0.5499359965324402,4.0654497146606445,34.58730794635159,33.948795306856525,138.05356833967187,123.862870120172,3.23295607813634e-05,0.0922218039631843,0,0,0
11539,400465.4445750808,2010-10-20 08:27:33,4232.134693977683,2,35,0.5504778623580933,4.068363666534424,34.591894257227466,33.948795306856525,138.0722202209908,123.862870120172,9.70840483205393e-05,0.0922218039631843,0,0,0
11540,400495.4597246138,2010-10-20 08:28:03,4262.149843475662,2,35,0.5499359965324402,4.070792198181152,34.596480565589665,33.948795306856525,138.0908841859351,123.862870120172,6.47544875391759e-05,0.0922218039631843,0,0,0
11541,400525.4749699757,2010-10-20 08:28:33,4292.165088877664,2,35,0.5501165986061096,4.073544025421143,34.60106680757178,33.948795306856525,138.10955995613654,123.862870120172,9.70840483205393e-05,0.0922218039631843,0,0,0
11542,400555.4900273992,2010-10-20 08:29:03,4322.180146291142,2,35,0.5501165986061096,4.076134204864502,34.6056530074435,33.948795306856525,138.1282479217631,123.862870120172,0.0001295089750783,0.0922218039631843,0,0,0
11543,400585.5051382408,2010-10-20 08:29:33,4352.19525713779,2,35,0.5501165986061096,4.07888650894165,34.61023925459974,33.948795306856525,138.14694856953076,123.862870120172,6.47544875391759e-05,0.0922218039631843,0,0,0
11544,400615.5202506263,2010-10-20 08:30:03,4382.21036951826,2,35,0.5501165986061096,4.081638336181641,34.61482542684382,33.948795306856525,138.1656614785392,123.862870120172,9.70840483205393e-05,0.0922218039631843,0,0,0
11545,400645.5353926356,2010-10-20 08:30:33,4412.225511522564,2,35,0.5499359965324402,4.08455228805542,34.61941164356671,33.948795306856525,138.18438722486627,123.862870120172,0.0001295089750783,0.0922218039631843,0,0,0
11546,400675.5506518722,2010-10-20 08:31:03,4442.240770733984,2,35,0.5501165986061096,4.087304592132568,34.62399791394914,33.948795306856525,138.20312597739695,123.862870120172,0.0001295089750783,0.0922218039631843,0,0,0
11547,400705.56560570747,2010-10-20 08:31:33,4472.255724589361,2,35,0.5499359965324402,4.090218544006348,34.62858411247888,33.948795306856525,138.2218772292397,123.862870120172,0.0001295089750783,0.0922218039631843,0,0,0
11548,400735.5807912252,2010-10-20 08:32:03,4502.27091008205,2,35,0.5501165986061096,4.092970371246338,34.633170368642034,33.948795306856525,138.2406416729423,123.862870120172,9.70840483205393e-05,0.0922218039631843,0,0,0
11549,400765.5959507431,2010-10-20 08:32:33,4532.286069605016,2,35,0.5501165986061096,4.095722675323486,34.63775661456765,33.948795306856525,138.25941914907327,123.862870120172,9.71794142969884e-05,0.0922218039631843,0,0,0
11550,400795.6110818804,2010-10-20 08:33:03,4562.301200777322,2,35,0.550297200679779,4.0987982749938965,34.64234291800249,33.948795306856525,138.27821007643036,123.862870120172,0.0001295089750783,0.0922218039631843,0,0,0
11551,400825.6265079778,2010-10-20 08:33:33,4592.316626879685,2,35,0.550297200679779,4.101712226867676,34.64692923137788,33.948795306856525,138.29701440376388,123.862870120172,9.70840483205393e-05,0.0922218039631843,0,0,0
11552,400855.64134877134,2010-10-20 08:34:03,4622.331467628165,2,35,0.5501165986061096,4.104626178741455,34.65151548249364,33.948795306856525,138.3158318869211,123.862870120172,9.70840483205393e-05,0.0922218039631843,0,0,0
11553,400885.65648930194,2010-10-20 08:34:33,4652.346608218945,2,35,0.5501165986061096,4.107540130615234,34.65610178543241,33.948795306856525,138.33466327712378,123.862870120172,9.70840483205393e-05,0.0922218039631843,0,0,0
11554,400915.6718695349,2010-10-20 08:35:03,4682.361988421913,2,35,0.5499359965324402,4.110454082489014,34.660688175314355,33.948795306856525,138.3535087296098,123.862870120172,6.47544875391759e-05,0.0922218039631843,0,0,0
11555,400945.6870353386,2010-10-20 08:35:33,4712.377154360869,2,35,0.5501165986061096,4.113530158996582,34.66527445112041,33.948795306856525,138.37236759493456,123.862870120172,9.71794142969884e-05,0.0922218039631843,0,0,0
11556,400975.70195318427,2010-10-20 08:36:03,4742.392072071162,2,35,0.5499359965324402,4.116605758666992,34.6698606597824,33.948795306856525,138.39124004566494,123.862870120172,9.71794142969884e-05,0.0922218039631843,0,0,0
11557,401005.71717588464,2010-10-20 08:36:33,4772.407294776597,2,35,0.5501165986061096,4.119681358337402,34.67444700423208,33.948795306856525,138.41012712510044,123.862870120172,9.70840483205393e-05,0.0922218039631843,0,0,0
11558,401035.7321942408,2010-10-20 08:37:03,4802.422313097643,2,35,0.5501165986061096,4.122757434844971,34.67903329769932,33.948795306856525,138.4290282347053,123.862870120172,9.71794142969884e-05,0.0922218039631843,0,0,0
11559,401065.7475727596,2010-10-20 08:37:33,4832.437691676563,2,35,0.5501165986061096,4.12599515914917,34.68361964921236,33.948795306856525,138.4479437799391,123.862870120172,0.0001295089750783,0.0922218039631843,0,0,0
11560,401095.7624820038,2010-10-20 08:38:03,4862.452600895694,2,35,0.5499359965324402,4.12874698638916,34.68820588173141,33.948795306856525,138.466873284762,123.862870120172,3.23295607813634e-05,0.0922218039631843,0,0,0
11561,401125.777734719,2010-10-20 08:38:33,4892.467853635985,2,35,0.550297200679779,4.132308483123779,34.692792192146875,33.948795306856525,138.48581760217627,123.862870120172,0.0001295089750783,0.0922218039631843,0,0,0
11562,401155.7927549949,2010-10-20 08:39:03,4922.4828738517535,2,35,0.5499359965324402,4.135384559631348,34.697378493166084,33.948795306856525,138.504776506683,123.862870120172,6.47544875391759e-05,0.0922218039631843,0,0,0
11563,401185.8079594298,2010-10-20 08:39:33,4952.498078326752,2,35,0.550297200679779,4.138783931732178,34.70196484096938,33.948795306856525,138.52375048754004,123.862870120172,6.47544875391759e-05,0.0922218039631843,0,0,0
11564,401215.8230261816,2010-10-20 08:40:04,4982.513145043416,2,35,0.5501165986061096,4.142021656036377,34.70655114094662,33.948795306856525,138.54273931118087,123.862870120172,9.70840483205393e-05,0.0922218039631843,0,0,0
11565,401245.8381670932,2010-10-20 08:40:34,5012.528285960008,2,35,0.5501165986061096,4.145421504974365,34.711137472879415,33.948795306856525,138.5617434088931,123.862870120172,9.71794142969884e-05,0.0922218039631843,0,0,0
11566,401275.8533319444,2010-10-20 08:41:04,5042.543450841327,2,35,0.5501165986061096,4.1486592292785645,34.71572375680611,33.948795306856525,138.5807627669938,123.862870120172,6.47544875391759e-05,0.0922218039631843,0,0,0
11567,401305.86845331226,2010-10-20 08:41:34,5072.558572179124,2,35,0.5501165986061096,4.151896953582764,34.72031007600474,33.948795306856525,138.59979762608464,123.862870120172,6.47544875391759e-05,0.0922218039631843,0,0,0
11568,401335.8835840434,2010-10-20 08:42:04,5102.573702905318,2,35,0.5501165986061096,4.155458450317383,34.72489640479776,33.948795306856525,138.6188480204234,123.862870120172,6.47544875391759e-05,0.0922218039631843,0,0,0
11569,401365.8987343084,2010-10-20 08:42:34,5132.588853175221,2,35,0.5501165986061096,4.158857822418213,34.72948263927937,33.948795306856525,138.63791363123423,123.862870120172,6.47544875391759e-05,0.0922218039631843,0,0,0
11570,401395.9139281418,2010-10-20 08:43:04,5162.604047058823,2,35,0.5499359965324402,4.162257671356201,34.73406896311461,33.948795306856525,138.65699536804635,123.862870120172,9.71794142969884e-05,0.0922218039631843,0,0,0
11571,401425.92901353,2010-10-20 08:43:34,5192.619132421959,2,35,0.5499359965324402,4.165657043457031,34.738655220388914,33.948795306856525,138.67609257078104,123.862870120172,6.47544875391759e-05,0.0922218039631843,0,0,0
11572,401455.9441561208,2010-10-20 08:44:04,5222.634275007712,2,35,0.5499359965324402,4.16921854019165,34.74324151986507,33.948795306856525,138.69520593728305,123.862870120172,6.47544875391759e-05,0.0922218039631843,0,0,0
11573,401485.9593167966,2010-10-20 08:44:34,5252.649435693576,2,35,0.550297200679779,4.1727800369262695,34.7478278256356,33.948795306856525,138.71433540560665,123.862870120172,9.70840483205393e-05,0.0922218039631843,0,0,0
11574,401515.9744385204,2010-10-20 08:45:04,5282.66455741232,2,35,0.550297200679779,4.176503658294678,34.75241420324219,33.948795306856525,138.73348142308913,123.862870120172,0.0001295089750783,0.0922218039631843,0,0,0
11575,401545.98956316645,2010-10-20 08:45:34,5312.67968205836,2,35,0.5501165986061096,4.179741382598877,34.75700058234956,33.948795306856525,138.7526438087144,123.862870120172,3.24249267578125e-05,0.0922218039631843,0,0,0
11576,401576.0047207847,2010-10-20 08:46:04,5342.694839676578,2,35,0.5501165986061096,4.183464527130127,34.76158692619416,33.948795306856525,138.77182239194755,123.862870120172,6.47544875391759e-05,0.0922218039631843,0,0,0
11577,401606.01986374136,2010-10-20 08:46:34,5372.709982658317,2,35,0.5501165986061096,4.187188148498535,34.76617323314679,33.948795306856525,138.79101725353698,123.862870120172,9.71794142969884e-05,0.0922218039631843,0,0,0
11578,401636.0351250329,2010-10-20 08:47:04,5402.725243899796,2,35,0.5501165986061096,4.190749645233154,34.77075895070986,33.948795306856525,138.81022616072525,123.862870120172,0.0001295089750783,0.0922218039631843,0,0,0
11579,401666.0501132339,2010-10-20 08:47:34,5432.740232115812,2,35,0.5501165986061096,4.194472789764404,34.77534429032817,33.948795306856525,138.82945014911903,123.862870120172,0.0001295089750783,0.0922218039631843,0,0,0
11580,401696.0653361398,2010-10-20 08:48:04,5462.755455142046,2,35,0.5499359965324402,4.198034286499023,34.779929675332475,33.948795306856525,138.848691120176,123.862870120172,9.71794142969884e-05,0.0922218039631843,0,0,0
11581,401711.67440029554,2010-10-20 08:48:19,5478.3645192125,2,35,0.5501165986061096,4.200138568878174,34.782314214366075,33.948795306856525,138.85870368731833,123.862870120172,0.0001295089750783,0.0922218039631843,0,0,0
11582,401741.68077169405,2010-10-20 08:48:49,30.015139748681328,3,35,0.0,4.110616207122803,34.782314214366075,33.948795306856525,138.85870368731833,123.862870120172,-0.0003561019839253,0.0922218039631843,0,0,0
11583,401771.6958937286,2010-10-20 08:49:19,60.03026176316358,3,35,0.0,4.099122047424316,34.782314214366075,33.948795306856525,138.85870368731833,123.862870120172,-0.0002266883820993,0.0922218039631843,0,0,0
11584,401801.7111671003,2010-10-20 08:49:50,90.04553511983714,3,35,0.0,4.092322826385498,34.782314214366075,33.948795306856525,138.85870368731833,123.862870120172,-0.0001295089750783,0.0922218039631843,0,0,0
11585,401831.6794412855,2010-10-20 08:50:19,120.01380934020176,3,35,0.0,4.087628364562988,34.782314214366075,33.948795306856525,138.85870368731833,123.862870120172,-0.0001295089750783,0.0922218039631843,0,0,0
11586,401831.6881348099,2010-10-20 08:50:20,2.837070854e-06,4,35,1.0117539167404177,4.199976921081543,34.78231421516341,33.948795306856525,138.8587036906671,123.862870120172,0.0,0.0922218039631843,0,0,0
11587,401832.2505901116,2010-10-20 08:50:20,0.562458123708319,4,35,0.9617251753807068,4.199653148651123,34.78246677708377,33.948795306856525,138.85934441984497,123.862870120172,-6.47544875391759e-05,0.0922218039631843,0,0,0
11588,401834.1413162229,2010-10-20 08:50:22,2.453184209876924,4,35,0.911515772342682,4.199814796447754,34.78295743383745,33.948795306856525,138.86140507260853,123.862870120172,-3.24249267578125e-05,0.0922218039631843,0,0,0
11589,401837.1102866056,2010-10-20 08:50:25,5.422154652749931,4,35,0.861306369304657,4.199653148651123,34.78368728266389,33.948795306856525,138.8644702712614,123.862870120172,-3.23295607813634e-05,0.0922218039631843,0,0,0
11590,401841.2348066687,2010-10-20 08:50:29,9.546674685755264,4,35,0.8109164237976074,4.199653148651123,34.78464409597612,33.948795306856525,138.8684886853953,123.862870120172,0.0,0.0922218039631843,0,0,0
11591,401846.6722953736,2010-10-20 08:50:35,14.984163420756348,4,35,0.760887622833252,4.199814796447754,34.785829792670526,33.948795306856525,138.87346836657613,123.862870120172,0.0,0.0922218039631843,0,0,0
11592,401853.7189818294,2010-10-20 08:50:42,22.03084981646565,4,35,0.7106782793998718,4.199814796447754,34.78726812205291,33.948795306856525,138.8795090579754,123.862870120172,0.0,0.0922218039631843,0,0,0
11593,401862.96895497874,2010-10-20 08:50:51,31.28082297071161,4,35,0.6606494784355164,4.199653148651123,34.789027018748044,33.948795306856525,138.88689609008867,123.862870120172,-3.23295607813634e-05,0.0922218039631843,0,0,0
11594,401875.546749964,2010-10-20 08:51:04,43.85861795089299,4,35,0.6106207370758057,4.199653148651123,34.79124333388212,33.948795306856525,138.89620419406486,123.862870120172,-3.23295607813634e-05,0.0922218039631843,0,0,0
11595,401894.421457638,2010-10-20 08:51:22,62.73332562501928,4,35,0.5605919361114502,4.199653148651123,34.794304896733145,33.948795306856525,138.90906220062448,123.862870120172,-3.23295607813634e-05,0.0922218039631843,0,0,0
11596,401925.6240771215,2010-10-20 08:51:54,93.9359451135908,4,35,0.5105631947517395,4.199814796447754,34.79892685580722,33.948795306856525,138.92847360208924,123.862870120172,3.23295607813634e-05,0.0922218039631843,0,0,0
11597,401983.7950069124,2010-10-20 08:52:52,152.1068749043771,4,35,0.4605344235897064,4.199814796447754,34.806730500527394,33.948795306856525,138.96124746528346,123.862870120172,0.0,0.0922218039631843,0,0,0
11598,402080.4340831103,2010-10-20 08:54:28,248.7459511174003,4,35,0.4101444184780121,4.199814796447754,34.81838429677855,33.948795306856525,139.0101912535271,123.862870120172,3.23295607813634e-05,0.0922218039631843,0,0,0
11599,402207.7292947605,2010-10-20 08:56:36,376.0411627776149,4,35,0.360115647315979,4.199814796447754,34.83199042692443,33.948795306856525,139.06733450394972,123.862870120172,-3.24249267578125e-05,0.0922218039631843,0,0,0
11600,402360.14829267154,2010-10-20 08:59:08,528.4601606584873,4,35,0.3100868761539459,4.199653148651123,34.846162193748086,33.948795306856525,139.1268532565881,123.862870120172,-6.47544875391759e-05,0.0922218039631843,0,0,0
11601,402540.9265987293,2010-10-20 09:02:09,709.23846674134,4,35,0.2600581049919128,4.199653148651123,34.86046699834219,33.948795306856525,139.1869306490977,123.862870120172,-3.23295607813634e-05,0.0922218039631843,0,0,0
11602,402764.89290411,2010-10-20 09:05:53,933.2047722273204,4,35,0.2100293487310409,4.199653148651123,34.87506119885756,33.948795306856525,139.24822341624466,123.862870120172,0.0,0.0922218039631843,0,0,0
11603,403054.5901332175,2010-10-20 09:10:43,1222.902001229603,4,35,0.1600005775690078,4.199653148651123,34.88985888576907,33.948795306856525,139.31037078346031,123.862870120172,-3.23295607813634e-05,0.0922218039631843,0,0,0
11604,403456.09932081925,2010-10-20 09:17:24,1624.4111888063326,4,35,0.1097911968827247,4.199814796447754,34.90475907047234,33.948795306856525,139.37294878329416,123.862870120172,0.0,0.0922218039631843,0,0,0
11605,404145.6351291736,2010-10-20 09:28:54,2313.946997165628,4,35,0.0597624257206916,4.199653148651123,34.92055654979588,33.948795306856525,139.43929507506311,123.862870120172,-3.23295607813634e-05,0.0922218039631843,0,0,0
11606,404369.86601015314,2010-10-20 09:32:38,2538.177878280484,4,35,0.0498289167881011,4.199491024017334,34.923998609340664,33.948795306856525,139.45375102306235,123.862870120172,-6.47544875391759e-05,0.0922218039631843,0,0,0
11607,404399.8839459941,2010-10-20 09:33:08,30.015156234769737,5,35,0.0,4.191558837890625,34.923998609340664,33.948795306856525,139.45375102306235,123.862870120172,-6.47544875391759e-05,0.0922218039631843,0,0,0
11608,404429.8834849207,2010-10-20 09:33:38,60.0146951363398,5,35,0.0,4.1901021003723145,34.923998609340664,33.948795306856525,139.45375102306235,123.862870120172,-6.47544875391759e-05,0.0922218039631843,0,0,0
11609,404430.074727964,2010-10-20 09:33:38,0.187453817591536,6,35,-1.9243103452026844e-05,4.1901021003723145,34.923998609340664,33.948795307858525,139.45375102306235,123.86287012437046,0.0,0.0972511246800422,0,0,0
11610,404434.9027484064,2010-10-20 09:33:43,5.015474290153922,6,35,0.0005225847125984,4.1901021003723145,34.92399961436282,33.94879530794295,139.45375523432742,123.86287012472422,-3.23295607813634e-05,0.0972511246800422,0,0,0
11611,404464.9217521214,2010-10-20 09:34:13,30.01511787416329,7,35,-1.0993878841400146,4.0042572021484375,34.92399961436282,33.9579625408966,139.45375523432742,123.89978674971763,-0.0009713172912597,0.0972511246800422,0,0,0
11612,404494.93689487263,2010-10-20 09:34:43,60.03026062532774,7,35,-1.099568486213684,3.9749557971954346,34.92399961436282,33.96712979658816,139.45375523432742,123.93635102193974,-0.0005827903514727,0.0972511246800422,0,0,0
11613,404524.9520331626,2010-10-20 09:35:13,90.04539891537371,7,35,-1.0993878841400146,3.95455813407898,34.92399961436282,33.97629695613162,139.45375523432742,123.97269195160698,-0.0004856586456298,0.0972511246800422,0,0,0
11614,404554.9673545991,2010-10-20 09:35:43,120.06072037693946,7,35,-1.099568486213684,3.938855171203613,34.92399961436282,33.98546411840737,139.45375523432742,124.00886945586984,-0.0003885269106831,0.0972511246800422,0,0,0
11615,404584.9824551802,2010-10-20 09:36:13,150.07582095299054,7,35,-1.099568486213684,3.925904273986816,34.92399961436282,33.99463122065465,139.45375523432742,124.04491715496792,-0.0003561496851034,0.0972511246800422,0,0,0
11616,404614.9975803976,2010-10-20 09:36:43,180.0909461504056,7,35,-1.099568486213684,3.914572238922119,34.92399961436282,34.003798420493865,139.45375523432742,124.0808550418744,-0.0003561496851034,0.0972511246800422,0,0,0
11617,404645.01271898346,2010-10-20 09:37:13,210.10608474120116,7,35,-1.0993878841400146,3.904373645782471,34.92399961436282,34.01296556531728,139.45375523432742,124.11669371916288,-0.0001942634553415,0.0972511246800422,0,0,0
11618,404675.0279533279,2010-10-20 09:37:43,240.1213189803819,7,35,-1.099568486213684,3.894660472869873,34.92399961436282,34.02213272630013,139.45375523432742,124.1524412193782,-0.0002913951757363,0.0972511246800422,0,0,0
11619,404705.04282579554,2010-10-20 09:38:13,270.1361914278663,7,35,-1.099568486213684,3.885756731033325,34.92399961436282,34.03129972882804,139.45375523432742,124.18810256651706,-0.0002266406954731,0.0972511246800422,0,0,0
11620,404735.0579937093,2010-10-20 09:38:43,300.15135934174407,7,35,-1.0993878841400146,3.876691102981568,34.92399961436282,34.04046689003762,139.45375523432742,124.22368196744756,-0.0002590179501567,0.0972511246800422,0,0,0
11621,404765.0731234431,2010-10-20 09:39:13,330.16648912057747,7,35,-1.0997490882873535,3.8679492473602295,34.92399961436282,34.04963404287778,139.45375523432742,124.25918081673024,-0.0002266406954731,0.0972511246800422,0,0,0
11622,404795.0882738783,2010-10-20 09:39:43,360.1816395157932,7,35,-1.099568486213684,3.8596930503845215,34.92399961436282,34.058801252269234,139.45375523432742,124.29460160449268,-0.0001942634553415,0.0972511246800422,0,0,0
11623,404825.103636713,2010-10-20 09:40:13,390.1970024607483,7,35,-1.099568486213684,3.8514368534088135,34.92399961436282,34.067968444737446,139.45375523432742,124.32994627177948,-0.0002590179501567,0.0972511246800422,0,0,0
11624,404855.1185272406,2010-10-20 09:40:43,420.2118928780191,7,35,-1.099568486213684,3.8431806564331055,34.92399961436282,34.07713551572729,139.45375523432742,124.36521545295616,-0.0002266406954731,0.0972511246800422,0,0,0
11625,404885.13367796666,2010-10-20 09:41:13,450.2270436140843,7,35,-1.0993878841400146,3.8354101181030273,34.92399961436282,34.0863026620497,139.45375523432742,124.40041038916992,-0.0001942634553415,0.0972511246800422,0,0,0
11626,404915.1488396751,2010-10-20 09:41:43,480.24220530244605,7,35,-1.0993878841400146,3.827639818191528,34.92399961436282,34.095469884676326,139.45375523432742,124.43553394292238,-0.0002266406954731,0.0972511246800422,0,0,0
11627,404945.1639860653,2010-10-20 09:42:13,510.25735171774267,7,35,-1.0993878841400146,3.81986927986145,34.92399961436282,34.10463701593938,139.45375523432742,124.47058680745346,-0.0002266406954731,0.0972511246800422,0,0,0
11628,404975.179223733,2010-10-20 09:42:44,540.272589360406,7,35,-1.0993878841400146,3.812260627746582,34.92399961436282,34.113804269384275,139.45375523432742,124.50557060499628,-0.0002266406954731,0.0972511246800422,0,0,0
11629,405005.194261252,2010-10-20 09:43:14,570.2876268792992,7,35,-1.099568486213684,3.804975748062134,34.92399961436282,34.122971382363026,139.45375523432742,124.54048487267087,-0.0001618862152099,0.0972511246800422,0,0,0
11630,405035.209401998,2010-10-20 09:43:44,600.3027676505291,7,35,-1.099568486213684,3.7976908683776855,34.92399961436282,34.132138580973994,139.45375523432742,124.57533239405984,-0.0002266406954731,0.0972511246800422,0,0,0
11631,405065.2245331954,2010-10-20 09:44:14,630.3178988178229,7,35,-1.0997490882873535,3.7905678749084473,34.92399961436282,34.14130577897238,139.45375523432742,124.61011383584234,-0.0001942634553415,0.0972511246800422,0,0,0
11632,405095.2396735907,2010-10-20 09:44:44,660.3330392281533,7,35,-1.099568486213684,3.783930540084839,34.92399961436282,34.15047304474428,139.45375523432742,124.64483218493612,-0.0001942634553415,0.0972511246800422,0,0,0
11633,405125.2548233744,2010-10-20 09:45:14,690.3481889917949,7,35,-1.099568486213684,3.777131319046021,34.92399961436282,34.15964026610475,139.45375523432742,124.67948825961342,-0.0001618862152099,0.0972511246800422,0,0,0
11634,405155.270000396,2010-10-20 09:45:44,720.3633660534717,7,35,-1.099568486213684,3.770332098007202,34.92399961436282,34.168807444977006,139.45375523432742,124.71408279834108,-0.0001942634553415,0.0972511246800422,0,0,0
11635,405185.2851116136,2010-10-20 09:46:14,750.3784772409698,7,35,-1.0993878841400146,3.763856649398804,34.92399961436282,34.177974673232555,139.45375523432742,124.7486169946136,-0.0001618862152099,0.0972511246800422,0,0,0
11636,405215.3002718834,2010-10-20 09:46:44,780.3936375158087,7,35,-1.0993878841400146,3.757381200790405,34.92399961436282,34.18714193780327,139.45375523432742,124.78309172938776,-0.0001618862152099,0.0972511246800422,0,0,0
11637,405245.315695274,2010-10-20 09:47:14,810.4090610467628,7,35,-1.099568486213684,3.751067876815796,34.92399961436282,34.19630927472187,139.45375523432742,124.8175077662192,-0.0001618862152099,0.0972511246800422,0,0,0
11638,405275.3305413757,2010-10-20 09:47:44,840.4239070032236,7,35,-1.099568486213684,3.744754314422608,34.92399961436282,34.20547640240553,139.45375523432742,124.85186489138086,-0.0001618862152099,0.0972511246800422,0,0,0
11639,405305.3456753851,2010-10-20 09:48:14,870.4390410326506,7,35,-1.099568486213684,3.738764524459839,34.92399961436282,34.21464362389061,139.45375523432742,124.88616632530434,-0.0001295089750783,0.0972511246800422,0,0,0
11640,405335.3608209785,2010-10-20 09:48:44,900.4541867411857,7,35,-1.099929690361023,3.732612848281861,34.92399961436282,34.22381083538161,139.45375523432742,124.92041258730517,-0.0001618862152099,0.0972511246800422,0,0,0
11641,405365.3759570329,2010-10-20 09:49:14,930.46932269541,7,35,-1.099568486213684,3.726946830749512,34.92399961436282,34.23297794149024,139.45375523432742,124.95460415481992,-0.0001295089750783,0.0972511246800422,0,0,0
11642,405395.39103481214,2010-10-20 09:49:44,960.484400469632,7,35,-1.0992072820663452,3.721280813217163,34.92399961436282,34.242145050122055,139.45375523432742,124.98874307879794,-9.713172767078504e-05,0.0972511246800422,0,0,0
11643,405425.4063665644,2010-10-20 09:50:14,990.4997321967828,7,35,-1.0993878841400146,3.7156147956848153,34.92399961436282,34.25131228609418,139.45375523432742,125.02282969127248,-9.713172767078504e-05,0.0972511246800422,0,0,0
11644,405455.42130379326,2010-10-20 09:50:44,1020.51466942071,7,35,-1.0993878841400146,3.709948778152466,34.92399961436282,34.26047948205894,139.45375523432742,125.05686459716824,-0.0001618862152099,0.0972511246800422,0,0,0
11645,405485.4366724877,2010-10-20 09:51:14,1050.5300381250192,7,35,-1.099568486213684,3.704444646835327,34.92399961436282,34.26964676863388,139.45375523432742,125.09084975271682,-0.0001942634553415,0.0972511246800422,0,0,0
11646,405515.4516994853,2010-10-20 09:51:44,1080.5450651527651,7,35,-1.0997490882873535,3.6991024017333984,34.92399961436282,34.27881401607999,139.45375523432742,125.12478452791866,-0.0001295089750783,0.0972511246800422,0,0,0
11647,405545.4668501612,2010-10-20 09:52:14,1110.5602158988556,7,35,-1.099568486213684,3.69359827041626,34.92399961436282,34.28798125547676,139.45375523432742,125.15866948700096,-0.0001295089750783,0.0972511246800422,0,0,0
11648,405575.4819738047,2010-10-20 09:52:44,1140.5753394371357,7,35,-1.099568486213684,3.688417911529541,34.92399961436282,34.29714854453544,139.45375523432742,125.19250654447188,-0.0001295089750783,0.0972511246800422,0,0,0
11649,405605.4971156336,2010-10-20 09:53:14,1170.5904813712636,7,35,-1.0992072820663452,3.683399438858032,34.92399961436282,34.3063157589006,139.45375523432742,125.22629650991276,-0.0001618862152099,0.0972511246800422,0,0,0
11650,405635.5126142918,2010-10-20 09:53:44,1200.605980029458,7,35,-1.099568486213684,3.678380966186523,34.92399961436282,34.315483106623724,139.45375523432742,125.26004017874176,-0.0001295089750783,0.0972511246800422,0,0,0
11651,405665.5274882029,2010-10-20 09:54:14,1230.6208538303156,7,35,-1.0997490882873535,3.6732006072998047,34.92399961436282,34.32465024646763,139.45375523432742,125.29373673227312,-0.0001618862152099,0.0972511246800422,0,0,0
11652,405695.54254912015,2010-10-20 09:54:44,1260.6359147876244,7,35,-1.099568486213684,3.668344259262085,34.92399961436282,34.333817519482736,139.45375523432742,125.32738830012988,-0.0001295089750783,0.0972511246800422,0,0,0
11653,405725.5576949189,2010-10-20 09:55:14,1290.6510605713472,7,35,-1.099568486213684,3.663649559020996,34.92399961436282,34.34298482388955,139.45375523432742,125.36099514764788,-9.713172767078504e-05,0.0972511246800422,0,0,0
11654,405755.5728499557,2010-10-20 09:55:44,1320.6662155830686,7,35,-1.0993878841400146,3.658792972564697,34.92399961436282,34.352152088979885,139.45375523432742,125.3945580880468,-9.713172767078504e-05,0.0972511246800422,0,0,0
11655,405785.58811874094,2010-10-20 09:56:14,1350.6814844736111,7,35,-1.099568486213684,3.6539363861083984,34.92399961436282,34.361319406799964,139.45375523432742,125.42807724305425,-0.0001618862152099,0.0972511246800422,0,0,0
11656,405815.6031141199,2010-10-20 09:56:44,1380.6964797472162,7,35,-1.099568486213684,3.6492416858673096,34.92399961436282,34.3704867002174,139.45375523432742,125.46155297660889,-0.0001295089750783,0.0972511246800422,0,0,0
11657,405845.6182834723,2010-10-20 09:57:14,1410.711649099679,7,35,-1.0993878841400146,3.6448707580566406,34.92399961436282,34.37965393985077,139.45375523432742,125.49498562697288,-0.0001295089750783,0.0972511246800422,0,0,0
11658,405875.63342566206,2010-10-20 09:57:44,1440.7267913295443,7,35,-1.099568486213684,3.6403379440307617,34.92399961436282,34.388821102273816,139.45375523432742,125.52837654340551,-9.713172767078504e-05,0.0972511246800422,0,0,0
11659,405905.6485819669,2010-10-20 09:58:14,1470.7419478149388,7,35,-1.099568486213684,3.635805130004883,34.92399961436282,34.39798835318922,139.45375523432742,125.56172694646789,-9.713172767078504e-05,0.0972511246800422,0,0,0
11660,405935.663712197,2010-10-20 09:58:44,1500.7570778243469,7,35,-1.0997490882873535,3.631596088409424,34.92399961436282,34.407155605853944,139.45375523432742,125.59503782345294,-9.713172767078504e-05,0.0972511246800422,0,0,0
11661,405965.6788379959,2010-10-20 09:59:14,1530.772203623261,7,35,-1.099568486213684,3.627225160598755,34.92399961436282,34.41632280622021,139.45375523432742,125.62830929664354,-0.0001295089750783,0.0972511246800422,0,0,0
11662,405995.6939784062,2010-10-20 09:59:44,1560.7873440335914,7,35,-1.0993878841400146,3.623016119003296,34.92399961436282,34.42549003778898,139.45375523432742,125.66154210445976,-0.0001295089750783,0.0972511246800422,0,0,0
11663,406025.70910954336,2010-10-20 10:00:14,1590.8024751708103,7,35,-1.099568486213684,3.618968963623047,34.92399961436282,34.434657317492416,139.45375523432742,125.6947370826298,-0.0001295089750783,0.0972511246800422,0,0,0
11664,406055.7245382923,2010-10-20 10:00:44,1620.8179039297945,7,35,-1.0993878841400146,3.614921808242798,34.92399961436282,34.44382472715762,139.45375523432742,125.72789552600494,-0.0001295089750783,0.0972511246800422,0,0,0
11665,406085.7394050356,2010-10-20 10:01:14,1650.8327706630373,7,35,-1.099568486213684,3.610874652862549,34.92399961436282,34.45299192852709,139.45375523432742,125.76101646091844,-9.713172767078504e-05,0.0972511246800422,0,0,0
11666,406115.75455460383,2010-10-20 10:01:44,1680.847920236204,7,35,-1.0993878841400146,3.6069893836975098,34.92399961436282,34.46215922876151,139.45375523432742,125.79410134831622,-9.713172767078504e-05,0.0972511246800422,0,0,0
11667,406145.7697044376,2010-10-20 10:02:14,1710.863070105108,7,35,-1.099568486213684,3.6032660007476807,34.92399961436282,34.47132648919025,139.45375523432742,125.8271504218564,-6.47544875391759e-05,0.0972511246800422,0,0,0
11668,406175.7848287678,2010-10-20 10:02:44,1740.878194395262,7,35,-1.099568486213684,3.599218845367432,34.92399961436282,34.48049368975233,139.45375523432742,125.86016381285818,-9.713172767078504e-05,0.0972511246800422,0,0,0
11669,406205.799977529,2010-10-20 10:03:14,1770.8933431814676,7,35,-1.099568486213684,3.5956573486328125,34.92399961436282,34.48966095485744,139.45375523432742,125.89314278173144,-6.47544875391759e-05,0.0972511246800422,0,0,0
11670,406235.8151261649,2010-10-20 10:03:44,1800.908491792236,7,35,-1.0993878841400146,3.5919342041015625,34.92399961436282,34.49882824760155,139.45375523432742,125.92608796178656,-9.70840483205393e-05,0.0972511246800422,0,0,0
11671,406265.8302981037,2010-10-20 10:04:14,1830.92366378127,7,35,-1.099568486213684,3.588372707366944,34.92399961436282,34.50799564159116,139.45375523432742,125.9590007263009,-9.713172767078504e-05,0.0972511246800422,0,0,0
11672,406295.8454042436,2010-10-20 10:04:44,1860.9387698710632,7,35,-1.0993878841400146,3.584973096847534,34.92399961436282,34.517162925507755,139.45375523432742,125.99188078433302,-6.47544875391759e-05,0.0972511246800422,0,0,0
11673,406325.8605452755,2010-10-20 10:05:14,1890.9539108979304,7,35,-1.099568486213684,3.581573486328125,34.92399961436282,34.526330210556644,139.45375523432742,126.02472952433108,-9.713172767078504e-05,0.0972511246800422,0,0,0
11674,406355.8758242512,2010-10-20 10:05:44,1920.9691899187203,7,35,-1.0997490882873535,3.578173875808716,34.92399961436282,34.535497575539324,139.45375523432742,126.0575474710221,-9.713172767078504e-05,0.0972511246800422,0,0,0
11675,406385.890827244,2010-10-20 10:06:14,1950.984192866452,7,35,-1.0993878841400146,3.574774265289306,34.92399961436282,34.544664902391986,139.45375523432742,126.09033436603131,-9.713172767078504e-05,0.0972511246800422,0,0,0
11676,406415.90612793394,2010-10-20 10:06:44,1980.9994935662728,7,35,-1.099568486213684,3.5715365409851074,34.92399961436282,34.55383230649759,139.45375523432742,126.12309026258428,-3.237724376958795e-05,0.0972511246800422,0,0,0
11677,406445.9211272225,2010-10-20 10:07:14,2011.01449284486,7,35,-1.099568486213684,3.5679750442504883,34.92399961436282,34.56299959230786,139.45375523432742,126.15581507199352,-9.713172767078504e-05,0.0972511246800422,0,0,0
11678,406475.9362922191,2010-10-20 10:07:44,2041.029657846479,7,35,-1.0993878841400146,3.564899206161499,34.92399961436282,34.57216696330175,139.45375523432742,126.18850977860016,-6.47544875391759e-05,0.0972511246800422,0,0,0
11679,406505.9515320121,2010-10-20 10:08:14,2071.044897664564,7,35,-1.099568486213684,3.5616614818573,34.92399961436282,34.58133425202516,139.45375523432742,126.22117475928268,-9.713172767078504e-05,0.0972511246800422,0,0,0
11680,406535.9666734199,2010-10-20 10:08:44,2101.0600390573427,7,35,-1.0992072820663452,3.5584237575531006,34.92399961436282,34.59050152719009,139.45375523432742,126.25381073063248,-9.713172767078504e-05,0.0972511246800422,0,0,0
11681,406565.9816866482,2010-10-20 10:09:14,2131.0750522706594,7,35,-1.0992072820663452,3.5553479194641118,34.92399961436282,34.599668731100344,139.45375523432742,126.28641691169484,-3.237724376958795e-05,0.0972511246800422,0,0,0
11682,406595.9970690867,2010-10-20 10:09:44,2161.090434864586,7,35,-1.099568486213684,3.551948308944702,34.92399961436282,34.60883611492323,139.45375523432742,126.31899403122972,-0.0001295089750783,0.0972511246800422,0,0,0
11683,406626.0119830928,2010-10-20 10:10:14,2191.10534883556,7,35,-1.099568486213684,3.548872470855713,34.92399961436282,34.61800341495443,139.45375523432742,126.35154104670276,-3.237724376958795e-05,0.0972511246800422,0,0,0
11684,406656.02715999406,2010-10-20 10:10:44,2221.120525651624,7,35,-1.099568486213684,3.545472860336304,34.92399961436282,34.6271707121253,139.45375523432742,126.38405858690442,-9.713172767078504e-05,0.0972511246800422,0,0,0
11685,406686.0422950361,2010-10-20 10:11:14,2251.1356606935747,7,35,-1.0993878841400146,3.5423970222473145,34.92399961436282,34.636338037938444,139.45375523432742,126.4165463890115,-3.237724376958795e-05,0.0972511246800422,0,0,0
11686,406716.057421642,2010-10-20 10:11:44,2281.1507872995003,7,35,-1.099568486213684,3.5391592979431152,34.92399961436282,34.64550528799959,139.45375523432742,126.44900492985116,-6.47544875391759e-05,0.0972511246800422,0,0,0
11687,406746.0726843622,2010-10-20 10:12:14,2311.166050094852,7,35,-1.0997490882873535,3.535921573638916,34.92399961436282,34.654672734172635,139.45375523432742,126.48143483772326,-6.47544875391759e-05,0.0972511246800422,0,0,0
11688,406776.08772375074,2010-10-20 10:12:44,2341.18108937313,7,35,-1.099568486213684,3.532683849334717,34.92399961436282,34.663840053131025,139.45375523432742,126.51383468459451,-9.713172767078504e-05,0.0972511246800422,0,0,0
11689,406806.10283546447,2010-10-20 10:13:14,2371.19620108694,7,35,-1.0993878841400146,3.5294461250305176,34.92399961436282,34.67300736998781,139.45375523432742,126.54620414681176,-3.237724376958795e-05,0.0972511246800422,0,0,0
11690,406836.1179592184,2010-10-20 10:13:44,2401.211324885869,7,35,-1.099568486213684,3.5257227420806885,34.92399961436282,34.68217472966928,139.45375523432742,126.57854228391272,-9.713172767078504e-05,0.0972511246800422,0,0,0
11691,406866.1332132719,2010-10-20 10:14:14,2431.2265789394337,7,35,-1.099568486213684,3.5221612453460693,34.92399961436282,34.69134199463126,139.45375523432742,126.61084782492708,-0.0001295089750783,0.0972511246800422,0,0,0
11692,406896.1483878624,2010-10-20 10:14:45,2461.241753489852,7,35,-1.099568486213684,3.51859974861145,34.92399961436282,34.700509272326386,139.45375523432742,126.64312056221776,-0.0001295089750783,0.0972511246800422,0,0,0
11693,406926.1634059228,2010-10-20 10:15:15,2491.2567715753107,7,35,-1.099568486213684,3.514552593231201,34.92399961436282,34.70967645760916,139.45375523432742,126.6753586611581,-0.0001295089750783,0.0972511246800422,0,0,0
11694,406956.1785333658,2010-10-20 10:15:45,2521.2718990233348,7,35,-1.0993878841400146,3.510829448699951,34.92399961436282,34.718843693817064,139.45375523432742,126.70756132030225,-9.713172767078504e-05,0.0972511246800422,0,0,0
11695,406986.1936661973,2010-10-20 10:16:15,2551.2870318447517,7,35,-1.099568486213684,3.506944179534912,34.92399961436282,34.72801097848725,139.45375523432742,126.73972789476588,-9.713172767078504e-05,0.0972511246800422,0,0,0
11696,407016.2088104873,2010-10-20 10:16:45,2581.302176114701,7,35,-1.0993878841400146,3.502897024154663,34.92399961436282,34.73717828643621,139.45375523432742,126.77185756984512,-9.713172767078504e-05,0.0972511246800422,0,0,0
11697,407046.2240792124,2010-10-20 10:17:15,2611.317444834819,7,35,-1.0993878841400146,3.498526096343994,34.92399961436282,34.746345617076834,139.45375523432742,126.80394866169551,-0.0001295089750783,0.0972511246800422,0,0,0
11698,407076.2391044808,2010-10-20 10:17:45,2641.332470108193,7,35,-1.099568486213684,3.494155168533325,34.92399961436282,34.755512859827874,139.45375523432742,126.83600066997172,-0.0001295089750783,0.0972511246800422,0,0,0
11699,407106.2542534324,2010-10-20 10:18:15,2671.3476190798606,7,35,-1.099568486213684,3.4896223545074463,34.92399961436282,34.76468012211032,139.45375523432742,126.86801149544716,-9.713172767078504e-05,0.0972511246800422,0,0,0
11700,407136.2693869706,2010-10-20 10:18:45,2701.362752582976,7,35,-1.099568486213684,3.4844419956207275,34.92399961436282,34.77384741702652,139.45375523432742,126.89997789308056,-0.0001618862152099,0.0972511246800422,0,0,0
11701,407166.2845312356,2010-10-20 10:19:15,2731.3778968830006,7,35,-1.0993878841400146,3.478937864303589,34.92399961436282,34.78301461556554,139.45375523432742,126.93189624406668,-0.0001618862152099,0.0972511246800422,0,0,0
11702,407196.2996800468,2010-10-20 10:19:45,2761.393045704294,7,35,-1.099568486213684,3.4731099605560303,34.92399961436282,34.79218178867179,139.45375523432742,126.9637629368196,-0.0001618862152099,0.0972511246800422,0,0,0
11703,407226.314815976,2010-10-20 10:20:15,2791.408181623431,7,35,-1.099568486213684,3.466472625732422,34.92399961436282,34.80134890804077,139.45375523432742,126.99557152402376,-0.0001618862152099,0.0972511246800422,0,0,0
11704,407256.3299511132,2010-10-20 10:20:45,2821.4233167405687,7,35,-1.0997490882873535,3.458540201187134,34.92399961436282,34.81051608772314,139.45375523432742,127.02731505618296,-0.0002590179501567,0.0972511246800422,0,0,0
11705,407286.3452245851,2010-10-20 10:21:15,2851.438590222555,7,35,-1.099568486213684,3.450284004211426,34.92399961436282,34.819683353656394,139.45375523432742,127.05898527631146,-0.0002590179501567,0.0972511246800422,0,0,0
11706,407316.36025675567,2010-10-20 10:21:45,2881.4536224031435,7,35,-1.099568486213684,3.440408945083618,34.92399961436282,34.82885047379833,139.45375523432742,127.0905702690662,-0.0002590179501567,0.0972511246800422,0,0,0
11707,407346.375508699,2010-10-20 10:22:15,2911.4688743263982,7,35,-1.099568486213684,3.42859148979187,34.92399961436282,34.83801773282654,139.45375523432742,127.12205711794527,-0.0003561496851034,0.0972511246800422,0,0,0
11708,407376.39054140094,2010-10-20 10:22:45,2941.483907038311,7,35,-1.0997490882873535,3.4148311614990234,34.92399961436282,34.847184939322204,139.45375523432742,127.15342740181065,-0.0003885269106831,0.0972511246800422,0,0,0
11709,407406.4056554355,2010-10-20 10:23:15,2971.499021067892,7,35,-1.099568486213684,3.3983187675476074,34.92399961436282,34.85635212060899,139.45375523432742,127.18465972994132,-0.0005180359003134,0.0972511246800422,0,0,0
11710,407436.42080521415,2010-10-20 10:23:45,3001.514170851584,7,35,-1.0997490882873535,3.3775973320007324,34.92399961436282,34.865519301737706,139.45375523432742,127.21572300295738,-0.0006799221155233,0.0972511246800422,0,0,0
11711,407466.4359379804,2010-10-20 10:24:15,3031.529303602825,7,35,-1.099568486213684,3.351047992706299,34.92399961436282,34.87468651804913,139.45375523432742,127.24657136061684,-0.0008418083307333,0.0972511246800422,0,0,0
11712,407496.451082857,2010-10-20 10:24:45,3061.5444485143744,7,35,-1.0993878841400146,3.3164045810699463,34.92399961436282,34.88385377290866,139.45375523432742,127.27713954344888,-0.0010036944877356,0.0972511246800422,0,0,0
11713,407526.4662498335,2010-10-20 10:25:15,3091.559615480891,7,35,-1.0993878841400146,3.268486499786377,34.92399961436282,34.89302077634012,139.45375523432742,127.30733157382612,-0.0014569282066076,0.0972511246800422,0,0,0
11714,407556.4840636618,2010-10-20 10:25:45,3121.577429439526,7,35,-1.0993878841400146,3.201141834259033,34.92399961436282,34.90218847323116,139.45375523432742,127.3370061584915,-0.0021045207977294,0.0972511246800422,0,0,0
11715,407586.4965537116,2010-10-20 10:26:15,3151.589919354006,7,35,-1.099568486213684,3.1009347438812256,34.92399961436282,34.91135454969276,139.45375523432742,127.36592173287777,-0.0031729221809655,0.0972511246800422,0,0,0
11716,407616.5117884872,2010-10-20 10:26:45,3181.605154174635,7,35,-1.0993878841400146,2.926098108291626,34.92399961436282,34.920521510641386,139.45375523432742,127.39364223488631,-0.0063135148957371,0.0972511246800422,0,0,0
11717,407635.4177464917,2010-10-20 10:27:04,3200.5111121541377,7,35,-1.099568486213684,2.7258453369140625,34.92399961436282,34.92629561151228,139.45375523432742,127.4100020661684,-0.0099074365571141,0.0972511246800422,0,0,0
11718,407637.4331934206,2010-10-20 10:27:06,3202.526559042922,7,35,-1.099568486213684,2.699620008468628,34.92399961436282,34.92691116645091,139.45375523432742,127.41167204229347,-0.0102635379880666,0.0972511246800422,0,0,0
11719,407697.4407330966,2010-10-20 10:28:06,60.014663973672846,8,35,0.0,3.3845584392547607,34.92399961436282,34.92691116645091,139.45375523432742,127.41167204229347,0.0012950897216796,0.0972511246800422,0,0,0
11720,407697.63761900685,2010-10-20 10:28:06,0.187439777599556,9,35,-1.9243103452026844e-05,3.3847203254699707,34.92399961436282,34.92691116745283,139.45375523432742,127.41167204568472,0.0,0.0931148082017898,0,0,0
11721,407702.46584479616,2010-10-20 10:28:11,5.015665677149203,9,35,0.0008838032954372,3.3929765224456787,34.92400057442521,34.92691116753744,139.45375848860218,127.4116720459711,0.0011655807029455,0.0931148082017898,0,0,0
