Data_Point,Test_Time(s),Date_Time,Step_Time(s),Step_Index,Cycle_Index,Current(A),Voltage(V),Charge_Capacity(Ah),Discharge_Capacity(Ah),Charge_Energy(Wh),Discharge_Energy(Wh),dV/dt(V/s),Internal_Resistance(Ohm),Is_FC_Data,AC_Impedance(Ohm),ACI_Phase_Angle(Deg)
332,11796.096744706892,2010-10-15 20:29:03,30.015135427912643,1,2,0.0,3.400747060775757,0.989652103185555,1.002042855709979,3.969337818780053,3.645333499235476,0.0008094310760498,0.0914954170584678,0,0,0
333,11826.111897543193,2010-10-15 20:29:33,60.03028828927481,1,2,0.0,3.425353765487671,0.989652103185555,1.002042855709979,3.969337818780053,3.645333499235476,0.0005827903514727,0.0914954170584678,0,0,0
334,11856.127068484611,2010-10-15 20:30:03,90.0454592056356,1,2,0.0,3.4441323280334477,0.989652103185555,1.002042855709979,3.969337818780053,3.645333499235476,0.0004856586456298,0.0914954170584678,0,0,0
335,11886.095348283883,2010-10-15 20:30:33,120.01373903999198,1,2,0.0,3.4591877460479736,0.989652103185555,1.002042855709979,3.969337818780053,3.645333499235476,0.0003885269106831,0.0914954170584678,0,0,0
336,11916.110621932768,2010-10-15 20:31:03,30.01515319719917,2,2,0.5501165986061096,3.610874652862549,0.994238595519605,1.002042855709979,3.985742246374396,3.645333499235476,0.0015541076427325,0.0914954170584678,0,0,0
337,11946.125804578362,2010-10-15 20:31:33,60.03033582274284,2,2,0.5501165986061096,3.656202793121338,0.998825083004415,1.002042855709979,4.002413929719507,3.645333499235476,0.0010360718006268,0.0914954170584678,0,0,0
338,11976.14094773554,2010-10-15 20:32:03,90.04547900498166,2,2,0.5501165986061096,3.688579797744751,1.003411566895939,1.002042855709979,4.019260746239644,3.645333499235476,0.0007770538213662,0.0914954170584678,0,0,0
339,12006.156115604304,2010-10-15 20:32:33,120.06064687875936,2,2,0.550297200679779,3.713672161102295,1.007998074787886,1.002042855709979,4.036238203351059,3.645333499235476,0.0005827903514727,0.0914954170584678,0,0,0
340,12036.17125828028,2010-10-15 20:33:03,150.07578954972394,2,2,0.5501165986061096,3.73423171043396,1.012584584363647,1.002042855709979,4.0533193032276,3.645333499235476,0.0005504131549969,0.0914954170584678,0,0,0
341,12066.186468940696,2010-10-15 20:33:33,180.09100023018908,2,2,0.5499359965324402,3.750258445739746,1.017171051154699,1.002042855709979,4.070484201025654,3.645333499235476,0.0003561496851034,0.0914954170584678,0,0,0
342,12096.201579486597,2010-10-15 20:34:03,210.1061107259632,2,2,0.5501165986061096,3.762399673461914,1.021757425822637,1.002042855709979,4.087714247539828,3.645333499235476,0.0002266406954731,0.0914954170584678,0,0,0
343,12126.216736147426,2010-10-15 20:34:33,240.1212673867948,2,2,0.550297200679779,3.769846439361572,1.026343865465408,1.002042855709979,4.104988440409187,3.645333499235476,0.0001295089750783,0.0914954170584678,0,0,0
344,12156.23189625184,2010-10-15 20:35:03,270.1364275162713,2,2,0.5499359965324402,3.774379253387451,1.030930318966692,1.002042855709979,4.122289522157324,3.645333499235476,9.713172767078504e-05,0.0914954170584678,0,0,0
345,12186.247072596732,2010-10-15 20:35:33,300.15160383108673,2,2,0.550297200679779,3.7784264087677,1.03551679695004,1.002042855709979,4.139609996020046,3.645333499235476,9.713172767078504e-05,0.0914954170584678,0,0,0
346,12216.2622116988,2010-10-15 20:36:03,330.16674296323146,2,2,0.5501165986061096,3.7819879055023193,1.040103275867064,1.002042855709979,4.156947399406844,3.645333499235476,0.0001295089750783,0.0914954170584678,0,0,0
347,12246.277502168125,2010-10-15 20:36:33,360.18203345260497,2,2,0.5501165986061096,3.785387516021729,1.044689749610242,1.002042855709979,4.174301121511315,3.645333499235476,9.713172767078504e-05,0.0914954170584678,0,0,0
348,12276.292687084377,2010-10-15 20:37:03,390.19721834379527,2,2,0.5501165986061096,3.7887871265411377,1.049276256675099,1.002042855709979,4.19167105271979,3.645333499235476,9.713172767078504e-05,0.0914954170584678,0,0,0
349,12306.307722984237,2010-10-15 20:37:33,420.21225424866594,2,2,0.5501165986061096,3.792348623275757,1.053862768680428,1.002042855709979,4.209056781399731,3.645333499235476,9.713172767078504e-05,0.0914954170584678,0,0,0
350,12336.322835424857,2010-10-15 20:38:03,450.2273666642248,2,2,0.5501165986061096,3.795748233795166,1.058449185073058,1.002042855709979,4.226457638288704,3.645333499235476,0.0001295089750783,0.0914954170584678,0,0,0
351,12366.337998185893,2010-10-15 20:38:33,480.2425294252598,2,2,0.5499359965324402,3.7988240718841553,1.063035665306974,1.002042855709979,4.243873962932217,3.645333499235476,6.47544875391759e-05,0.0914954170584678,0,0,0
352,12396.35315709232,2010-10-15 20:39:03,510.2576883617632,2,2,0.5501165986061096,3.802223682403565,1.067622150436473,1.002042855709979,4.2613053134156,3.645333499235476,9.713172767078504e-05,0.0914954170584678,0,0,0
353,12426.368355577391,2010-10-15 20:39:33,540.2728868568586,2,2,0.5499359965324402,3.805137634277344,1.072208646690714,1.002042855709979,4.278751459155948,3.645333499235476,0.0,0.0914954170584678,0,0,0
354,12456.383492504036,2010-10-15 20:40:03,570.2880237684691,2,2,0.5501165986061096,3.808537244796753,1.076795156811905,1.002042855709979,4.296212293150945,3.645333499235476,9.713172767078504e-05,0.0914954170584678,0,0,0
355,12486.398797604828,2010-10-15 20:40:33,600.3033288792838,2,2,0.5501165986061096,3.811774969100952,1.081381659304199,1.002042855709979,4.313687564564313,3.645333499235476,0.0001295089750783,0.0914954170584678,0,0,0
356,12516.41395760398,2010-10-15 20:41:03,630.3184888583854,2,2,0.5501165986061096,3.814850807189941,1.085968189780701,1.002042855709979,4.331177444863206,3.645333499235476,6.47544875391759e-05,0.0914954170584678,0,0,0
357,12546.429119663266,2010-10-15 20:41:33,660.3336509377217,2,2,0.550297200679779,3.8180885314941406,1.090554696365566,1.002042855709979,4.348681716092755,3.645333499235476,9.713172767078504e-05,0.0914954170584678,0,0,0
358,12576.44413538784,2010-10-15 20:42:03,690.3486666272094,2,2,0.5501165986061096,3.82132625579834,1.095141177152524,1.002042855709979,4.366200298699597,3.645333499235476,9.713172767078504e-05,0.0914954170584678,0,0,0
359,12606.4592899334,2010-10-15 20:42:33,720.3638211727691,2,2,0.5501165986061096,3.824402093887329,1.099727692468095,1.002042855709979,4.383733655879038,3.645333499235476,6.47544875391759e-05,0.0914954170584678,0,0,0
360,12636.474586457814,2010-10-15 20:43:03,750.3791177021964,2,2,0.5501165986061096,3.8278017044067374,1.10431414859575,1.002042855709979,4.401281739812029,3.645333499235476,9.713172767078504e-05,0.0914954170584678,0,0,0
361,12666.48977682766,2010-10-15 20:43:34,780.3943080720411,2,2,0.5501165986061096,3.8310394287109375,1.108900663589738,1.002042855709979,4.418845284017942,3.645333499235476,9.713172767078504e-05,0.0914954170584678,0,0,0
362,12696.50478990564,2010-10-15 20:44:04,810.40932117007,2,2,0.5501165986061096,3.834438800811768,1.113487125951703,1.002042855709979,4.436424139844419,3.645333499235476,6.47544875391759e-05,0.0914954170584678,0,0,0
363,12726.519956105243,2010-10-15 20:44:34,840.4244873797002,2,2,0.5501165986061096,3.8378384113311768,1.118073634486405,1.002042855709979,4.45401891548357,3.645333499235476,6.47544875391759e-05,0.0914954170584678,0,0,0
364,12756.535298268403,2010-10-15 20:45:04,870.4398296030106,2,2,0.5501165986061096,3.841399908065796,1.122660196944027,1.002042855709979,4.471629703802257,3.645333499235476,0.0001295089750783,0.0914954170584678,0,0,0
365,12786.550287902955,2010-10-15 20:45:34,900.4548191774113,2,2,0.5501165986061096,3.844637632369995,1.127246629651869,1.002042855709979,4.489255719218271,3.645333499235476,9.713172767078504e-05,0.0914954170584678,0,0,0
366,12816.5654349398,2010-10-15 20:46:04,930.4699661741572,2,2,0.5501165986061096,3.8481991291046143,1.131833179476086,1.002042855709979,4.506897778506973,3.645333499235476,0.0001295089750783,0.0914954170584678,0,0,0
367,12846.580628753229,2010-10-15 20:46:34,960.485159992597,2,2,0.550297200679779,3.8514368534088135,1.13641972244551,1.002042855709979,4.524555110916626,3.645333499235476,9.713172767078504e-05,0.0914954170584678,0,0,0
368,12876.595750893022,2010-10-15 20:47:04,990.500282157454,2,2,0.550297200679779,3.854836463928223,1.141006271517025,1.002042855709979,4.542227475711832,3.645333499235476,0.0001295089750783,0.0914954170584678,0,0,0
369,12906.610942656342,2010-10-15 20:47:34,1020.5154739157592,2,2,0.5501165986061096,3.857750415802002,1.145592756375082,1.002042855709979,4.559914334818359,3.645333499235476,6.47544875391759e-05,0.0914954170584678,0,0,0
370,12936.626085577933,2010-10-15 20:48:04,1050.5306168172986,2,2,0.550297200679779,3.861150026321411,1.150179293937615,1.002042855709979,4.577615747724438,3.645333499235476,0.0001295089750783,0.0914954170584678,0,0,0
371,12966.641240740028,2010-10-15 20:48:34,1080.5457719793949,2,2,0.5499359965324402,3.863902091979981,1.15476577010762,1.002042855709979,4.595330944298099,3.645333499235476,6.47544875391759e-05,0.0914954170584678,0,0,0
372,12996.656405796784,2010-10-15 20:49:04,1110.5609370361517,2,2,0.5501165986061096,3.86681604385376,1.159352257088721,1.002042855709979,4.613059749301751,3.645333499235476,6.47544875391759e-05,0.0914954170584678,0,0,0
373,13026.67170332871,2010-10-15 20:49:34,1140.5762345730898,2,2,0.5501165986061096,3.869568109512329,1.163938797988483,1.002042855709979,4.630801845679735,3.645333499235476,6.47544875391759e-05,0.0914954170584678,0,0,0
374,13056.686860094802,2010-10-15 20:50:04,1170.5913913391837,2,2,0.550297200679779,3.872482061386109,1.168525348066864,1.002042855709979,4.648556544928964,3.645333499235476,9.713172767078504e-05,0.0914954170584678,0,0,0
375,13086.701894681388,2010-10-15 20:50:34,1200.606425915744,2,2,0.5501165986061096,3.874910354614258,1.173111895894046,1.002042855709979,4.666323181873262,3.645333499235476,6.47544875391759e-05,0.0914954170584678,0,0,0
376,13116.717230122797,2010-10-15 20:51:04,1230.6217615125388,2,2,0.5501165986061096,3.8773386478424072,1.177698449126759,1.002042855709979,4.684101164199528,3.645333499235476,6.47544875391759e-05,0.0914954170584678,0,0,0
377,13146.732231516657,2010-10-15 20:51:34,1260.6367627660477,2,2,0.5501165986061096,3.8796050548553462,1.182285047104514,1.002042855709979,4.701890086484352,3.645333499235476,3.237724376958795e-05,0.0914954170584678,0,0,0
378,13176.747378869288,2010-10-15 20:52:04,1290.6519101086556,2,2,0.5501165986061096,3.881547689437866,1.186871571890512,1.002042855709979,4.719688801478298,3.645333499235476,0.0,0.0914954170584678,0,0,0
379,13206.762550722984,2010-10-15 20:52:34,1320.6670820826523,2,2,0.5501165986061096,3.883652210235596,1.191458140528375,1.002042855709979,4.737497094865625,3.645333499235476,6.47544875391759e-05,0.0914954170584678,0,0,0
380,13236.780651591687,2010-10-15 20:53:04,1350.6851828661434,2,2,0.5501165986061096,3.885432958602905,1.196045191822797,1.002042855709979,4.75531601456766,3.645333499235476,0.0,0.0914954170584678,0,0,0
381,13266.79291180869,2010-10-15 20:53:34,1380.6974430831456,2,2,0.550297200679779,3.887375593185425,1.200631219578026,1.002042855709979,4.773139145132715,3.645333499235476,6.47544875391759e-05,0.0914954170584678,0,0,0
382,13296.808043777984,2010-10-15 20:54:04,1410.712575017351,2,2,0.550297200679779,3.8888325691223145,1.205217795131766,1.002042855709979,4.79097202174403,3.645333499235476,3.237724376958795e-05,0.0914954170584678,0,0,0
383,13326.823352738393,2010-10-15 20:54:34,1440.7278840228723,2,2,0.5499359965324402,3.890289545059204,1.209804427428374,1.002042855709979,4.808812232656498,3.645333499235476,3.237724376958795e-05,0.0914954170584678,0,0,0
384,13356.838371350164,2010-10-15 20:55:04,1470.7429025845183,2,2,0.550297200679779,3.8917465209960938,1.214391020534965,1.002042855709979,4.826659005063861,3.645333499235476,3.237724376958795e-05,0.0914954170584678,0,0,0
385,13386.853546176268,2010-10-15 20:55:34,1500.7580774106234,2,2,0.5501165986061096,3.893203496932984,1.218977603943989,1.002042855709979,4.844512035095505,3.645333499235476,6.47544875391759e-05,0.0914954170584678,0,0,0
386,13416.868697478743,2010-10-15 20:56:04,1530.7732287181127,2,2,0.5501165986061096,3.894498586654663,1.223564277156263,1.002042855709979,4.862371574871959,3.645333499235476,3.237724376958795e-05,0.0914954170584678,0,0,0
387,13446.883995176082,2010-10-15 20:56:34,1560.7885264505385,2,2,0.5501165986061096,3.895631790161133,1.228150887516308,1.002042855709979,4.880236259837774,3.645333499235476,3.237724376958795e-05,0.0914954170584678,0,0,0
388,13476.899167761603,2010-10-15 20:57:04,1590.8036990059843,2,2,0.5501165986061096,3.8967649936676025,1.232737481370489,1.002042855709979,4.898106688723553,3.645333499235476,0.0,0.0914954170584678,0,0,0
389,13506.914201541178,2010-10-15 20:57:34,1620.81873283067,2,2,0.5499359965324402,3.897898197174072,1.237324038548147,1.002042855709979,4.915982636384578,3.645333499235476,-3.237724376958795e-05,0.0914954170584678,0,0,0
390,13536.929352367468,2010-10-15 20:58:04,1650.8338836068356,2,2,0.550297200679779,3.899517059326172,1.24191062725174,1.002042855709979,4.933864343021416,3.645333499235476,6.47544875391759e-05,0.0914954170584678,0,0,0
391,13566.944466828125,2010-10-15 20:58:34,1680.8489980624788,2,2,0.5501165986061096,3.900488376617432,1.246497221861664,1.002042855709979,4.951751608997425,3.645333499235476,3.237724376958795e-05,0.0914954170584678,0,0,0
392,13596.959827342018,2010-10-15 20:59:04,1710.8643585914124,2,2,0.5501165986061096,3.9017834663391113,1.251083791147006,1.002042855709979,4.969644389390188,3.645333499235476,3.237724376958795e-05,0.0914954170584678,0,0,0
393,13626.974892409571,2010-10-15 20:59:34,1740.8794236539527,2,2,0.550297200679779,3.903078556060791,1.255670236345774,1.002042855709979,4.987542241284344,3.645333499235476,3.237724376958795e-05,0.0914954170584678,0,0,0
394,13656.990183645808,2010-10-15 21:00:04,1770.8947148901875,2,2,0.550297200679779,3.904373645782471,1.260256771388484,1.002042855709979,5.005446031464114,3.645333499235476,6.47544875391759e-05,0.0914954170584678,0,0,0
395,13687.005326361885,2010-10-15 21:00:34,1800.9098576062647,2,2,0.5501165986061096,3.9053449630737305,1.264843305095167,1.002042855709979,5.023355443486722,3.645333499235476,3.237724376958795e-05,0.0914954170584678,0,0,0
396,13717.020581628472,2010-10-15 21:01:04,1830.92511292799,2,2,0.5501165986061096,3.90664005279541,1.269429787765317,1.002042855709979,5.041270224011679,3.645333499235476,0.0,0.0914954170584678,0,0,0
397,13747.035995971526,2010-10-15 21:01:34,1860.9405272509944,2,2,0.5501165986061096,3.90777325630188,1.274016351882097,1.002042855709979,5.059191042879423,3.645333499235476,6.47544875391759e-05,0.0914954170584678,0,0,0
398,13777.050731332349,2010-10-15 21:02:04,1890.9552625917672,2,2,0.5501165986061096,3.9089064598083496,1.278602767116125,1.002042855709979,5.077116947454395,3.645333499235476,0.0,0.0914954170584678,0,0,0
399,13807.065887291432,2010-10-15 21:02:34,1920.9704185859373,2,2,0.5501165986061096,3.9103634357452393,1.283189284053546,1.002042855709979,5.095049067776536,3.645333499235476,3.237724376958795e-05,0.0914954170584678,0,0,0
400,13837.081041265568,2010-10-15 21:03:04,1950.9855725350103,2,2,0.5501165986061096,3.911820411682129,1.287775785784619,1.002042855709979,5.112986813251963,3.645333499235476,6.47544875391759e-05,0.0914954170584678,0,0,0
401,13867.096238998764,2010-10-15 21:03:34,1981.0007702431444,2,2,0.5501165986061096,3.9127917289733887,1.292362294214061,1.002042855709979,5.130930441891665,3.645333499235476,3.237724376958795e-05,0.0914954170584678,0,0,0
402,13897.11177664914,2010-10-15 21:04:04,2011.0163079436445,2,2,0.5499359965324402,3.914086580276489,1.29694892803208,1.002042855709979,5.148880433611606,3.645333499235476,0.0,0.0914954170584678,0,0,0
403,13927.126527744176,2010-10-15 21:04:34,2041.031059008606,2,2,0.5501165986061096,3.915543556213379,1.301535405294955,1.002042855709979,5.166835718726307,3.645333499235476,3.237724376958795e-05,0.0914954170584678,0,0,0
404,13957.141793772586,2010-10-15 21:05:04,2071.046325162328,2,2,0.5501165986061096,3.9168386459350586,1.306121972045726,1.002042855709979,5.184797102711103,3.645333499235476,6.47544875391759e-05,0.0914954170584678,0,0,0
405,13987.156874955304,2010-10-15 21:05:34,2101.06140619467,2,2,0.5501165986061096,3.9181337356567374,1.310708469880197,1.002042855709979,5.202764347025923,3.645333499235476,3.237724376958795e-05,0.0914954170584678,0,0,0
406,14017.172028287838,2010-10-15 21:06:04,2131.0765595522685,2,2,0.5501165986061096,3.919428825378418,1.315294961561337,1.002042855709979,5.22073755717097,3.645333499235476,3.237724376958795e-05,0.0914954170584678,0,0,0
407,14047.187187710551,2010-10-15 21:06:34,2161.0917189599463,2,2,0.5501165986061096,3.9207239151000977,1.319881470581283,1.002042855709979,5.238716983694078,3.645333499235476,0.0,0.0914954170584678,0,0,0
408,14077.20248021495,2010-10-15 21:07:04,2191.1070114693543,2,2,0.5499359965324402,3.922019004821777,1.324467932596985,1.002042855709979,5.256702283235829,3.645333499235476,3.237724376958795e-05,0.0914954170584678,0,0,0
409,14107.217535011903,2010-10-15 21:07:34,2221.1220662612977,2,2,0.5501165986061096,3.923314094543457,1.329054329993913,1.002042855709979,5.274693620118517,3.645333499235476,0.0,0.0914954170584678,0,0,0
410,14137.232693687758,2010-10-15 21:08:04,2251.137224922113,2,2,0.5501165986061096,3.9247710704803462,1.333640812847881,1.002042855709979,5.292691559574175,3.645333499235476,3.237724376958795e-05,0.0914954170584678,0,0,0
411,14167.247878794486,2010-10-15 21:08:34,2281.1524100639285,2,2,0.5501165986061096,3.9260661602020255,1.33822734661336,1.002042855709979,5.310695957497552,3.645333499235476,3.237724376958795e-05,0.0914954170584678,0,0,0
412,14197.263152502032,2010-10-15 21:09:04,2311.1676837414016,2,2,0.5501165986061096,3.927685022354126,1.342813870220079,1.002042855709979,5.328706623226808,3.645333499235476,6.47544875391759e-05,0.0914954170584678,0,0,0
413,14227.278226166012,2010-10-15 21:09:34,2341.182757430442,2,2,0.5501165986061096,3.9289801120758057,1.347400399530715,1.002042855709979,5.346723693302753,3.645333499235476,6.47544875391759e-05,0.0914954170584678,0,0,0
414,14257.293363709196,2010-10-15 21:10:04,2371.1978949786394,2,2,0.550297200679779,3.9304370880126953,1.35198691011643,1.002042855709979,5.3647471619545,3.645333499235476,3.237724376958795e-05,0.0914954170584678,0,0,0
415,14287.308523888798,2010-10-15 21:10:34,2401.213055153228,2,2,0.5501165986061096,3.931732177734375,1.356573430180039,1.002042855709979,5.382777135279249,3.645333499235476,3.237724376958795e-05,0.0914954170584678,0,0,0
416,14317.323821340524,2010-10-15 21:11:04,2431.228352640041,2,2,0.5501165986061096,3.9331891536712646,1.361159880556368,1.002042855709979,5.400813333246424,3.645333499235476,0.0,0.0914954170584678,0,0,0
417,14347.338874688869,2010-10-15 21:11:34,2461.2434059332486,2,2,0.5501165986061096,3.934808015823364,1.365746341455321,1.002042855709979,5.418856120997798,3.645333499235476,6.47544875391759e-05,0.0914954170584678,0,0,0
418,14377.35416577974,2010-10-15 21:12:04,2491.2586970341467,2,2,0.5501165986061096,3.936103105545044,1.370332851831035,1.002042855709979,5.436905764217968,3.645333499235476,3.237724376958795e-05,0.0914954170584678,0,0,0
419,14407.36923364928,2010-10-15 21:12:34,2521.2737649237333,2,2,0.5501165986061096,3.937398195266724,1.374919332798771,1.002042855709979,5.454961749193071,3.645333499235476,3.237724376958795e-05,0.0914954170584678,0,0,0
420,14437.384494209056,2010-10-15 21:13:04,2551.2890254634626,2,2,0.5501165986061096,3.9390170574188232,1.379505828473068,1.002042855709979,5.473024656156845,3.645333499235476,6.47544875391759e-05,0.0914954170584678,0,0,0
421,14467.39956506604,2010-10-15 21:13:34,2581.3040963404947,2,2,0.5501165986061096,3.940474033355713,1.384092328532907,1.002042855709979,5.491094277499015,3.645333499235476,6.47544875391759e-05,0.0914954170584678,0,0,0
422,14497.414818558203,2010-10-15 21:14:04,2611.319349802585,2,2,0.5501165986061096,3.9419310092926025,1.388678844897339,1.002042855709979,5.509170779027062,3.645333499235476,6.47544875391759e-05,0.0914954170584678,0,0,0
423,14527.429854307687,2010-10-15 21:14:34,2641.334385602193,2,2,0.5501165986061096,3.943549871444702,1.393265282515434,1.002042855709979,5.527253807723481,3.645333499235476,6.47544875391759e-05,0.0914954170584678,0,0,0
424,14557.445027850594,2010-10-15 21:15:04,2671.3495591250494,2,2,0.5501165986061096,3.945006847381592,1.39785178222261,1.002042855709979,5.545343982269504,3.645333499235476,3.237724376958795e-05,0.0914954170584678,0,0,0
425,14587.46021830565,2010-10-15 21:15:35,2701.36474960517,2,2,0.5499359965324402,3.946301937103272,1.402438266515569,1.002042855709979,5.563441099668676,3.645333499235476,3.237724376958795e-05,0.0914954170584678,0,0,0
426,14617.475412154166,2010-10-15 21:16:05,2731.3799433985478,2,2,0.5501165986061096,3.947920799255371,1.407024792999581,1.002042855709979,5.581545213006247,3.645333499235476,3.237724376958795e-05,0.0914954170584678,0,0,0
427,14647.490541857813,2010-10-15 21:16:35,2761.395073122243,2,2,0.5501165986061096,3.949539661407471,1.411611227902582,1.002042855709979,5.599656052118805,3.645333499235476,6.47544875391759e-05,0.0914954170584678,0,0,0
428,14677.505876627543,2010-10-15 21:17:05,2791.410407962152,2,2,0.5501165986061096,3.95099663734436,1.416197783819841,1.002042855709979,5.617774522183575,3.645333499235476,3.237724376958795e-05,0.0914954170584678,0,0,0
429,14707.520867144296,2010-10-15 21:17:35,2821.425398423764,2,2,0.5501165986061096,3.95277738571167,1.420784332858128,1.002042855709979,5.635900097481307,3.645333499235476,6.47544875391759e-05,0.0914954170584678,0,0,0
430,14737.536028827644,2010-10-15 21:18:05,2851.440560092076,2,2,0.5499359965324402,3.9540724754333496,1.425370822434538,1.002042855709979,5.654032697286076,3.645333499235476,0.0,0.0914954170584678,0,0,0
431,14767.551210465728,2010-10-15 21:18:35,2881.4557417000838,2,2,0.5501165986061096,3.955853223800659,1.429957335732625,1.002042855709979,5.672172585767954,3.645333499235476,6.47544875391759e-05,0.0914954170584678,0,0,0
432,14797.566377512445,2010-10-15 21:19:05,2911.470908781887,2,2,0.550297200679779,3.957310199737549,1.434543898989384,1.002042855709979,5.690319969465794,3.645333499235476,6.47544875391759e-05,0.0914954170584678,0,0,0
433,14827.581583706728,2010-10-15 21:19:35,2941.486114981184,2,2,0.5501165986061096,3.9590909481048575,1.439130444928913,1.002042855709979,5.708474644883635,3.645333499235476,3.237724376958795e-05,0.0914954170584678,0,0,0
434,14857.596692392992,2010-10-15 21:20:05,2971.501223637373,2,2,0.5501165986061096,3.960709810256958,1.443716967515684,1.002042855709979,5.726636666244119,3.645333499235476,3.237724376958795e-05,0.0914954170584678,0,0,0
435,14887.611981734504,2010-10-15 21:20:35,3001.5165130390355,2,2,0.5499359965324402,3.962166786193848,1.448303497436823,1.002042855709979,5.744806234159408,3.645333499235476,0.0,0.0914954170584678,0,0,0
436,14917.62702528844,2010-10-15 21:21:05,3031.531556527808,2,2,0.5501165986061096,3.963947534561157,1.452889967593074,1.002042855709979,5.762983054708048,3.645333499235476,3.237724376958795e-05,0.0914954170584678,0,0,0
437,14947.642213883862,2010-10-15 21:21:35,3061.5467451583177,2,2,0.550297200679779,3.965728282928467,1.4574765650025,1.002042855709979,5.78116808023017,3.645333499235476,6.47544875391759e-05,0.0914954170584678,0,0,0
438,14977.657357086153,2010-10-15 21:22:05,3091.5618883305315,2,2,0.550297200679779,3.9673471450805664,1.462063112543919,1.002042855709979,5.799360573738834,3.645333499235476,3.237724376958795e-05,0.0914954170584678,0,0,0
439,15007.672541501155,2010-10-15 21:22:35,3121.57707273551,2,2,0.5501165986061096,3.969127893447876,1.466649692680468,1.002042855709979,5.817560811867062,3.645333499235476,6.47544875391759e-05,0.0914954170584678,0,0,0
440,15037.68769791136,2010-10-15 21:23:05,3151.592229155742,2,2,0.5501165986061096,3.970746755599976,1.47123625493671,1.002042855709979,5.835768803641775,3.645333499235476,9.713172767078504e-05,0.0914954170584678,0,0,0
441,15067.702979067471,2010-10-15 21:23:35,3181.607510311854,2,2,0.5499359965324402,3.972203731536865,1.475822904655794,1.002042855709979,5.85398504469714,3.645333499235476,-3.237724376958795e-05,0.0914954170584678,0,0,0
442,15097.718031237884,2010-10-15 21:24:05,3211.622562482263,2,2,0.5501165986061096,3.9741463661193848,1.480409452618557,1.002042855709979,5.872208763207823,3.645333499235476,6.47544875391759e-05,0.0914954170584678,0,0,0
443,15127.733199066548,2010-10-15 21:24:35,3241.6377303159416,2,2,0.5501165986061096,3.9759271144866943,1.48499606521671,1.002042855709979,5.89044079596068,3.645333499235476,3.237724376958795e-05,0.0914954170584678,0,0,0
444,15157.74930563484,2010-10-15 21:25:05,3271.653837014559,2,2,0.550297200679779,3.977707862854004,1.489582855490657,1.002042855709979,5.908681630927755,3.645333499235476,6.47544875391759e-05,0.0914954170584678,0,0,0
445,15187.750867192492,2010-10-15 21:25:35,3301.6553985722107,2,2,0.5501165986061096,3.9794886112213135,1.494167346479692,1.002042855709979,5.926921020786421,3.645333499235476,3.237724376958795e-05,0.0914954170584678,0,0,0
446,15217.763152762684,2010-10-15 21:26:05,3331.6676840371388,2,2,0.5501165986061096,3.981269359588623,1.498753394693247,1.002042855709979,5.945175354883175,3.645333499235476,3.237724376958795e-05,0.0914954170584678,0,0,0
447,15247.77824426111,2010-10-15 21:26:35,3361.6827755004783,2,2,0.5501165986061096,3.983211994171143,1.503339826903289,1.002042855709979,5.963439576213194,3.645333499235476,6.47544875391759e-05,0.0914954170584678,0,0,0
448,15277.793409247692,2010-10-15 21:27:05,3391.697940497085,2,2,0.5501165986061096,3.985154628753662,1.507926347215501,1.002042855709979,5.981712585961076,3.645333499235476,6.47544875391759e-05,0.0914954170584678,0,0,0
449,15307.80857931193,2010-10-15 21:27:35,3421.7131105563094,2,2,0.550297200679779,3.986935377120972,1.51251281782774,1.002042855709979,5.999993934214726,3.645333499235476,9.713172767078504e-05,0.0914954170584678,0,0,0
450,15337.823782734304,2010-10-15 21:28:05,3451.728313978685,2,2,0.550297200679779,3.988878011703491,1.517099352535741,1.002042855709979,6.018284192021679,3.645333499235476,9.713172767078504e-05,0.0914954170584678,0,0,0
451,15367.838945014142,2010-10-15 21:28:35,3481.7434762785715,2,2,0.550297200679779,3.990658760070801,1.52168581474449,1.002042855709979,6.036582905522828,3.645333499235476,6.47544875391759e-05,0.0914954170584678,0,0,0
452,15397.854084472096,2010-10-15 21:29:05,3511.7586157164774,2,2,0.5501165986061096,3.99260139465332,1.526272306758316,1.002042855709979,6.054890532234518,3.645333499235476,3.237724376958795e-05,0.0914954170584678,0,0,0
453,15427.869374871249,2010-10-15 21:29:35,3541.773906260989,2,2,0.5501165986061096,3.9945437908172607,1.530858781493336,1.002042855709979,6.073207008092401,3.645333499235476,3.237724376958795e-05,0.0914954170584678,0,0,0
454,15457.884429156928,2010-10-15 21:30:05,3571.788960401308,2,2,0.5501165986061096,3.9966483116149902,1.535445231610455,1.002042855709979,6.091532470918287,3.645333499235476,6.47544875391759e-05,0.0914954170584678,0,0,0
455,15487.899583772662,2010-10-15 21:30:35,3601.8041150120303,2,2,0.5501165986061096,3.9985909461975098,1.5400316991701,1.002042855709979,6.109867199908472,3.645333499235476,9.713172767078504e-05,0.0914954170584678,0,0,0
456,15517.91474539586,2010-10-15 21:31:05,3631.8192766402426,2,2,0.5501165986061096,4.000695705413818,1.544618200679665,1.002042855709979,6.128211304024974,3.645333499235476,9.71794142969884e-05,0.0914954170584678,0,0,0
457,15547.929913680664,2010-10-15 21:31:35,3661.8344449200313,2,2,0.5501165986061096,4.002638339996338,1.549204635882435,1.002042855709979,6.146564584304566,3.645333499235476,3.24249267578125e-05,0.0914954170584678,0,0,0
458,15577.945127188174,2010-10-15 21:32:05,3691.8496584325553,2,2,0.5501165986061096,4.004742622375488,1.553791056293217,1.002042855709979,6.164927329521575,3.645333499235476,6.47544875391759e-05,0.0914954170584678,0,0,0
459,15607.960262200048,2010-10-15 21:32:35,3721.864793439418,2,2,0.5501165986061096,4.006847381591797,1.558377494949415,1.002042855709979,6.183299775715088,3.645333499235476,3.24249267578125e-05,0.0914954170584678,0,0,0
460,15637.975550468887,2010-10-15 21:33:05,3751.8800818285567,2,2,0.550297200679779,4.008951663970947,1.562964005290037,1.002042855709979,6.201682282518934,3.645333499235476,9.70840483205393e-05,0.0914954170584678,0,0,0
461,15667.99082263259,2010-10-15 21:33:35,3781.8953539220815,2,2,0.5501165986061096,4.011218070983887,1.56755043429856,1.002042855709979,6.220074206084168,3.645333499235476,6.47544875391759e-05,0.0914954170584678,0,0,0
462,15698.006001639113,2010-10-15 21:34:05,3811.910532908557,2,2,0.5499359965324402,4.013322830200195,1.572136803628464,1.002042855709979,6.238475845594849,3.645333499235476,3.24249267578125e-05,0.0914954170584678,0,0,0
463,15728.020897895938,2010-10-15 21:34:35,3841.9254292054816,2,2,0.5499359965324402,4.015589237213135,1.576722410840563,1.002042855709979,6.256884273553084,3.645333499235476,6.47544875391759e-05,0.0914954170584678,0,0,0
464,15758.036156034685,2010-10-15 21:35:05,3871.94068730914,2,2,0.5499359965324402,4.017693519592285,1.581308242539168,1.002042855709979,6.27530377500881,3.645333499235476,6.47544875391759e-05,0.0914954170584678,0,0,0
465,15788.051269422667,2010-10-15 21:35:35,3901.955800722184,2,2,0.5501165986061096,4.020122051239014,1.585893996195783,1.002042855709979,6.293733042591055,3.645333499235476,0.0001295089750783,0.0914954170584678,0,0,0
466,15818.066439572116,2010-10-15 21:36:05,3931.9709708716337,2,2,0.5499359965324402,4.022388458251953,1.590479609605521,1.002042855709979,6.3121720633212,3.645333499235476,9.71794142969884e-05,0.0914954170584678,0,0,0
467,15848.081580107755,2010-10-15 21:36:35,3961.9861113772017,2,2,0.5499359965324402,4.024331092834473,1.595065284284624,1.002042855709979,6.330621743661412,3.645333499235476,0.0,0.0914954170584678,0,0,0
468,15878.096729966635,2010-10-15 21:37:05,3992.001261351368,2,2,0.5499359965324402,4.026597499847412,1.599650912193018,1.002042855709979,6.349081606875533,3.645333499235476,3.24249267578125e-05,0.0914954170584678,0,0,0
469,15908.111918622211,2010-10-15 21:37:35,4022.016449871603,2,2,0.5501165986061096,4.029187679290772,1.604237372458102,1.002042855709979,6.367555571406296,3.645333499235476,6.47544875391759e-05,0.0914954170584678,0,0,0
470,15938.127100340493,2010-10-15 21:38:05,4052.0316315848727,2,2,0.5501165986061096,4.031615734100342,1.608823850822999,1.002042855709979,6.386040152395691,3.645333499235476,0.0001295089750783,0.0914954170584678,0,0,0
471,15968.142252906118,2010-10-15 21:38:35,4082.0467841454856,2,2,0.5501165986061096,4.03372049331665,1.61341029326475,1.002042855709979,6.40453531494922,3.645333499235476,3.24249267578125e-05,0.0914954170584678,0,0,0
472,15998.157427992874,2010-10-15 21:39:05,4112.061959287377,2,2,0.5501165986061096,4.036148548126221,1.617996846122586,1.002042855709979,6.423041705822463,3.645333499235476,6.47544875391759e-05,0.0914954170584678,0,0,0
473,16028.172604377862,2010-10-15 21:39:35,4142.077135672368,2,2,0.5501165986061096,4.03873872756958,1.622583318957355,1.002042855709979,6.441558622043511,3.645333499235476,9.71794142969884e-05,0.0914954170584678,0,0,0
474,16058.187784492147,2010-10-15 21:40:05,4172.092315756578,2,2,0.5501165986061096,4.0408430099487305,1.627169897116606,1.002042855709979,6.46008697383717,3.645333499235476,3.23295607813634e-05,0.0914954170584678,0,0,0
475,16088.202937874808,2010-10-15 21:40:35,4202.107469114177,2,2,0.5501165986061096,4.043271541595459,1.631756463418164,1.002042855709979,6.47862638996176,3.645333499235476,3.24249267578125e-05,0.0914954170584678,0,0,0
476,16118.218116445243,2010-10-15 21:41:05,4232.122647689626,2,2,0.5501165986061096,4.045861721038818,1.636342979375499,1.002042855709979,6.497176755114167,3.645333499235476,6.47544875391759e-05,0.0914954170584678,0,0,0
477,16148.2333952505,2010-10-15 21:41:35,4262.137926489867,2,2,0.5501165986061096,4.048289775848389,1.640929532859611,1.002042855709979,6.515738615417289,3.645333499235476,6.47544875391759e-05,0.0914954170584678,0,0,0
478,16178.248465726532,2010-10-15 21:42:05,4292.1529969659005,2,2,0.5501165986061096,4.050718307495117,1.645516065674471,1.002042855709979,6.534311815857086,3.645333499235476,6.47544875391759e-05,0.0914954170584678,0,0,0
479,16208.263773253368,2010-10-15 21:42:35,4322.168304527823,2,2,0.550297200679779,4.053308486938477,1.650102642637623,1.002042855709979,6.552896705545481,3.645333499235476,6.47544875391759e-05,0.0914954170584678,0,0,0
480,16238.278783980488,2010-10-15 21:43:05,4352.183315224868,2,2,0.5501165986061096,4.055898666381836,1.654689230973118,1.002042855709979,6.571493361179435,3.645333499235476,6.47544875391759e-05,0.0914954170584678,0,0,0
481,16268.294074750562,2010-10-15 21:43:35,4382.198606025016,2,2,0.5501165986061096,4.058488845825195,1.659275794732093,1.002042855709979,6.59010172992001,3.645333499235476,6.47544875391759e-05,0.0914954170584678,0,0,0
482,16298.309211556909,2010-10-15 21:44:05,4412.213742796277,2,2,0.5501165986061096,4.060755252838135,1.663862378522542,1.002042855709979,6.60872200683825,3.645333499235476,3.24249267578125e-05,0.0914954170584678,0,0,0
483,16328.324294900009,2010-10-15 21:44:35,4442.228826139379,2,2,0.5501165986061096,4.063669204711914,1.668448901643388,1.002042855709979,6.627353761811647,3.645333499235476,6.47544875391759e-05,0.0914954170584678,0,0,0
484,16358.339462688577,2010-10-15 21:45:05,4472.243993927944,2,2,0.5501165986061096,4.066259384155273,1.673035434424918,1.002042855709979,6.645997743517724,3.645333499235476,9.71794142969884e-05,0.0914954170584678,0,0,0
485,16388.35475528821,2010-10-15 21:45:35,4502.25928653259,2,2,0.5499359965324402,4.069011211395264,1.677621957556766,1.002042855709979,6.664653927036348,3.645333499235476,6.47544875391759e-05,0.0914954170584678,0,0,0
486,16418.369853748987,2010-10-15 21:46:05,4532.27438507858,2,2,0.5501165986061096,4.071763515472412,1.68220855978369,1.002042855709979,6.68332284461255,3.645333499235476,6.47544875391759e-05,0.0914954170584678,0,0,0
487,16448.384976199555,2010-10-15 21:46:35,4562.2895074439375,2,2,0.5501165986061096,4.074353694915772,1.686795088522678,1.002042855709979,6.702003976367392,3.645333499235476,9.71794142969884e-05,0.0914954170584678,0,0,0
488,16478.400149582063,2010-10-15 21:47:05,4592.304680816419,2,2,0.5501165986061096,4.077267646789551,1.691381663628924,1.002042855709979,6.72069789953042,3.645333499235476,6.47544875391759e-05,0.0914954170584678,0,0,0
489,16508.415318708965,2010-10-15 21:47:35,4622.319849953345,2,2,0.5499359965324402,4.07985782623291,1.69596819306768,1.002042855709979,6.739404434390428,3.645333499235476,6.47544875391759e-05,0.0914954170584678,0,0,0
490,16538.430493264397,2010-10-15 21:48:06,4652.335024498751,2,2,0.5499359965324402,4.0827717781066895,1.700554733953269,1.002042855709979,6.758123910532766,3.645333499235476,3.24249267578125e-05,0.0914954170584678,0,0,0
491,16568.44570444611,2010-10-15 21:48:36,4682.350235715552,2,2,0.5501165986061096,4.08552360534668,1.705141265699758,1.002042855709979,6.776856340713191,3.645333499235476,6.47544875391759e-05,0.0914954170584678,0,0,0
492,16598.460812069727,2010-10-15 21:49:06,4712.365343304081,2,2,0.5499359965324402,4.088437557220459,1.70972781041189,1.002042855709979,6.795601937051536,3.645333499235476,6.47544875391759e-05,0.0914954170584678,0,0,0
493,16628.476191094756,2010-10-15 21:49:36,4742.380722529612,2,2,0.5501165986061096,4.091351509094238,1.714314344350838,1.002042855709979,6.814360732424395,3.645333499235476,9.70840483205393e-05,0.0914954170584678,0,0,0
494,16658.491362677778,2010-10-15 21:50:06,4772.395894037447,2,2,0.5497553944587708,4.094265460968018,1.718900851160037,1.002042855709979,6.833132677769801,3.645333499235476,6.47544875391759e-05,0.0914954170584678,0,0,0
495,16688.506453083482,2010-10-15 21:50:36,4802.41098436295,2,2,0.550297200679779,4.097179412841797,1.723487414481918,1.002042855709979,6.851918337751616,3.645333499235476,6.47544875391759e-05,0.0914954170584678,0,0,0
496,16718.521502587246,2010-10-15 21:51:06,4832.426033826614,2,2,0.5501165986061096,4.100093364715576,1.728074000967078,1.002042855709979,6.87071767996977,3.645333499235476,3.23295607813634e-05,0.0914954170584678,0,0,0
497,16748.53664161413,2010-10-15 21:51:36,4862.441172883571,2,2,0.550297200679779,4.103331089019775,1.732660649156105,1.002042855709979,6.889530874575075,3.645333499235476,9.70840483205393e-05,0.0914954170584678,0,0,0
498,16778.551824184535,2010-10-15 21:52:06,4892.456355489065,2,2,0.5501165986061096,4.106407165527344,1.737247270848705,1.002042855709979,6.908357734800165,3.645333499235476,9.71794142969884e-05,0.0914954170584678,0,0,0
499,16808.566990133517,2010-10-15 21:52:36,4922.471521423008,2,2,0.550297200679779,4.109482765197754,1.74183394273646,1.002042855709979,6.927198726519883,3.645333499235476,0.0001295089750783,0.0914954170584678,0,0,0
500,16838.58257753789,2010-10-15 21:53:06,4952.48710881736,2,2,0.5501165986061096,4.112396717071533,1.746420651281751,1.002042855709979,6.94605392320534,3.645333499235476,6.47544875391759e-05,0.0914954170584678,0,0,0
501,16868.59750479197,2010-10-15 21:53:36,4982.502036061414,2,2,0.5501165986061096,4.1153106689453125,1.751007186241258,1.002042855709979,6.96492250184542,3.645333499235476,6.47544875391759e-05,0.0914954170584678,0,0,0
502,16898.612500441515,2010-10-15 21:54:06,5012.517031705944,2,2,0.5504778623580933,4.118710041046143,1.755593774015933,1.002042855709979,6.983805642271468,3.645333499235476,0.0001295089750783,0.0914954170584678,0,0,0
503,16928.627657302844,2010-10-15 21:54:36,5042.532188597351,2,2,0.5501165986061096,4.121786117553711,1.760180377092083,1.002042855709979,7.002703228017166,3.645333499235476,6.47544875391759e-05,0.0914954170584678,0,0,0
504,16958.642827532494,2010-10-15 21:55:06,5072.547358821988,2,2,0.5501165986061096,4.12502384185791,1.76476702886829,1.002042855709979,7.021615546816757,3.645333499235476,9.71794142969884e-05,0.0914954170584678,0,0,0
505,16988.65800034859,2010-10-15 21:55:36,5102.562531582945,2,2,0.5501165986061096,4.12809944152832,1.769353917474312,1.002042855709979,7.040543491233932,3.645333499235476,3.23295607813634e-05,0.0914954170584678,0,0,0
506,17018.67318312952,2010-10-15 21:56:06,5132.577714368888,2,2,0.5501165986061096,4.131499290466309,1.773941305228055,1.002042855709979,7.059488327552024,3.645333499235476,9.71794142969884e-05,0.0914954170584678,0,0,0
507,17048.688350812823,2010-10-15 21:56:36,5162.592882082266,2,2,0.550297200679779,4.134574890136719,1.778528632939976,1.002042855709979,7.07844772813666,3.645333499235476,9.70840483205393e-05,0.0914954170584678,0,0,0
508,17078.703507824528,2010-10-15 21:57:06,5192.60803908896,2,2,0.5499359965324402,4.137812614440918,1.783115972913224,1.002042855709979,7.097422149026202,3.645333499235476,3.23295607813634e-05,0.0914954170584678,0,0,0
509,17108.721593239716,2010-10-15 21:57:36,5222.626124609411,2,2,0.550297200679779,4.141374111175537,1.787703550718003,1.002042855709979,7.116412719318722,3.645333499235476,0.0001295089750783,0.0914954170584678,0,0,0
510,17138.734002844038,2010-10-15 21:58:06,5252.638534113483,2,2,0.5499359965324402,4.144611835479736,1.792289806426187,1.002042855709979,7.135413025753224,3.645333499235476,9.70840483205393e-05,0.0914954170584678,0,0,0
511,17168.749161078795,2010-10-15 21:58:36,5282.653692323174,2,2,0.5501165986061096,4.148011684417725,1.796876409369016,1.002042855709979,7.154430437977292,3.645333499235476,9.71794142969884e-05,0.0914954170584678,0,0,0
512,17198.764216266725,2010-10-15 21:59:06,5312.668747506093,2,2,0.5501165986061096,4.151249408721924,1.801462985392526,1.002042855709979,7.17346326077498,3.645333499235476,6.47544875391759e-05,0.0914954170584678,0,0,0
513,17228.779509718483,2010-10-15 21:59:36,5342.684040997949,2,2,0.5501165986061096,4.154810905456543,1.806049630422974,1.002042855709979,7.192512020238298,3.645333499235476,9.71794142969884e-05,0.0914954170584678,0,0,0
514,17258.79456858558,2010-10-15 22:00:06,5372.699099839985,2,2,0.5501165986061096,4.158372402191162,1.81063621731418,1.002042855709979,7.21157634427373,3.645333499235476,9.71794142969884e-05,0.0914954170584678,0,0,0
515,17288.809728584733,2010-10-15 22:00:36,5402.714259859187,2,2,0.5499359965324402,4.161771774291992,1.815222810675081,1.002042855709979,7.230656605268819,3.645333499235476,6.47544875391759e-05,0.0914954170584678,0,0,0
516,17318.824882709243,2010-10-15 22:01:06,5432.729413943598,2,2,0.5501165986061096,4.165333271026611,1.819809514675101,1.002042855709979,7.249753387617672,3.645333499235476,0.0001295089750783,0.0914954170584678,0,0,0
517,17348.840182687265,2010-10-15 22:01:36,5462.744713956708,2,2,0.5501165986061096,4.168894767761231,1.824396129390903,1.002042855709979,7.268865890984305,3.645333499235476,9.70840483205393e-05,0.0914954170584678,0,0,0
518,17378.85523795038,2010-10-15 22:02:06,5492.759769214813,2,2,0.5501165986061096,4.172294616699219,1.828982786546515,1.002042855709979,7.287994820990356,3.645333499235476,6.47544875391759e-05,0.0914954170584678,0,0,0
519,17408.870391563618,2010-10-15 22:02:36,5522.774922823036,2,2,0.5501165986061096,4.175693988800049,1.833569396363965,1.002042855709979,7.307139980345977,3.645333499235476,6.47544875391759e-05,0.0914954170584678,0,0,0
520,17438.8855570715,2010-10-15 22:03:06,5552.790088305855,2,2,0.5501165986061096,4.179417610168457,1.838155993291922,1.002042855709979,7.326301588749749,3.645333499235476,6.47544875391759e-05,0.0914954170584678,0,0,0
521,17468.900751912486,2010-10-15 22:03:36,5582.805283297217,2,2,0.5501165986061096,4.183302879333496,1.842742661326934,1.002042855709979,7.345479959559624,3.645333499235476,0.0001295089750783,0.0914954170584678,0,0,0
522,17498.915915119633,2010-10-15 22:04:06,5612.820446474289,2,2,0.5499359965324402,4.186702251434326,1.847329365939225,1.002042855709979,7.364675033797517,3.645333499235476,6.47544875391759e-05,0.0914954170584678,0,0,0
523,17528.931075254124,2010-10-15 22:04:36,5642.835606638853,2,2,0.5501165986061096,4.190263748168945,1.851915970749013,1.002042855709979,7.383886405926991,3.645333499235476,6.47544875391759e-05,0.0914954170584678,0,0,0
524,17558.946240827165,2010-10-15 22:05:06,5672.850772186836,2,2,0.550297200679779,4.194149017333984,1.856502587392711,1.002042855709979,7.403114622550475,3.645333499235476,9.70840483205393e-05,0.0914954170584678,0,0,0
525,17588.96163176689,2010-10-15 22:05:36,5702.8661630563865,2,2,0.550297200679779,4.197710514068604,1.861089283314635,1.002042855709979,7.422360032324027,3.645333499235476,0.0001295089750783,0.0914954170584678,0,0,0
526,17606.164428654905,2010-10-15 22:05:53,5720.068959909312,2,2,0.5504778623580933,4.200138568878174,1.863717998425347,1.002042855709979,7.433397591571056,3.645333499235476,0.0001295089750783,0.0914954170584678,0,0,0
527,17636.18009861202,2010-10-15 22:06:23,30.01517043516148,3,2,0.0,4.115796089172363,1.863717998425347,1.002042855709979,7.433397591571056,3.645333499235476,-0.0003561973571777,0.0914954170584678,0,0,0
528,17666.195240781737,2010-10-15 22:06:53,60.030312594851786,3,2,0.0,4.105112075805664,1.863717998425347,1.002042855709979,7.433397591571056,3.645333499235476,-0.0001942634553415,0.0914954170584678,0,0,0
529,17696.210409377316,2010-10-15 22:07:23,90.04548132075325,3,2,0.0,4.0987982749938965,1.863717998425347,1.002042855709979,7.433397591571056,3.645333499235476,-0.0001295089750783,0.0914954170584678,0,0,0
530,17726.178708865653,2010-10-15 22:07:53,120.01378079906846,3,2,0.0,4.094751358032227,1.863717998425347,1.002042855709979,7.433397591571056,3.645333499235476,-6.47544875391759e-05,0.0914954170584678,0,0,0
531,17726.179209805105,2010-10-15 22:07:54,2.696721059e-06,4,2,0.9992918968200684,4.199814796447754,1.863717999173905,1.002042855709979,7.433397594714864,3.645333499235476,0.0,0.0914954170584678,0,0,0
532,17727.069641610142,2010-10-15 22:07:54,0.890434612033067,4,2,0.9485406875610352,4.199653148651123,1.863957293375981,1.002042855709979,7.434402555306544,3.645333499235476,-3.23295607813634e-05,0.0914954170584678,0,0,0
533,17729.14773253213,2010-10-15 22:07:57,2.96852551898578,4,2,0.8985118865966797,4.199653148651123,1.864489367793371,1.002042855709979,7.436637098311083,3.645333499235476,-3.23295607813634e-05,0.0914954170584678,0,0,0
534,17732.31957139553,2010-10-15 22:08:00,6.140364382383788,4,2,0.8483025431632996,4.199653148651123,1.865257841442775,1.002042855709979,7.439864452189983,3.645333499235476,0.0,0.0914954170584678,0,0,0
535,17736.67905625819,2010-10-15 22:08:04,10.49984915481662,4,2,0.7973707318305969,4.199491024017334,1.866253285182612,1.002042855709979,7.444045028294588,3.645333499235476,-6.47544875391759e-05,0.0914954170584678,0,0,0
536,17742.36626680177,2010-10-15 22:08:10,16.187059818701997,4,2,0.7473419308662415,4.199814796447754,1.867472238409187,1.002042855709979,7.449164267388669,3.645333499235476,0.0,0.0914954170584678,0,0,0
537,17749.663016512204,2010-10-15 22:08:17,23.48380945895925,4,2,0.6971325874328613,4.199653148651123,1.868934173012039,1.002042855709979,7.455303974433123,3.645333499235476,0.0,0.0914954170584678,0,0,0
538,17759.28772938814,2010-10-15 22:08:27,33.10852224968382,4,2,0.6471037864685059,4.199653148651123,1.870728475305568,1.002042855709979,7.462839536586878,3.645333499235476,0.0,0.0914954170584678,0,0,0
539,17772.647035133614,2010-10-15 22:08:40,46.46782800518215,4,2,0.5968944430351257,4.199653148651123,1.873032033853906,1.002042855709979,7.472513839739592,3.645333499235476,3.24249267578125e-05,0.0914954170584678,0,0,0
540,17792.70923815152,2010-10-15 22:09:00,66.53003101807582,4,2,0.5468656420707703,4.199653148651123,1.876209742723235,1.002042855709979,7.485859354090571,3.645333499235476,0.0,0.0914954170584678,0,0,0
541,17826.2399813006,2010-10-15 22:09:34,100.06077419723002,4,2,0.4968368709087372,4.199653148651123,1.881049949672561,1.002042855709979,7.50618687610513,3.645333499235476,-3.23295607813634e-05,0.0914954170584678,0,0,0
542,17887.035936467324,2010-10-15 22:10:34,160.85672934390328,4,2,0.4468080997467041,4.199653148651123,1.888983992982628,1.002042855709979,7.539507652368098,3.645333499235476,-3.23295607813634e-05,0.0914954170584678,0,0,0
543,17983.097109432638,2010-10-15 22:12:10,256.91790233929174,4,2,0.396779328584671,4.199491024017334,1.900210762815043,1.002042855709979,7.586656943737428,3.645333499235476,0.0,0.0914954170584678,0,0,0
544,18105.157764812968,2010-10-15 22:14:13,378.9785577897992,4,2,0.3465699553489685,4.199814796447754,1.91279784910079,1.002042855709979,7.639519240804007,3.645333499235476,3.23295607813634e-05,0.0914954170584678,0,0,0
545,18251.608551294663,2010-10-15 22:16:39,525.4293442865295,4,2,0.2965411841869354,4.199653148651123,1.925866422747582,1.002042855709979,7.694403647463184,3.645333499235476,0.0,0.0914954170584678,0,0,0
546,18427.043526202124,2010-10-15 22:19:34,700.8643191037663,4,2,0.2465124130249023,4.199814796447754,1.939079124071721,1.002042855709979,7.749893336360276,3.645333499235476,3.23295607813634e-05,0.0914954170584678,0,0,0
547,18644.962112019857,2010-10-15 22:23:12,918.7829049866592,4,2,0.1964836567640304,4.199814796447754,1.952452900432966,1.002042855709979,7.806059446370214,3.645333499235476,0.0,0.0914954170584678,0,0,0
548,18932.66095496419,2010-10-15 22:28:00,1206.4817479510473,4,2,0.1464548856019973,4.199653148651123,1.966075209312225,1.002042855709979,7.863269366426829,3.645333499235476,-6.47544875391759e-05,0.0914954170584678,0,0,0
549,19352.591934424538,2010-10-15 22:35:00,1626.4127274414695,4,2,0.0964261144399643,4.199653148651123,1.980052913961029,1.002042855709979,7.92197179284807,3.645333499235476,0.0,0.0914954170584678,0,0,0
550,20067.90943965527,2010-10-15 22:46:55,2341.7302325619235,4,2,0.0498289167881011,4.199814796447754,1.994090414711931,1.002042855709979,7.980925330392815,3.645333499235476,3.23295607813634e-05,0.0914954170584678,0,0,0
551,20097.92522150436,2010-10-15 22:47:25,30.015232845707764,5,2,0.0,4.191882610321045,1.994090414711931,1.002042855709979,7.980925330392815,3.645333499235476,-3.24249267578125e-05,0.0914954170584678,0,0,0
552,20127.924627775377,2010-10-15 22:47:55,60.014639171859095,5,2,0.0,4.190749645233154,1.994090414711931,1.002042855709979,7.980925330392815,3.645333499235476,-6.47544875391759e-05,0.0914954170584678,0,0,0
553,20128.111861922185,2010-10-15 22:47:56,0.18766373075974,6,2,-1.9243103452026844e-05,4.190911293029785,1.994090414711931,1.002042856713099,7.980925330392815,3.645333503439463,0.0,0.0931989923119545,0,0,0
554,20132.939909497298,2010-10-15 22:48:01,5.015711290832536,6,2,0.0005225847125984,4.190749645233154,1.994091353996116,1.002042856795861,7.980929266708222,3.645333503786312,-3.23295607813634e-05,0.0931989923119545,0,0,0
555,20162.95462919955,2010-10-15 22:48:31,30.015176590502485,7,2,-1.0993878841400146,4.016236782073975,1.994091353996116,1.011210874435077,7.980929266708222,3.682348919430603,-0.0008741378551349,0.0931989923119545,0,0,0
556,20192.96974596595,2010-10-15 22:49:01,60.0302934220673,7,2,-1.099568486213684,3.989525556564331,1.994091353996116,1.020378801098993,7.980929266708222,3.719037039831953,-0.0005504131549969,0.0931989923119545,0,0,0
557,20222.984920546445,2010-10-15 22:49:31,90.04546799754773,7,2,-1.0997490882873535,3.9709086418151855,1.994091353996116,1.02954668321534,7.980929266708222,3.755523749580404,-0.0004856586456298,0.0931989923119545,0,0,0
558,20253.000094966537,2010-10-15 22:50:01,120.0606424226534,7,2,-1.0997490882873535,3.956986427307129,1.994091353996116,1.038714543555213,7.980929266708222,3.791863830587466,-0.0003237724304199,0.0931989923119545,0,0,0
559,20283.015289271192,2010-10-15 22:50:31,150.07583662705514,7,2,-1.0997490882873535,3.945330619812012,1.994091353996116,1.04788240020156,7.980929266708222,3.828086164057398,-0.0002913951757363,0.0931989923119545,0,0,0
560,20313.030564236877,2010-10-15 22:51:01,180.0911116980012,7,2,-1.099568486213684,3.934808015823364,1.994091353996116,1.057050254267118,7.980929266708222,3.864207162139687,-0.0002266406954731,0.0931989923119545,0,0,0
561,20343.04560755522,2010-10-15 22:51:31,210.10615489103617,7,2,-1.0997490882873535,3.925094842910767,1.994091353996116,1.066218048280545,7.980929266708222,3.900236127139309,-0.0002590179501567,0.0931989923119545,0,0,0
562,20373.06369037394,2010-10-15 22:52:01,240.12423785010333,7,2,-1.0997490882873535,3.9161911010742183,1.994091353996116,1.075386772763035,7.980929266708222,3.936183299402944,-0.0002590179501567,0.0931989923119545,0,0,0
563,20403.07609141692,2010-10-15 22:52:31,270.1366388579999,7,2,-1.099568486213684,3.90728759765625,1.994091353996116,1.084553757689783,7.980929266708222,3.972042099120082,-0.0002590179501567,0.0931989923119545,0,0,0
564,20433.091072630483,2010-10-15 22:53:01,300.1516199813381,7,2,-1.099568486213684,3.898869514465332,1.994091353996116,1.093721578666104,7.980929266708222,4.007825332025723,-0.0002590179501567,0.0931989923119545,0,0,0
565,20463.106450973817,2010-10-15 22:53:31,330.1669983246707,7,2,-1.099568486213684,3.890451431274414,1.994091353996116,1.102889518295863,7.980929266708222,4.043531974081815,-0.0002590179501567,0.0931989923119545,0,0,0
566,20493.1215228333,2010-10-15 22:54:01,360.1820702593387,7,2,-1.099568486213684,3.882357120513916,1.994091353996116,1.11205734213393,7.980929266708222,4.07916263870751,-0.0002590179501567,0.0931989923119545,0,0,0
567,20523.13669494263,2010-10-15 22:54:31,390.1972424037602,7,2,-1.0997490882873535,3.874262809753418,1.994091353996116,1.121225206935973,7.980929266708222,4.114719285226951,-0.0002266406954731,0.0931989923119545,0,0,0
568,20553.15186948804,2010-10-15 22:55:01,420.21241697422806,7,2,-1.0993878841400146,3.86649227142334,1.994091353996116,1.130392853977521,7.980929266708222,4.150202459005962,-0.0002266406954731,0.0931989923119545,0,0,0
569,20583.16702110129,2010-10-15 22:55:31,450.2275684671797,7,2,-1.099568486213684,3.858559846878052,1.994091353996116,1.139560093351479,7.980929266708222,4.185612119507463,-0.0002266406954731,0.0931989923119545,0,0,0
570,20613.182337610517,2010-10-15 22:56:01,480.24288496637774,7,2,-1.099568486213684,3.850951194763184,1.994091353996116,1.148727706826128,7.980929266708222,4.220951913826757,-0.0002266406954731,0.0931989923119545,0,0,0
571,20643.197526892647,2010-10-15 22:56:31,510.2580742434992,7,2,-1.099568486213684,3.843666315078736,1.994091353996116,1.157895711412916,7.980929266708222,4.25622363940446,-0.0001618862152099,0.0931989923119545,0,0,0
572,20673.21256081257,2010-10-15 22:57:01,540.2731081533976,7,2,-1.0997490882873535,3.836057662963867,1.994091353996116,1.167063680272106,7.980929266708222,4.291427143666109,-0.0002590179501567,0.0931989923119545,0,0,0
573,20703.227882048577,2010-10-15 22:57:31,570.2884294896511,7,2,-1.099568486213684,3.828934907913208,1.994091353996116,1.176231746993217,7.980929266708222,4.326563749114837,-0.0001618862152099,0.0931989923119545,0,0,0
574,20733.24291080061,2010-10-15 22:58:01,600.3034582617447,7,2,-1.099568486213684,3.8218119144439697,1.994091353996116,1.185399720897203,7.980929266708222,4.361634541495524,-0.0001618862152099,0.0931989923119545,0,0,0
575,20763.25810342107,2010-10-15 22:58:31,630.3186507618989,7,2,-1.0993878841400146,3.815012693405152,1.994091353996116,1.194567761015989,7.980929266708222,4.396641473730305,-0.0001942634553415,0.0931989923119545,0,0,0
576,20793.273250743627,2010-10-15 22:59:01,660.3337981095191,7,2,-1.0997490882873535,3.807889699935913,1.994091353996116,1.203735712962586,7.980929266708222,4.431583656955087,-0.0001618862152099,0.0931989923119545,0,0,0
577,20823.288425108585,2010-10-15 22:59:31,690.3489725195873,7,2,-1.099568486213684,3.801090478897095,1.994091353996116,1.212903720527071,7.980929266708222,4.46646271825048,-0.0001942634553415,0.0931989923119545,0,0,0
578,20853.30380852456,2010-10-15 23:00:01,720.3643558653876,7,2,-1.099568486213684,3.794291257858277,1.994091353996116,1.222071781745491,7.980929266708222,4.501280433163381,-0.0002266406954731,0.0931989923119545,0,0,0
579,20883.31909906907,2010-10-15 23:00:31,750.3796464399735,7,2,-1.099568486213684,3.787815809249878,1.994091353996116,1.231239756856631,7.980929266708222,4.536037128924907,-0.0001618862152099,0.0931989923119545,0,0,0
580,20913.33411219717,2010-10-15 23:01:01,780.3946596633148,7,2,-1.099568486213684,3.78134036064148,1.994091353996116,1.240407718960666,7.980929266708222,4.57073466686383,-0.0001942634553415,0.0931989923119545,0,0,0
581,20943.34913176132,2010-10-15 23:01:31,810.4096792124218,7,2,-1.0993878841400146,3.775350570678711,1.994091353996116,1.249575611417286,7.980929266708222,4.605374133840178,-0.0001618862152099,0.0931989923119545,0,0,0
582,20973.36430147468,2010-10-15 23:02:01,840.424848840572,7,2,-1.099568486213684,3.7690370082855225,1.994091353996116,1.258743604893958,7.980929266708222,4.63995705137658,-0.0001618862152099,0.0931989923119545,0,0,0
583,21003.379525338,2010-10-15 23:02:31,870.4400727089053,7,2,-1.0997490882873535,3.762885332107544,1.994091353996116,1.267911664087623,7.980929266708222,4.674484184986254,-0.0001942634553415,0.0931989923119545,0,0,0
584,21033.39465048028,2010-10-15 23:03:01,900.4551979363952,7,2,-1.0997490882873535,3.757057428359986,1.994091353996116,1.27707968978665,7.980929266708222,4.708956994547648,-0.0001942634553415,0.0931989923119545,0,0,0
585,21063.40982028387,2010-10-15 23:03:31,930.4703676397328,7,2,-1.099568486213684,3.751391649246216,1.994091353996116,1.286247696971423,7.980929266708222,4.743376455972221,-0.0001942634553415,0.0931989923119545,0,0,0
586,21093.42499133055,2010-10-15 23:04:01,960.4855386713808,7,2,-1.0997490882873535,3.745725631713867,1.994091353996116,1.295415729094797,7.980929266708222,4.777743378180897,-0.0001942634553415,0.0931989923119545,0,0,0
587,21123.4401977504,2010-10-15 23:04:31,990.5007451964898,7,2,-1.099568486213684,3.740059614181519,1.994091353996116,1.304583772968833,7.980929266708222,4.812058533836527,-0.0001295089750783,0.0931989923119545,0,0,0
588,21153.455374696787,2010-10-15 23:05:01,1020.515922047642,7,2,-1.099568486213684,3.73455548286438,1.994091353996116,1.313751849066738,7.980929266708222,4.846322847411575,-0.0001618862152099,0.0931989923119545,0,0,0
589,21183.470509177343,2010-10-15 23:05:31,1050.5310565131558,7,2,-1.0997490882873535,3.729051351547241,1.994091353996116,1.322919893417246,7.980929266708222,4.880537137086993,-0.0001618862152099,0.0931989923119545,0,0,0
590,21213.48566094597,2010-10-15 23:06:01,1080.5462082968322,7,2,-1.099568486213684,3.724032878875733,1.994091353996116,1.332087927069939,7.980929266708222,4.914702916737402,-0.0001295089750783,0.0931989923119545,0,0,0
591,21243.500850714325,2010-10-15 23:06:31,1110.5613980501405,7,2,-1.099568486213684,3.718690633773804,1.994091353996116,1.341255973043108,7.980929266708222,4.94882023756239,-0.0001618862152099,0.0931989923119545,0,0,0
592,21273.516062733124,2010-10-15 23:07:01,1140.5766101140537,7,2,-1.0993878841400146,3.713834047317505,1.994091353996116,1.350424067248417,7.980929266708222,4.982890443461181,-6.47544875391759e-05,0.0931989923119545,0,0,0
593,21303.531231333716,2010-10-15 23:07:31,1170.59177876978,7,2,-1.099568486213684,3.708653688430786,1.994091353996116,1.359592166606181,7.980929266708222,5.016914169069865,-0.0001295089750783,0.0931989923119545,0,0,0
594,21333.546541807897,2010-10-15 23:08:01,1200.6070891938373,7,2,-1.099568486213684,3.703635215759277,1.994091353996116,1.368760289188459,7.980929266708222,5.050892438980524,-0.0001295089750783,0.0931989923119545,0,0,0
595,21363.561714654064,2010-10-15 23:08:31,1230.622261994895,7,2,-1.099568486213684,3.6987786293029785,1.994091353996116,1.37792843906708,7.980929266708222,5.084825204680383,-0.0001295089750783,0.0931989923119545,0,0,0
596,21393.57674989729,2010-10-15 23:09:01,1260.6372972381166,7,2,-1.099568486213684,3.6937601566314697,1.994091353996116,1.387096441648119,7.980929266708222,5.118712637135462,-0.0001618862152099,0.0931989923119545,0,0,0
597,21423.59193542005,2010-10-15 23:09:31,1290.6524827608812,7,2,-1.0997490882873535,3.688903570175171,1.994091353996116,1.396264499273754,7.980929266708222,5.152556140011733,-0.0001942634553415,0.0931989923119545,0,0,0
598,21453.60710091791,2010-10-15 23:10:01,1320.6676482938246,7,2,-1.0997490882873535,3.684208869934082,1.994091353996116,1.405432518136849,7.980929266708222,5.186355647179428,-0.0001295089750783,0.0931989923119545,0,0,0
599,21483.62232452058,2010-10-15 23:10:31,1350.6828719015084,7,2,-1.099568486213684,3.679676055908203,1.994091353996116,1.414600620919248,7.980929266708222,5.2201122024189,-9.713172767078504e-05,0.0931989923119545,0,0,0
600,21513.637468720357,2010-10-15 23:11:01,1380.6980160712085,7,2,-1.099568486213684,3.675143241882324,1.994091353996116,1.423768656248383,7.980929266708222,5.253826200952456,-9.713172767078504e-05,0.0931989923119545,0,0,0
601,21543.65277817199,2010-10-15 23:11:31,1410.7133255428914,7,2,-1.099568486213684,3.670610666275024,1.994091353996116,1.432936802407261,7.980929266708222,5.287499013812006,-9.713172767078504e-05,0.0931989923119545,0,0,0
602,21573.667930236366,2010-10-15 23:12:01,1440.7284776172924,7,2,-1.099568486213684,3.666239738464356,1.994091353996116,1.442104854509964,7.980929266708222,5.321130398644631,-9.713172767078504e-05,0.0931989923119545,0,0,0
603,21603.68299578512,2010-10-15 23:12:31,1470.743543120932,7,2,-1.099568486213684,3.661706924438477,1.994091353996116,1.451272907805908,7.980929266708222,5.354721254470755,-0.0001295089750783,0.0931989923119545,0,0,0
604,21633.69814740839,2010-10-15 23:13:01,1500.7586947592465,7,2,-1.0997490882873535,3.6574978828430176,1.994091353996116,1.460441013567438,7.980929266708222,5.388272328925277,-6.47544875391759e-05,0.0931989923119545,0,0,0
605,21663.7134664389,2010-10-15 23:13:31,1530.7740137897529,7,2,-1.0997490882873535,3.6529650688171382,1.994091353996116,1.469609159856108,7.980929266708222,5.421784516556031,-0.0001618862152099,0.0931989923119545,0,0,0
606,21693.728494639567,2010-10-15 23:14:01,1560.7890419753849,7,2,-1.099568486213684,3.6489179134368896,1.994091353996116,1.478777216929139,7.980929266708222,5.45525769521043,-0.0001295089750783,0.0931989923119545,0,0,0
607,21723.74368233776,2010-10-15 23:14:32,1590.8042296785836,7,2,-1.0997490882873535,3.6448707580566406,1.994091353996116,1.487945345298897,7.980929266708222,5.488692593258962,-0.0001295089750783,0.0931989923119545,0,0,0
608,21753.75886818132,2010-10-15 23:15:02,1620.8194155421977,7,2,-1.099568486213684,3.6406617164611816,1.994091353996116,1.497113309970604,7.980929266708222,5.522089544574098,-0.0001295089750783,0.0931989923119545,0,0,0
609,21783.774141327467,2010-10-15 23:15:32,1650.8346886933589,7,2,-1.0997490882873535,3.636938333511353,1.994091353996116,1.506281359934083,7.980929266708222,5.555450510287256,-6.47544875391759e-05,0.0931989923119545,0,0,0
610,21813.7894008246,2010-10-15 23:16:02,1680.8499482456275,7,2,-1.099568486213684,3.6330530643463135,1.994091353996116,1.515449431212843,7.980929266708222,5.588775708392822,-6.47544875391759e-05,0.0931989923119545,0,0,0
611,21843.80437744171,2010-10-15 23:16:32,1710.8649247725098,7,2,-1.0997490882873535,3.629005908966065,1.994091353996116,1.52461739899188,7.980929266708222,5.622065276470716,-0.0001618862152099,0.0931989923119545,0,0,0
612,21873.81954547087,2010-10-15 23:17:02,1740.880092841775,7,2,-1.099568486213684,3.625444412231445,1.994091353996116,1.533785387625643,7.980929266708222,5.655320404896962,-9.713172767078504e-05,0.0931989923119545,0,0,0
613,21903.835961776127,2010-10-15 23:17:32,1770.896509167078,7,2,-1.099568486213684,3.621882915496826,1.994091353996116,1.542954101428672,7.980929266708222,5.688544670029708,-9.713172767078504e-05,0.0931989923119545,0,0,0
614,21933.8499013486,2010-10-15 23:18:02,1800.910448719501,7,2,-1.0997490882873535,3.618159532546997,1.994091353996116,1.552122591759952,7.980929266708222,5.721734930888044,-0.0001295089750783,0.0931989923119545,0,0,0
615,21963.865251050545,2010-10-15 23:18:32,1830.9257984515257,7,2,-1.0997490882873535,3.614759922027588,1.994091353996116,1.56129160657563,7.980929266708222,5.75489495290155,-9.713172767078504e-05,0.0931989923119545,0,0,0
616,21993.880241923183,2010-10-15 23:19:02,1860.9407892589995,7,2,-1.0997490882873535,3.6113603115081783,1.994091353996116,1.570460443800282,7.980929266708222,5.788023312574545,-9.713172767078504e-05,0.0931989923119545,0,0,0
617,22023.8955461518,2010-10-15 23:19:32,1890.9560935026527,7,2,-1.0993878841400146,3.60812258720398,1.994091353996116,1.579629126388968,7.980929266708222,5.821120583328404,-6.47544875391759e-05,0.0931989923119545,0,0,0
618,22053.91059963548,2010-10-15 23:20:02,1920.9711469763104,7,2,-1.099568486213684,3.6047229766845694,1.994091353996116,1.588797179953267,7.980929266708222,5.854186021061451,-0.0001295089750783,0.0931989923119545,0,0,0
619,22083.925863744105,2010-10-15 23:20:32,1950.98641113506,7,2,-1.099568486213684,3.601970911026001,1.994091353996116,1.597965298896742,7.980929266708222,5.887222449099702,-3.237724376958795e-05,0.0931989923119545,0,0,0
620,22113.940990124476,2010-10-15 23:21:02,1981.0015375003857,7,2,-1.0993878841400146,3.598895072937012,1.994091353996116,1.607133412981316,7.980929266708222,5.92023027950789,-9.713172767078504e-05,0.0931989923119545,0,0,0
621,22143.956135216467,2010-10-15 23:21:32,2011.0166826374968,7,2,-1.0997490882873535,3.5956573486328125,1.994091353996116,1.616301503274366,7.980929266708222,5.953210293959375,-9.713172767078504e-05,0.0931989923119545,0,0,0
622,22173.971435826064,2010-10-15 23:22:02,2041.031983206993,7,2,-1.0997490882873535,3.592743396759033,1.994091353996116,1.625469669963834,7.980929266708222,5.986163116568318,-9.713172767078504e-05,0.0931989923119545,0,0,0
623,22203.98647137004,2010-10-15 23:22:32,2071.047018740939,7,2,-1.099568486213684,3.589829683303833,1.994091353996116,1.634637744859536,7.980929266708222,6.01908848388251,-9.713172767078504e-05,0.0931989923119545,0,0,0
624,22234.00162738927,2010-10-15 23:23:02,2101.062174785234,7,2,-1.0997490882873535,3.586753845214844,1.994091353996116,1.643805922895366,7.980929266708222,6.051987305181261,-9.713172767078504e-05,0.0931989923119545,0,0,0
625,22264.016804235405,2010-10-15 23:23:32,2131.077351606312,7,2,-1.0997490882873535,3.5840017795562744,1.994091353996116,1.652974044899696,7.980929266708222,6.084859193802641,-0.0001618862152099,0.0931989923119545,0,0,0
626,22294.03490087357,2010-10-15 23:24:02,2161.095448339708,7,2,-1.0997490882873535,3.581087827682495,1.994091353996116,1.662142954992417,7.980929266708222,6.117707948374882,-9.713172767078504e-05,0.0931989923119545,0,0,0
627,22324.04721499492,2010-10-15 23:24:32,2191.1077623507817,7,2,-1.099568486213684,3.578497648239136,1.994091353996116,1.671310221642137,7.980929266708222,6.150524298321014,-3.237724376958795e-05,0.0931989923119545,0,0,0
628,22354.06233596179,2010-10-15 23:25:02,2221.122883302616,7,2,-1.099568486213684,3.5754218101501465,1.994091353996116,1.680478297875629,7.980929266708222,6.183317068992373,-3.237724376958795e-05,0.0931989923119545,0,0,0
629,22384.077532652387,2010-10-15 23:25:32,2251.138079993214,7,2,-1.0997490882873535,3.572507858276367,1.994091353996116,1.689646457617604,7.980929266708222,6.216083643492674,-6.47544875391759e-05,0.0931989923119545,0,0,0
630,22414.092704210343,2010-10-15 23:26:02,2281.1532515812487,7,2,-1.0997490882873535,3.569432020187378,1.994091353996116,1.698814613524118,7.980929266708222,6.248823597022676,-0.0001295089750783,0.0931989923119545,0,0,0
631,22444.108001225984,2010-10-15 23:26:32,2311.168548571825,7,2,-1.099568486213684,3.5668418407440186,1.994091353996116,1.707982822002272,7.980929266708222,6.281536955119105,-3.237724376958795e-05,0.0931989923119545,0,0,0
632,22474.123051752296,2010-10-15 23:27:02,2341.1835991031494,7,2,-1.0997490882873535,3.56360411643982,1.994091353996116,1.717150937096575,7.980929266708222,6.314223084534635,-9.713172767078504e-05,0.0931989923119545,0,0,0
633,22504.138205350497,2010-10-15 23:27:32,2371.1987527063607,7,2,-1.099568486213684,3.56085205078125,1.994091353996116,1.726318984700236,7.980929266708222,6.346882393066791,-9.713172767078504e-05,0.0931989923119545,0,0,0
634,22534.153526170463,2010-10-15 23:28:02,2401.214073551389,7,2,-1.099568486213684,3.5577762126922607,1.994091353996116,1.735487200492237,7.980929266708222,6.379515087424726,-9.713172767078504e-05,0.0931989923119545,0,0,0
635,22564.168695202123,2010-10-15 23:28:32,2431.229242542953,7,2,-1.099568486213684,3.5547003746032715,1.994091353996116,1.744655350940089,7.980929266708222,6.412119737416195,-9.713172767078504e-05,0.0931989923119545,0,0,0
636,22594.183744480328,2010-10-15 23:29:02,2461.244291826167,7,2,-1.099568486213684,3.5516245365142822,1.994091353996116,1.753823419928544,7.980929266708222,6.444695853393792,-9.713172767078504e-05,0.0931989923119545,0,0,0
637,22624.199030172746,2010-10-15 23:29:32,2491.2595775135724,7,2,-1.0997490882873535,3.548548698425293,1.994091353996116,1.76299162166708,7.980929266708222,6.477243645955704,-6.47544875391759e-05,0.0931989923119545,0,0,0
638,22654.214088262903,2010-10-15 23:30:02,2521.274635638823,7,2,-1.099568486213684,3.545149087905884,1.994091353996116,1.772159786701851,7.980929266708222,6.509761722488502,-6.47544875391759e-05,0.0931989923119545,0,0,0
639,22684.22927552501,2010-10-15 23:30:32,2551.289822885885,7,2,-1.099568486213684,3.541911363601685,1.994091353996116,1.781327881354934,7.980929266708222,6.542249302099961,-9.713172767078504e-05,0.0931989923119545,0,0,0
640,22714.24440906321,2010-10-15 23:31:02,2581.304956424088,7,2,-1.099568486213684,3.5385117530822754,1.994091353996116,1.790496011592627,7.980929266708222,6.574706224623188,-6.47544875391759e-05,0.0931989923119545,0,0,0
641,22744.259592195016,2010-10-15 23:31:32,2611.320139555893,7,2,-1.099568486213684,3.534950256347656,1.994091353996116,1.799664126409983,7.980929266708222,6.607131462539337,-9.713172767078504e-05,0.0931989923119545,0,0,0
642,22774.274988673544,2010-10-15 23:32:02,2641.335536104599,7,2,-1.099568486213684,3.531388759613037,1.994091353996116,1.808832244617732,7.980929266708222,6.63952390157182,-9.713172767078504e-05,0.0931989923119545,0,0,0
643,22804.29023486752,2010-10-15 23:32:32,2671.350782298575,7,2,-1.0997490882873535,3.527503490447998,1.994091353996116,1.818000351421918,7.980929266708222,6.671882456089644,-0.0001295089750783,0.0931989923119545,0,0,0
644,22834.30512477853,2010-10-15 23:33:02,2701.365672119359,7,2,-1.099568486213684,3.523456335067749,1.994091353996116,1.827168354806108,7.980929266708222,6.70420536917295,-0.0001618862152099,0.0931989923119545,0,0,0
645,22864.32028416616,2010-10-15 23:33:32,2731.3808315019746,7,2,-1.099568486213684,3.5194091796875,1.994091353996116,1.836336532535547,7.980929266708222,6.736491896656781,-0.0001295089750783,0.0931989923119545,0,0,0
646,22894.33545943336,2010-10-15 23:34:02,2761.396006799253,7,2,-1.099568486213684,3.515200138092041,1.994091353996116,1.845504738308589,7.980929266708222,6.768739729038596,-0.0001295089750783,0.0931989923119545,0,0,0
647,22924.35065891091,2010-10-15 23:34:32,2791.4112062517347,7,2,-1.0993878841400146,3.5105056762695312,1.994091353996116,1.854672955816175,7.980929266708222,6.800946483153569,-0.0001295089750783,0.0931989923119545,0,0,0
648,22954.365945325124,2010-10-15 23:35:02,2821.4264927010395,7,2,-1.099568486213684,3.5054872035980225,1.994091353996116,1.863841151488062,7.980929266708222,6.833109449219216,-0.0001618862152099,0.0931989923119545,0,0,0
649,22984.380987691096,2010-10-15 23:35:32,2851.441535021901,7,2,-1.099568486213684,3.5001449584960938,1.994091353996116,1.873009253757298,7.980929266708222,6.86522457922212,-0.0001618862152099,0.0931989923119545,0,0,0
650,23014.39618593557,2010-10-15 23:36:02,2881.456733301459,7,2,-1.0997490882873535,3.494155168533325,1.994091353996116,1.882177423745159,7.980929266708222,6.897287850605945,-0.0001618862152099,0.0931989923119545,0,0,0
651,23044.41137109743,2010-10-15 23:36:32,2911.471918453299,7,2,-1.099568486213684,3.487517833709717,1.994091353996116,1.891345606129303,7.980929266708222,6.929293265513151,-0.0001942634553415,0.0931989923119545,0,0,0
652,23074.426638639616,2010-10-15 23:37:02,2941.487186015531,7,2,-1.099568486213684,3.4799091815948486,1.994091353996116,1.900513787784524,7.980929266708222,6.961233499889575,-0.0002266406954731,0.0931989923119545,0,0,0
653,23104.441697832528,2010-10-15 23:37:32,2971.5022451633304,7,2,-1.0993878841400146,3.4714910984039307,1.994091353996116,1.909681894919747,7.980929266708222,6.993099470499952,-0.0002266406954731,0.0931989923119545,0,0,0
654,23134.457011885628,2010-10-15 23:38:02,3001.5175592414944,7,2,-1.099568486213684,3.461616039276123,1.994091353996116,1.918850072726276,7.980929266708222,7.024881549080119,-0.0002590179501567,0.0931989923119545,0,0,0
655,23164.47207505846,2010-10-15 23:38:32,3031.532622519587,7,2,-1.0993878841400146,3.449960231781006,1.994091353996116,1.928018240413449,7.980929266708222,7.0565660230812,-0.0003237724304199,0.0931989923119545,0,0,0
656,23194.487350515366,2010-10-15 23:39:02,3061.5478978662204,7,2,-1.0997490882873535,3.436199903488159,1.994091353996116,1.937186367023629,7.980929266708222,7.088134075790589,-0.0003885269106831,0.0931989923119545,0,0,0
657,23224.50253200809,2010-10-15 23:39:32,3091.563079373978,7,2,-1.0997490882873535,3.4187164306640625,1.994091353996116,1.946354535336828,7.980929266708222,7.119560837692959,-0.0005180359003134,0.0931989923119545,0,0,0
658,23254.51768558624,2010-10-15 23:40:02,3121.5782329471144,7,2,-1.0997490882873535,3.3968617916107178,1.994091353996116,1.955522707451585,7.980929266708222,7.150809146630859,-0.0006475448608398,0.0931989923119545,0,0,0
659,23284.53288766025,2010-10-15 23:40:32,3151.593435036167,7,2,-1.0993878841400146,3.366750955581665,1.994091353996116,1.964690920725712,7.980929266708222,7.18182235905045,-0.0009713172912597,0.0931989923119545,0,0,0
660,23314.547971875527,2010-10-15 23:41:02,3181.608519356704,7,2,-1.0997490882873535,3.3244988918304443,1.994091353996116,1.973859082960563,7.980929266708222,7.212508148034479,-0.0013274669181555,0.0931989923119545,0,0,0
661,23344.563086436432,2010-10-15 23:41:32,3211.623633792298,7,2,-1.0997490882873535,3.263144254684448,1.994091353996116,1.983027194307911,7.980929266708222,7.242724810432763,-0.0019425868522375,0.0931989923119545,0,0,0
662,23374.578267909103,2010-10-15 23:42:02,3241.638815280005,7,2,-1.0997490882873535,3.172811985015869,1.994091353996116,1.992195345905182,7.980929266708222,7.27225700335543,-0.0028491974808275,0.0931989923119545,0,0,0
663,23404.59358714011,2010-10-15 23:42:32,3271.6541345160244,7,2,-1.0997490882873535,3.028248071670532,1.994091353996116,2.001363548116585,7.980929266708222,7.300743400597272,-0.0049212933517992,0.0931989923119545,0,0,0
664,23425.78080036461,2010-10-15 23:42:54,3292.8413477104477,7,2,-1.099568486213684,2.827833414077759,1.994091353996116,2.007835218729296,7.980929266708222,7.319772468221764,-0.0100368978455662,0.0931989923119545,0,0,0
665,23434.40566025425,2010-10-15 23:43:02,3301.466207605108,7,2,-1.0997490882873535,2.699781894683838,1.994091353996116,2.010469712069074,7.980929266708222,7.32705886743206,-0.0124004362151026,0.0931989923119545,0,0,0
666,23494.42054576649,2010-10-15 23:44:02,60.01462873584935,8,2,0.0,3.330003023147583,1.994091353996116,2.010469712069074,7.980929266708222,7.32705886743206,0.0013274669181555,0.0931989923119545,0,0,0
667,23494.60927645559,2010-10-15 23:44:03,0.187440208673926,9,2,-1.9243103452026844e-05,3.330326795578003,1.994091353996116,2.010469713071,7.980929266708222,7.327058870768799,0.0,0.0907677188515663,0,0,0
668,23499.43745204476,2010-10-15 23:44:07,5.015615802847096,9,2,0.0007031940040178,3.338259220123291,1.994092189774387,2.01046971323796,7.98093205391803,7.32705887132483,0.0011655807029455,0.0907677188515663,0,0,0
