Data_Point,Test_Time(s),Date_Time,Step_Time(s),Step_Index,Cycle_Index,Current(A),Voltage(V),Charge_Capacity(Ah),Discharge_Capacity(Ah),Charge_Energy(Wh),Discharge_Energy(Wh),dV/dt(V/s),Internal_Resistance(Ohm),Is_FC_Data,AC_Impedance(Ohm),ACI_Phase_Angle(Deg)
6763,233664.56900840948,2010-10-18 10:07:15,30.015179557898147,1,21,0.0,3.415802478790283,20.11096556453609,20.11619466281957,80.22713955511907,73.5177849697432,0.0007770538213662,0.0915781408548355,0,0,0
6764,233694.58416057407,2010-10-18 10:07:45,60.03033180773621,1,21,0.0,3.440247058868408,20.11096556453609,20.11619466281957,80.22713955511907,73.5177849697432,0.0005504131549969,0.0915781408548355,0,0,0
6765,233724.59925219783,2010-10-18 10:08:15,90.0454233412505,1,21,0.0,3.459025859832764,20.11096556453609,20.11619466281957,80.22713955511907,73.5177849697432,0.0004532813909463,0.0915781408548355,0,0,0
6766,233754.56752637308,2010-10-18 10:08:45,120.0136974914402,1,21,0.0,3.47375750541687,20.11096556453609,20.11619466281957,80.22713955511907,73.5177849697432,0.0003885269106831,0.0915781408548355,0,0,0
6767,233784.59004296293,2010-10-18 10:09:15,30.01514365341312,2,21,0.550297200679779,3.626577615737915,20.115552749232865,20.11619466281957,80.24362196289577,73.5177849697432,0.0014893531333655,0.0915781408548355,0,0,0
6768,233814.6081147793,2010-10-18 10:09:45,60.03321543462167,2,21,0.5501165986061096,3.670286893844605,20.12014041113127,20.11619466281957,80.2603665103853,73.5177849697432,0.0009713172912597,0.0915781408548355,0,0,0
6769,233844.62036332217,2010-10-18 10:10:15,90.04546398755359,2,21,0.5501165986061096,3.701692581176758,20.12472702960862,20.11619466281957,80.27727640271873,73.5177849697432,0.0007446765666827,0.0915781408548355,0,0,0
6770,233874.63551258456,2010-10-18 10:10:45,120.06061328503348,2,21,0.5501165986061096,3.725975513458252,20.129314166003983,20.11619466281957,80.29431435179042,73.5177849697432,0.0005827903514727,0.0915781408548355,0,0,0
6771,233904.6506367043,2010-10-18 10:11:15,150.07573739473767,2,21,0.5501165986061096,3.7454018592834473,20.13390121237009,20.11619466281957,80.31145178156838,73.5177849697432,0.0004856586456298,0.0915781408548355,0,0,0
6772,233934.6657830043,2010-10-18 10:11:45,180.09088366968444,2,21,0.550297200679779,3.760942697525024,20.13848828968427,20.11619466281957,80.3286692143505,73.5177849697432,0.0003885269106831,0.0915781408548355,0,0,0
6773,233964.68094130425,2010-10-18 10:12:15,210.1060419696012,2,21,0.550297200679779,3.771303415298462,20.143075426998152,20.11619466281957,80.34594662926858,73.5177849697432,0.0002266406954731,0.0915781408548355,0,0,0
6774,233994.69607678225,2010-10-18 10:12:45,240.12117744763876,2,21,0.5499359965324402,3.7776169776916495,20.14766246866712,20.11619466281957,80.36326139045343,73.5177849697432,0.0001618862152099,0.0915781408548355,0,0,0
6775,234024.7112259394,2010-10-18 10:13:15,270.1363266097813,2,21,0.5501165986061096,3.7819879055023193,20.152249533421852,20.11619466281957,80.38060015049903,73.5177849697432,0.0001295089750783,0.0915781408548355,0,0,0
6776,234054.7265043888,2010-10-18 10:13:45,300.1516050591474,2,21,0.5501165986061096,3.7858731746673584,20.1568365893878,20.11619466281957,80.39795744310511,73.5177849697432,0.0001295089750783,0.0915781408548355,0,0,0
6777,234084.7415401232,2010-10-18 10:14:15,330.1666407935933,2,21,0.5499359965324402,3.7894346714019775,20.161423618320587,20.11619466281957,80.41533188992896,73.5177849697432,3.237724376958795e-05,0.0915781408548355,0,0,0
6778,234114.7566736263,2010-10-18 10:14:45,360.1817743217712,2,21,0.5501165986061096,3.7933199405670166,20.166010763811823,20.11619466281957,80.43272376416469,73.5177849697432,0.0001295089750783,0.0915781408548355,0,0,0
6779,234144.77180983612,2010-10-18 10:15:15,390.1969105065703,2,21,0.550297200679779,3.796719551086426,20.170597828464416,20.11619466281957,80.45013203393071,73.5177849697432,6.47544875391759e-05,0.0915781408548355,0,0,0
6780,234174.78696244693,2010-10-18 10:15:45,420.21206311229525,2,21,0.550297200679779,3.800442934036255,20.17518491301855,20.11619466281957,80.46755674382217,73.5177849697432,9.713172767078504e-05,0.0915781408548355,0,0,0
6781,234204.80224448023,2010-10-18 10:16:15,450.2273451606311,2,21,0.5501165986061096,3.803842544555664,20.17977203774253,20.11619466281957,80.48499758232461,73.5177849697432,6.47544875391759e-05,0.0915781408548355,0,0,0
6782,234234.8172566309,2010-10-18 10:16:45,480.2423572962615,2,21,0.550297200679779,3.807404041290283,20.18435909034013,20.11619466281957,80.50245382130772,73.5177849697432,9.713172767078504e-05,0.0915781408548355,0,0,0
6783,234264.8323985099,2010-10-18 10:17:15,510.25749918026463,2,21,0.550297200679779,3.810479879379273,20.188946166854667,20.11619466281957,80.51992566445533,73.5177849697432,6.47544875391759e-05,0.0915781408548355,0,0,0
6784,234294.84776249743,2010-10-18 10:17:45,540.2728631628058,2,21,0.550297200679779,3.8138794898986816,20.19353338035537,20.11619466281957,80.53741328230848,73.5177849697432,6.47544875391759e-05,0.0915781408548355,0,0,0
6785,234324.862938712,2010-10-18 10:18:15,570.2880393974212,2,21,0.550297200679779,3.817279100418091,20.198120490893945,20.11619466281957,80.55491586660833,73.5177849697432,6.47544875391759e-05,0.0915781408548355,0,0,0
6786,234354.87784609155,2010-10-18 10:18:45,600.3029467569173,2,21,0.550297200679779,3.8206787109375,20.202707484453946,20.11619466281957,80.57243295132751,73.5177849697432,0.0001295089750783,0.0915781408548355,0,0,0
6787,234384.89300799544,2010-10-18 10:19:15,630.3181086658287,2,21,0.5501165986061096,3.823754549026489,20.20729455917157,20.11619466281957,80.58996513687939,73.5177849697432,9.713172767078504e-05,0.0915781408548355,0,0,0
6788,234414.9081865759,2010-10-18 10:19:45,660.3332872713531,2,21,0.5499359965324402,3.8268303871154794,20.211881568114013,20.11619466281957,80.60751190192995,73.5177849697432,9.713172767078504e-05,0.0915781408548355,0,0,0
6789,234444.9233311867,2010-10-18 10:20:15,690.3484318871649,2,21,0.5501165986061096,3.8300681114196777,20.216468677618412,20.11619466281957,80.62507400242583,73.5177849697432,3.237724376958795e-05,0.0915781408548355,0,0,0
6790,234474.93843188303,2010-10-18 10:20:45,720.3635325484285,2,21,0.550297200679779,3.833467483520508,20.22105577366768,20.11619466281957,80.64265092697573,73.5177849697432,9.70840483205393e-05,0.0915781408548355,0,0,0
6791,234504.95360326057,2010-10-18 10:21:15,750.3787039560134,2,21,0.5501165986061096,3.836867094039917,20.22564289648319,20.11619466281957,80.66024312429674,73.5177849697432,3.237724376958795e-05,0.0915781408548355,0,0,0
6792,234534.96873177623,2010-10-18 10:21:45,780.3938324416239,2,21,0.5499359965324402,3.840104818344116,20.230229987861723,20.11619466281957,80.677850632631,73.5177849697432,9.713172767078504e-05,0.0915781408548355,0,0,0
6793,234564.9838912591,2010-10-18 10:22:15,810.4089919295013,2,21,0.550297200679779,3.843504428863525,20.23481709200898,20.11619466281957,80.69547373866023,73.5177849697432,6.47544875391759e-05,0.0915781408548355,0,0,0
6794,234594.99903400024,2010-10-18 10:22:45,840.4241346656281,2,21,0.5501165986061096,3.846904039382935,20.23940411480688,20.11619466281957,80.71311214876809,73.5177849697432,3.237724376958795e-05,0.0915781408548355,0,0,0
6795,234625.01418799444,2010-10-18 10:23:15,870.4392886648262,2,21,0.5501165986061096,3.850303649902344,20.243991135832523,20.11619466281957,80.73076608431222,73.5177849697432,6.47544875391759e-05,0.0915781408548355,0,0,0
6796,234655.02951999728,2010-10-18 10:23:45,900.4546207729264,2,21,0.5501165986061096,3.853703260421753,20.248578261466577,20.11619466281957,80.748435698852,73.5177849697432,6.47544875391759e-05,0.0915781408548355,0,0,0
6797,234685.0446104431,2010-10-18 10:24:15,930.4697111134676,2,21,0.550297200679779,3.857102870941162,20.25316532516869,20.11619466281957,80.7661201209274,73.5177849697432,0.0001942634553415,0.0915781408548355,0,0,0
6798,234715.05962665388,2010-10-18 10:24:45,960.4847273443044,2,21,0.5501165986061096,3.860178709030152,20.25775243199712,20.11619466281957,80.7838195462196,73.5177849697432,9.713172767078504e-05,0.0915781408548355,0,0,0
6799,234745.07478469316,2010-10-18 10:25:15,990.4998853635216,2,21,0.5501165986061096,3.8632545471191406,20.26233949640195,20.11619466281957,80.80153336070272,73.5177849697432,9.713172767078504e-05,0.0915781408548355,0,0,0
6800,234775.09002968916,2010-10-18 10:25:45,1020.5151303795614,2,21,0.5501165986061096,3.86633038520813,20.266926609987287,20.11619466281957,80.81926153995008,73.5177849697432,6.47544875391759e-05,0.0915781408548355,0,0,0
6801,234805.10522621937,2010-10-18 10:26:15,1050.5303269197848,2,21,0.5501165986061096,3.869406223297119,20.27151365316056,20.11619466281957,80.8370032975027,73.5177849697432,9.713172767078504e-05,0.0915781408548355,0,0,0
6802,234835.1202008264,2010-10-18 10:26:45,1080.5453015218698,2,21,0.550297200679779,3.872158288955689,20.27610065545373,20.11619466281957,80.85475832848681,73.5177849697432,9.713172767078504e-05,0.0915781408548355,0,0,0
6803,234865.1353402744,2010-10-18 10:27:15,1110.5604409447392,2,21,0.550297200679779,3.874910354614258,20.280687692738265,20.11619466281957,80.87252636924148,73.5177849697432,0.0001295089750783,0.0915781408548355,0,0,0
6804,234895.15061198192,2010-10-18 10:27:45,1140.5757126372653,2,21,0.550297200679779,3.877662420272827,20.28527481268534,20.11619466281957,80.89030711611542,73.5177849697432,9.713172767078504e-05,0.0915781408548355,0,0,0
6805,234925.16570557057,2010-10-18 10:28:15,1170.5908062660014,2,21,0.550297200679779,3.880090713500977,20.289861904697883,20.11619466281957,80.90809958406534,73.5177849697432,9.713172767078504e-05,0.0915781408548355,0,0,0
6806,234955.18080110903,2010-10-18 10:28:45,1200.6059017994849,2,21,0.550297200679779,3.882519006729126,20.29444902522786,20.11619466281957,80.92590339593951,73.5177849697432,6.47544875391759e-05,0.0915781408548355,0,0,0
6807,234985.19593172,2010-10-18 10:29:15,1230.6210323903422,2,21,0.550297200679779,3.8847854137420654,20.299036118019085,20.11619466281957,80.94371769754228,73.5177849697432,6.47544875391759e-05,0.0915781408548355,0,0,0
6808,235015.211203222,2010-10-18 10:29:45,1260.6363039224684,2,21,0.5501165986061096,3.886728048324585,20.303623271720102,20.11619466281957,80.96154214653849,73.5177849697432,3.237724376958795e-05,0.0915781408548355,0,0,0
6809,235045.22633625395,2010-10-18 10:30:15,1290.6514370496468,2,21,0.5501165986061096,3.888670682907105,20.30821031713709,20.11619466281957,80.97937546446053,73.5177849697432,3.237724376958795e-05,0.0915781408548355,0,0,0
6810,235075.24150537583,2010-10-18 10:30:45,1320.6666060612604,2,21,0.5501165986061096,3.890613317489624,20.312797467179607,20.11619466281957,80.99721791378508,73.5177849697432,6.47544875391759e-05,0.0915781408548355,0,0,0
6811,235105.25649328108,2010-10-18 10:31:15,1350.681593976526,2,21,0.5501165986061096,3.892232179641724,20.317384524783176,20.11619466281957,81.01506812557274,73.5177849697432,3.237724376958795e-05,0.0915781408548355,0,0,0
6812,235135.2717852592,2010-10-18 10:31:45,1380.6968859295475,2,21,0.5504778623580933,3.894174814224243,20.321971614947216,20.11619466281957,81.03292601288142,73.5177849697432,0.0001295089750783,0.0915781408548355,0,0,0
6813,235165.2868165876,2010-10-18 10:32:16,1410.7119172429748,2,21,0.5501165986061096,3.895146131515503,20.326558791284967,20.11619466281957,81.05079110388105,73.5177849697432,3.237724376958795e-05,0.0915781408548355,0,0,0
6814,235195.3019769928,2010-10-18 10:32:46,1440.727077663176,2,21,0.5501165986061096,3.8966031074523926,20.3311458877876,20.11619466281957,81.06866232897528,73.5177849697432,6.47544875391759e-05,0.0915781408548355,0,0,0
6815,235225.3172527605,2010-10-18 10:33:16,1470.7423534308584,2,21,0.550297200679779,3.898221969604492,20.33573300887557,20.11619466281957,81.08653998394215,73.5177849697432,6.47544875391759e-05,0.0915781408548355,0,0,0
6816,235255.33246152115,2010-10-18 10:33:46,1500.7575621865265,2,21,0.5501165986061096,3.899193286895752,20.3403200950402,20.11619466281957,81.10442352799996,73.5177849697432,3.237724376958795e-05,0.0915781408548355,0,0,0
6817,235285.3474593261,2010-10-18 10:34:16,1530.7725600114902,2,21,0.5501165986061096,3.9006502628326416,20.34490721504248,20.11619466281957,81.12231297678295,73.5177849697432,6.47544875391759e-05,0.0915781408548355,0,0,0
6818,235315.3626976905,2010-10-18 10:34:46,1560.7877983609148,2,21,0.550297200679779,3.901945352554321,20.34949436468848,20.11619466281957,81.14020826226235,73.5177849697432,3.237724376958795e-05,0.0915781408548355,0,0,0
6819,235345.3777500564,2010-10-18 10:35:16,1590.8028507117738,2,21,0.5501165986061096,3.903078556060791,20.3540813922161,20.11619466281957,81.15810869607124,73.5177849697432,6.47544875391759e-05,0.0915781408548355,0,0,0
6820,235375.3929879497,2010-10-18 10:35:46,1620.8180886200992,2,21,0.5501165986061096,3.904373645782471,20.35866851812037,20.11619466281957,81.17601511861834,73.5177849697432,6.47544875391759e-05,0.0915781408548355,0,0,0
6821,235405.40803030063,2010-10-18 10:36:16,1650.8331310011104,2,21,0.550297200679779,3.9053449630737305,20.36325565550568,20.11619466281957,81.19392715354616,73.5177849697432,3.237724376958795e-05,0.0915781408548355,0,0,0
6822,235435.423167904,2010-10-18 10:36:46,1680.8482685994325,2,21,0.5501165986061096,3.90664005279541,20.36784278877933,20.11619466281957,81.21184471352956,73.5177849697432,0.0,0.0915781408548355,0,0,0
6823,235465.43830533687,2010-10-18 10:37:16,1710.8634060072795,2,21,0.5501165986061096,3.90793514251709,20.37242986949857,20.11619466281957,81.22976772952535,73.5177849697432,6.47544875391759e-05,0.0915781408548355,0,0,0
6824,235495.45345040385,2010-10-18 10:37:46,1740.8785510692032,2,21,0.550297200679779,3.9092302322387695,20.37701698210057,20.11619466281957,81.2476965152097,73.5177849697432,3.237724376958795e-05,0.0915781408548355,0,0,0
6825,235525.46861095936,2010-10-18 10:38:16,1770.893711629754,2,21,0.5501165986061096,3.9103634357452393,20.38160415275635,20.11619466281957,81.26563123525717,73.5177849697432,3.237724376958795e-05,0.0915781408548355,0,0,0
6826,235555.48378116896,2010-10-18 10:38:46,1800.9088818343407,2,21,0.5501165986061096,3.911496639251709,20.38619125897297,20.11619466281957,81.28357130857985,73.5177849697432,0.0,0.0915781408548355,0,0,0
6827,235585.49890574985,2010-10-18 10:39:16,1830.9240064503067,2,21,0.550297200679779,3.912953615188599,20.390778357792417,20.11619466281957,81.30151719734192,73.5177849697432,3.237724376958795e-05,0.0915781408548355,0,0,0
6828,235615.51406815,2010-10-18 10:39:46,1860.9391688203675,2,21,0.5501165986061096,3.914248466491699,20.3953654686288,20.11619466281957,81.31946896101799,73.5177849697432,6.47544875391759e-05,0.0915781408548355,0,0,0
6829,235645.52920515183,2010-10-18 10:40:16,1890.9543058472657,2,21,0.5501165986061096,3.915381669998169,20.399952580161525,20.11619466281957,81.33742662849427,73.5177849697432,3.237724376958795e-05,0.0915781408548355,0,0,0
6830,235675.5443302339,2010-10-18 10:40:46,1920.9694308993185,2,21,0.5501165986061096,3.9166767597198486,20.40453978376733,20.11619466281957,81.35539035296583,73.5177849697432,3.237724376958795e-05,0.0915781408548355,0,0,0
6831,235705.5594804086,2010-10-18 10:41:16,1950.9845810789968,2,21,0.5501165986061096,3.917971849441528,20.40912683300869,20.11619466281957,81.3733594506581,73.5177849697432,3.237724376958795e-05,0.0915781408548355,0,0,0
6832,235735.57754435024,2010-10-18 10:41:46,1981.002645120917,2,21,0.5501165986061096,3.919266939163208,20.41371440023192,20.11619466281957,81.39133656393761,73.5177849697432,0.0,0.0915781408548355,0,0,0
6833,235765.5898463364,2010-10-18 10:42:16,2011.0149470368456,2,21,0.550297200679779,3.9207239151000977,20.418301066081828,20.11619466281957,81.4093162250435,73.5177849697432,6.47544875391759e-05,0.0915781408548355,0,0,0
6834,235795.6049317296,2010-10-18 10:42:46,2041.0300323949689,2,21,0.550297200679779,3.922019004821777,20.422888200876656,20.11619466281957,81.4273037950181,73.5177849697432,6.47544875391759e-05,0.0915781408548355,0,0,0
6835,235825.6200791624,2010-10-18 10:43:16,2071.045179832814,2,21,0.5501165986061096,3.923314094543457,20.427475306617712,20.11619466281957,81.44529743839226,73.5177849697432,0.0,0.0915781408548355,0,0,0
6836,235855.6352254524,2010-10-18 10:43:46,2101.0603261177857,2,21,0.5501165986061096,3.9246091842651367,20.4320624248978,20.11619466281957,81.46329729491826,73.5177849697432,3.237724376958795e-05,0.0915781408548355,0,0,0
6837,235885.65038418345,2010-10-18 10:44:16,2131.075484838752,2,21,0.5501165986061096,3.9260661602020255,20.436649584808155,20.11619466281957,81.48130361833779,73.5177849697432,3.237724376958795e-05,0.0915781408548355,0,0,0
6838,235915.66552122036,2010-10-18 10:44:46,2161.0906218857,2,21,0.5501165986061096,3.927523136138916,20.44123672965105,20.11619466281957,81.4993160811717,73.5177849697432,3.237724376958795e-05,0.0915781408548355,0,0,0
6839,235945.6807035451,2010-10-18 10:45:16,2191.1058042004693,2,21,0.5501165986061096,3.9286563396453857,20.445823826649303,20.11619466281957,81.51733482247616,73.5177849697432,3.237724376958795e-05,0.0915781408548355,0,0,0
6840,235975.69596604977,2010-10-18 10:45:46,2221.121066720133,2,21,0.5501165986061096,3.930275201797485,20.45041096811978,20.11619466281957,81.53536017124651,73.5177849697432,6.47544875391759e-05,0.0915781408548355,0,0,0
6841,236005.71098271164,2010-10-18 10:46:16,2251.1360833820445,2,21,0.5501165986061096,3.931732177734375,20.45499810156256,20.11619466281957,81.55339190927596,73.5177849697432,3.237724376958795e-05,0.0915781408548355,0,0,0
6842,236035.72612451043,2010-10-18 10:46:46,2281.1512252008856,2,21,0.5501165986061096,3.933027267456055,20.45958523736402,20.11619466281957,81.57143014550805,73.5177849697432,0.0,0.0915781408548355,0,0,0
6843,236065.7412433821,2010-10-18 10:47:16,2311.166344077547,2,21,0.5501165986061096,3.9343223571777344,20.464172375345196,20.11619466281957,81.58947494625683,73.5177849697432,0.0,0.0915781408548355,0,0,0
6844,236095.7563915568,2010-10-18 10:47:46,2341.181492247216,2,21,0.5501165986061096,3.935941219329834,20.46875949417336,20.11619466281957,81.607526412702,73.5177849697432,3.237724376958795e-05,0.0915781408548355,0,0,0
6845,236125.7715947436,2010-10-18 10:48:16,2371.1966954139543,2,21,0.5501165986061096,3.937398195266724,20.473346621877543,20.11619466281957,81.62558448982132,73.5177849697432,6.47544875391759e-05,0.0915781408548355,0,0,0
6846,236155.78673039703,2010-10-18 10:48:46,2401.211831092492,2,21,0.550297200679779,3.938855171203613,20.47793369533468,20.11619466281957,81.64364926420097,73.5177849697432,3.237724376958795e-05,0.0915781408548355,0,0,0
6847,236185.8018981956,2010-10-18 10:49:16,2431.226998881057,2,21,0.5499359965324402,3.940312147140503,20.48252080530291,20.11619466281957,81.66172099608798,73.5177849697432,3.237724376958795e-05,0.0915781408548355,0,0,0
6848,236215.8172406896,2010-10-18 10:49:46,2461.242341360005,2,21,0.550297200679779,3.9419310092926025,20.48710791086568,20.11619466281957,81.67979959340269,73.5177849697432,6.47544875391759e-05,0.0915781408548355,0,0,0
6849,236245.83241916983,2010-10-18 10:50:16,2491.257519850242,2,21,0.550297200679779,3.943549871444702,20.49169500812074,20.11619466281957,81.69788513872905,73.5177849697432,6.47544875391759e-05,0.0915781408548355,0,0,0
6850,236275.8473985037,2010-10-18 10:50:46,2521.2724992843705,2,21,0.5501165986061096,3.945006847381592,20.496282082764104,20.11619466281957,81.71597758269014,73.5177849697432,3.237724376958795e-05,0.0915781408548355,0,0,0
6851,236305.8624905485,2010-10-18 10:51:16,2551.2875912038467,2,21,0.5501165986061096,3.946301937103272,20.500869109490104,20.11619466281957,81.73407692566379,73.5177849697432,-3.237724376958795e-05,0.0915781408548355,0,0,0
6852,236335.87774350937,2010-10-18 10:51:46,2581.302844164687,2,21,0.550297200679779,3.948244571685791,20.505456237822347,20.11619466281957,81.75218362153431,73.5177849697432,3.237724376958795e-05,0.0915781408548355,0,0,0
6853,236365.89278705823,2010-10-18 10:52:16,2611.3178877136093,2,21,0.5501165986061096,3.949539661407471,20.51004336310953,20.11619466281957,81.77029753864683,73.5177849697432,3.237724376958795e-05,0.0915781408548355,0,0,0
6854,236395.9079441201,2010-10-18 10:52:46,2641.333044770428,2,21,0.5501165986061096,3.9511585235595694,20.51463046286813,20.11619466281957,81.7884185764712,73.5177849697432,3.237724376958795e-05,0.0915781408548355,0,0,0
6855,236425.92306865583,2010-10-18 10:53:16,2671.348169326244,2,21,0.5501165986061096,3.95277738571167,20.51921760041851,20.11619466281957,81.80654699710955,73.5177849697432,0.0,0.0915781408548355,0,0,0
6856,236455.93817372312,2010-10-18 10:53:46,2701.363274378451,2,21,0.5499359965324402,3.95423436164856,20.523804673855004,20.11619466281957,81.82468244797546,73.5177849697432,0.0,0.0915781408548355,0,0,0
6857,236485.95334287005,2010-10-18 10:54:16,2731.3784435404395,2,21,0.5501165986061096,3.956015110015869,20.52839183867108,20.11619466281957,81.84282564070949,73.5177849697432,6.47544875391759e-05,0.0915781408548355,0,0,0
6858,236515.96848733549,2010-10-18 10:54:46,2761.393588000864,2,21,0.550297200679779,3.957472085952759,20.532979025637392,20.11619466281957,81.86097624589297,73.5177849697432,3.237724376958795e-05,0.0915781408548355,0,0,0
6859,236545.98363004657,2010-10-18 10:55:16,2791.4087307169407,2,21,0.5504778623580933,3.9594147205352783,20.53756613716555,20.11619466281957,81.87913395098109,73.5177849697432,6.47544875391759e-05,0.0915781408548355,0,0,0
6860,236575.99878329888,2010-10-18 10:55:46,2821.423883964265,2,21,0.550297200679779,3.960871696472168,20.542153317328832,20.11619466281957,81.89729933520633,73.5177849697432,3.237724376958795e-05,0.0915781408548355,0,0,0
6861,236606.0139853829,2010-10-18 10:56:16,2851.4390860533176,2,21,0.5501165986061096,3.962490558624268,20.54674056570641,20.11619466281957,81.91547250879194,73.5177849697432,3.237724376958795e-05,0.0915781408548355,0,0,0
6862,236636.02908419457,2010-10-18 10:56:46,2881.4541848850213,2,21,0.5501165986061096,3.964109420776367,20.551327740001835,20.11619466281957,81.93365297821886,73.5177849697432,3.237724376958795e-05,0.0915781408548355,0,0,0
6863,236666.0445931384,2010-10-18 10:57:16,2911.469693793763,2,21,0.550297200679779,3.9658901691436768,20.55591497647994,20.11619466281957,81.9518413669036,73.5177849697432,6.47544875391759e-05,0.0915781408548355,0,0,0
6864,236696.0594953701,2010-10-18 10:57:46,2941.484596020466,2,21,0.5501165986061096,3.9673471450805664,20.560502157563445,20.11619466281957,81.97003731526983,73.5177849697432,0.0,0.0915781408548355,0,0,0
6865,236726.07453994665,2010-10-18 10:58:16,2971.499640601962,2,21,0.550297200679779,3.969289779663086,20.565089348449384,20.11619466281957,81.98824101745596,73.5177849697432,3.237724376958795e-05,0.0915781408548355,0,0,0
6866,236756.08967062263,2010-10-18 10:58:46,3001.5147712730186,2,21,0.5501165986061096,3.9709086418151855,20.569676553872387,20.11619466281957,82.00645265938061,73.5177849697432,3.237724376958795e-05,0.0915781408548355,0,0,0
6867,236786.1048109879,2010-10-18 10:59:16,3031.5299116382366,2,21,0.550297200679779,3.972527503967285,20.57426372470281,20.11619466281957,82.02467208837271,73.5177849697432,3.237724376958795e-05,0.0915781408548355,0,0,0
6868,236816.12011519147,2010-10-18 10:59:46,3061.5452158468024,2,21,0.5501165986061096,3.9743082523345943,20.578851000648108,20.11619466281957,82.04289992245583,73.5177849697432,3.237724376958795e-05,0.0915781408548355,0,0,0
6869,236846.1352636669,2010-10-18 11:00:16,3091.560364367346,2,21,0.550297200679779,3.976250886917114,20.58343828161161,20.11619466281957,82.06113592452141,73.5177849697432,6.47544875391759e-05,0.0915781408548355,0,0,0
6870,236876.15026141165,2010-10-18 11:00:46,3121.575362077023,2,21,0.5501165986061096,3.977869749069214,20.588025611700992,20.11619466281957,82.07938025470013,73.5177849697432,3.237724376958795e-05,0.0915781408548355,0,0,0
6871,236906.16553019697,2010-10-18 11:01:16,3151.590630852278,2,21,0.5501165986061096,3.979812383651733,20.59261277318707,20.11619466281957,82.09763184563532,73.5177849697432,3.237724376958795e-05,0.0915781408548355,0,0,0
6872,236936.1806798152,2010-10-18 11:01:46,3181.6057804855946,2,21,0.5501165986061096,3.981593132019043,20.59719988705768,20.11619466281957,82.1158919235026,73.5177849697432,6.47544875391759e-05,0.0915781408548355,0,0,0
6873,236966.1957169281,2010-10-18 11:02:16,3211.620817598476,2,21,0.5501165986061096,3.9835357666015625,20.601787031489376,20.11619466281957,82.13416051663911,73.5177849697432,6.47544875391759e-05,0.0915781408548355,0,0,0
6874,236996.21097857057,2010-10-18 11:02:46,3241.636079225917,2,21,0.550297200679779,3.985316514968872,20.60637411758367,20.11619466281957,82.1524373332615,73.5177849697432,6.47544875391759e-05,0.0915781408548355,0,0,0
6875,237026.2260316432,2010-10-18 11:03:16,3271.651132333662,2,21,0.550297200679779,3.987259149551392,20.610961310591744,20.11619466281957,82.17072316350902,73.5177849697432,3.237724376958795e-05,0.0915781408548355,0,0,0
6876,237056.2413021628,2010-10-18 11:03:46,3301.666402913415,2,21,0.550297200679779,3.989201784133911,20.615548523094827,20.11619466281957,82.18901765979399,73.5177849697432,9.713172767078504e-05,0.0915781408548355,0,0,0
6877,237086.2564369341,2010-10-18 11:04:17,3331.6815376345658,2,21,0.5499359965324402,3.9908206462860103,20.620135604627063,20.11619466281957,82.20732035472456,73.5177849697432,3.237724376958795e-05,0.0915781408548355,0,0,0
6878,237116.27144394696,2010-10-18 11:04:47,3361.6965446123418,2,21,0.5501165986061096,3.99292516708374,20.624722644302057,20.11619466281957,82.22563171016027,73.5177849697432,6.47544875391759e-05,0.0915781408548355,0,0,0
6879,237146.28671646156,2010-10-18 11:05:17,3391.711817116892,2,21,0.5501165986061096,3.9948675632476807,20.62930983546995,20.11619466281957,82.24395250403495,73.5177849697432,3.237724376958795e-05,0.0915781408548355,0,0,0
6880,237176.30195088612,2010-10-18 11:05:47,3421.727051556572,2,21,0.550297200679779,3.99697208404541,20.63389703306808,20.11619466281957,82.26228229257441,73.5177849697432,9.713172767078504e-05,0.0915781408548355,0,0,0
6881,237206.31691581412,2010-10-18 11:06:17,3451.742016504596,2,21,0.5501165986061096,3.9985909461975098,20.63848419825301,20.11619466281957,82.28062090898327,73.5177849697432,3.237724376958795e-05,0.0915781408548355,0,0,0
6882,237236.3320585904,2010-10-18 11:06:47,3481.757159275811,2,21,0.5501165986061096,4.000857353210449,20.64307130741401,20.11619466281957,82.29896847616187,73.5177849697432,6.47544875391759e-05,0.0915781408548355,0,0,0
6883,237266.3471859833,2010-10-18 11:07:17,3511.772286658673,2,21,0.5501165986061096,4.002799987792969,20.6476584389159,20.11619466281957,82.31732540802697,73.5177849697432,3.23295607813634e-05,0.0915781408548355,0,0,0
6884,237296.36233267927,2010-10-18 11:07:47,3541.787433349656,2,21,0.5501165986061096,4.004904747009277,20.652245602046488,20.11619466281957,82.33569175785976,73.5177849697432,6.47544875391759e-05,0.0915781408548355,0,0,0
6885,237326.37762088297,2010-10-18 11:08:17,3571.802721553333,2,21,0.5501165986061096,4.006847381591797,20.656832084342746,20.11619466281957,82.35406471836772,73.5177849697432,0.0,0.0915781408548355,0,0,0
6886,237356.39263461257,2010-10-18 11:08:47,3601.8177352779235,2,21,0.5499359965324402,4.008951663970947,20.661418411014623,20.11619466281957,82.37244659348569,73.5177849697432,6.47544875391759e-05,0.0915781408548355,0,0,0
6887,237386.40781538343,2010-10-18 11:09:17,3631.832916083933,2,21,0.5501165986061096,4.011218070983887,20.6660047418012,20.11619466281957,82.39083812375911,73.5177849697432,3.23295607813634e-05,0.0915781408548355,0,0,0
6888,237416.42294297687,2010-10-18 11:09:47,3661.848043647244,2,21,0.5499359965324402,4.013160705566406,20.670591046028587,20.11619466281957,82.40923933948869,73.5177849697432,6.47544875391759e-05,0.0915781408548355,0,0,0
6889,237446.4381282841,2010-10-18 11:10:17,3691.8632289845455,2,21,0.550297200679779,4.015589237213135,20.67517805097337,20.11619466281957,82.42765328934857,73.5177849697432,9.71794142969884e-05,0.0915781408548355,0,0,0
6890,237476.4532288501,2010-10-18 11:10:47,3721.878329515485,2,21,0.5499359965324402,4.017531871795654,20.67976519241546,20.11619466281957,82.4460778202111,73.5177849697432,0.0,0.0915781408548355,0,0,0
6891,237506.4683731201,2010-10-18 11:11:17,3751.89347377541,2,21,0.5501165986061096,4.019959926605225,20.6843523710288,20.11619466281957,82.46451251313057,73.5177849697432,9.70840483205393e-05,0.0915781408548355,0,0,0
6892,237536.48359307865,2010-10-18 11:11:47,3781.9086937740985,2,21,0.550297200679779,4.022064685821533,20.688939412547217,20.11619466281957,82.4829569982512,73.5177849697432,6.47544875391759e-05,0.0915781408548355,0,0,0
6893,237566.49869058703,2010-10-18 11:12:17,3811.923791277491,2,21,0.550297200679779,4.024492740631104,20.69352653885289,20.11619466281957,82.50141226262514,73.5177849697432,6.47544875391759e-05,0.0915781408548355,0,0,0
6894,237596.51383784943,2010-10-18 11:12:47,3841.938938625112,2,21,0.5501165986061096,4.026597499847412,20.69811361248538,20.11619466281957,82.51987770683803,73.5177849697432,3.24249267578125e-05,0.0915781408548355,0,0,0
6895,237626.52896126243,2010-10-18 11:13:17,3871.954061927805,2,21,0.550297200679779,4.029025554656982,20.70270075258659,20.11619466281957,82.5383539935072,73.5177849697432,6.47544875391759e-05,0.0915781408548355,0,0,0
6896,237656.54506150496,2010-10-18 11:13:47,3901.9701623006576,2,21,0.5501165986061096,4.031291961669922,20.707288046895982,20.11619466281957,82.55684145068199,73.5177849697432,6.47544875391759e-05,0.0915781408548355,0,0,0
6897,237686.54654133396,2010-10-18 11:14:17,3931.9716421145777,2,21,0.550297200679779,4.03372049331665,20.711873012609537,20.11619466281957,82.57533024871061,73.5177849697432,6.47544875391759e-05,0.0915781408548355,0,0,0
6898,237716.558833686,2010-10-18 11:14:47,3961.9839343714334,2,21,0.5501165986061096,4.035986423492432,20.71645968573253,20.11619466281957,82.59383671892955,73.5177849697432,6.47544875391759e-05,0.0915781408548355,0,0,0
6899,237746.57393438235,2010-10-18 11:15:17,3991.999035173046,2,21,0.5501165986061096,4.03841495513916,20.721046857161863,20.11619466281957,82.6123561726024,73.5177849697432,6.47544875391759e-05,0.0915781408548355,0,0,0
6900,237776.58909226625,2010-10-18 11:15:47,4022.0141929466513,2,21,0.5501165986061096,4.0408430099487305,20.72563396458467,20.11619466281957,82.63088627595684,73.5177849697432,6.47544875391759e-05,0.0915781408548355,0,0,0
6901,237806.6042445261,2010-10-18 11:16:17,4052.029345221552,2,21,0.550297200679779,4.043271541595459,20.730221052193787,20.11619466281957,82.64942741545032,73.5177849697432,6.47544875391759e-05,0.0915781408548355,0,0,0
6902,237836.6193873424,2010-10-18 11:16:47,4082.044487997779,2,21,0.5504778623580933,4.046023368835449,20.73480819137836,20.11619466281957,82.66797991769678,73.5177849697432,0.0001295089750783,0.0915781408548355,0,0,0
6903,237866.6345185047,2010-10-18 11:17:17,4112.059619165073,2,21,0.550297200679779,4.048128128051758,20.739395340294124,20.11619466281957,82.68654372214495,73.5177849697432,9.71794142969884e-05,0.0915781408548355,0,0,0
6904,237896.6497880218,2010-10-18 11:17:47,4142.074888677164,2,21,0.550297200679779,4.050718307495117,20.7439824767245,20.11619466281957,82.70511884567416,73.5177849697432,9.71794142969884e-05,0.0915781408548355,0,0,0
6905,237926.66505383968,2010-10-18 11:18:17,4172.090154495049,2,21,0.5501165986061096,4.053146362304688,20.74856961591165,20.11619466281957,82.72370545192193,73.5177849697432,6.47544875391759e-05,0.0915781408548355,0,0,0
6906,237956.67998252236,2010-10-18 11:18:47,4202.105083172676,2,21,0.5504778623580933,4.055898666381836,20.75315674038657,20.11619466281957,82.7423036431585,73.5177849697432,9.71794142969884e-05,0.0915781408548355,0,0,0
6907,237986.69524116232,2010-10-18 11:19:17,4232.120341817685,2,21,0.550297200679779,4.058326721191406,20.757743893277137,20.11619466281957,82.76091366139593,73.5177849697432,9.70840483205393e-05,0.0915781408548355,0,0,0
6908,238016.71027314744,2010-10-18 11:19:47,4262.135373817823,2,21,0.550297200679779,4.060755252838135,20.762331065292045,20.11619466281957,82.7795355187658,73.5177849697432,3.24249267578125e-05,0.0915781408548355,0,0,0
6909,238046.72540894127,2010-10-18 11:20:17,4292.150509611648,2,21,0.5501165986061096,4.063345432281494,20.766918183337427,20.11619466281957,82.79816861431551,73.5177849697432,6.47544875391759e-05,0.0915781408548355,0,0,0
6910,238076.74069393196,2010-10-18 11:20:47,4322.165794587279,2,21,0.550297200679779,4.0659356117248535,20.77150532893231,20.11619466281957,82.81681397035274,73.5177849697432,6.47544875391759e-05,0.0915781408548355,0,0,0
6911,238106.7557032756,2010-10-18 11:21:17,4352.180803935964,2,21,0.550297200679779,4.068525791168213,20.776092427514392,20.11619466281957,82.83547125788013,73.5177849697432,6.47544875391759e-05,0.0915781408548355,0,0,0
6912,238136.7708628988,2010-10-18 11:21:47,4382.195963549153,2,21,0.5501165986061096,4.071277618408203,20.780679556905124,20.11619466281957,82.85414094228527,73.5177849697432,6.47544875391759e-05,0.0915781408548355,0,0,0
6913,238166.78629440465,2010-10-18 11:22:17,4412.211395075034,2,21,0.550297200679779,4.074191570281982,20.785266746446297,20.11619466281957,82.87282320738997,73.5177849697432,9.70840483205393e-05,0.0915781408548355,0,0,0
6914,238196.80139439928,2010-10-18 11:22:47,4442.226495084672,2,21,0.550297200679779,4.076781749725342,20.789853870101684,20.11619466281957,82.89151771028807,73.5177849697432,3.23295607813634e-05,0.0915781408548355,0,0,0
6915,238226.81632859565,2010-10-18 11:23:17,4472.241429266017,2,21,0.5501165986061096,4.079695701599121,20.79444095234116,20.11619466281957,82.91022465147334,73.5177849697432,9.70840483205393e-05,0.0915781408548355,0,0,0
6916,238256.83145407372,2010-10-18 11:23:47,4502.256554754156,2,21,0.550297200679779,4.0824480056762695,20.79902800233943,20.11619466281957,82.92894407001626,73.5177849697432,0.0001295089750783,0.0915781408548355,0,0,0
6917,238286.84659850912,2010-10-18 11:24:17,4532.271699164456,2,21,0.5501165986061096,4.085038185119629,20.803615050265112,20.11619466281957,82.94767624093292,73.5177849697432,6.47544875391759e-05,0.0915781408548355,0,0,0
6918,238316.86176723,2010-10-18 11:24:47,4562.286867905395,2,21,0.550297200679779,4.088113784790039,20.808202137237178,20.11619466281957,82.96642148932051,73.5177849697432,0.0001295089750783,0.0915781408548355,0,0,0
6919,238346.8768785077,2010-10-18 11:25:17,4592.301979158056,2,21,0.5501165986061096,4.090703964233398,20.812789227190343,20.11619466281957,82.98517976573086,73.5177849697432,6.47544875391759e-05,0.0915781408548355,0,0,0
6920,238376.89202448697,2010-10-18 11:25:47,4622.317125152303,2,21,0.5501165986061096,4.093617916107178,20.81737630956746,20.11619466281957,83.00395113784111,73.5177849697432,9.70840483205393e-05,0.0915781408548355,0,0,0
6921,238406.90717624556,2010-10-18 11:26:17,4652.3322769159295,2,21,0.5499359965324402,4.096531867980957,20.82196339867716,20.11619466281957,83.02273583355496,73.5177849697432,6.47544875391759e-05,0.0915781408548355,0,0,0
6922,238436.9223437384,2010-10-18 11:26:47,4682.347444403745,2,21,0.550297200679779,4.099607944488525,20.8265505579851,20.11619466281957,83.04153420926066,73.5177849697432,0.0001295089750783,0.0915781408548355,0,0,0
6923,238466.93759991723,2010-10-18 11:27:17,4712.362700577593,2,21,0.5501165986061096,4.102359771728516,20.83113771508031,20.11619466281957,83.06034611286864,73.5177849697432,6.47544875391759e-05,0.0915781408548355,0,0,0
6924,238496.95263989727,2010-10-18 11:27:47,4742.377740647845,2,21,0.5501165986061096,4.105435848236084,20.83572480621234,20.11619466281957,83.07917132814225,73.5177849697432,6.47544875391759e-05,0.0915781408548355,0,0,0
6925,238526.96777126004,2010-10-18 11:28:17,4772.392871920401,2,21,0.550297200679779,4.108511447906494,20.84031194991041,20.11619466281957,83.09801053173244,73.5177849697432,9.70840483205393e-05,0.0915781408548355,0,0,0
6926,238556.9829656148,2010-10-18 11:28:47,4802.408066310266,2,21,0.5501165986061096,4.111263751983643,20.844899058904147,20.11619466281957,83.1168635052014,73.5177849697432,3.24249267578125e-05,0.0915781408548355,0,0,0
6927,238586.9980707021,2010-10-18 11:29:17,4832.42317135746,2,21,0.550297200679779,4.114663124084473,20.849486161439224,20.11619466281957,83.13573040974201,73.5177849697432,0.0001295089750783,0.0915781408548355,0,0,0
6928,238617.01334618407,2010-10-18 11:29:47,4862.43844683943,2,21,0.550297200679779,4.117577075958252,20.85407336187417,20.11619466281957,83.15461186889796,73.5177849697432,6.47544875391759e-05,0.0915781408548355,0,0,0
6929,238647.02863940023,2010-10-18 11:30:17,4892.4537400556,2,21,0.550297200679779,4.120814800262451,20.85866052858363,20.11619466281957,83.1735074413911,73.5177849697432,9.71794142969884e-05,0.0915781408548355,0,0,0
6930,238677.04353222356,2010-10-18 11:30:47,4922.468632873854,2,21,0.5499359965324402,4.12405252456665,20.8632477034697,20.11619466281957,83.19241743839467,73.5177849697432,6.47544875391759e-05,0.0915781408548355,0,0,0
6931,238707.0586783932,2010-10-18 11:31:17,4952.483779063589,2,21,0.5504778623580933,4.12729024887085,20.867834899284745,20.11619466281957,83.21134205910603,73.5177849697432,0.0001295089750783,0.0915781408548355,0,0,0
6932,238737.0738168888,2010-10-18 11:31:47,4982.498917539097,2,21,0.5501165986061096,4.13036584854126,20.87242204324648,20.11619466281957,83.2302811209905,73.5177849697432,9.70840483205393e-05,0.0915781408548355,0,0,0
6933,238767.08896827645,2010-10-18 11:32:17,5012.5140689318,2,21,0.550297200679779,4.133441925048828,20.877009158676277,20.11619466281957,83.24923481462314,73.5177849697432,6.47544875391759e-05,0.0915781408548355,0,0,0
6934,238797.10428469544,2010-10-18 11:32:47,5042.529385350797,2,21,0.5501165986061096,4.136841297149658,20.881596382539342,20.11619466281957,83.26820384306373,73.5177849697432,9.70840483205393e-05,0.0915781408548355,0,0,0
6935,238827.11926589892,2010-10-18 11:33:17,5072.544366569373,2,21,0.550297200679779,4.140079021453857,20.886183542949148,20.11619466281957,83.28718766255409,73.5177849697432,9.70840483205393e-05,0.0915781408548355,0,0,0
6936,238857.1344335873,2010-10-18 11:33:47,5102.559534252676,2,21,0.550297200679779,4.143478870391846,20.890770825847557,20.11619466281957,83.30618729274892,73.5177849697432,6.47544875391759e-05,0.0915781408548355,0,0,0
6937,238887.14969551048,2010-10-18 11:34:17,5132.574796175853,2,21,0.5504778623580933,4.147040367126465,20.89535801654861,20.11619466281957,83.32520206599646,73.5177849697432,9.71794142969884e-05,0.0915781408548355,0,0,0
6938,238917.1647302976,2010-10-18 11:34:47,5162.589830998026,2,21,0.5501165986061096,4.150278091430664,20.899945156376425,20.11619466281957,83.34423226781473,73.5177849697432,9.71794142969884e-05,0.0915781408548355,0,0,0
6939,238947.17987593592,2010-10-18 11:35:17,5192.604976701548,2,21,0.550297200679779,4.153677463531494,20.90453229950553,20.11619466281957,83.36327813912821,73.5177849697432,9.70840483205393e-05,0.0915781408548355,0,0,0
6940,238977.19502646648,2010-10-18 11:35:47,5222.620127166939,2,21,0.550297200679779,4.157077312469482,20.9091193957232,20.11619466281957,83.38233944627333,73.5177849697432,9.71794142969884e-05,0.0915781408548355,0,0,0
6941,239007.2101503055,2010-10-18 11:36:17,5252.635250980906,2,21,0.550297200679779,4.160800457000732,20.913706504941352,20.11619466281957,83.40141674559845,73.5177849697432,0.0001618385285837,0.0915781408548355,0,0,0
6942,239037.22544022847,2010-10-18 11:36:48,5282.650540898856,2,21,0.5499359965324402,4.164038181304932,20.91829364936337,20.11619466281957,83.42051025499893,73.5177849697432,6.47544875391759e-05,0.0915781408548355,0,0,0
6943,239067.2404690256,2010-10-18 11:37:18,5312.665569680974,2,21,0.5501165986061096,4.167923450469971,20.92288071813045,20.11619466281957,83.43961939735792,73.5177849697432,0.0001295089750783,0.0915781408548355,0,0,0
6944,239097.25572704407,2010-10-18 11:37:48,5342.68082769942,2,21,0.550297200679779,4.17116117477417,20.927467805925044,20.11619466281957,83.45874482299044,73.5177849697432,9.70840483205393e-05,0.0915781408548355,0,0,0
6945,239127.27095050132,2010-10-18 11:38:18,5372.696051171766,2,21,0.5501165986061096,4.174561023712158,20.932054917171182,20.11619466281957,83.47788668024124,73.5177849697432,3.24249267578125e-05,0.0915781408548355,0,0,0
6946,239157.28605965385,2010-10-18 11:38:48,5402.711160324193,2,21,0.5501165986061096,4.178284168243408,20.936641989386253,20.11619466281957,83.49704475731228,73.5177849697432,6.47544875391759e-05,0.0915781408548355,0,0,0
6947,239187.30118740257,2010-10-18 11:39:18,5432.726288072966,2,21,0.550297200679779,4.182169437408447,20.94122915819025,20.11619466281957,83.5162198606795,73.5177849697432,0.0001942634553415,0.0915781408548355,0,0,0
6948,239217.31616481667,2010-10-18 11:39:48,5462.741265482047,2,21,0.550297200679779,4.185569286346436,20.94581629178729,20.11619466281957,83.53541144248969,73.5177849697432,0.0001295089750783,0.0915781408548355,0,0,0
6949,239247.33131202892,2010-10-18 11:40:18,5492.756412684305,2,21,0.5501165986061096,4.1892924308776855,20.950403398535904,20.11619466281957,83.55461978602136,73.5177849697432,9.70840483205393e-05,0.0915781408548355,0,0,0
6950,239277.34657230304,2010-10-18 11:40:48,5522.7716730836855,2,21,0.5501165986061096,4.193016052246094,20.95499059754828,20.11619466281957,83.57384546844956,73.5177849697432,0.0001295089750783,0.0915781408548355,0,0,0
6951,239307.36161722036,2010-10-18 11:41:18,5552.786717875706,2,21,0.550297200679779,4.196739196777344,20.95957768187415,20.11619466281957,83.59308767868548,73.5177849697432,6.47544875391759e-05,0.0915781408548355,0,0,0
6952,239332.64258467505,2010-10-18 11:41:43,5578.067685330362,2,21,0.5501165986061096,4.200138568878174,20.963441248768383,20.11619466281957,83.60930808525544,73.5177849697432,0.0001618385285837,0.0915781408548355,0,0,0
6953,239362.65991723016,2010-10-18 11:42:13,30.01513737777229,3,21,0.0,4.112720489501953,20.963441248768383,20.11619466281957,83.60930808525544,73.5177849697432,-0.0004208564641885,0.0915781408548355,0,0,0
6954,239392.67526562384,2010-10-18 11:42:43,60.03048588674852,3,21,0.0,4.101874351501465,20.963441248768383,20.11619466281957,83.60930808525544,73.5177849697432,-0.0001942634553415,0.0915781408548355,0,0,0
6955,239422.69044899623,2010-10-18 11:43:13,90.04566912882876,3,21,0.0,4.095236778259277,20.963441248768383,20.11619466281957,83.60930808525544,73.5177849697432,-0.0001619339018361,0.0915781408548355,0,0,0
6956,239452.65848799536,2010-10-18 11:43:43,120.01370814298711,3,21,0.0,4.090866088867188,20.963441248768383,20.11619466281957,83.60930808525544,73.5177849697432,-0.0001295089750783,0.0915781408548355,0,0,0
6957,239452.66271841576,2010-10-18 11:43:43,2.711758537e-06,4,21,1.007599949836731,4.199653148651123,20.96344124952737,20.11619466281957,83.60930808844293,73.5177849697432,0.0,0.0915781408548355,0,0,0
6958,239453.4284270072,2010-10-18 11:43:44,0.765711293145995,4,21,0.9570293426513672,4.199814796447754,20.963648401257927,20.11619466281957,83.61017808226217,73.5177849697432,3.23295607813634e-05,0.0915781408548355,0,0,0
6959,239455.3971495746,2010-10-18 11:43:46,2.734433865557235,4,21,0.9070005416870116,4.199814796447754,20.964156950618104,20.11619466281957,83.6123138777434,73.5177849697432,3.23295607813634e-05,0.0915781408548355,0,0,0
6960,239458.4750944052,2010-10-18 11:43:49,5.812378701147475,4,21,0.8566105365753174,4.199814796447754,20.964909910627284,20.11619466281957,83.61547616176745,73.5177849697432,3.23295607813634e-05,0.0915781408548355,0,0,0
6961,239462.70953137503,2010-10-18 11:43:53,10.046815660954994,4,21,0.8064011931419373,4.199976921081543,20.96588670796647,20.11619466281957,83.61957851913493,73.5177849697432,0.0,0.0915781408548355,0,0,0
6962,239468.20944244068,2010-10-18 11:43:59,15.546726726610938,4,21,0.7561917901039124,4.199814796447754,20.96707871757228,20.11619466281957,83.62458472194055,73.5177849697432,0.0,0.0915781408548355,0,0,0
6963,239475.2718431864,2010-10-18 11:44:06,22.609127472315617,4,21,0.7059824466705322,4.199653148651123,20.968511206459088,20.11619466281957,83.63060090532629,73.5177849697432,-6.47544875391759e-05,0.0915781408548355,0,0,0
6964,239484.61530776,2010-10-18 11:44:15,31.952592055970264,4,21,0.6559536457061768,4.199814796447754,20.970276199116288,20.11619466281957,83.63801355026273,73.5177849697432,3.23295607813634e-05,0.0915781408548355,0,0,0
6965,239497.4447424388,2010-10-18 11:44:28,44.782026744733024,4,21,0.6059249043464661,4.199653148651123,20.97252043141069,20.11619466281957,83.64743892865192,73.5177849697432,-3.23295607813634e-05,0.0915781408548355,0,0,0
6966,239516.48995465768,2010-10-18 11:44:47,63.82723894359789,4,21,0.5558961033821106,4.199814796447754,20.97558498768518,20.11619466281957,83.66030948616732,73.5177849697432,0.0,0.0915781408548355,0,0,0
6967,239548.3644691152,2010-10-18 11:45:19,95.7017535164564,4,21,0.5058673620223999,4.199814796447754,20.980265518484675,20.11619466281957,83.67996679906553,73.5177849697432,3.23295607813634e-05,0.0915781408548355,0,0,0
6968,239607.20757799817,2010-10-18 11:46:18,154.54486231415217,4,21,0.4558385610580444,4.199653148651123,20.98808599554695,20.11619466281957,83.71281132012261,73.5177849697432,-3.23295607813634e-05,0.0915781408548355,0,0,0
6969,239702.8306172845,2010-10-18 11:47:53,250.1679017108023,4,21,0.4058097898960113,4.199814796447754,20.99949307696336,20.11619466281957,83.76071895624364,73.5177849697432,3.23295607813634e-05,0.0915781408548355,0,0,0
6970,239825.15712181773,2010-10-18 11:49:56,372.4944060886363,4,21,0.3557810187339782,4.199653148651123,21.01241890569758,20.11619466281957,83.81500514679524,73.5177849697432,-3.23295607813634e-05,0.0915781408548355,0,0,0
6971,239972.4673988243,2010-10-18 11:52:23,519.8046831252507,4,21,0.3057522773742676,4.199814796447754,21.025940440802184,20.11619466281957,83.87179272097444,73.5177849697432,3.23295607813634e-05,0.0915781408548355,0,0,0
6972,240149.8707970233,2010-10-18 11:55:20,697.208081339261,4,21,0.2557235062122345,4.199653148651123,21.039758493033904,20.11619466281957,83.92982586375824,73.5177849697432,-3.23295607813634e-05,0.0915781408548355,0,0,0
6973,240367.80478850665,2010-10-18 11:58:58,915.1420727875628,4,21,0.2056947201490402,4.199653148651123,21.05369326523419,20.11619466281957,83.98834925179858,73.5177849697432,-3.23295607813634e-05,0.0915781408548355,0,0,0
6974,240647.7378206009,2010-10-18 12:03:38,1195.0751048767695,4,21,0.1556659489870071,4.199491024017334,21.067679453000697,20.11619466281957,84.04708860773643,73.5177849697432,-6.47544875391759e-05,0.0915781408548355,0,0,0
6975,241046.3252430599,2010-10-18 12:10:17,1593.662527330809,4,21,0.1056371852755546,4.199976921081543,21.08199780203976,20.11619466281957,84.10722302264081,73.5177849697432,3.24249267578125e-05,0.0915781408548355,0,0,0
6976,241755.1578435226,2010-10-18 12:22:06,2302.495127843626,4,21,0.0556084141135215,4.199814796447754,21.09734771086912,20.11619466281957,84.17168987619164,73.5177849697432,-3.24249267578125e-05,0.0915781408548355,0,0,0
6977,241880.92127058428,2010-10-18 12:24:12,2428.258554855178,4,21,0.0498289167881011,4.199814796447754,21.099205649553905,20.11619466281957,84.17949286753534,73.5177849697432,3.23295607813634e-05,0.0915781408548355,0,0,0
6978,241910.93213326996,2010-10-18 12:24:42,30.01521409397267,5,21,0.0,4.191720962524414,21.099205649553905,20.11619466281957,84.17949286753534,73.5177849697432,-6.47544875391759e-05,0.0915781408548355,0,0,0
6979,241940.9316499812,2010-10-18 12:25:12,60.014730780175206,5,21,0.0,4.190263748168945,21.099205649553905,20.11619466281957,84.17949286753534,73.5177849697432,-6.47544875391759e-05,0.0915781408548355,0,0,0
6980,241941.1156101811,2010-10-18 12:25:12,0.18742463987168,6,21,-1.9243103452026844e-05,4.190425872802734,21.099205649553905,20.11619466382141,84.17949286753534,73.51778497394135,0.0,0.0954576581716537,0,0,0
6981,241945.94417240887,2010-10-18 12:25:17,5.015986987954595,6,21,0.0005225847125984,4.190263748168945,21.099206593333427,20.11619466398837,84.1794968223688,73.51778497464097,-6.47544875391759e-05,0.0954576581716537,0,0,0
6982,241975.95547674084,2010-10-18 12:25:47,30.01521092106481,7,21,-1.099568486213684,4.0084662437438965,21.099206593333427,20.12536207870583,84.1794968223688,73.55473690343243,-0.0009713172912597,0.0954576581716537,0,0,0
6983,242005.97049819469,2010-10-18 12:26:17,60.03023240499398,7,21,-1.099568486213684,3.980136156082153,21.099206593333427,20.13452935831385,84.1794968223688,73.59134353715004,-0.0005827903514727,0.0954576581716537,0,0,0
6984,242035.98566904588,2010-10-18 12:26:47,90.04540325619236,7,21,-1.0993878841400146,3.960386037826538,21.099206593333427,20.14369660248008,84.1794968223688,73.62773421308636,-0.0004856586456298,0.0954576581716537,0,0,0
6985,242066.0009301069,2010-10-18 12:27:17,120.06066432223388,7,21,-1.099568486213684,3.9451687335968018,21.099206593333427,20.15286387409437,84.1794968223688,73.6639676653655,-0.0003885269106831,0.0954576581716537,0,0,0
6986,242096.01593706463,2010-10-18 12:27:47,150.0756712699343,7,21,-1.0993878841400146,3.9328653812408447,21.099206593333427,20.16203109152033,84.1794968223688,73.70007544987293,-0.0003237724304199,0.0954576581716537,0,0,0
6987,242126.0312057697,2010-10-18 12:28:17,180.09093995496468,7,21,-1.0993878841400146,3.921533346176148,21.099206593333427,20.1711983233081,84.1794968223688,73.73607613258575,-0.0003237724304199,0.0954576581716537,0,0,0
6988,242156.0462391182,2010-10-18 12:28:47,210.1059733285265,7,21,-1.099568486213684,3.911658525466919,21.099206593333427,20.18036553328585,84.1794968223688,73.77198069030183,-0.0002590179501567,0.0954576581716537,0,0,0
6989,242186.0613864157,2010-10-18 12:29:17,240.1211206260218,7,21,-1.099568486213684,3.902269124984741,21.099206593333427,20.189532759035966,84.1794968223688,73.8077965607874,-0.0002590179501567,0.0954576581716537,0,0,0
6990,242216.0765267409,2010-10-18 12:29:47,270.13626092106483,7,21,-1.0993878841400146,3.893203496932984,21.099206593333427,20.198699985698727,84.1794968223688,73.84352786533243,-0.0002266406954731,0.0954576581716537,0,0,0
6991,242246.09166677023,2010-10-18 12:30:17,300.15140094543324,7,21,-1.099568486213684,3.884623527526856,21.099206593333427,20.20786723150445,84.1794968223688,73.87917811268407,-0.0001942634553415,0.0954576581716537,0,0,0
6992,242276.10684614265,2010-10-18 12:30:47,330.16658034293164,7,21,-1.099568486213684,3.876043558120728,21.099206593333427,20.217034498565987,84.1794968223688,73.91474939519708,-0.0002266406954731,0.0954576581716537,0,0,0
6993,242306.1219655657,2010-10-18 12:31:17,360.18169974089267,7,21,-1.0993878841400146,3.86778736114502,21.099206593333427,20.226201772066084,84.1794968223688,73.9502434013743,-0.0002266406954731,0.0954576581716537,0,0,0
6994,242336.1373889412,2010-10-18 12:31:47,390.1971231565594,7,21,-1.0993878841400146,3.859531164169312,21.099206593333427,20.23536915177598,84.1794968223688,73.9856618988574,-0.0002266406954731,0.0954576581716537,0,0,0
6995,242366.15227297257,2010-10-18 12:32:17,420.21200717287707,7,21,-1.0993878841400146,3.8517606258392334,21.099206593333427,20.244536323250767,84.1794968223688,74.02100564811953,-0.0001618862152099,0.0954576581716537,0,0,0
6996,242396.1674327863,2010-10-18 12:32:47,450.2271669965915,7,21,-1.0997490882873535,3.843504428863525,21.099206593333427,20.253703645239305,84.1794968223688,74.05627722744178,-0.0002266406954731,0.0954576581716537,0,0,0
6997,242426.18255840475,2010-10-18 12:33:17,480.242292574956,7,21,-1.099568486213684,3.835572004318237,21.099206593333427,20.26287092474132,84.1794968223688,74.09147679288309,-0.0002913951757363,0.0954576581716537,0,0,0
6998,242456.19771019343,2010-10-18 12:33:47,510.2574443736698,7,21,-1.0993878841400146,3.828449249267578,21.099206593333427,20.27203825348972,84.1794968223688,74.12660608067348,-0.0001618862152099,0.0954576581716537,0,0,0
6999,242486.2128717565,2010-10-18 12:34:17,540.2726059918566,7,21,-1.0993878841400146,3.82084059715271,21.099206593333427,20.28120562667239,84.1794968223688,74.16166644489292,-0.0001618862152099,0.0954576581716537,0,0,0
7000,242516.2280081067,2010-10-18 12:34:47,570.2877422869306,7,21,-1.0993878841400146,3.813393831253052,21.099206593333427,20.29037289944914,84.1794968223688,74.19665845240924,-0.0001618862152099,0.0954576581716537,0,0,0
7001,242546.24315942923,2010-10-18 12:35:17,600.3028936094574,7,21,-1.0993878841400146,3.806108951568604,21.099206593333427,20.29954007631989,84.1794968223688,74.2315826326448,-0.0001942634553415,0.0954576581716537,0,0,0
7002,242576.258329709,2010-10-18 12:35:47,630.3180639193066,7,21,-1.099568486213684,3.798985958099365,21.099206593333427,20.308707284630177,84.1794968223688,74.26644089336179,-0.0001618862152099,0.0954576581716537,0,0,0
7003,242606.2734399592,2010-10-18 12:36:17,660.3331741594436,7,21,-1.0993878841400146,3.792024850845337,21.099206593333427,20.31787452337676,84.1794968223688,74.30123460485248,-0.0001942634553415,0.0954576581716537,0,0,0
7004,242636.2885945799,2010-10-18 12:36:47,690.3483287551283,7,21,-1.0993878841400146,3.785387516021729,21.099206593333427,20.327041790126493,84.1794968223688,74.33596559878438,-0.0001618862152099,0.0954576581716537,0,0,0
7005,242666.3037303136,2010-10-18 12:37:17,720.3634645188778,7,21,-1.0993878841400146,3.77858829498291,21.099206593333427,20.33620902945993,84.1794968223688,74.37063504245377,-0.0001942634553415,0.0954576581716537,0,0,0
7006,242696.31903054225,2010-10-18 12:37:47,750.3787647625621,7,21,-1.099568486213684,3.771789073944092,21.099206593333427,20.345376353615983,84.1794968223688,74.40524371466212,-0.0001942634553415,0.0954576581716537,0,0,0
7007,242726.33403527943,2010-10-18 12:38:17,780.3937694847158,7,21,-1.099568486213684,3.7654755115509033,21.099206593333427,20.354543615281344,84.1794968223688,74.43979181868029,-0.0001618862152099,0.0954576581716537,0,0,0
7008,242756.3493829914,2010-10-18 12:38:47,810.4091172167555,7,21,-1.0997490882873535,3.759161949157715,21.099206593333427,20.363710951128933,84.1794968223688,74.47428138733787,-0.0001618862152099,0.0954576581716537,0,0,0
7009,242786.3644589461,2010-10-18 12:39:17,840.4241931213178,7,21,-1.099568486213684,3.7528486251831055,21.099206593333427,20.372878247546115,84.1794968223688,74.50871349099631,-0.0001618385285837,0.0954576581716537,0,0,0
7010,242816.37948007413,2010-10-18 12:39:47,870.4392142493598,7,21,-1.099568486213684,3.746858835220337,21.099206593333427,20.38204550071114,84.1794968223688,74.54308963599165,-0.0001618862152099,0.0954576581716537,0,0,0
7011,242846.39462417868,2010-10-18 12:40:17,900.4543583538974,7,21,-1.099568486213684,3.740869045257568,21.099206593333427,20.39121281121088,84.1794968223688,74.57741094151143,-0.0001618862152099,0.0954576581716537,0,0,0
7012,242876.40977974172,2010-10-18 12:40:47,930.4695139169932,7,21,-1.0993878841400146,3.73520302772522,21.099206593333427,20.40038010962699,84.1794968223688,74.61167820252273,-9.713172767078504e-05,0.0954576581716537,0,0,0
7013,242906.4249395304,2010-10-18 12:41:17,960.4846737607576,7,21,-1.0993878841400146,3.729375123977661,21.099206593333427,20.40954745902452,84.1794968223688,74.6458928395533,-0.0001618862152099,0.0954576581716537,0,0,0
7014,242936.44008671763,2010-10-18 12:41:47,990.4998209179032,7,21,-1.0993878841400146,3.7238709926605225,21.099206593333427,20.418714680272767,84.1794968223688,74.68005564985533,-0.0001618862152099,0.0954576581716537,0,0,0
7015,242966.45520236625,2010-10-18 12:42:17,1020.5149365414572,7,21,-1.0997490882873535,3.718043088912964,21.099206593333427,20.42788198719799,84.1794968223688,74.71416741671464,-0.0002266406954731,0.0954576581716537,0,0,0
7016,242996.47049306112,2010-10-18 12:42:47,1050.5302272664178,7,21,-1.099568486213684,3.712700843811035,21.099206593333427,20.43704931160232,84.1794968223688,74.74822809270414,-0.0001618862152099,0.0954576581716537,0,0,0
7017,243026.48563172208,2010-10-18 12:43:17,1080.5453659223758,7,21,-1.099568486213684,3.707520484924317,21.099206593333427,20.44621658126947,84.1794968223688,74.78223867319124,-9.713172767078504e-05,0.0954576581716537,0,0,0
7018,243056.500695326,2010-10-18 12:43:47,1110.5604295413184,7,21,-1.0993878841400146,3.702178239822388,21.099206593333427,20.455383863543144,84.1794968223688,74.8162006505315,-9.713172767078504e-05,0.0954576581716537,0,0,0
7019,243086.51581476905,2010-10-18 12:44:17,1140.5755489843918,7,21,-1.099568486213684,3.696835994720459,21.099206593333427,20.464551193465898,84.1794968223688,74.85011515289865,-0.0001295089750783,0.0954576581716537,0,0,0
7020,243116.5309826579,2010-10-18 12:44:47,1170.590716883232,7,21,-1.0993878841400146,3.69181752204895,21.099206593333427,20.473718515393617,84.1794968223688,74.88398219183097,-0.0001295089750783,0.0954576581716537,0,0,0
7021,243146.54608886296,2010-10-18 12:45:17,1200.6058230381875,7,21,-1.099568486213684,3.686637163162232,21.099206593333427,20.482885798138213,84.1794968223688,74.91780185363578,-0.0001295089750783,0.0954576581716537,0,0,0
7022,243176.56137645512,2010-10-18 12:45:48,1230.6211106704402,7,21,-1.0997490882873535,3.681618690490722,21.099206593333427,20.49205313740453,84.1794968223688,74.95157575146733,-0.0001295089750783,0.0954576581716537,0,0,0
7023,243206.5763939591,2010-10-18 12:46:18,1260.6361281343502,7,21,-1.0997490882873535,3.676762104034424,21.099206593333427,20.50122040276124,84.1794968223688,74.985303884124,-0.0001295089750783,0.0954576581716537,0,0,0
7024,243236.59154404857,2010-10-18 12:46:48,1290.6512782488662,7,21,-1.099568486213684,3.671905755996704,21.099206593333427,20.51038775260525,84.1794968223688,75.0189877135849,-9.713172767078504e-05,0.0954576581716537,0,0,0
7025,243266.60667558177,2010-10-18 12:47:18,1320.6664097870846,7,21,-1.0993878841400146,3.667049169540405,21.099206593333427,20.5195551080427,84.1794968223688,75.0526272237206,-0.0001295089750783,0.0954576581716537,0,0,0
7026,243296.6218275008,2010-10-18 12:47:48,1350.6815616760232,7,21,-1.0993878841400146,3.662354469299317,21.099206593333427,20.528722377418585,84.1794968223688,75.08622252743159,-9.713172767078504e-05,0.0954576581716537,0,0,0
7027,243326.6370198205,2010-10-18 12:48:18,1380.696754045853,7,21,-1.099568486213684,3.657659769058228,21.099206593333427,20.53788972524448,84.1794968223688,75.1197749525315,-0.0001295089750783,0.0954576581716537,0,0,0
7028,243356.65216147396,2010-10-18 12:48:48,1410.7118956892562,7,21,-1.0993878841400146,3.6531269550323486,21.099206593333427,20.54705704756244,84.1794968223688,75.15328487793356,-0.0001295089750783,0.0954576581716537,0,0,0
7029,243386.6672788268,2010-10-18 12:49:18,1440.7270130571578,7,21,-1.099568486213684,3.6485941410064697,21.099206593333427,20.556224364708136,84.1794968223688,75.1867534337249,-0.0001295089750783,0.0954576581716537,0,0,0
7030,243416.6824242396,2010-10-18 12:49:48,1470.7421584148185,7,21,-1.099568486213684,3.644223213195801,21.099206593333427,20.56539161006524,84.1794968223688,75.22018094739772,-9.713172767078504e-05,0.0954576581716537,0,0,0
7031,243446.6975382742,2010-10-18 12:50:18,1500.7572724594374,7,21,-1.099568486213684,3.640014171600342,21.099206593333427,20.57455888642807,84.1794968223688,75.2535687767419,-0.0001295089750783,0.0954576581716537,0,0,0
7032,243476.7128238313,2010-10-18 12:50:48,1530.7725580115057,7,21,-1.099568486213684,3.635805130004883,21.099206593333427,20.583726200310696,84.1794968223688,75.28691785725164,-9.713172767078504e-05,0.0954576581716537,0,0,0
7033,243506.7278426235,2010-10-18 12:51:18,1560.787576833801,7,21,-1.0993878841400146,3.631596088409424,21.099206593333427,20.592893463837346,84.1794968223688,75.32022876559975,-9.713172767078504e-05,0.0954576581716537,0,0,0
7034,243536.7430160511,2010-10-18 12:51:48,1590.8027502564082,7,21,-1.099568486213684,3.627548933029175,21.099206593333427,20.60206079342584,84.1794968223688,75.35350270023837,-9.713172767078504e-05,0.0954576581716537,0,0,0
7035,243566.7581568073,2010-10-18 12:52:18,1620.8178910126005,7,21,-1.099568486213684,3.623663663864136,21.099206593333427,20.61122808187344,84.1794968223688,75.38673983469367,-9.713172767078504e-05,0.0954576581716537,0,0,0
7036,243596.77329412493,2010-10-18 12:52:48,1650.8330283352354,7,21,-1.099568486213684,3.619616508483887,21.099206593333427,20.62039537102556,84.1794968223688,75.4199400993784,-9.713172767078504e-05,0.0954576581716537,0,0,0
7037,243626.78839701173,2010-10-18 12:53:18,1680.8481312420956,7,21,-1.0993878841400146,3.6155693531036377,21.099206593333427,20.6295627414474,84.1794968223688,75.45310412923268,-9.713172767078504e-05,0.0954576581716537,0,0,0
7038,243656.80362297027,2010-10-18 12:53:48,1710.863357175576,7,21,-1.0997490882873535,3.611684083938599,21.099206593333427,20.638730051444977,84.1794968223688,75.48623238041613,-0.0001618862152099,0.0954576581716537,0,0,0
7039,243686.81873347607,2010-10-18 12:54:18,1740.8784676763628,7,21,-1.0997490882873535,3.6079607009887695,21.099206593333427,20.64789738055085,84.1794968223688,75.51932610698611,-0.0001295089750783,0.0954576581716537,0,0,0
7040,243716.834196716,2010-10-18 12:54:48,1770.893931041596,7,21,-1.0993878841400146,3.60456109046936,21.099206593333427,20.65706483268353,84.1794968223688,75.55238598736115,-6.47544875391759e-05,0.0954576581716537,0,0,0
7041,243746.8518143704,2010-10-18 12:55:18,1800.9115486057558,7,21,-1.0993878841400146,3.600999593734741,21.099206593333427,20.66623285943915,84.1794968223688,75.58541485661847,-6.47544875391759e-05,0.0954576581716537,0,0,0
7042,243776.86429134264,2010-10-18 12:55:48,1830.9240255228417,7,21,-1.099568486213684,3.597276210784912,21.099206593333427,20.675399336909955,84.1794968223688,75.61840524883466,-9.713172767078504e-05,0.0954576581716537,0,0,0
7043,243806.8793242701,2010-10-18 12:56:18,1860.939058445279,7,21,-1.099568486213684,3.593714714050293,21.099206593333427,20.68456665154727,84.1794968223688,75.65136632029184,-9.713172767078504e-05,0.0954576581716537,0,0,0
7044,243836.8946473657,2010-10-18 12:56:48,1890.9543815760048,7,21,-1.099568486213684,3.590315341949463,21.099206593333427,20.69373401697177,84.1794968223688,75.68429694210775,-0.0001295089750783,0.0954576581716537,0,0,0
7045,243866.90961144652,2010-10-18 12:57:18,1920.9693456518555,7,21,-1.099568486213684,3.587077617645264,21.099206593333427,20.702901340892627,84.1794968223688,75.7171968370504,-9.713172767078504e-05,0.0954576581716537,0,0,0
7046,243896.92476247333,2010-10-18 12:57:48,1950.9844966535827,7,21,-1.099568486213684,3.5838398933410645,21.099206593333427,20.71206876201024,84.1794968223688,75.7500671821304,-9.713172767078504e-05,0.0954576581716537,0,0,0
7047,243926.9399045328,2010-10-18 12:58:18,1980.9996387029985,7,21,-1.099568486213684,3.580764055252075,21.099206593333427,20.72123607803368,84.1794968223688,75.78290825896839,-6.47544875391759e-05,0.0954576581716537,0,0,0
7048,243956.95508583504,2010-10-18 12:58:48,2011.014820070406,7,21,-1.099568486213684,3.577688217163086,21.099206593333427,20.73040342702262,84.1794968223688,75.81572025025032,-9.713172767078504e-05,0.0954576581716537,0,0,0
7049,243986.97035156272,2010-10-18 12:59:18,2041.0300857730035,7,21,-1.0997490882873535,3.5744504928588867,21.099206593333427,20.73957085456089,84.1794968223688,75.84850416779052,-6.47544875391759e-05,0.0954576581716537,0,0,0
7050,244016.98535838508,2010-10-18 12:59:48,2071.0450925653167,7,21,-1.099568486213684,3.5715365409851074,21.099206593333427,20.74873814196719,84.1794968223688,75.8812597729149,-9.713172767078504e-05,0.0954576581716537,0,0,0
7051,244047.00062700492,2010-10-18 13:00:18,2101.060361190197,7,21,-1.099568486213684,3.568622589111328,21.099206593333427,20.757905547388308,84.1794968223688,75.9139881488044,-6.47544875391759e-05,0.0954576581716537,0,0,0
7052,244077.01567391225,2010-10-18 13:00:48,2131.075408122552,7,21,-1.0993878841400146,3.565708637237549,21.099206593333427,20.7670729036873,84.1794968223688,75.94668918510564,-3.237724376958795e-05,0.0954576581716537,0,0,0
7053,244107.0307962375,2010-10-18 13:01:18,2161.090530432771,7,21,-1.099568486213684,3.5629565715789795,21.099206593333427,20.776240187858075,84.1794968223688,75.9793628064541,-3.237724376958795e-05,0.0954576581716537,0,0,0
7054,244137.0459545675,2010-10-18 13:01:48,2191.1056887778,7,21,-1.099568486213684,3.5598807334899902,21.099206593333427,20.785407524114984,84.1794968223688,76.01201002973367,-6.47544875391759e-05,0.0954576581716537,0,0,0
7055,244167.0611174338,2010-10-18 13:02:18,2221.1208516140227,7,21,-1.099568486213684,3.556804895401001,21.099206593333427,20.79457487751621,84.1794968223688,76.04463023692335,-9.713172767078504e-05,0.0954576581716537,0,0,0
7056,244197.0762514582,2010-10-18 13:02:48,2251.1359856634995,7,21,-1.099568486213684,3.553729057312012,21.099206593333427,20.803742208124145,84.1794968223688,76.07722324258334,-0.0001295089750783,0.0954576581716537,0,0,0
7057,244227.0913921091,2010-10-18 13:03:18,2281.1511263144303,7,21,-1.099568486213684,3.5509769916534424,21.099206593333427,20.812909598035542,84.1794968223688,76.1097889908699,-6.47544875391759e-05,0.0954576581716537,0,0,0
7058,244257.10681719892,2010-10-18 13:03:48,2311.166551414294,7,21,-1.099568486213684,3.547739267349243,21.099206593333427,20.82207702311704,84.1794968223688,76.14232709558216,-9.713172767078504e-05,0.0954576581716537,0,0,0
7059,244287.1217802523,2010-10-18 13:04:18,2341.181514557821,7,21,-1.099568486213684,3.544663429260254,21.099206593333427,20.83124446897944,84.1794968223688,76.17483682655941,-3.237724376958795e-05,0.0954576581716537,0,0,0
7060,244317.136912001,2010-10-18 13:04:48,2371.1966462113264,7,21,-1.099568486213684,3.5414257049560547,21.099206593333427,20.840411783463665,84.1794968223688,76.20731642214875,-6.47544875391759e-05,0.0954576581716537,0,0,0
7061,244347.1520602108,2010-10-18 13:05:18,2401.211794536383,7,21,-1.099568486213684,3.538026094436645,21.099206593333427,20.849579105667395,84.1794968223688,76.23976594433388,-6.47544875391759e-05,0.0954576581716537,0,0,0
7062,244377.16729358785,2010-10-18 13:05:48,2431.2270278231904,7,21,-1.0993878841400146,3.5346264839172363,21.099206593333427,20.85874646182715,84.1794968223688,76.27218451843274,-9.713172767078504e-05,0.0954576581716537,0,0,0
7063,244407.18227950312,2010-10-18 13:06:18,2461.242013733459,7,21,-1.0993878841400146,3.531226873397827,21.099206593333427,20.86791351757505,84.1794968223688,76.30457114879698,-9.713172767078504e-05,0.0954576581716537,0,0,0
7064,244437.1974482741,2010-10-18 13:06:48,2491.2571824543475,7,21,-1.0993878841400146,3.527989149093628,21.099206593333427,20.87708065700988,84.1794968223688,76.33692719817306,-9.713172767078504e-05,0.0954576581716537,0,0,0
7065,244467.21266182672,2010-10-18 13:07:18,2521.272396057096,7,21,-1.099568486213684,3.524427652359009,21.099206593333427,20.886247730827623,84.1794968223688,76.36925180484333,-9.713172767078504e-05,0.0954576581716537,0,0,0
7066,244497.2277191199,2010-10-18 13:07:48,2551.287453300148,7,21,-1.0997490882873535,3.52070426940918,21.099206593333427,20.89541480448668,84.1794968223688,76.4015438959843,-0.0001295089750783,0.0954576581716537,0,0,0
7067,244527.24300432613,2010-10-18 13:08:18,2581.302738516379,7,21,-1.099568486213684,3.5171427726745605,21.099206593333427,20.90458220823087,84.1794968223688,76.43380383593006,-9.713172767078504e-05,0.0954576581716537,0,0,0
7068,244557.25809811027,2010-10-18 13:08:48,2611.3178323155403,7,21,-1.099568486213684,3.513257503509521,21.099206593333427,20.913749609304137,84.1794968223688,76.46602876409567,-0.0001295089750783,0.0954576581716537,0,0,0
7069,244587.27318423023,2010-10-18 13:09:18,2641.3329184004747,7,21,-1.0993878841400146,3.509210586547852,21.099206593333427,20.922916929096665,84.1794968223688,76.49821672206005,-9.713172767078504e-05,0.0954576581716537,0,0,0
7070,244617.28831488127,2010-10-18 13:09:48,2671.34804908657,7,21,-1.0993878841400146,3.5046777725219727,21.099206593333427,20.93208432602856,84.1794968223688,76.53036597838651,-0.0001295089750783,0.0954576581716537,0,0,0
7071,244647.3034598129,2010-10-18 13:10:18,2701.3631939830807,7,21,-1.099568486213684,3.499983072280884,21.099206593333427,20.94125171885175,84.1794968223688,76.56247334547032,-9.713172767078504e-05,0.0954576581716537,0,0,0
7072,244677.31896704243,2010-10-18 13:10:48,2731.378701312888,7,21,-1.099568486213684,3.494964599609375,21.099206593333427,20.95041923165845,84.1794968223688,76.5945361285802,-0.0001295089750783,0.0954576581716537,0,0,0
7073,244707.3338784621,2010-10-18 13:11:18,2761.39361262724,7,21,-1.099568486213684,3.4892985820770264,21.099206593333427,20.95958659850238,84.1794968223688,76.62654994627285,-0.0001618862152099,0.0954576581716537,0,0,0
7074,244737.3489169684,2010-10-18 13:11:48,2791.4086511436194,7,21,-1.0992072820663452,3.483470678329468,21.099206593333427,20.96875398169169,84.1794968223688,76.65851139427757,-0.0001295089750783,0.0954576581716537,0,0,0
7075,244767.3641709468,2010-10-18 13:12:18,2821.4239051219965,7,21,-1.099568486213684,3.4766714572906494,21.099206593333427,20.977921383361373,84.1794968223688,76.69041478687573,-0.0001942634553415,0.0954576581716537,0,0,0
7076,244797.3792360093,2010-10-18 13:12:48,2851.4389702096,7,21,-1.099568486213684,3.469224691390991,21.099206593333427,20.98708869059807,84.1794968223688,76.72225356912331,-0.0001942634553415,0.0954576581716537,0,0,0
7077,244827.39446714576,2010-10-18 13:13:18,2881.4542013410346,7,21,-1.0993878841400146,3.460806608200073,21.099206593333427,20.99625608023,84.1794968223688,76.75401954247549,-0.0001942634553415,0.0954576581716537,0,0,0
7078,244857.40951305057,2010-10-18 13:13:48,2911.469247225778,7,21,-1.0992072820663452,3.451255321502685,21.099206593333427,21.005423442606357,84.1794968223688,76.78570215521736,-0.0002266406954731,0.0954576581716537,0,0,0
7079,244887.4246400625,2010-10-18 13:14:18,2941.484374232703,7,21,-1.0997490882873535,3.4397614002227783,21.099206593333427,21.0145908126178,84.1794968223688,76.81728922427821,-0.0003561496851034,0.0954576581716537,0,0,0
7080,244917.43979917443,2010-10-18 13:14:48,2971.4995333546685,7,21,-1.099568486213684,3.4261631965637207,21.099206593333427,21.02375825790631,84.1794968223688,76.84876322175292,-0.0004209041653666,0.0954576581716537,0,0,0
7081,244947.45506381945,2010-10-18 13:15:18,3001.514798024692,7,21,-1.0993878841400146,3.4101364612579346,21.099206593333427,21.03292570524787,84.1794968223688,76.8801017305215,-0.0004532813909463,0.0954576581716537,0,0,0
7082,244977.47008196,2010-10-18 13:15:48,3031.5298161703013,7,21,-1.0993878841400146,3.3900625705718994,21.099206593333427,21.042093016999537,84.1794968223688,76.91127432657846,-0.0005827903514727,0.0954576581716537,0,0,0
7083,245007.48524840025,2010-10-18 13:16:18,3061.544982580431,7,21,-1.099568486213684,3.3644845485687256,21.099206593333427,21.051260379903137,84.1794968223688,76.94223980225273,-0.0007446765666827,0.0954576581716537,0,0,0
7084,245037.5003904396,2010-10-18 13:16:48,3091.5601246448846,7,21,-1.0993878841400146,3.330650568008423,21.099206593333427,21.06042774174517,84.1794968223688,76.97293557581929,-0.0010036944877356,0.0954576581716537,0,0,0
7085,245067.51552259436,2010-10-18 13:17:18,3121.5752567745767,7,21,-1.099568486213684,3.284351110458374,21.099206593333427,21.069595034325232,84.1794968223688,77.00326762953793,-0.0014245987404137,0.0954576581716537,0,0,0
7086,245097.53067853337,2010-10-18 13:17:49,3151.590412738672,7,21,-1.0993878841400146,3.218301773071289,21.099206593333427,21.07876230817447,84.1794968223688,77.03309185895189,-0.0021045207977294,0.0954576581716537,0,0,0
7087,245127.5458255953,2010-10-18 13:18:19,3181.605559770505,7,21,-1.099568486213684,3.120037078857422,21.099206593333427,21.08792963949569,84.1794968223688,77.06217686846212,-0.0031082152854651,0.0954576581716537,0,0,0
7088,245157.56099380992,2010-10-18 13:18:49,3211.620728015207,7,21,-1.0997490882873535,2.9524853229522705,21.099206593333427,21.097096984401123,84.1794968223688,77.09009898636552,-0.0060869217850267,0.0954576581716537,0,0,0
7089,245176.6857001025,2010-10-18 13:19:08,3230.7454343378886,7,21,-1.099568486213684,2.752232789993286,21.099206593333427,21.10293809400016,84.1794968223688,77.10681095609368,-0.0101016517728567,0.0954576581716537,0,0,0
7090,245180.560619098,2010-10-18 13:19:12,3234.620353268145,7,21,-1.099568486213684,2.699781894683838,21.099206593333427,21.10412158935089,84.1794968223688,77.11003769372552,-0.0108139514923095,0.0954576581716537,0,0,0
7091,245240.5766365331,2010-10-18 13:20:12,60.0148209649434,8,21,0.0,3.371445655822754,21.099206593333427,21.10412158935089,84.1794968223688,77.11003769372552,0.0012627125252038,0.0954576581716537,0,0,0
7092,245240.76586277172,2010-10-18 13:20:12,0.187229984731176,9,21,-1.9243103452026844e-05,3.371931314468384,21.099206593333427,21.10412159035169,84.1794968223688,77.11003769710015,0.0,0.0923885703086853,0,0,0
7093,245245.5965956545,2010-10-18 13:20:17,5.017963002791573,9,21,0.0005225847125984,3.379863739013672,21.099207541198044,21.10412159035169,84.17950002278813,77.11003769710015,0.0011979580158367,0.0923885703086853,0,0,0
