Data_Point,Test_Time(s),Date_Time,Step_Time(s),Step_Index,Cycle_Index,Current(A),Voltage(V),Charge_Capacity(Ah),Discharge_Capacity(Ah),Charge_Energy(Wh),Discharge_Energy(Wh),dV/dt(V/s),Internal_Resistance(Ohm),Is_FC_Data,AC_Impedance(Ohm),ACI_Phase_Angle(Deg)
3091,138052.8619502713,2011-01-26 01:15:28,30.015242650143435,1,18,0.0,3.697159767150879,9.611604012158054,9.53855863575802,39.41082121896564,33.14849626603649,0.0006151676061563,0.1141668483614921,0,0,0
3092,138082.87692598617,2011-01-26 01:15:58,60.030218380039486,1,18,0.0,3.713672161102295,9.611604012158054,9.53855863575802,39.41082121896564,33.14849626603649,0.0003561496851034,0.1141668483614921,0,0,0
3093,138112.8920315246,2011-01-26 01:16:28,90.0453239234708,1,18,0.0,3.725327968597412,9.611604012158054,9.53855863575802,39.41082121896564,33.14849626603649,0.0002913951757363,0.1141668483614921,0,0,0
3094,138142.86031367473,2011-01-26 01:16:58,120.01360604853636,1,18,0.0,3.73406982421875,9.611604012158054,9.53855863575802,39.41082121896564,33.14849626603649,0.0002266406954731,0.1141668483614921,0,0,0
3095,138172.87110339582,2011-01-26 01:17:28,30.015275356658133,2,18,0.550297200679779,3.852408170700073,9.616190476949267,9.53855863575802,39.42841053942941,33.14849626603649,0.0007122993702068,0.1141668483614921,0,0,0
3096,138202.88589707197,2011-01-26 01:17:58,60.03006895763287,2,18,0.5501165986061096,3.8723201751708975,9.620776836703842,9.53855863575802,39.44612753657357,33.14849626603649,0.0004532813909463,0.1141668483614921,0,0,0
3097,138232.90106842943,2011-01-26 01:18:28,90.04524029504303,2,18,0.550297200679779,3.886404275894165,9.625363269133803,9.53855863575802,39.46392103537757,33.14849626603649,0.0003561496851034,0.1141668483614921,0,0,0
3098,138262.9160683747,2011-01-26 01:18:58,120.06024024029118,2,18,0.5501165986061096,3.8977363109588623,9.629949718484028,9.53855863575802,39.48177258755749,33.14849626603649,0.0002590179501567,0.1141668483614921,0,0,0
3099,138292.93115162756,2011-01-26 01:19:28,150.0753234931676,2,18,0.5499359965324402,3.90761137008667,9.634536150904315,9.53855863575802,39.49967299646185,33.14849626603649,0.0002590179501567,0.1141668483614921,0,0,0
3100,138322.94649917414,2011-01-26 01:19:58,180.0906710497702,2,18,0.5501165986061096,3.9166767597198486,9.639122591704808,9.53855863575802,39.5176167956833,33.14849626603649,0.0002266406954731,0.1141668483614921,0,0,0
3101,138352.96143626276,2011-01-26 01:20:28,210.1056081483852,2,18,0.5501165986061096,3.925094842910767,9.64370888927096,9.53855863575802,39.53559940731789,33.14849626603649,0.0002266406954731,0.1141668483614921,0,0,0
3102,138382.97650954578,2011-01-26 01:20:58,240.1206814314137,2,18,0.5501165986061096,3.9327034950256343,9.648295234601049,9.53855863575802,39.553618671212746,33.14849626603649,0.0001942634553415,0.1141668483614921,0,0,0
3103,138412.99161334985,2011-01-26 01:21:28,270.13578522047254,2,18,0.5501165986061096,3.939826488494873,9.652881678387605,9.53855863575802,39.57167252254996,33.14849626603649,0.0001618862152099,0.1141668483614921,0,0,0
3104,138443.00671052744,2011-01-26 01:21:58,300.1508823880286,2,18,0.5501165986061096,3.946787595748901,9.657468138742244,9.53855863575802,39.589758751369445,33.14849626603649,0.0001618862152099,0.1141668483614921,0,0,0
3105,138473.02183768977,2011-01-26 01:22:28,330.1660095754033,2,18,0.5501165986061096,3.9532630443573,9.662054538662234,9.53855863575802,39.607875318915056,33.14849626603649,0.0001942634553415,0.1141668483614921,0,0,0
3106,138503.03693912295,2011-01-26 01:22:58,360.1811109835282,2,18,0.5499359965324402,3.9594147205352783,9.666640961434323,9.53855863575802,39.62602118704182,33.14849626603649,0.0001618862152099,0.1141668483614921,0,0,0
3107,138533.05204848087,2011-01-26 01:23:28,390.1962203414664,2,18,0.5499359965324402,3.965242624282837,9.671227413960588,9.53855863575802,39.64419481096341,33.14849626603649,0.0001295089750783,0.1141668483614921,0,0,0
3108,138563.06713941792,2011-01-26 01:23:58,420.21131127849407,2,18,0.5501165986061096,3.9709086418151855,9.675813847951504,9.53855863575802,39.66239466272789,33.14849626603649,0.0001295089750783,0.1141668483614921,0,0,0
3109,138593.08224575332,2011-01-26 01:24:28,450.2264176088868,2,18,0.5499359965324402,3.976250886917114,9.680400351570938,9.53855863575802,39.68061998172255,33.14849626603649,0.0001295089750783,0.1141668483614921,0,0,0
3110,138623.09736678033,2011-01-26 01:24:58,480.2415386459329,2,18,0.5501165986061096,3.981431245803833,9.68498663802798,9.53855863575802,39.69886823883438,33.14849626603649,0.0001618862152099,0.1141668483614921,0,0,0
3111,138653.11259407722,2011-01-26 01:25:28,510.25676594281134,2,18,0.5499359965324402,3.986287832260132,9.689573033263668,9.53855863575802,39.71714012540088,33.14849626603649,0.0001295089750783,0.1141668483614921,0,0,0
3112,138683.1275940425,2011-01-26 01:25:58,540.271765923147,2,18,0.5501165986061096,3.991144418716431,9.694159389072254,9.53855863575802,39.73543395606389,33.14849626603649,0.0001295089750783,0.1141668483614921,0,0,0
3113,138713.14269949074,2011-01-26 01:26:28,570.286871361316,2,18,0.5501165986061096,3.9956769943237305,9.698745693220689,9.53855863575802,39.75374893870319,33.14849626603649,0.0001295089750783,0.1141668483614921,0,0,0
3114,138743.15781092382,2011-01-26 01:26:58,600.3019827844012,2,18,0.5501165986061096,4.000209808349609,9.703332039113157,9.53855863575802,39.77208471963317,33.14849626603649,0.0001295089750783,0.1141668483614921,0,0,0
3115,138773.17291538956,2011-01-26 01:27:28,630.3170872601715,2,18,0.5501165986061096,4.004580974578857,9.707918327513186,9.53855863575802,39.79044036679395,33.14849626603649,0.0001619339018361,0.1141668483614921,0,0,0
3116,138803.18835892036,2011-01-26 01:27:58,660.3325308410963,2,18,0.5501165986061096,4.008627891540527,9.712504659550335,9.53855863575802,39.80881572956088,33.14849626603649,0.0001295089750783,0.1141668483614921,0,0,0
3117,138833.2031231231,2011-01-26 01:28:28,690.3472949786391,2,18,0.5501165986061096,4.012675285339356,9.71709089213137,9.53855863575802,39.82720950421367,33.14849626603649,0.0001295089750783,0.1141668483614921,0,0,0
3118,138863.21825286682,2011-01-26 01:28:58,720.3624247273975,2,18,0.5499359965324402,4.016722202301025,9.721677178692577,9.53855863575802,39.84562208786955,33.14849626603649,0.0001295089750783,0.1141668483614921,0,0,0
3119,138893.2335075419,2011-01-26 01:29:28,750.3776794426108,2,18,0.5501165986061096,4.0207695960998535,9.72626353172404,9.53855863575802,39.86405308337563,33.14849626603649,0.0001619339018361,0.1141668483614921,0,0,0
3120,138923.24867213753,2011-01-26 01:29:58,780.3928440231809,2,18,0.5497553944587708,4.024331092834473,9.730849858529638,9.53855863575802,39.88250202516346,33.14849626603649,9.71794142969884e-05,0.1141668483614921,0,0,0
3121,138953.26357533166,2011-01-26 01:30:28,810.4077471922329,2,18,0.5501165986061096,4.028378009796143,9.735436111980414,9.53855863575802,39.90096828291952,33.14849626603649,9.70840483205393e-05,0.1141668483614921,0,0,0
3122,138983.27869610806,2011-01-26 01:30:58,840.4228679686295,2,18,0.5501165986061096,4.032101631164551,9.74002241571338,9.53855863575802,39.919452026997405,33.14849626603649,9.71794142969884e-05,0.1141668483614921,0,0,0
3123,139013.2937845639,2011-01-26 01:31:28,870.4379564194608,2,18,0.5499359965324402,4.035824775695801,9.74460874506172,9.53855863575802,39.93795286081012,33.14849626603649,0.0001295089750783,0.1141668483614921,0,0,0
3124,139043.30903070277,2011-01-26 01:31:58,900.4532025783491,2,18,0.5501165986061096,4.03938627243042,9.749195155950607,9.53855863575802,39.95647069998419,33.14849626603649,9.71794142969884e-05,0.1141668483614921,0,0,0
3125,139073.3240113599,2011-01-26 01:32:28,930.4681832154756,2,18,0.5501165986061096,4.04278564453125,9.753781488368944,9.53855863575802,39.9750045487404,33.14849626603649,9.70840483205393e-05,0.1141668483614921,0,0,0
3126,139103.33935203936,2011-01-26 01:32:58,960.4835239250132,2,18,0.5501165986061096,4.046347141265869,9.758367832789387,9.53855863575802,39.99355465300184,33.14849626603649,9.70840483205393e-05,0.1141668483614921,0,0,0
3127,139133.3543556337,2011-01-26 01:33:28,990.498527509331,2,18,0.5499359965324402,4.049908638000488,9.762954158325035,9.53855863575802,40.01212076539509,33.14849626603649,9.70840483205393e-05,0.1141668483614921,0,0,0
3128,139163.36933350898,2011-01-26 01:33:58,1020.513505364524,2,18,0.550297200679779,4.053308486938477,9.767540499137066,9.53855863575802,40.030702793667565,33.14849626603649,9.71794142969884e-05,0.1141668483614921,0,0,0
3129,139193.38446043068,2011-01-26 01:34:28,1050.5286322862364,2,18,0.5499359965324402,4.056546211242676,9.772126816832296,9.53855863575802,40.04930043375087,33.14849626603649,6.47544875391759e-05,0.1141668483614921,0,0,0
3130,139223.39957153797,2011-01-26 01:34:58,1080.5437433985471,2,18,0.5504778623580933,4.060269355773926,9.776713125579086,9.53855863575802,40.06791361276958,33.14849626603649,9.70840483205393e-05,0.1141668483614921,0,0,0
3131,139253.41691231227,2011-01-26 01:35:28,1110.5610841828866,2,18,0.5501165986061096,4.063507080078125,9.781299721669264,9.53855863575802,40.08654303354424,33.14849626603649,9.70840483205393e-05,0.1141668483614921,0,0,0
3132,139283.42991255867,2011-01-26 01:35:58,1140.5740844242573,2,18,0.5499359965324402,4.066583156585693,9.785885714588924,9.53855863575802,40.10518541419042,33.14849626603649,6.47544875391759e-05,0.1141668483614921,0,0,0
3133,139313.44491720563,2011-01-26 01:36:28,1170.589089101299,2,18,0.5501165986061096,4.0701446533203125,9.790472055147475,9.53855863575802,40.12384451733934,33.14849626603649,9.71794142969884e-05,0.1141668483614921,0,0,0
3134,139343.46057476485,2011-01-26 01:36:58,1200.6047467357107,2,18,0.5499359965324402,4.073220252990723,9.795058481165508,9.53855863575802,40.14251912821987,33.14849626603649,3.23295607813634e-05,0.1141668483614921,0,0,0
3135,139373.47511458333,2011-01-26 01:37:28,1230.6192864439065,2,18,0.5501165986061096,4.076620101928711,9.799644707111415,9.53855863575802,40.16120807026817,33.14849626603649,9.71794142969884e-05,0.1141668483614921,0,0,0
3136,139403.4902928831,2011-01-26 01:37:58,1260.634464743669,2,18,0.5501165986061096,4.080019474029541,9.80423106141961,9.53855863575802,40.17991275083228,33.14849626603649,6.47544875391759e-05,0.1141668483614921,0,0,0
3137,139433.50533738942,2011-01-26 01:38:28,1290.6495093502267,2,18,0.5501165986061096,4.08325719833374,9.8088174515425,9.53855863575802,40.19863268704792,33.14849626603649,9.70840483205393e-05,0.1141668483614921,0,0,0
3138,139463.52045095785,2011-01-26 01:38:58,1320.664622818409,2,18,0.5501165986061096,4.0866570472717285,9.813403735977438,9.53855863575802,40.21736737330101,33.14849626603649,9.71794142969884e-05,0.1141668483614921,0,0,0
3139,139493.53554657652,2011-01-26 01:39:28,1350.6797184371046,2,18,0.5501165986061096,4.090056419372559,9.817990070719944,9.53855863575802,40.23611742720954,33.14849626603649,9.70840483205393e-05,0.1141668483614921,0,0,0
3140,139523.55082909102,2011-01-26 01:39:58,1380.6950009816774,2,18,0.5501165986061096,4.093132495880127,9.822576448656864,9.53855863575802,40.25488287212204,33.14849626603649,9.71794142969884e-05,0.1141668483614921,0,0,0
3141,139553.5680297311,2011-01-26 01:40:28,1410.712201591659,2,18,0.5501165986061096,4.096531867980957,9.827163133513745,9.53855863575802,40.27366472927415,33.14849626603649,6.47544875391759e-05,0.1141668483614921,0,0,0
3142,139583.58090020402,2011-01-26 01:40:58,1440.7250720646073,2,18,0.5501165986061096,4.099931716918945,9.831749152981748,9.53855863575802,40.29245902766353,33.14849626603649,6.47544875391759e-05,0.1141668483614921,0,0,0
3143,139613.59612089946,2011-01-26 01:41:28,1470.7402927700575,2,18,0.5501165986061096,4.1031694412231445,9.836335569043214,9.53855863575802,40.31127004858595,33.14849626603649,9.71794142969884e-05,0.1141668483614921,0,0,0
3144,139643.61110463933,2011-01-26 01:41:58,1500.755276499892,2,18,0.5499359965324402,4.106407165527344,9.8409218645299,9.53855863575802,40.33009582794101,33.14849626603649,6.47544875391759e-05,0.1141668483614921,0,0,0
3145,139673.62621788197,2011-01-26 01:42:28,1530.7703897374995,2,18,0.5501165986061096,4.109806537628174,9.845508201738935,9.53855863575802,40.34893705689424,33.14849626603649,9.70840483205393e-05,0.1141668483614921,0,0,0
3146,139703.64161447075,2011-01-26 01:42:58,1560.7857863463555,2,18,0.5499359965324402,4.113044261932373,9.850094583290613,9.53855863575802,40.36779388363633,33.14849626603649,6.47544875391759e-05,0.1141668483614921,0,0,0
3147,139733.65646859756,2011-01-26 01:43:29,1590.8006404681669,2,18,0.5501165986061096,4.116605758666992,9.85468082318194,9.53855863575802,40.386665536287005,33.14849626603649,9.71794142969884e-05,0.1141668483614921,0,0,0
3148,139763.6716769773,2011-01-26 01:43:59,1620.815848842885,2,18,0.5499359965324402,4.119843482971191,9.85926720599822,9.53855863575802,40.40555322788976,33.14849626603649,6.47544875391759e-05,0.1141668483614921,0,0,0
3149,139793.68665212073,2011-01-26 01:44:29,1650.8308239762948,2,18,0.5501165986061096,4.123081207275391,9.86385360539802,9.53855863575802,40.42445643632164,33.14849626603649,6.47544875391759e-05,0.1141668483614921,0,0,0
3150,139823.70179777415,2011-01-26 01:44:59,1680.8459696296925,2,18,0.5501165986061096,4.12664270401001,9.868439919279524,9.53855863575802,40.44337487909164,33.14849626603649,6.47544875391759e-05,0.1141668483614921,0,0,0
3151,139853.7168732426,2011-01-26 01:45:29,1710.8610450981678,2,18,0.550297200679779,4.130204200744629,9.873026268627122,9.53855863575802,40.462309172423566,33.14849626603649,9.71794142969884e-05,0.1141668483614921,0,0,0
3152,139883.73198793884,2011-01-26 01:45:59,1740.8761598044357,2,18,0.550297200679779,4.133603572845459,9.87761266464078,9.53855863575802,40.48125948031984,33.14849626603649,0.0001295089750783,0.1141668483614921,0,0,0
3153,139913.74709460005,2011-01-26 01:46:29,1770.891266455628,2,18,0.5499359965324402,4.136841297149658,9.882198972881548,9.53855863575802,40.50022518535311,33.14849626603649,6.47544875391759e-05,0.1141668483614921,0,0,0
3154,139943.7622338625,2011-01-26 01:46:59,1800.9064057481723,2,18,0.5501165986061096,4.140564918518066,9.886785342275498,9.53855863575802,40.5192070181839,33.14849626603649,9.71794142969884e-05,0.1141668483614921,0,0,0
3155,139973.77731373196,2011-01-26 01:47:29,1830.9214855925536,2,18,0.5501165986061096,4.1439642906188965,9.891371692549251,9.53855863575802,40.53820475718876,33.14849626603649,9.70840483205393e-05,0.1141668483614921,0,0,0
3156,140003.79262520865,2011-01-26 01:47:59,1860.9367971043216,2,18,0.550297200679779,4.147525787353516,9.895957977292785,9.53855863575802,40.55721864728481,33.14849626603649,6.47544875391759e-05,0.1141668483614921,0,0,0
3157,140033.8075565028,2011-01-26 01:48:29,1890.9517284536075,2,18,0.5501165986061096,4.151087284088135,9.900544236443404,9.53855863575802,40.576248694434994,33.14849626603649,9.70840483205393e-05,0.1141668483614921,0,0,0
3158,140063.8226528032,2011-01-26 01:48:59,1920.9668246587653,2,18,0.550297200679779,4.154810905456543,9.90513050167882,9.53855863575802,40.59529503816063,33.14849626603649,0.0001619339018361,0.1141668483614921,0,0,0
3159,140093.83789044587,2011-01-26 01:49:29,1950.982062311453,2,18,0.5501165986061096,4.158210277557373,9.909716777522863,9.53855863575802,40.614357796543885,33.14849626603649,9.70840483205393e-05,0.1141668483614921,0,0,0
3160,140123.85299095674,2011-01-26 01:49:59,1980.9971628223416,2,18,0.5499359965324402,4.161771774291992,9.914303062857414,9.53855863575802,40.63343703432355,33.14849626603649,6.47544875391759e-05,0.1141668483614921,0,0,0
3161,140153.86801821005,2011-01-26 01:50:29,2011.01219007565,2,18,0.550297200679779,4.165657043457031,9.918889318752404,9.53855863575802,40.65253276536127,33.14849626603649,9.70840483205393e-05,0.1141668483614921,0,0,0
3162,140183.88311635,2011-01-26 01:50:59,2041.0272882056047,2,18,0.5501165986061096,4.16905689239502,9.923475580617772,9.53855863575802,40.67164528050247,33.14849626603649,6.47544875391759e-05,0.1141668483614921,0,0,0
3163,140213.898194024,2011-01-26 01:51:29,2071.0423658795767,2,18,0.5499359965324402,4.1727800369262695,9.928061795692686,9.53855863575802,40.69077434560228,33.14849626603649,9.70840483205393e-05,0.1141668483614921,0,0,0
3164,140243.91330730173,2011-01-26 01:51:59,2101.057479182347,2,18,0.5499359965324402,4.176665306091309,9.932648082941435,9.53855863575802,40.70992063326377,33.14849626603649,0.0001295089750783,0.1141668483614921,0,0,0
3165,140273.92845520072,2011-01-26 01:52:29,2131.072627086354,2,18,0.550297200679779,4.180226802825928,9.937234397090792,9.53855863575802,40.729084105679455,33.14849626603649,9.70840483205393e-05,0.1141668483614921,0,0,0
3166,140303.94352389232,2011-01-26 01:52:59,2161.087695752876,2,18,0.5501165986061096,4.183950424194336,9.941820680396065,9.53855863575802,40.74826464139933,33.14849626603649,9.71794142969884e-05,0.1141668483614921,0,0,0
3167,140333.95872474829,2011-01-26 01:53:29,2191.1028967141183,2,18,0.5501165986061096,4.187673568725586,9.946406999065111,9.53855863575802,40.7674624788526,33.14849626603649,9.70840483205393e-05,0.1141668483614921,0,0,0
3168,140363.973790688,2011-01-26 01:53:59,2221.117962553595,2,18,0.5501165986061096,4.191720962524414,9.950993267728704,9.53855863575802,40.786677461353285,33.14849626603649,0.0001295089750783,0.1141668483614921,0,0,0
3169,140393.9888899157,2011-01-26 01:54:29,2251.1330617712606,2,18,0.5499359965324402,4.195281982421875,9.955579574030002,9.53855863575802,40.805910127230845,33.14849626603649,9.70840483205393e-05,0.1141668483614921,0,0,0
3170,140424.00400766454,2011-01-26 01:54:59,2281.1481795301365,2,18,0.5497553944587708,4.199167251586914,9.960165798261547,9.53855863575802,40.82516001037862,33.14849626603649,9.70840483205393e-05,0.1141668483614921,0,0,0
3171,140428.6133178889,2011-01-26 01:55:03,2285.757489774515,2,18,0.550297200679779,4.200138568878174,9.960870111964306,9.53855863575802,40.8281178277835,33.14849626603649,0.0001618385285837,0.1141668483614921,0,0,0
3172,140458.63190043202,2011-01-26 01:55:34,30.015106360467627,3,18,0.0,4.088275909423828,9.960870111964306,9.53855863575802,40.8281178277835,33.14849626603649,-0.0004532813909463,0.1141668483614921,0,0,0
3173,140488.64699995544,2011-01-26 01:56:04,60.03020597412012,3,18,0.0,4.074353694915772,9.960870111964306,9.53855863575802,40.8281178277835,33.14849626603649,-0.0002913475036621,0.1141668483614921,0,0,0
3174,140518.66213039594,2011-01-26 01:56:34,90.04533640959006,3,18,0.0,4.0654497146606445,9.960870111964306,9.53855863575802,40.8281178277835,33.14849626603649,-0.0001942634553415,0.1141668483614921,0,0,0
3175,140548.6302929179,2011-01-26 01:57:04,120.013498861393,3,18,0.0,4.059460163116455,9.960870111964306,9.53855863575802,40.8281178277835,33.14849626603649,-0.0001295089750783,0.1141668483614921,0,0,0
3176,140548.63583932523,2011-01-26 01:57:04,2.656621117e-06,4,18,1.013379454612732,4.199976921081543,9.960870112712128,9.53855863575802,40.82811783092434,33.14849626603649,0.0,0.1141668483614921,0,0,0
3177,140549.21427498487,2011-01-26 01:57:04,0.578438446589963,4,18,0.9624475836753844,4.199814796447754,9.961027315618416,9.53855863575802,40.828778052348525,33.14849626603649,-3.24249267578125e-05,0.1141668483614921,0,0,0
3178,140551.08891912486,2011-01-26 01:57:06,2.453082471313119,4,18,0.9122382402420044,4.199814796447754,9.961514120927024,9.53855863575802,40.83082255029176,33.14849626603649,-3.24249267578125e-05,0.1141668483614921,0,0,0
3179,140554.1044766922,2011-01-26 01:57:09,5.468640033622259,4,18,0.8618482351303101,4.199653148651123,9.962256116634226,9.53855863575802,40.8339388285797,33.14849626603649,-3.23295607813634e-05,0.1141668483614921,0,0,0
3180,140558.35439663034,2011-01-26 01:57:13,9.718559981800796,4,18,0.8118194341659546,4.199814796447754,9.963242910914934,9.53855863575802,40.83808322724417,33.14849626603649,0.0,0.1141668483614921,0,0,0
3181,140564.05745049036,2011-01-26 01:57:19,15.421613841805732,4,18,0.7617906928062439,4.199814796447754,9.964487803729288,9.53855863575802,40.84331162290637,33.14849626603649,-3.24249267578125e-05,0.1141668483614921,0,0,0
3182,140571.57313892848,2011-01-26 01:57:27,22.93730230497548,4,18,0.711581289768219,4.199814796447754,9.966023698998194,9.53855863575802,40.84976218077897,33.14849626603649,3.23295607813634e-05,0.1141668483614921,0,0,0
3183,140581.74462401398,2011-01-26 01:57:37,33.108787355408865,4,18,0.6615525484085083,4.199814796447754,9.967960611064266,9.53855863575802,40.85789698199458,33.14849626603649,-6.47544875391759e-05,0.1141668483614921,0,0,0
3184,140596.24437417786,2011-01-26 01:57:51,47.6085375343163,4,18,0.6113431453704834,4.199814796447754,9.970518799191856,9.53855863575802,40.86864108101349,33.14849626603649,-3.24249267578125e-05,0.1141668483614921,0,0,0
3185,140619.16586697067,2011-01-26 01:58:14,70.53003032211049,4,18,0.5613144040107727,4.199814796447754,9.974239879016126,9.53855863575802,40.88426917410349,33.14849626603649,3.23295607813634e-05,0.1141668483614921,0,0,0
3186,140660.85263854713,2011-01-26 01:58:56,112.216801888553,4,18,0.5112856030464172,4.199814796447754,9.980420789352737,9.53855863575802,40.9102282871392,33.14849626603649,-3.24249267578125e-05,0.1141668483614921,0,0,0
3187,140742.96061254735,2011-01-26 02:00:18,194.3247759188285,4,18,0.4610762298107147,4.199976921081543,9.991458896848856,9.53855863575802,40.956586628119815,33.14849626603649,3.24249267578125e-05,0.1141668483614921,0,0,0
3188,140870.94291226738,2011-01-26 02:02:26,322.3070756188501,4,18,0.4110474586486816,4.199976921081543,10.006927352862858,9.53855863575802,41.02155228104846,33.14849626603649,3.24249267578125e-05,0.1141668483614921,0,0,0
3189,141030.64333914476,2011-01-26 02:05:06,482.0075025363213,4,18,0.3608380854129791,4.199814796447754,10.02402844841613,9.53855863575802,41.09337489330148,33.14849626603649,-3.24249267578125e-05,0.1141668483614921,0,0,0
3190,141224.43692084917,2011-01-26 02:08:20,675.8010842056356,4,18,0.310809314250946,4.199653148651123,10.042083282734422,9.53855863575802,41.16920319088743,33.14849626603649,0.0,0.1141668483614921,0,0,0
3191,141459.71410897496,2011-01-26 02:12:15,911.0782723264136,4,18,0.2607805430889129,4.199976921081543,10.060716940777318,9.53855863575802,41.24746239016785,33.14849626603649,0.0,0.1141668483614921,0,0,0
3192,141750.6777809528,2011-01-26 02:17:06,1202.041944304266,4,18,0.210751786828041,4.199814796447754,10.079710925432884,9.53855863575802,41.3272348174032,33.14849626603649,3.23295607813634e-05,0.1141668483614921,0,0,0
3193,142130.6556906701,2011-01-26 02:23:26,1582.019854041611,4,18,0.160723015666008,4.199976921081543,10.09921951152858,9.53855863575802,41.40916857668816,33.14849626603649,3.24249267578125e-05,0.1141668483614921,0,0,0
3194,142668.08392278207,2011-01-26 02:32:23,2119.448086128505,4,18,0.1105136349797248,4.199814796447754,10.119269659109465,9.53855863575802,41.49337638484204,33.14849626603649,0.0,0.1141668483614921,0,0,0
3195,143625.36453510085,2011-01-26 02:48:21,3076.728698462321,4,18,0.0604848638176918,4.199653148651123,10.141316286666454,9.53855863575802,41.5859697974183,33.14849626603649,-3.23295607813634e-05,0.1141668483614921,0,0,0
3196,143967.38984800916,2011-01-26 02:54:03,3418.754011355609,4,18,0.0498289167881011,4.199976921081543,10.146576716002768,9.53855863575802,41.60806300046296,33.14849626603649,0.0,0.1141668483614921,0,0,0
3197,143997.4063596842,2011-01-26 02:54:33,30.014979454178103,5,18,0.0,4.1892924308776855,10.146576716002768,9.53855863575802,41.60806300046296,33.14849626603649,-3.24249267578125e-05,0.1141668483614921,0,0,0
3198,144027.4058393782,2011-01-26 02:55:03,60.01445914317222,5,18,0.0,4.187511920928955,10.146576716002768,9.53855863575802,41.60806300046296,33.14849626603649,0.0,0.1141668483614921,0,0,0
3199,144027.59606701005,2011-01-26 02:55:03,0.187641059255375,6,18,-1.9243103452026844e-05,4.187673568725586,10.146576716002768,9.538558636761016,41.60806300046296,33.14849627023672,0.0,0.1165959313511848,0,0,0
3200,144032.42396026052,2011-01-26 02:55:08,5.015534294703723,6,18,0.0008838032954372,4.187511920928955,10.146577658521082,9.538558636844158,41.608066947440285,33.14849627058488,-3.23295607813634e-05,0.1165959313511848,0,0,0
3201,144043.0357941288,2011-01-26 02:55:18,10.609179459576175,7,18,-1.0993878841400146,3.9874210357666016,10.146577658521082,9.541798916869604,41.608066947440285,33.16146732628908,-0.0021044730674475,0.1165959313511848,0,0,0
3202,144073.05090699552,2011-01-26 02:55:49,40.62429235132176,7,18,-1.0993878841400146,3.923314094543457,10.146577658521082,9.550966166735304,41.608066947440285,33.19771817985385,-0.0015864849556237,0.1165959313511848,0,0,0
3203,144103.066009752,2011-01-26 02:56:19,70.63939508274468,7,18,-1.0993878841400146,3.86681604385376,10.146577658521082,9.560133374668377,41.608066947440285,33.2334200565658,-0.0014245987404137,0.1165959313511848,0,0,0
3204,144133.08117694908,2011-01-26 02:56:49,100.6545622848484,7,18,-1.099568486213684,3.818412303924561,10.146577658521082,9.569300638640543,41.608066947440285,33.26863912533834,-0.0011655807029455,0.1165959313511848,0,0,0
3205,144163.09624241263,2011-01-26 02:57:19,130.6696277433758,7,18,-1.099568486213684,3.7802071571350098,10.146577658521082,9.578467785760816,41.608066947440285,33.30346069498243,-0.0009065627818927,0.1165959313511848,0,0,0
3206,144193.11133306392,2011-01-26 02:57:49,160.68471839469137,7,18,-1.0997490882873535,3.750744104385376,10.146577658521082,9.587634980301774,41.608066947440285,33.33797565458069,-0.0007122516399249,0.1165959313511848,0,0,0
3207,144223.12644795567,2011-01-26 02:58:19,190.69983328642155,7,18,-1.099568486213684,3.726946830749512,10.146577658521082,9.596802174170538,41.608066947440285,33.372247069025136,-0.0005827903514727,0.1165959313511848,0,0,0
3208,144253.14170026488,2011-01-26 02:58:49,220.71508578110056,7,18,-1.099568486213684,3.7065491676330566,10.146577658521082,9.605969403559108,41.608066947440285,33.406316877858245,-0.0005180359003134,0.1165959313511848,0,0,0
3209,144283.15668850095,2011-01-26 02:59:19,250.7300738517536,7,18,-1.099568486213684,3.688579797744751,10.146577658521082,9.615136583755143,41.608066947440285,33.44021116975128,-0.0004209041653666,0.1165959313511848,0,0,0
3210,144313.1719272965,2011-01-26 02:59:49,280.7453126372652,7,18,-1.099568486213684,3.672229528427124,10.146577658521082,9.624303832978857,41.608066947440285,33.47394913808963,-0.0004208564641885,0.1165959313511848,0,0,0
3211,144343.18702736628,2011-01-26 03:00:19,310.760412712067,7,18,-1.099568486213684,3.6574978828430176,10.146577658521082,9.633471025515387,41.608066947440285,33.50754549546805,-0.0003885269106831,0.1165959313511848,0,0,0
3212,144373.20200149718,2011-01-26 03:00:49,340.7753868379654,7,18,-1.099568486213684,3.643575668334961,10.146577658521082,9.642638145191327,41.608066947440285,33.541010681089,-0.0003885269106831,0.1165959313511848,0,0,0
3213,144403.217330287,2011-01-26 03:01:19,370.79071564283294,7,18,-1.099568486213684,3.630462884902954,10.146577658521082,9.651805388881998,41.608066947440285,33.57435221490428,-0.0003237724304199,0.1165959313511848,0,0,0
3214,144433.2322598268,2011-01-26 03:01:49,400.80564524777134,7,18,-1.099568486213684,3.617835760116577,10.146577658521082,9.660972505297211,41.608066947440285,33.60757540151133,-0.0003561496851034,0.1165959313511848,0,0,0
3215,144463.24733935038,2011-01-26 03:02:19,430.8207246861408,7,18,-1.099568486213684,3.60601806640625,10.146577658521082,9.67013973398612,41.608066947440285,33.64068759067602,-0.0003561496851034,0.1165959313511848,0,0,0
3216,144493.2624796855,2011-01-26 03:02:49,460.83586504133376,7,18,-1.099568486213684,3.5945241451263428,10.146577658521082,9.679306968146006,41.608066947440285,33.6736923343107,-0.0003237724304199,0.1165959313511848,0,0,0
3217,144523.27773303734,2011-01-26 03:03:19,490.85111838813657,7,18,-1.099568486213684,3.5835161209106445,10.146577658521082,9.688474246622672,41.608066947440285,33.70659380606208,-0.0002913951757363,0.1165959313511848,0,0,0
3218,144553.2926708778,2011-01-26 03:03:49,520.8660562085505,7,18,-1.099568486213684,3.572831630706787,10.146577658521082,9.69764146360608,41.608066947440285,33.73939558827946,-0.0002913951757363,0.1165959313511848,0,0,0
3219,144583.30778609533,2011-01-26 03:04:19,550.8811714260927,7,18,-1.099568486213684,3.56263279914856,10.146577658521082,9.706808721455952,41.608066947440285,33.77210142080051,-0.0002590179501567,0.1165959313511848,0,0,0
3220,144613.32290122766,2011-01-26 03:04:49,580.8962865584225,7,18,-1.099568486213684,3.552757740020752,10.146577658521082,9.715975942297847,41.608066947440285,33.804715729721856,-0.0002913951757363,0.1165959313511848,0,0,0
3221,144643.33815157198,2011-01-26 03:05:19,610.9115369227922,7,18,-1.099568486213684,3.5432064533233643,10.146577658521082,9.72514322512792,41.608066947440285,33.83724086790252,-0.0002590179501567,0.1165959313511848,0,0,0
3222,144673.3531868854,2011-01-26 03:05:49,640.9265722211512,7,18,-1.099568486213684,3.5341408252716064,10.146577658521082,9.734310526244892,41.608066947440285,33.869680165185464,-0.0002590179501567,0.1165959313511848,0,0,0
3223,144703.36837550587,2011-01-26 03:06:19,670.9417608566736,7,18,-1.099568486213684,3.525398969650269,10.146577658521082,9.74347778620227,41.608066947440285,33.90203748428867,-0.0001942634553415,0.1165959313511848,0,0,0
3224,144733.38348114956,2011-01-26 03:06:49,700.9568665053672,7,18,-1.0993878841400146,3.5166571140289307,10.146577658521082,9.752645077651458,41.608066947440285,33.93431496823869,-0.0002266406954731,0.1165959313511848,0,0,0
3225,144763.3984640924,2011-01-26 03:07:19,730.9718494231778,7,18,-1.0993878841400146,3.5084011554718018,10.146577658521082,9.761812314228534,41.608066947440285,33.96651457525673,-0.0002266406954731,0.1165959313511848,0,0,0
3226,144793.4135473854,2011-01-26 03:07:49,760.9869327412166,7,18,-1.099568486213684,3.500306844711304,10.146577658521082,9.770979593878108,41.608066947440285,33.9986393753761,-0.0001942634553415,0.1165959313511848,0,0,0
3227,144823.42867228208,2011-01-26 03:08:19,791.0020576529196,7,18,-1.099568486213684,3.492374420166016,10.146577658521082,9.780146897674747,41.608066947440285,34.03069144015008,-0.0001942634553415,0.1165959313511848,0,0,0
3228,144853.4437489435,2011-01-26 03:08:49,821.0171342993307,7,18,-1.0993878841400146,3.4850895404815674,10.146577658521082,9.789314151625495,41.608066947440285,34.062673191074644,-0.0001618862152099,0.1165959313511848,0,0,0
3229,144883.4588762662,2011-01-26 03:09:19,851.0322616220426,7,18,-1.0993878841400146,3.477642774581909,10.146577658521082,9.798481401540249,41.608066947440285,34.09458671137283,-0.0001618862152099,0.1165959313511848,0,0,0
3230,144913.47410948787,2011-01-26 03:09:49,881.0474948336624,7,18,-1.0993878841400146,3.470357894897461,10.146577658521082,9.807648631706588,41.608066947440285,34.126432993901545,-0.0001942634553415,0.1165959313511848,0,0,0
3231,144943.48908015512,2011-01-26 03:10:19,911.0624654859032,7,18,-1.0993878841400146,3.4632349014282227,10.146577658521082,9.816815755794384,41.608066947440285,34.15821263035297,-0.0001618862152099,0.1165959313511848,0,0,0
3232,144973.50419462583,2011-01-26 03:10:49,941.077579956584,7,18,-1.099568486213684,3.4557881355285645,10.146577658521082,9.825982969747022,41.608066947440285,34.189925922099,-0.0001942634553415,0.1165959313511848,0,0,0
3233,145003.51947165665,2011-01-26 03:11:19,971.0928570174896,7,18,-1.099568486213684,3.448827028274536,10.146577658521082,9.835150253469518,41.608066947440285,34.2215745247812,-0.0001942634553415,0.1165959313511848,0,0,0
3234,145033.5344240534,2011-01-26 03:11:49,1001.1078093841576,7,18,-1.0993878841400146,3.441865921020508,10.146577658521082,9.844317494826706,41.608066947440285,34.25315831715155,-0.0001618862152099,0.1165959313511848,0,0,0
3235,145063.54965531518,2011-01-26 03:12:19,1031.1230406559423,7,18,-1.099568486213684,3.4344191551208496,10.146577658521082,9.853484808321886,41.608066947440285,34.28467680553583,-0.0001942634553415,0.1165959313511848,0,0,0
3236,145093.5646548594,2011-01-26 03:12:49,1061.1380401951787,7,18,-1.0997490882873535,3.4269726276397705,10.146577658521082,9.862652080743215,41.608066947440285,34.31612797897064,-0.0002266406954731,0.1165959313511848,0,0,0
3237,145123.57980939996,2011-01-26 03:13:19,1091.1531947557758,7,18,-1.0993878841400146,3.4195258617401123,10.146577658521082,9.871819383217147,41.608066947440285,34.34751168812531,-0.0002590179501567,0.1165959313511848,0,0,0
3238,145153.59492037192,2011-01-26 03:13:49,1121.1683057076868,7,18,-1.0993878841400146,3.411917209625244,10.146577658521082,9.880986659076315,41.608066947440285,34.378825828635215,-0.0002266406954731,0.1165959313511848,0,0,0
3239,145183.6102464249,2011-01-26 03:14:19,1151.1836317657082,7,18,-1.099568486213684,3.403822898864746,10.146577658521082,9.890154005194308,41.608066947440285,34.41006857979293,-0.0002590179501567,0.1165959313511848,0,0,0
3240,145213.6250977648,2011-01-26 03:14:49,1181.1984830955612,7,18,-1.099568486213684,3.395404815673828,10.146577658521082,9.899321164700286,41.608066947440285,34.441234085586515,-0.0002590179501567,0.1165959313511848,0,0,0
3241,145243.64021135832,2011-01-26 03:15:19,1211.213596689056,7,18,-1.0993878841400146,3.3868248462677,10.146577658521082,9.9084883814144,41.608066947440285,34.4723206545013,-0.0001942634553415,0.1165959313511848,0,0,0
3242,145273.65537869072,2011-01-26 03:15:49,1241.2287640264967,7,18,-1.099568486213684,3.3775973320007324,10.146577658521082,9.917655644509049,41.608066947440285,34.50332639777005,-0.0002590179501567,0.1165959313511848,0,0,0
3243,145303.67060285978,2011-01-26 03:16:19,1271.2439883108673,7,18,-1.099568486213684,3.3680460453033447,10.146577658521082,9.926822953964171,41.608066947440285,34.53424713198116,-0.0002266406954731,0.1165959313511848,0,0,0
3244,145333.68560020858,2011-01-26 03:16:49,1301.258985629569,7,18,-1.099568486213684,3.3575234413146973,10.146577658521082,9.935990169041869,41.608066947440285,34.565075682630535,-0.0003237724304199,0.1165959313511848,0,0,0
3245,145363.70070918556,2011-01-26 03:17:19,1331.2740945213457,7,18,-1.099568486213684,3.347001075744629,10.146577658521082,9.945157437009142,41.608066947440285,34.59580824069664,-0.0002590179501567,0.1165959313511848,0,0,0
3246,145393.71576322065,2011-01-26 03:17:49,1361.2891485513896,7,18,-1.099568486213684,3.335345268249512,10.146577658521082,9.954324681808478,41.608066947440285,34.62643909969446,-0.0003237724304199,0.1165959313511848,0,0,0
3247,145423.7310243067,2011-01-26 03:18:19,1391.304409657531,7,18,-1.0992072820663452,3.3227181434631348,10.146577658521082,9.963492005034867,41.608066947440285,34.656958560341494,-0.0003237724304199,0.1165959313511848,0,0,0
3248,145453.7459812899,2011-01-26 03:18:49,1421.3193666206544,7,18,-1.0993878841400146,3.309119701385498,10.146577658521082,9.972659200102072,41.608066947440285,34.6873554158969,-0.0002913951757363,0.1165959313511848,0,0,0
3249,145483.76123353894,2011-01-26 03:19:19,1451.334618884759,7,18,-1.0997490882873535,3.293740510940552,10.146577658521082,9.981826452953632,41.608066947440285,34.717621703411766,-0.0004532813909463,0.1165959313511848,0,0,0
3250,145513.77838567313,2011-01-26 03:19:49,1481.3517710139115,7,18,-1.099568486213684,3.277228116989136,10.146577658521082,9.990994370428114,41.608066947440285,34.74774470725521,-0.0004532813909463,0.1165959313511848,0,0,0
3251,145543.7915567202,2011-01-26 03:20:19,1511.3649420659951,7,18,-1.099568486213684,3.2581257820129395,10.146577658521082,10.000160969184993,41.608066947440285,34.77770074962501,-0.0005180359003134,0.1165959313511848,0,0,0
3252,145573.80643412503,2011-01-26 03:20:49,1541.3798194557976,7,18,-1.0997490882873535,3.2361092567443848,10.146577658521082,10.009328164046206,41.608066947440285,34.807470133918386,-0.0006151676061563,0.1165959313511848,0,0,0
3253,145603.82169474498,2011-01-26 03:21:19,1571.3950800907646,7,18,-1.0993878841400146,3.210207462310791,10.146577658521082,10.018495451231193,41.608066947440285,34.837020680149706,-0.0007446765666827,0.1165959313511848,0,0,0
3254,145633.8366559988,2011-01-26 03:21:49,1601.4100413295446,7,18,-1.0997490882873535,3.1784780025482178,10.146577658521082,10.027662688303447,41.608066947440285,34.86630897789134,-0.0009065627818927,0.1165959313511848,0,0,0
3255,145663.851767472,2011-01-26 03:22:19,1631.4251528027546,7,18,-1.099568486213684,3.1388158798217773,10.146577658521082,10.036829987338509,41.608066947440285,34.89527438011963,-0.0011979580158367,0.1165959313511848,0,0,0
3256,145693.86687988255,2011-01-26 03:22:49,1661.440265213301,7,18,-1.099568486213684,3.0881457328796387,10.146577658521082,10.04599728617928,41.608066947440285,34.92382931906283,-0.0015541076427325,0.1165959313511848,0,0,0
3257,145723.88200394213,2011-01-26 03:23:19,1691.45538927288,7,18,-1.0993878841400146,3.0193443298339844,10.146577658521082,10.05516461283046,41.608066947440285,34.95184071704018,-0.0020720958709716,0.1165959313511848,0,0,0
3258,145753.8971250443,2011-01-26 03:23:49,1721.4705104001512,7,18,-1.0997490882873535,2.922698497772217,10.146577658521082,10.064331934814945,41.608066947440285,34.97910283400972,-0.002978706266731,0.1165959313511848,0,0,0
3259,145783.9122103473,2011-01-26 03:24:19,1751.4855956780746,7,18,-1.099568486213684,2.7849338054656982,10.146577658521082,10.073499260322468,41.608066947440285,35.00530454197581,-0.0043061254546046,0.1165959313511848,0,0,0
3260,145798.9282005352,2011-01-26 03:24:34,1766.5015858859774,7,18,-1.099568486213684,2.699943780899048,10.146577658521082,10.078085485460033,41.608066947440285,35.017885545272726,-0.0046946527436375,0.1165959313511848,0,0,0
3261,145858.94385961635,2011-01-26 03:25:35,60.01460255058762,8,18,0.0,3.656688451766968,10.146577658521082,10.078085485460033,41.608066947440285,35.017885545272726,0.0011655807029455,0.1165959313511848,0,0,0
3262,145859.13406191158,2011-01-26 03:25:35,0.187500674373053,9,18,-1.9243103452026844e-05,3.657012224197388,10.146577658521082,10.078085486462282,41.608066947440285,35.01788554893796,0.0,0.1133571565151214,0,0,0
3263,145863.96246860173,2011-01-26 03:25:40,5.015907384558438,9,18,0.0003419754502829,3.664135217666626,10.14657853735061,10.078085486629249,41.608070164899,35.01788554954855,0.0010360718006268,0.1133571565151214,0,0,0
