Data_Point,Test_Time(s),Date_Time,Step_Time(s),Step_Index,Cycle_Index,Current(A),Voltage(V),Charge_Capacity(Ah),Discharge_Capacity(Ah),Charge_Energy(Wh),Discharge_Energy(Wh),dV/dt(V/s),Internal_Resistance(Ohm),Is_FC_Data,AC_Impedance(Ohm),ACI_Phase_Angle(Deg)
3613,161608.54059066236,2011-01-26 07:48:07,30.01512113729603,1,21,0.0,3.69133186340332,11.227833272412497,11.160115637058054,46.04601633103192,38.7698214585069,0.0005827903514727,0.1125474646687507,0,0,0
3614,161638.55569384492,2011-01-26 07:48:37,60.03022430981832,1,21,0.0,3.708653688430786,11.227833272412497,11.160115637058054,46.04601633103192,38.7698214585069,0.0003237724304199,0.1125474646687507,0,0,0
3615,161668.5708416186,2011-01-26 07:49:07,90.04537210856289,1,21,0.0,3.720957040786743,11.227833272412497,11.160115637058054,46.04601633103192,38.7698214585069,0.0002913951757363,0.1125474646687507,0,0,0
3616,161698.5391112074,2011-01-26 07:49:37,120.01364169237176,1,21,0.0,3.730022668838501,11.227833272412497,11.160115637058054,46.04601633103192,38.7698214585069,0.0002266406954731,0.1125474646687507,0,0,0
3617,161728.56150252678,2011-01-26 07:50:07,30.015168480289336,2,21,0.550297200679779,3.847065925598145,11.232419795213314,11.160115637058054,46.063582395294766,38.7698214585069,0.0007122993702068,0.1125474646687507,0,0,0
3618,161758.57658897762,2011-01-26 07:50:37,60.03025490106111,2,21,0.5501165986061096,3.86665415763855,11.2370063043729,11.160115637058054,46.08127551247058,38.7698214585069,0.0004209041653666,0.1125474646687507,0,0,0
3619,161788.5916682506,2011-01-26 07:51:07,90.04533418905581,2,21,0.5501165986061096,3.880738258361816,11.241592823623678,11.160115637058054,46.099043981658205,38.7698214585069,0.0003237724304199,0.1125474646687507,0,0,0
3620,161818.60690492086,2011-01-26 07:51:37,120.06057084927048,2,21,0.5499359965324402,3.892232179641724,11.246178602575997,11.160115637058054,46.11686716548048,38.7698214585069,0.0002913951757363,0.1125474646687507,0,0,0
3621,161848.62189478596,2011-01-26 07:52:07,150.07556073444584,2,21,0.5499359965324402,3.901945352554321,11.25076424657245,11.160115637058054,46.13473805832147,38.7698214585069,0.0002590179501567,0.1125474646687507,0,0,0
3622,161878.63704518118,2011-01-26 07:52:37,180.09071112966163,2,21,0.5501165986061096,3.911010980606079,11.255350607355522,11.160115637058054,46.1526547026382,38.7698214585069,0.0002266406954731,0.1125474646687507,0,0,0
3623,161908.65212081006,2011-01-26 07:53:07,210.10578676354916,2,21,0.5501165986061096,3.919105052947998,11.259937014344075,11.160115637058054,46.170610546142896,38.7698214585069,0.0002266406954731,0.1125474646687507,0,0,0
3624,161938.6674354446,2011-01-26 07:53:37,240.1211013930874,2,21,0.5501165986061096,3.926713705062866,11.264523459229173,11.160115637058054,46.188602691007816,38.7698214585069,0.0001942634553415,0.1125474646687507,0,0,0
3625,161968.68240430238,2011-01-26 07:54:07,270.1360702558685,2,21,0.5501165986061096,3.933836698532105,11.269109897710118,11.160115637058054,46.20662891607834,38.7698214585069,0.0001618862152099,0.1125474646687507,0,0,0
3626,161998.697783568,2011-01-26 07:54:37,300.1514496417996,2,21,0.5501165986061096,3.940797805786133,11.273696387148552,11.160115637058054,46.22468765877758,38.7698214585069,0.0001942634553415,0.1125474646687507,0,0,0
3627,162028.71267915817,2011-01-26 07:55:07,330.1663451818378,2,21,0.5501165986061096,3.9472732543945312,11.278282776717829,11.160115637058054,46.242776586386654,38.7698214585069,0.0001618862152099,0.1125474646687507,0,0,0
3628,162058.72787860062,2011-01-26 07:55:37,360.181544559132,2,21,0.5501165986061096,3.9534249305725098,11.282869182459867,11.160115637058054,46.26089463995794,38.7698214585069,0.0001942634553415,0.1125474646687507,0,0,0
3629,162088.74287897695,2011-01-26 07:56:07,390.196544930442,2,21,0.550297200679779,3.9594147205352783,11.287455591492066,11.160115637058054,46.279040417827446,38.7698214585069,0.0001942634553415,0.1125474646687507,0,0,0
3630,162118.75818881457,2011-01-26 07:56:37,420.21185477304977,2,21,0.5501165986061096,3.964918851852417,11.292042106926102,11.160115637058054,46.29721295353336,38.7698214585069,0.0001295089750783,0.1125474646687507,0,0,0
3631,162148.7730981189,2011-01-26 07:57:07,450.2267640773929,2,21,0.550297200679779,3.9702610969543457,11.296628570364168,11.160115637058054,46.31541017678919,38.7698214585069,0.0001618862152099,0.1125474646687507,0,0,0
3632,162178.78821394796,2011-01-26 07:57:37,480.2418799716216,2,21,0.550297200679779,3.9752795696258554,11.30121500526558,11.160115637058054,46.333630983426765,38.7698214585069,0.0001295089750783,0.1125474646687507,0,0,0
3633,162208.80331629844,2011-01-26 07:58:07,510.25698225693264,2,21,0.550297200679779,3.9802980422973633,11.305801437366137,11.160115637058054,46.351874483919055,38.7698214585069,0.0001295089750783,0.1125474646687507,0,0,0
3634,162238.81857062265,2011-01-26 07:58:37,540.2722366112465,2,21,0.5501165986061096,3.984830856323242,11.310387762300612,11.160115637058054,46.3701395410538,38.7698214585069,0.0001295089750783,0.1125474646687507,0,0,0
3635,162268.8357061304,2011-01-26 07:59:07,570.289372093911,2,21,0.5501165986061096,3.989363670349121,11.31497445080157,11.160115637058054,46.38842701180201,38.7698214585069,9.713172767078504e-05,0.1125474646687507,0,0,0
3636,162298.8488229072,2011-01-26 07:59:37,600.3024888857615,2,21,0.5501165986061096,3.99373459815979,11.319560519515166,11.160115637058054,46.40673246969785,38.7698214585069,0.0001295089750783,0.1125474646687507,0,0,0
3637,162328.86378228135,2011-01-26 08:00:07,630.3174482348314,2,21,0.5499359965324402,3.99794340133667,11.324146805954149,11.160115637058054,46.42505863646598,38.7698214585069,9.713172767078504e-05,0.1125474646687507,0,0,0
3638,162358.87891429572,2011-01-26 08:00:37,660.332580254249,2,21,0.5499359965324402,4.001990795135498,11.3287331146518,11.160115637058054,46.44340410599714,38.7698214585069,9.71794142969884e-05,0.1125474646687507,0,0,0
3639,162388.89401299212,2011-01-26 08:01:07,690.3476789456029,2,21,0.5499359965324402,4.006199836730957,11.3333193888794,11.160115637058054,46.46176830988082,38.7698214585069,0.0001295089750783,0.1125474646687507,0,0,0
3640,162418.90912187385,2011-01-26 08:01:37,720.3627878073044,2,21,0.5501165986061096,4.010246753692627,11.337905724648458,11.160115637058054,46.48015112576345,38.7698214585069,0.0001295089750783,0.1125474646687507,0,0,0
3641,162448.92423526687,2011-01-26 08:02:07,750.3779011952868,2,21,0.5501165986061096,4.013970375061035,11.34249199196474,11.160115637058054,46.49855164039958,38.7698214585069,0.0001295089750783,0.1125474646687507,0,0,0
3642,162478.93936667976,2011-01-26 08:02:37,780.3930326081928,2,21,0.5499359965324402,4.017855644226074,11.347078343055053,11.160115637058054,46.51697015633451,38.7698214585069,6.47544875391759e-05,0.1125474646687507,0,0,0
3643,162508.954481777,2011-01-26 08:03:07,810.40814773551,2,21,0.5499359965324402,4.021740913391113,11.351664611510763,11.160115637058054,46.53540577741674,38.7698214585069,0.0001295089750783,0.1125474646687507,0,0,0
3644,162538.96958487434,2011-01-26 08:03:37,840.4232508328452,2,21,0.5499359965324402,4.025464057922363,11.356250895429982,11.160115637058054,46.55385866085258,38.7698214585069,0.0001295089750783,0.1125474646687507,0,0,0
3645,162568.98525898482,2011-01-26 08:04:07,870.4389249383079,2,21,0.5501165986061096,4.029187679290772,11.360837239875991,11.160115637058054,46.57232881517415,38.7698214585069,9.71794142969884e-05,0.1125474646687507,0,0,0
3646,162598.98643149284,2011-01-26 08:04:37,900.4400975265277,2,21,0.5499359965324402,4.032425403594971,11.365421349263638,11.160115637058054,46.59080649040562,38.7698214585069,6.47544875391759e-05,0.1125474646687507,0,0,0
3647,162628.99932350448,2011-01-26 08:05:07,930.4529894579568,2,21,0.5501165986061096,4.036148548126221,11.370007268864292,11.160115637058054,46.60930774679215,38.7698214585069,9.71794142969884e-05,0.1125474646687507,0,0,0
3648,162659.01442116828,2011-01-26 08:05:37,960.468087106712,2,21,0.5499359965324402,4.03971004486084,11.374593521609652,11.160115637058054,46.627826447556366,38.7698214585069,9.71794142969884e-05,0.1125474646687507,0,0,0
3649,162689.0295065063,2011-01-26 08:06:07,990.4831724397728,2,21,0.5501165986061096,4.043271541595459,11.379179775871682,11.160115637058054,46.6463609682822,38.7698214585069,9.71794142969884e-05,0.1125474646687507,0,0,0
3650,162719.044722876,2011-01-26 08:06:37,1020.4983888044048,2,21,0.5499359965324402,4.046509265899658,11.3837660716287,11.160115637058054,46.664911448635664,38.7698214585069,9.71794142969884e-05,0.1125474646687507,0,0,0
3651,162749.05980829927,2011-01-26 08:07:07,1050.5134742377156,2,21,0.5501165986061096,4.049908638000488,11.388352437202592,11.160115637058054,46.68347777821372,38.7698214585069,0.0001295089750783,0.1125474646687507,0,0,0
3652,162779.07489597815,2011-01-26 08:07:38,1080.5285619416854,2,21,0.5497553944587708,4.053146362304688,11.392938678598092,11.160115637058054,46.70205904076622,38.7698214585069,6.47544875391759e-05,0.1125474646687507,0,0,0
3653,162809.09002457908,2011-01-26 08:08:08,1110.5436905074955,2,21,0.5501165986061096,4.056384086608887,11.397525030598391,11.160115637058054,46.72065616567086,38.7698214585069,6.47544875391759e-05,0.1125474646687507,0,0,0
3654,162839.10528126417,2011-01-26 08:08:38,1140.5589472026436,2,21,0.5501165986061096,4.059783935546875,11.402111380247064,11.160115637058054,46.73926859836119,38.7698214585069,6.47544875391759e-05,0.1125474646687507,0,0,0
3655,162869.12043352905,2011-01-26 08:09:08,1170.5740995878189,2,21,0.550297200679779,4.063345432281494,11.406697680007454,11.160115637058054,46.757895758933714,38.7698214585069,0.0001295089750783,0.1125474646687507,0,0,0
3656,162899.13548472704,2011-01-26 08:09:38,1200.5891506955795,2,21,0.5499359965324402,4.066421031951904,11.41128399057698,11.160115637058054,46.776538141224805,38.7698214585069,0.0001295089750783,0.1125474646687507,0,0,0
3657,162929.15048252695,2011-01-26 08:10:08,1230.6041484553812,2,21,0.5499359965324402,4.069820880889893,11.4158701759969,11.160115637058054,46.79519517946583,38.7698214585069,9.71794142969884e-05,0.1125474646687507,0,0,0
3658,162959.16558693754,2011-01-26 08:10:38,1260.6192528810266,2,21,0.5499359965324402,4.072896480560303,11.420456482979532,11.160115637058054,46.8138677927122,38.7698214585069,9.70840483205393e-05,0.1125474646687507,0,0,0
3659,162989.18070934305,2011-01-26 08:11:08,1290.6343752764585,2,21,0.5501165986061096,4.076296329498291,11.425042708089087,11.160115637058054,46.83255504980488,38.7698214585069,6.47544875391759e-05,0.1125474646687507,0,0,0
3660,163019.1958084053,2011-01-26 08:11:38,1320.6494743587866,2,21,0.5501165986061096,4.07953405380249,11.4296289720161,11.160115637058054,46.85125746134911,38.7698214585069,6.47544875391759e-05,0.1125474646687507,0,0,0
3661,163049.21105684486,2011-01-26 08:12:08,1350.6647227833216,2,21,0.5501165986061096,4.0827717781066895,11.434215238325113,11.160115637058054,46.8699748263525,38.7698214585069,9.71794142969884e-05,0.1125474646687507,0,0,0
3662,163079.22605775754,2011-01-26 08:12:38,1380.679723706006,2,21,0.5501165986061096,4.08617115020752,11.438801403193043,11.160115637058054,46.888706876425374,38.7698214585069,0.0001295089750783,0.1125474646687507,0,0,0
3663,163109.24179345148,2011-01-26 08:13:08,1410.6954596054782,2,21,0.550297200679779,4.089408874511719,11.443387806972227,11.160115637058054,46.90745493319304,38.7698214585069,9.70840483205393e-05,0.1125474646687507,0,0,0
3664,163139.2562736263,2011-01-26 08:13:38,1440.7099395547366,2,21,0.5499359965324402,4.092646598815918,11.447973998225152,11.160115637058054,46.92621717336488,38.7698214585069,6.47544875391759e-05,0.1125474646687507,0,0,0
3665,163169.27138185143,2011-01-26 08:14:08,1470.7250477898765,2,21,0.5501165986061096,4.096046447753906,11.452560256182055,11.160115637058054,46.94499476180432,38.7698214585069,9.71794142969884e-05,0.1125474646687507,0,0,0
3666,163199.28660492777,2011-01-26 08:14:38,1500.740270886286,2,21,0.5501165986061096,4.099122047424316,11.457146542045336,11.160115637058054,46.96378749951644,38.7698214585069,3.23295607813634e-05,0.1125474646687507,0,0,0
3667,163229.30161735916,2011-01-26 08:15:08,1530.7552832925908,2,21,0.5501165986061096,4.102521896362305,11.461732859256776,11.160115637058054,46.98259537549208,38.7698214585069,9.71794142969884e-05,0.1125474646687507,0,0,0
3668,163259.31672027602,2011-01-26 08:15:38,1560.7703862144883,2,21,0.5501165986061096,4.105759620666504,11.466319130288149,11.160115637058054,47.00141817628936,38.7698214585069,6.47544875391759e-05,0.1125474646687507,0,0,0
3669,163289.3319839185,2011-01-26 08:16:08,1590.785649866976,2,21,0.550297200679779,4.109321117401123,11.470905383225077,11.160115637058054,47.02025603150974,38.7698214585069,0.0001295089750783,0.1125474646687507,0,0,0
3670,163319.3469458891,2011-01-26 08:16:38,1620.80061181753,2,21,0.5501165986061096,4.112396717071533,11.475491659826234,11.160115637058054,47.039109208100825,38.7698214585069,9.70840483205393e-05,0.1125474646687507,0,0,0
3671,163349.36203275097,2011-01-26 08:17:08,1650.8156986794013,2,21,0.5499359965324402,4.115958213806152,11.480077828983523,11.160115637058054,47.05797711901603,38.7698214585069,9.71794142969884e-05,0.1125474646687507,0,0,0
3672,163379.3771348909,2011-01-26 08:17:38,1680.8308008444124,2,21,0.5501165986061096,4.1190338134765625,11.484663373840494,11.160115637058054,47.07685771240185,38.7698214585069,6.47544875391759e-05,0.1125474646687507,0,0,0
3673,163409.39218150245,2011-01-26 08:18:08,1710.8458474509546,2,21,0.5499359965324402,4.122433662414551,11.489249087286632,11.160115637058054,47.095754462448205,38.7698214585069,6.47544875391759e-05,0.1125474646687507,0,0,0
3674,163439.4073840126,2011-01-26 08:18:38,1740.8610499410067,2,21,0.5501165986061096,4.12599515914917,11.493834634688447,11.160115637058054,47.114666018979925,38.7698214585069,0.0001295089750783,0.1125474646687507,0,0,0
3675,163469.42272105298,2011-01-26 08:19:08,1770.8763870214998,2,21,0.5501165986061096,4.129232883453369,11.498420253561546,11.160115637058054,47.13359356061691,38.7698214585069,6.47544875391759e-05,0.1125474646687507,0,0,0
3676,163499.4376340766,2011-01-26 08:19:38,1800.8913000250625,2,21,0.5499359965324402,4.132632255554199,11.503005826882545,11.160115637058054,47.15253676509634,38.7698214585069,6.47544875391759e-05,0.1125474646687507,0,0,0
3677,163529.45264494908,2011-01-26 08:20:08,1830.9063109025567,2,21,0.5501165986061096,4.136355876922607,11.507591364027029,11.160115637058054,47.17149552061807,38.7698214585069,0.0001295089750783,0.1125474646687507,0,0,0
3678,163559.4678446572,2011-01-26 08:20:38,1860.9215106207007,2,21,0.5501165986061096,4.1397552490234375,11.512177793419154,11.160115637058054,47.19047407270245,38.7698214585069,9.70840483205393e-05,0.1125474646687507,0,0,0
3679,163589.48297007516,2011-01-26 08:21:08,1890.936636013603,2,21,0.5501165986061096,4.143316745758057,11.516764264042708,11.160115637058054,47.2094688676024,38.7698214585069,0.0001295089750783,0.1125474646687507,0,0,0
3680,163619.49807777896,2011-01-26 08:21:38,1920.9517437374689,2,21,0.5501165986061096,4.147040367126465,11.52135065204772,11.160115637058054,47.22847957222964,38.7698214585069,0.0001295089750783,0.1125474646687507,0,0,0
3681,163649.5131894677,2011-01-26 08:22:08,1950.9668554011537,2,21,0.5501165986061096,4.150278091430664,11.525937061060644,11.160115637058054,47.24750683311623,38.7698214585069,9.71794142969884e-05,0.1125474646687507,0,0,0
3682,163679.52830468526,2011-01-26 08:22:38,1980.981970618696,2,21,0.5499359965324402,4.153839588165283,11.530523428848714,11.160115637058054,47.26655030881616,38.7698214585069,6.47544875391759e-05,0.1125474646687507,0,0,0
3683,163709.54361507922,2011-01-26 08:23:08,2010.9972810477648,2,21,0.5499359965324402,4.157401084899902,11.535109877299009,11.160115637058054,47.28561060523028,38.7698214585069,6.47544875391759e-05,0.1125474646687507,0,0,0
3684,163739.55853926064,2011-01-26 08:23:38,2041.012205199112,2,21,0.5501165986061096,4.161286354064941,11.539696241188686,11.160115637058054,47.30468716239704,38.7698214585069,0.0001295089750783,0.1125474646687507,0,0,0
3685,163769.57377298854,2011-01-26 08:24:08,2071.027438922006,2,21,0.550297200679779,4.165009498596191,11.544282703030769,11.160115637058054,47.32378077511434,38.7698214585069,0.0001295089750783,0.1125474646687507,0,0,0
3686,163799.58883808117,2011-01-26 08:24:38,2101.042504044696,2,21,0.550297200679779,4.1685709953308105,11.548869048596773,11.160115637058054,47.34289076194416,38.7698214585069,0.0001295089750783,0.1125474646687507,0,0,0
3687,163829.6039211436,2011-01-26 08:25:08,2131.0575870820358,2,21,0.5499359965324402,4.17213249206543,11.55345545707519,11.160115637058054,47.362017957615485,38.7698214585069,6.47544875391759e-05,0.1125474646687507,0,0,0
3688,163859.61901902792,2011-01-26 08:25:38,2161.0726849914404,2,21,0.5499359965324402,4.175856113433838,11.558041878796484,11.160115637058054,47.38116224236044,38.7698214585069,9.71794142969884e-05,0.1125474646687507,0,0,0
3689,163889.63436814843,2011-01-26 08:26:08,2191.088034116953,2,21,0.5499359965324402,4.179579257965088,11.56262832027263,11.160115637058054,47.40032366790364,38.7698214585069,3.23295607813634e-05,0.1125474646687507,0,0,0
3690,163919.64922236046,2011-01-26 08:26:38,2221.102888313952,2,21,0.5499359965324402,4.183464527130127,11.56721463984528,11.160115637058054,47.41950172697238,38.7698214585069,0.0001295089750783,0.1125474646687507,0,0,0
3691,163949.66444585787,2011-01-26 08:27:08,2251.1181118314107,2,21,0.5497553944587708,4.187188148498535,11.571800992071989,11.160115637058054,47.43869722052594,38.7698214585069,9.71794142969884e-05,0.1125474646687507,0,0,0
3692,163979.67948775267,2011-01-26 08:27:38,2281.133153696135,2,21,0.5501165986061096,4.191235065460205,11.576387342443658,11.160115637058054,47.45791012342105,38.7698214585069,0.0001295089750783,0.1125474646687507,0,0,0
3693,164009.69471448814,2011-01-26 08:28:08,2311.148380446652,2,21,0.550297200679779,4.195120334625244,11.580973738769574,11.160115637058054,47.47714085704784,38.7698214585069,0.0001295089750783,0.1125474646687507,0,0,0
3694,164039.7096960275,2011-01-26 08:28:38,2341.1633619609643,2,21,0.5499359965324402,4.198843479156494,11.58556010245198,11.160115637058054,47.49638914376999,38.7698214585069,9.70840483205393e-05,0.1125474646687507,0,0,0
3695,164048.27209380738,2011-01-26 08:28:47,2349.725759740816,2,21,0.5501165986061096,4.200138568878174,11.58686847118422,11.160115637058054,47.501883449451576,38.7698214585069,0.0001295089750783,0.1125474646687507,0,0,0
3696,164078.2874445385,2011-01-26 08:29:17,30.01508765885746,3,21,0.0,4.089570999145508,11.58686847118422,11.160115637058054,47.501883449451576,38.7698214585069,-0.0004532813909463,0.1125474646687507,0,0,0
3697,164108.30293786342,2011-01-26 08:29:47,60.030581013834485,3,21,0.0,4.075810432434082,11.58686847118422,11.160115637058054,47.501883449451576,38.7698214585069,-0.0002914428769145,0.1125474646687507,0,0,0
3698,164138.31774166485,2011-01-26 08:30:17,90.04538481523181,3,21,0.0,4.067068576812744,11.58686847118422,11.160115637058054,47.501883449451576,38.7698214585069,-0.0001942634553415,0.1125474646687507,0,0,0
3699,164168.28595394583,2011-01-26 08:30:47,120.013597061137,3,21,0.0,4.060755252838135,11.58686847118422,11.160115637058054,47.501883449451576,38.7698214585069,-0.0001942634553415,0.1125474646687507,0,0,0
3700,164168.2882918965,2011-01-26 08:30:47,2.631558654e-06,4,21,1.0321627855300903,4.199814796447754,11.58686847193872,11.160115637058054,47.50188345262033,38.7698214585069,0.0,0.1125474646687507,0,0,0
3701,164168.52266547756,2011-01-26 08:30:47,0.234376217650143,4,21,0.9805085062980652,4.199814796447754,11.586933103425372,11.160115637058054,47.502154890129184,38.7698214585069,0.0,0.1125474646687507,0,0,0
3702,164169.99138981054,2011-01-26 08:30:49,1.703100550603041,4,21,0.9301185607910156,4.199814796447754,11.587321504414158,11.160115637058054,47.503786094957015,38.7698214585069,0.0,0.1125474646687507,0,0,0
3703,164172.58512229496,2011-01-26 08:30:51,4.296833045050742,4,21,0.8800897598266602,4.199814796447754,11.58797259191432,11.160115637058054,47.506520529345295,38.7698214585069,0.0,0.1125474646687507,0,0,0
3704,164176.3666663413,2011-01-26 08:30:55,8.078377111416145,4,21,0.8300610184669495,4.199976921081543,11.588869521270915,11.160115637058054,47.51028744577981,38.7698214585069,3.24249267578125e-05,0.1125474646687507,0,0,0
3705,164181.4289250125,2011-01-26 08:31:00,13.14063575758043,4,21,0.780032217502594,4.199653148651123,11.589999998440264,11.160115637058054,47.51503521602098,38.7698214585069,-3.23295607813634e-05,0.1125474646687507,0,0,0
3706,164188.1474559087,2011-01-26 08:31:07,19.859166693914062,4,21,0.7298228740692139,4.199814796447754,11.591407175555467,11.160115637058054,47.52094510041616,38.7698214585069,0.0,0.1125474646687507,0,0,0
3707,164197.19405156368,2011-01-26 08:31:16,28.905762308754124,4,21,0.6797940731048584,4.199976921081543,11.593175283273592,11.160115637058054,47.52837084139187,38.7698214585069,3.24249267578125e-05,0.1125474646687507,0,0,0
3708,164209.61583009784,2011-01-26 08:31:28,41.327540873022,4,21,0.6297653317451477,4.199976921081543,11.595429316652066,11.160115637058054,47.53783738088814,38.7698214585069,3.24249267578125e-05,0.1125474646687507,0,0,0
3709,164228.3031483248,2011-01-26 08:31:47,60.01485907993769,4,21,0.5793753266334534,4.199653148651123,11.598559103196852,11.160115637058054,47.55098192810152,38.7698214585069,-6.47544875391759e-05,0.1125474646687507,0,0,0
3710,164260.6464048619,2011-01-26 08:32:19,92.35811561699929,4,21,0.5293465256690979,4.199814796447754,11.603518688338056,11.160115637058054,47.57181129520612,38.7698214585069,0.0,0.1125474646687507,0,0,0
3711,164324.1137544154,2011-01-26 08:33:23,155.8254651554644,4,21,0.4793177843093872,4.199814796447754,11.612365868304767,11.160115637058054,47.60896839269429,38.7698214585069,-3.24249267578125e-05,0.1125474646687507,0,0,0
3712,164433.3150296637,2011-01-26 08:35:12,265.0267404037756,4,21,0.4292890131473541,4.199653148651123,11.626110961918394,11.160115637058054,47.666696221200574,38.7698214585069,-6.47544875391759e-05,0.1125474646687507,0,0,0
3713,164579.68999174263,2011-01-26 08:37:38,411.401702603026,4,21,0.379260241985321,4.199814796447754,11.642525358015911,11.160115637058054,47.73563478496298,38.7698214585069,-3.24249267578125e-05,0.1125474646687507,0,0,0
3714,164756.41918992272,2011-01-26 08:40:35,588.1309007029057,4,21,0.3292314708232879,4.199814796447754,11.659885602426405,11.160115637058054,47.80854580128295,38.7698214585069,0.0,0.1125474646687507,0,0,0
3715,164970.47777840943,2011-01-26 08:44:09,802.1894891795706,4,21,0.2792026996612549,4.199814796447754,11.677939085979562,11.160115637058054,47.88436823769743,38.7698214585069,-3.24249267578125e-05,0.1125474646687507,0,0,0
3716,165233.92640906814,2011-01-26 08:48:33,1065.6381198082142,4,21,0.2291739284992218,4.199976921081543,11.696494136344484,11.160115637058054,47.962297241469415,38.7698214585069,0.0,0.1125474646687507,0,0,0
3717,165568.15517689218,2011-01-26 08:54:07,1399.8668876472902,4,21,0.1791451573371887,4.199814796447754,11.715384823257908,11.160115637058054,48.041636030412185,38.7698214585069,0.0,0.1125474646687507,0,0,0
3718,166026.49106161835,2011-01-26 09:01:45,1858.2027723584165,4,21,0.1291163861751556,4.199814796447754,11.734874445040504,11.160115637058054,48.1234902376765,38.7698214585069,-6.47544875391759e-05,0.1125474646687507,0,0,0
3719,166753.83803061413,2011-01-26 09:13:53,2585.549741364246,4,21,0.0790876224637031,4.199976921081543,11.755478088522423,11.160115637058054,48.21002316466298,38.7698214585069,0.0,0.1125474646687507,0,0,0
3720,167521.49689534277,2011-01-26 09:26:40,3353.20860609789,4,21,0.0498289167881011,4.199976921081543,11.76898784505516,11.160115637058054,48.26676237970481,38.7698214585069,0.0,0.1125474646687507,0,0,0
3721,167551.5088261276,2011-01-26 09:27:10,30.01508220526543,5,21,0.0,4.189454555511475,11.76898784505516,11.160115637058054,48.26676237970481,38.7698214585069,-6.47544875391759e-05,0.1125474646687507,0,0,0
3722,167581.5083115659,2011-01-26 09:27:40,60.01456764860113,5,21,0.0,4.187673568725586,11.76898784505516,11.160115637058054,48.26676237970481,38.7698214585069,0.0,0.1125474646687507,0,0,0
3723,167581.69371389403,2011-01-26 09:27:41,0.187509065285789,6,21,-1.9243103452026844e-05,4.187673568725586,11.76898784505516,11.160115638060349,48.26676237970481,38.76982146270418,0.0,0.1159958094358444,0,0,0
3724,167586.52187198456,2011-01-26 09:27:46,5.015667160847034,6,21,0.0007031940040178,4.187511920928955,11.768988692198992,11.16011563814492,48.26676592735736,38.769821463058335,-6.47544875391759e-05,0.1159958094358444,0,0,0
3725,167597.87888980407,2011-01-26 09:27:57,11.359171249884326,7,21,-1.099568486213684,3.9874210357666016,11.768988692198992,11.163585088517491,48.26676592735736,38.78371280298553,-0.0021368502639234,0.1159958094358444,0,0,0
3726,167627.89399154802,2011-01-26 09:28:27,41.3742729888337,7,21,-1.099568486213684,3.9246091842651367,11.768988692198992,11.172752541403964,48.26676592735736,38.81997235968099,-0.0015864849556237,0.1159958094358444,0,0,0
3727,167657.90914625398,2011-01-26 09:28:57,71.38942770983064,7,21,-1.099568486213684,3.869082450866699,11.768988692198992,11.181920081772976,48.26676592735736,38.85569187164902,-0.0014245987404137,0.1159958094358444,0,0,0
3728,167687.9242097025,2011-01-26 09:29:27,101.40449114832352,7,21,-1.099568486213684,3.82165002822876,11.768988692198992,11.191087542129996,48.26676592735736,38.89093604991917,-0.0011332035064697,0.1159958094358444,0,0,0
3729,167717.93947143017,2011-01-26 09:29:57,131.41975289105156,7,21,-1.099568486213684,3.7844161987304688,11.768988692198992,11.20025505006718,48.26676592735736,38.92579195480338,-0.0008418083307333,0.1159958094358444,0,0,0
3730,167747.95444136063,2011-01-26 09:30:27,161.43472280645608,7,21,-1.099568486213684,3.7554385662078857,11.768988692198992,11.209422523826891,48.26676592735736,38.960346199653856,-0.0006475448608398,0.1159958094358444,0,0,0
3731,167777.9696112745,2011-01-26 09:30:57,191.44989271530585,7,21,-1.099568486213684,3.731479644775391,11.768988692198992,11.218590109567014,48.26676592735736,38.99465998300355,-0.0005504131549969,0.1159958094358444,0,0,0
3732,167807.9846680213,2011-01-26 09:31:27,221.4649494671335,7,21,-1.099568486213684,3.711081981658936,11.768988692198992,11.22775751301544,48.26676592735736,39.02877282968577,-0.0005180359003134,0.1159958094358444,0,0,0
3733,167838.00005678562,2011-01-26 09:31:57,251.48033824146336,7,21,-1.0993878841400146,3.69327449798584,11.768988692198992,11.236925073521398,48.26676592735736,39.0627119698318,-0.0004209041653666,0.1159958094358444,0,0,0
3734,167868.01490091253,2011-01-26 09:32:27,281.4951823633518,7,21,-1.0997490882873535,3.677085876464844,11.768988692198992,11.246092506675696,48.26676592735736,39.09649422396552,-0.0004532813909463,0.1159958094358444,0,0,0
3735,167898.03017634436,2011-01-26 09:32:57,311.51045780522225,7,21,-1.099568486213684,3.6621925830841056,11.768988692198992,11.2552600697574,48.26676592735736,39.13013471824518,-0.0003561496851034,0.1159958094358444,0,0,0
3736,167928.04514581364,2011-01-26 09:33:27,341.5254272895524,7,21,-1.099568486213684,3.64827036857605,11.768988692198992,11.2644275463266,48.26676592735736,39.1636434029738,-0.0003561496851034,0.1159958094358444,0,0,0
3737,167958.06048425252,2011-01-26 09:33:57,371.5407656933434,7,21,-1.099568486213684,3.635319471359253,11.768988692198992,11.273594989830508,48.26676592735736,39.19702821773191,-0.0002913951757363,0.1159958094358444,0,0,0
3738,167988.0753569707,2011-01-26 09:34:27,401.55563842152753,7,21,-1.0993878841400146,3.622692346572876,11.768988692198992,11.282762493821142,48.26676592735736,39.230296461398254,-0.0003561496851034,0.1159958094358444,0,0,0
3739,168018.09063623208,2011-01-26 09:34:57,431.5709176929424,7,21,-1.099568486213684,3.610874652862549,11.768988692198992,11.291930037659151,48.26676592735736,39.26345269265614,-0.0002913951757363,0.1159958094358444,0,0,0
3740,168048.10559550094,2011-01-26 09:35:27,461.58587694677504,7,21,-1.099568486213684,3.599218845367432,11.768988692198992,11.301097423466455,48.26676592735736,39.29650064260922,-0.0003237724304199,0.1159958094358444,0,0,0
3741,168078.12102547797,2011-01-26 09:35:57,491.6013070090072,7,21,-1.099568486213684,3.5882108211517334,11.768988692198992,11.31026498155274,48.26676592735736,39.32944578549306,-0.0002913951757363,0.1159958094358444,0,0,0
3742,168108.13575820724,2011-01-26 09:36:27,521.6160397482957,7,21,-1.099929690361023,3.577526330947876,11.768988692198992,11.319432314012602,48.26676592735736,39.3622912449705,-0.0002590179501567,0.1159958094358444,0,0,0
3743,168138.1509381912,2011-01-26 09:36:57,551.6312196670933,7,21,-1.0993878841400146,3.5673274993896484,11.768988692198992,11.328599829301936,48.26676592735736,39.39504119870056,-0.0002590179501567,0.1159958094358444,0,0,0
3744,168168.16819906136,2011-01-26 09:37:27,581.6484805222245,7,21,-1.099568486213684,3.557290554046631,11.768988692198992,11.337767975652293,48.26676592735736,39.42770008337628,-0.0002913951757363,0.1159958094358444,0,0,0
3745,168198.18113776436,2011-01-26 09:37:57,611.661419215198,7,21,-1.099568486213684,3.547739267349243,11.768988692198992,11.346934815463705,48.26676592735736,39.46026375755686,-0.0001942634553415,0.1159958094358444,0,0,0
3746,168228.1961948771,2011-01-26 09:38:27,641.6764763229125,7,21,-1.0997490882873535,3.5381879806518555,11.768988692198992,11.356102314783138,48.26676592735736,39.492742945264254,-0.0002590179501567,0.1159958094358444,0,0,0
3747,168258.21150690014,2011-01-26 09:38:57,671.691788360992,7,21,-1.099568486213684,3.5296080112457275,11.768988692198992,11.365269854072505,48.26676592735736,39.52514034696488,-0.0002266406954731,0.1159958094358444,0,0,0
3748,168288.22647141706,2011-01-26 09:39:27,701.706752867917,7,21,-1.0993878841400146,3.5211899280548096,11.768988692198992,11.374437371981712,48.26676592735736,39.557458191091946,-0.0001618862152099,0.1159958094358444,0,0,0
3749,168318.24171632784,2011-01-26 09:39:57,731.7219977837073,7,21,-1.099568486213684,3.5129337310791016,11.768988692198992,11.383604925667129,48.26676592735736,39.58970043026337,-0.0001618862152099,0.1159958094358444,0,0,0
3750,168348.25672548608,2011-01-26 09:40:27,761.7370069469292,7,21,-1.099568486213684,3.5051634311676025,11.768988692198992,11.392772460590756,48.26676592735736,39.62186848839692,-0.0001618862152099,0.1159958094358444,0,0,0
3751,168378.271966447,2011-01-26 09:40:57,791.7522479028503,7,21,-1.099568486213684,3.4973928928375244,11.768988692198992,11.401940018017209,48.26676592735736,39.653965104173885,-0.0002266406954731,0.1159958094358444,0,0,0
3752,168408.28700773529,2011-01-26 09:41:27,821.7672891761003,7,21,-1.099568486213684,3.489946126937866,11.768988692198992,11.411107568303905,48.26676592735736,39.68599151006487,-0.0001618862152099,0.1159958094358444,0,0,0
3753,168438.30205562,2011-01-26 09:41:57,851.7823370608287,7,21,-1.0997490882873535,3.482337474822998,11.768988692198992,11.420275160823412,48.26676592735736,39.71795052124153,-0.0001942634553415,0.1159958094358444,0,0,0
3754,168468.3194175671,2011-01-26 09:42:27,881.7996990179371,7,21,-1.0993878841400146,3.47505259513855,11.768988692198992,11.42944331261994,48.26676592735736,39.74984355925838,-0.0001618862152099,0.1159958094358444,0,0,0
3755,168498.33229982443,2011-01-26 09:42:57,911.8125812752552,7,21,-1.099568486213684,3.4677677154541016,11.768988692198992,11.438610111252144,48.26676592735736,39.78166604543092,-0.0002266406954731,0.1159958094358444,0,0,0
3756,168528.3473891825,2011-01-26 09:43:27,941.8276706333476,7,21,-1.099568486213684,3.460806608200073,11.768988692198992,11.447777641960403,48.26676592735736,39.81342555895191,-0.0001942634553415,0.1159958094358444,0,0,0
3757,168558.3625297883,2011-01-26 09:43:57,971.8428112642276,7,21,-1.0993878841400146,3.453845500946045,11.768988692198992,11.456945132128013,48.26676592735736,39.84511944311045,-0.0001618862152099,0.1159958094358444,0,0,0
3758,168588.37762225416,2011-01-26 09:44:27,1001.8579036949782,7,21,-1.099568486213684,3.4465606212615967,11.768988692198992,11.466112645312608,48.26676592735736,39.87674843714226,-0.0001618862152099,0.1159958094358444,0,0,0
3759,168618.3927142438,2011-01-26 09:44:57,1031.8729957046794,7,21,-1.0997490882873535,3.4395995140075684,11.768988692198992,11.475280619749665,48.26676592735736,39.90831469186367,-0.0001942634553415,0.1159958094358444,0,0,0
3760,168648.40780474976,2011-01-26 09:45:28,1061.8880861905827,7,21,-1.099568486213684,3.43247652053833,11.768988692198992,11.484448867621282,48.26676592735736,39.939817194917545,-0.0002266406954731,0.1159958094358444,0,0,0
3761,168678.42315545923,2011-01-26 09:45:58,1091.9034369251058,7,21,-1.099568486213684,3.425191879272461,11.768988692198992,11.493617020884868,48.26676592735736,39.97125391423063,-0.0001942634553415,0.1159958094358444,0,0,0
3762,168708.4380582774,2011-01-26 09:46:28,1121.9183397432832,7,21,-1.099568486213684,3.417421340942383,11.768988692198992,11.502785240146157,48.26676592735736,40.002620943715385,-0.0001618862152099,0.1159958094358444,0,0,0
3763,168738.45331288234,2011-01-26 09:46:58,1151.9335943582469,7,21,-1.099568486213684,3.4096508026123047,11.768988692198992,11.511953481380656,48.26676592735736,40.03391718848148,-0.0002266406954731,0.1159958094358444,0,0,0
3764,168768.46844998945,2011-01-26 09:47:28,1181.9487314503067,7,21,-1.099568486213684,3.4013946056365967,11.768988692198992,11.521121745583812,48.26676592735736,40.06514040816805,-0.0002266406954731,0.1159958094358444,0,0,0
3765,168798.48341954395,2011-01-26 09:47:58,1211.9637010749873,7,21,-1.099568486213684,3.3931384086608887,11.768988692198992,11.530289652435677,48.26676592735736,40.09628657026948,-0.0001942634553415,0.1159958094358444,0,0,0
3766,168828.49852037564,2011-01-26 09:48:28,1241.978801826475,7,21,-1.099568486213684,3.384234666824341,11.768988692198992,11.53945714013409,48.26676592735736,40.1273516450507,-0.0002266406954731,0.1159958094358444,0,0,0
3767,168858.5136455129,2011-01-26 09:48:58,1271.9939269537156,7,21,-1.0993878841400146,3.374845266342163,11.768988692198992,11.548624601210506,48.26676592735736,40.158332847243024,-0.0002266406954731,0.1159958094358444,0,0,0
3768,168888.5289005489,2011-01-26 09:49:28,1302.009182014791,7,21,-1.099568486213684,3.3649702072143555,11.768988692198992,11.557792137485562,48.26676592735736,40.18922628466569,-0.0002590179501567,0.1159958094358444,0,0,0
3769,168918.54400578656,2011-01-26 09:49:58,1332.0242872424349,7,21,-1.0993878841400146,3.354447603225708,11.768988692198992,11.566959619338126,48.26676592735736,40.22002579804267,-0.0002590179501567,0.1159958094358444,0,0,0
3770,168948.55895530112,2011-01-26 09:50:28,1362.0392367620068,7,21,-1.099568486213684,3.34279203414917,11.768988692198992,11.576126988842155,48.26676592735736,40.250723239802525,-0.0003237724304199,0.1159958094358444,0,0,0
3771,168978.57432245158,2011-01-26 09:50:58,1392.0546039425185,7,21,-1.099568486213684,3.330326795578003,11.768988692198992,11.585294436670496,48.26676592735736,40.28131173985816,-0.0003561496851034,0.1159958094358444,0,0,0
3772,169008.58918708458,2011-01-26 09:51:28,1422.069468550464,7,21,-1.0997490882873535,3.316890239715576,11.768988692198992,11.594461744158531,48.26676592735736,40.31178145892022,-0.0003561496851034,0.1159958094358444,0,0,0
3773,169038.60429208667,2011-01-26 09:51:58,1452.0845735525463,7,21,-1.0993878841400146,3.30232048034668,11.768988692198992,11.603629034396858,48.26676592735736,40.34212278026918,-0.0003885269106831,0.1159958094358444,0,0,0
3774,169068.61942465746,2011-01-26 09:52:28,1482.0997061083008,7,21,-1.099568486213684,3.286131858825684,11.768988692198992,11.612796404414816,48.26676592735736,40.37232349523132,-0.0004209041653666,0.1159958094358444,0,0,0
3775,169098.6345799549,2011-01-26 09:52:58,1512.1148614057342,7,21,-1.0993878841400146,3.267838954925537,11.768988692198992,11.621963743663787,48.26676592735736,40.40236526543183,-0.0004532813909463,0.1159958094358444,0,0,0
3776,169128.64963965406,2011-01-26 09:53:28,1542.1299211149326,7,21,-1.0993878841400146,3.2463080883026123,11.768988692198992,11.63113112284343,48.26676592735736,40.43222559623749,-0.0006151676061563,0.1159958094358444,0,0,0
3777,169158.66475646058,2011-01-26 09:53:58,1572.1450379063974,7,21,-1.099568486213684,3.2210538387298584,11.768988692198992,11.640298496291187,48.26676592735736,40.46187319090723,-0.0006799221155233,0.1159958094358444,0,0,0
3778,169188.67995743686,2011-01-26 09:54:28,1602.160239108239,7,21,-1.0993878841400146,3.190457344055176,11.768988692198992,11.64946592740746,48.26676592735736,40.49126698644413,-0.0009065627818927,0.1159958094358444,0,0,0
3779,169218.69501456962,2011-01-26 09:54:58,1632.1752960104411,7,21,-1.0993878841400146,3.152738094329834,11.768988692198992,11.658633269755232,48.26676592735736,40.5203490880745,-0.0011008263099938,0.1159958094358444,0,0,0
3780,169248.71009683004,2011-01-26 09:55:28,1662.190378270844,7,21,-1.0993878841400146,3.104172468185425,11.768988692198992,11.667800677969115,48.26676592735736,40.54903874958207,-0.0014569282066076,0.1159958094358444,0,0,0
3781,169278.72534050271,2011-01-26 09:55:58,1692.2056219535611,7,21,-1.099568486213684,3.0394179821014404,11.768988692198992,11.676968091312462,48.26676592735736,40.57721459784292,-0.0019426345825195,0.1159958094358444,0,0,0
3782,169308.74033010218,2011-01-26 09:56:28,1722.220611537987,7,21,-1.0993878841400146,2.947143316268921,11.768988692198992,11.686135432019327,48.26676592735736,40.6046810094435,-0.0028167725540697,0.1159958094358444,0,0,0
3783,169338.75545501386,2011-01-26 09:56:58,1752.2357364547024,7,21,-1.099568486213684,2.8122923374176025,11.768988692198992,11.69530281537126,48.26676592735736,40.63111657197457,-0.0041442872025072,0.1159958094358444,0,0,0
3784,169358.33332195727,2011-01-26 09:57:17,1771.8136035083594,7,21,-1.0993878841400146,2.699943780899048,11.768988692198992,11.701282411419212,48.26676592735736,40.647604468969405,-0.0048565389588475,0.1159958094358444,0,0,0
3785,169418.34475510786,2011-01-26 09:58:18,60.01459267096456,8,21,0.0,3.6545839309692383,11.768988692198992,11.701282411419212,48.26676592735736,40.647604468969405,0.0012303352123126,0.1159958094358444,0,0,0
3786,169418.53021170344,2011-01-26 09:58:18,0.187534187899072,9,21,-1.9243103452026844e-05,3.654422044754028,11.768988692198992,11.70128241242164,48.26676592735736,40.64760447263269,0.0,0.1127511709928512,0,0,0
3787,169423.3581078762,2011-01-26 09:58:23,5.015430340618156,9,21,0.0007031940040178,3.661706924438477,11.768989558890455,11.70128241258813,48.2667690982505,40.64760447324111,0.0010360718006268,0.1127511709928512,0,0,0
