Data_Point,Test_Time(s),Date_Time,Step_Time(s),Step_Index,Cycle_Index,Current(A),Voltage(V),Charge_Capacity(Ah),Discharge_Capacity(Ah),Charge_Energy(Wh),Discharge_Energy(Wh),dV/dt(V/s),Internal_Resistance(Ohm),Is_FC_Data,AC_Impedance(Ohm),ACI_Phase_Angle(Deg)
4317,192949.18981637168,2011-01-26 16:30:32,30.014903439726705,1,25,0.0,3.6911699771881104,13.402022938056456,13.33033433048788,54.96453772889839,46.31051232889958,0.0006799221155233,0.1125474646687507,0,0,0
4318,192979.20494110795,2011-01-26 16:31:02,60.03002819604245,1,25,0.0,3.708653688430786,13.402022938056456,13.33033433048788,54.96453772889839,46.31051232889958,0.0003885269106831,0.1125474646687507,0,0,0
4319,193009.22005823025,2011-01-26 16:31:32,90.0451452982819,1,25,0.0,3.721118927001953,13.402022938056456,13.33033433048788,54.96453772889839,46.31051232889958,0.0003237724304199,0.1125474646687507,0,0,0
4320,193039.1882787217,2011-01-26 16:32:02,120.01336578973748,1,25,0.0,3.730184555053711,13.402022938056456,13.33033433048788,54.96453772889839,46.31051232889958,0.0002266406954731,0.1125474646687507,0,0,0
4321,193069.2095066555,2011-01-26 16:32:32,30.01513054574477,2,25,0.5501165986061096,3.847389698028565,13.406609400523392,13.33033433048788,54.98210471098961,46.31051232889958,0.0006799221155233,0.1125474646687507,0,0,0
4322,193099.22460655987,2011-01-26 16:33:02,60.03023044510935,2,25,0.5499359965324402,3.8669779300689697,13.41119586186379,13.33033433048788,54.99979919943803,46.31051232889958,0.0003885269106831,0.1125474646687507,0,0,0
4323,193129.23973698533,2011-01-26 16:33:32,90.0453608705543,2,25,0.5501165986061096,3.8812239170074463,13.415782376215557,13.33033433048788,55.01756928914869,46.31051232889958,0.0003561496851034,0.1125474646687507,0,0,0
4324,193159.25713140835,2011-01-26 16:34:02,120.0627553236528,2,25,0.550297200679779,3.892555952072144,13.420369244115562,13.33033433048788,55.035398056009335,46.31051232889958,0.0002913951757363,0.1125474646687507,0,0,0
4325,193189.27000574596,2011-01-26 16:34:32,150.07562965120763,2,25,0.5501165986061096,3.9021072387695312,13.424955357871177,13.33033433048788,55.05327173091104,46.31051232889958,0.0002590179501567,0.1125474646687507,0,0,0
4326,193219.285082658,2011-01-26 16:35:02,180.09070654824333,2,25,0.5501165986061096,3.911172866821289,13.429541813958933,13.33033433048788,55.07118938976643,46.31051232889958,0.0002590179501567,0.1125474646687507,0,0,0
4327,193249.3002383514,2011-01-26 16:35:32,210.1058622466763,2,25,0.5501165986061096,3.919266939163208,13.434128248600626,13.33033433048788,55.08914601573788,46.31051232889958,0.0001942634553415,0.1125474646687507,0,0,0
4328,193279.3153199301,2011-01-26 16:36:02,240.1209438153552,2,25,0.550297200679779,3.926875591278076,13.438714716138378,13.33033433048788,55.10713921784716,46.31051232889958,0.0001942634553415,0.1125474646687507,0,0,0
4329,193309.3304568317,2011-01-26 16:36:32,270.1360807219532,2,25,0.5501165986061096,3.9343223571777344,13.443301157123924,13.33033433048788,55.125166500841885,46.31051232889958,0.0002266406954731,0.1125474646687507,0,0,0
4330,193339.3455654328,2011-01-26 16:37:03,300.15118934806753,2,25,0.5501165986061096,3.9411215782165527,13.447887662907595,13.33033433048788,55.14322646771255,46.31051232889958,0.0001942634553415,0.1125474646687507,0,0,0
4331,193369.36068131696,2011-01-26 16:37:33,330.1663052322712,2,25,0.5501165986061096,3.947597026824951,13.452474154439813,13.33033433048788,55.16131701218019,46.31051232889958,0.0001942634553415,0.1125474646687507,0,0,0
4332,193399.37593285425,2011-01-26 16:38:03,360.18155676455166,2,25,0.5499359965324402,3.95358681678772,13.457060813891848,13.33033433048788,55.17943745991679,46.31051232889958,9.713172767078504e-05,0.1125474646687507,0,0,0
4333,193429.3910532096,2011-01-26 16:38:33,390.1966771198988,2,25,0.550297200679779,3.959738492965698,13.4616480916475,13.33033433048788,55.197588093732136,46.31051232889958,0.0001618862152099,0.1125474646687507,0,0,0
4334,193459.40607621236,2011-01-26 16:39:03,420.2117000975508,2,25,0.5499359965324402,3.965080738067627,13.466235147709588,13.33033433048788,55.2157640024667,46.31051232889958,0.0001618862152099,0.1125474646687507,0,0,0
4335,193489.4212954491,2011-01-26 16:39:33,450.226919354391,2,25,0.5501165986061096,3.9705848693847656,13.470821618174918,13.33033433048788,55.233962499502965,46.31051232889958,0.0001295089750783,0.1125474646687507,0,0,0
4336,193519.4363708975,2011-01-26 16:40:03,480.2419948078288,2,25,0.550297200679779,3.975765228271485,13.475408056277342,13.33033433048788,55.25218474655348,46.31051232889958,0.0001618862152099,0.1125474646687507,0,0,0
4337,193549.45144347372,2011-01-26 16:40:33,510.25706738409576,2,25,0.550297200679779,3.980459928512573,13.479994446877036,13.33033433048788,55.27042950903121,46.31051232889958,0.0001295089750783,0.1125474646687507,0,0,0
4338,193579.46652988452,2011-01-26 16:41:03,540.2721537697801,2,25,0.5501165986061096,3.984992742538452,13.484580743262573,13.33033433048788,55.28869598219338,46.31051232889958,9.713172767078504e-05,0.1125474646687507,0,0,0
4339,193609.48178134163,2011-01-26 16:41:33,570.2874052419106,2,25,0.5499359965324402,3.989525556564331,13.489167144967949,13.33033433048788,55.306983939001256,46.31051232889958,9.713172767078504e-05,0.1125474646687507,0,0,0
4340,193639.49688671465,2011-01-26 16:42:03,600.3025106299547,2,25,0.5501165986061096,3.994058132171631,13.49375352389412,13.33033433048788,55.32529218696119,46.31051232889958,0.0001294612884521,0.1125474646687507,0,0,0
4341,193669.51207758076,2011-01-26 16:42:33,630.3177014659612,2,25,0.5501165986061096,3.9984290599823,13.49833984387858,13.33033433048788,55.343619992499214,46.31051232889958,0.0001295089750783,0.1125474646687507,0,0,0
4342,193699.52699592256,2011-01-26 16:43:03,660.3326198078288,2,25,0.5501165986061096,4.002476215362549,13.502926149265948,13.33033433048788,55.36196691031712,46.31051232889958,0.0001295089750783,0.1125474646687507,0,0,0
4343,193729.5421132955,2011-01-26 16:43:33,690.3477372108177,2,25,0.5501165986061096,4.006685256958008,13.50751173946797,13.33033433048788,55.380329694453465,46.31051232889958,0.0001618385285837,0.1125474646687507,0,0,0
4344,193759.5572344228,2011-01-26 16:44:03,720.3628583130262,2,25,0.5501165986061096,4.010570526123047,13.512097232351906,13.33033433048788,55.39871046265997,46.31051232889958,9.70840483205393e-05,0.1125474646687507,0,0,0
4345,193789.5723818456,2011-01-26 16:44:33,750.3780057308214,2,25,0.5501165986061096,4.014294147491455,13.516683354551352,13.33033433048788,55.41711187944048,46.31051232889958,9.71794142969884e-05,0.1125474646687507,0,0,0
4346,193819.5875003463,2011-01-26 16:45:03,780.3931242365588,2,25,0.5501165986061096,4.018179416656494,13.521269685456724,13.33033433048788,55.43553174872082,46.31051232889958,9.71794142969884e-05,0.1125474646687507,0,0,0
4347,193849.60266625017,2011-01-26 16:45:33,810.4082901354144,2,25,0.5501165986061096,4.021740913391113,13.525856145167577,13.33033433048788,55.45396944874452,46.31051232889958,6.47544875391759e-05,0.1125474646687507,0,0,0
4348,193879.61777707172,2011-01-26 16:46:03,840.4234010622629,2,25,0.5501165986061096,4.025626182556152,13.530442526900467,13.33033433048788,55.472423735237285,46.31051232889958,9.71794142969884e-05,0.1125474646687507,0,0,0
4349,193909.63285247507,2011-01-26 16:46:33,870.4384763703382,2,25,0.5499359965324402,4.029025554656982,13.535028928564838,13.33033433048788,55.49089491003516,46.31051232889958,6.47544875391759e-05,0.1125474646687507,0,0,0
4350,193939.64795085567,2011-01-26 16:47:03,900.4535747408927,2,25,0.5501165986061096,4.032749176025391,13.539615266439688,13.33033433048788,55.509382171549085,46.31051232889958,0.0001295089750783,0.1125474646687507,0,0,0
4351,193969.6632009694,2011-01-26 16:47:33,930.4688248646628,2,25,0.5501165986061096,4.036310195922852,13.544201648567388,13.33033433048788,55.52788588904024,46.31051232889958,9.70840483205393e-05,0.1125474646687507,0,0,0
4352,193999.6781873809,2011-01-26 16:48:03,960.4838112661556,2,25,0.5501165986061096,4.03971004486084,13.548788037878031,13.33033433048788,55.54640568816481,46.31051232889958,9.71794142969884e-05,0.1125474646687507,0,0,0
4353,194029.6934917649,2011-01-26 16:48:33,990.4991156902588,2,25,0.5501165986061096,4.043271541595459,13.553374435514982,13.33033433048788,55.564941402124646,46.31051232889958,9.71794142969884e-05,0.1125474646687507,0,0,0
4354,194059.70855312323,2011-01-26 16:49:03,1020.5141770385422,2,25,0.5499359965324402,4.046670913696289,13.557960802331404,13.33033433048788,55.58349290470027,46.31051232889958,6.47544875391759e-05,0.1125474646687507,0,0,0
4355,194089.72354496823,2011-01-26 16:49:33,1050.5291688535272,2,25,0.5499359965324402,4.049908638000488,13.562547149105036,13.33033433048788,55.60206009750874,46.31051232889958,6.47544875391759e-05,0.1125474646687507,0,0,0
4356,194119.73868346884,2011-01-26 16:50:03,1080.544307354098,2,25,0.5499359965324402,4.053308486938477,13.56713353977745,13.33033433048788,55.62064294919194,46.31051232889958,6.47544875391759e-05,0.1125474646687507,0,0,0
4357,194149.75379122785,2011-01-26 16:50:33,1110.559415113051,2,25,0.5501165986061096,4.056707859039307,13.57171994945988,13.33033433048788,55.6392413492546,46.31051232889958,9.70840483205393e-05,0.1125474646687507,0,0,0
4358,194179.76894672075,2011-01-26 16:51:03,1140.574570736297,2,25,0.5499359965324402,4.060107707977295,13.576306389913295,13.33033433048788,55.65785524655546,46.31051232889958,9.71794142969884e-05,0.1125474646687507,0,0,0
4359,194209.7841346044,2011-01-26 16:51:33,1170.5897584996453,2,25,0.5501165986061096,4.063345432281494,13.580892773860231,13.33033433048788,55.67648368750398,46.31051232889958,9.71794142969884e-05,0.1125474646687507,0,0,0
4360,194239.79914426888,2011-01-26 16:52:03,1200.6047681741416,2,25,0.5501165986061096,4.066744804382324,13.585479137783636,13.33033433048788,55.69512729432645,46.31051232889958,9.70840483205393e-05,0.1125474646687507,0,0,0
4361,194269.8144094853,2011-01-26 16:52:33,1230.620033400552,2,25,0.5501165986061096,4.069982528686523,13.590065508216826,13.33033433048788,55.713786136167535,46.31051232889958,6.47544875391759e-05,0.1125474646687507,0,0,0
4362,194299.8294899412,2011-01-26 16:53:03,1260.63511386147,2,25,0.5501165986061096,4.073382377624512,13.594651828830932,13.33033433048788,55.7324598536128,46.31051232889958,9.71794142969884e-05,0.1125474646687507,0,0,0
4363,194329.8446095346,2011-01-26 16:53:33,1290.650233419831,2,25,0.5501165986061096,4.076457977294922,13.599238154124112,13.33033433048788,55.75114872832271,46.31051232889958,6.47544875391759e-05,0.1125474646687507,0,0,0
4364,194359.8597311932,2011-01-26 16:54:03,1320.6653551085012,2,25,0.5499359965324402,4.07985782623291,13.603824500486226,13.33033433048788,55.76985288000153,46.31051232889958,9.71794142969884e-05,0.1125474646687507,0,0,0
4365,194389.8748071178,2011-01-26 16:54:33,1350.6804310030384,2,25,0.5501165986061096,4.083095550537109,13.60841079436827,13.33033433048788,55.7885718752915,46.31051232889958,9.71794142969884e-05,0.1125474646687507,0,0,0
4366,194419.88996317715,2011-01-26 16:55:03,1380.6955871124958,2,25,0.550297200679779,4.08649492263794,13.612997126741991,13.33033433048788,55.807306058472015,46.31051232889958,6.47544875391759e-05,0.1125474646687507,0,0,0
4367,194449.90526763632,2011-01-26 16:55:33,1410.710891541611,2,25,0.5501165986061096,4.089732646942139,13.617583501659176,13.33033433048788,55.8260554740936,46.31051232889958,6.47544875391759e-05,0.1125474646687507,0,0,0
4368,194479.92008044012,2011-01-26 16:56:03,1440.7257043354207,2,25,0.5497553944587708,4.092970371246338,13.622169794318278,13.33033433048788,55.8448196638896,46.31051232889958,9.70840483205393e-05,0.1125474646687507,0,0,0
4369,194509.93522159732,2011-01-26 16:56:33,1470.7408454976253,2,25,0.5501165986061096,4.096208095550537,13.626756098267588,13.33033433048788,55.86359907720384,46.31051232889958,6.47544875391759e-05,0.1125474646687507,0,0,0
4370,194539.95030983767,2011-01-26 16:57:03,1500.7559337279065,2,25,0.5501165986061096,4.099445819854736,13.631342493287006,13.33033433048788,55.882393998044336,46.31051232889958,6.47544875391759e-05,0.1125474646687507,0,0,0
4371,194569.96555030235,2011-01-26 16:57:33,1530.7711742176657,2,25,0.5499359965324402,4.102845668792725,13.635928896571627,13.33033433048788,55.901204144891565,46.31051232889958,6.47544875391759e-05,0.1125474646687507,0,0,0
4372,194599.98054088425,2011-01-26 16:58:03,1560.786164779527,2,25,0.5501165986061096,4.106407165527344,13.640515168599174,13.33033433048788,55.92002909778931,46.31051232889958,9.71794142969884e-05,0.1125474646687507,0,0,0
4373,194629.99587857627,2011-01-26 16:58:33,1590.8015024715446,2,25,0.5501165986061096,4.109644889831543,13.64510152059532,13.33033433048788,55.93886972247998,46.31051232889958,9.71794142969884e-05,0.1125474646687507,0,0,0
4374,194660.0108074544,2011-01-26 16:59:03,1620.8164313446591,2,25,0.5501165986061096,4.113044261932373,13.649687814036982,13.33033433048788,55.957725528127305,46.31051232889958,9.70840483205393e-05,0.1125474646687507,0,0,0
4375,194690.02589087773,2011-01-26 16:59:33,1650.8315147679602,2,25,0.5501165986061096,4.116443634033203,13.654274085788575,13.33033433048788,55.97659679789828,46.31051232889958,9.70840483205393e-05,0.1125474646687507,0,0,0
4376,194720.04100747872,2011-01-26 17:00:03,1680.846631373963,2,25,0.5501165986061096,4.119843482971191,13.658860426312634,13.33033433048788,55.99548395687184,46.31051232889958,9.71794142969884e-05,0.1125474646687507,0,0,0
4377,194750.05615154316,2011-01-26 17:00:33,1710.8617754283753,2,25,0.5499359965324402,4.123081207275391,13.663446783420431,13.33033433048788,56.01438676690321,46.31051232889958,6.47544875391759e-05,0.1125474646687507,0,0,0
4378,194780.07343858856,2011-01-26 17:01:03,1740.8790624838057,2,25,0.5501165986061096,4.126804351806641,13.668033415611948,13.33033433048788,56.03330640451412,46.31051232889958,0.0001295089750783,0.1125474646687507,0,0,0
4379,194810.08640048932,2011-01-26 17:01:33,1770.89202438462,2,25,0.5501165986061096,4.13004207611084,13.67261944745138,13.33033433048788,56.05223935975357,46.31051232889958,6.47544875391759e-05,0.1125474646687507,0,0,0
4380,194840.1014833262,2011-01-26 17:02:03,1800.9071072114348,2,25,0.5499359965324402,4.133603572845459,13.677205772353966,13.33033433048788,56.07118940849888,46.31051232889958,9.70840483205393e-05,0.1125474646687507,0,0,0
4381,194870.1166485985,2011-01-26 17:02:33,1830.922272513804,2,25,0.5501165986061096,4.137003421783447,13.681792114417632,13.33033433048788,56.09015545979904,46.31051232889958,9.71794142969884e-05,0.1125474646687507,0,0,0
4382,194900.1317073152,2011-01-26 17:03:03,1860.9373312004536,2,25,0.550297200679779,4.140402793884277,13.686378517046997,13.33033433048788,56.10913782966934,46.31051232889958,6.47544875391759e-05,0.1125474646687507,0,0,0
4383,194930.146950226,2011-01-26 17:03:33,1890.952574126284,2,25,0.5501165986061096,4.1439642906188965,13.690964884270633,13.33033433048788,56.12813606863539,46.31051232889958,9.70840483205393e-05,0.1125474646687507,0,0,0
4384,194960.1619546424,2011-01-26 17:04:03,1920.967578527638,2,25,0.5501165986061096,4.147687911987305,13.695551101768068,13.33033433048788,56.14715017507222,46.31051232889958,9.71794142969884e-05,0.1125474646687507,0,0,0
4385,194990.17717039556,2011-01-26 17:04:33,1950.9827942907707,2,25,0.5499359965324402,4.151087284088135,13.700137401237845,13.33033433048788,56.16618088862222,46.31051232889958,6.47544875391759e-05,0.1125474646687507,0,0,0
4386,195020.1921765863,2011-01-26 17:05:03,1980.99780047156,2,25,0.5501165986061096,4.154648780822754,13.704723718093362,13.33033433048788,56.18522808722906,46.31051232889958,6.47544875391759e-05,0.1125474646687507,0,0,0
4387,195050.2074190159,2011-01-26 17:05:33,2011.0130429011533,2,25,0.5499359965324402,4.158372402191162,13.709310041756067,13.33033433048788,56.20429191689991,46.31051232889958,6.47544875391759e-05,0.1125474646687507,0,0,0
4388,195080.22242802376,2011-01-26 17:06:03,2041.0280519089888,2,25,0.5501165986061096,4.162257671356201,13.71389629983748,13.33033433048788,56.22337214112457,46.31051232889958,0.0001295089750783,0.1125474646687507,0,0,0
4389,195110.2241208937,2011-01-26 17:06:33,2071.0297448791603,2,25,0.5501165986061096,4.165980815887451,13.718480563416088,13.33033433048788,56.2424608582279,46.31051232889958,0.0001618385285837,0.1125474646687507,0,0,0
4390,195140.23720851785,2011-01-26 17:07:03,2101.0428325183534,2,25,0.550297200679779,4.16954231262207,13.723066456680945,13.33033433048788,56.26157330684011,46.31051232889958,6.47544875391759e-05,0.1125474646687507,0,0,0
4391,195170.25213799244,2011-01-26 17:07:33,2131.05776187768,2,25,0.550297200679779,4.173265933990479,13.72765274111781,13.33033433048788,56.280704381031086,46.31051232889958,9.71794142969884e-05,0.1125474646687507,0,0,0
4392,195200.2672512952,2011-01-26 17:08:03,2161.0728751754373,2,25,0.5501165986061096,4.1769890785217285,13.732239041720645,13.33033433048788,56.29985255923999,46.31051232889958,9.70840483205393e-05,0.1125474646687507,0,0,0
4393,195230.2823516708,2011-01-26 17:08:33,2191.0879755860765,2,25,0.5499359965324402,4.180712699890137,13.736824885928131,13.33033433048788,56.319015958537015,46.31051232889958,6.47544875391759e-05,0.1125474646687507,0,0,0
4394,195260.29745547983,2011-01-26 17:09:03,2221.10307936511,2,25,0.5499359965324402,4.184274196624756,13.74141042334141,13.33033433048788,56.33819536130268,46.31051232889958,6.47544875391759e-05,0.1125474646687507,0,0,0
4395,195290.31258628628,2011-01-26 17:09:34,2251.118210196567,2,25,0.5499359965324402,4.188321113586426,13.745996100969665,13.33033433048788,56.35739263945002,46.31051232889958,0.0001295089750783,0.1125474646687507,0,0,0
4396,195320.327699554,2011-01-26 17:10:04,2281.133323459237,2,25,0.5501165986061096,4.192044734954834,13.750581524515596,13.33033433048788,56.37660626459986,46.31051232889958,9.71794142969884e-05,0.1125474646687507,0,0,0
4397,195350.34281142315,2011-01-26 17:10:34,2311.148435308384,2,25,0.5499359965324402,4.195929527282715,13.755167000751092,13.33033433048788,56.39583770209255,46.31051232889958,0.0001295089750783,0.1125474646687507,0,0,0
4398,195380.35794772324,2011-01-26 17:11:04,2341.163571618496,2,25,0.5499359965324402,4.199814796447754,13.759752484321572,13.33033433048788,56.41508689771095,46.31051232889958,9.70840483205393e-05,0.1125474646687507,0,0,0
4399,195381.43605104843,2011-01-26 17:11:05,2342.241674963756,2,25,0.5501165986061096,4.200138568878174,13.759917185918798,13.33033433048788,56.415778626687626,46.31051232889958,0.0001295089750783,0.1125474646687507,0,0,0
4400,195411.44996446755,2011-01-26 17:11:35,30.0151173278016,3,25,0.0,4.090056419372559,13.759917185918798,13.33033433048788,56.415778626687626,46.31051232889958,-0.0004857063177041,0.1125474646687507,0,0,0
4401,195441.46511051693,2011-01-26 17:12:05,60.03026336214874,3,25,0.0,4.076134204864502,13.759917185918798,13.33033433048788,56.415778626687626,46.31051232889958,-0.0003561973571777,0.1125474646687507,0,0,0
4402,195471.48023750883,2011-01-26 17:12:35,90.04539034902372,3,25,0.0,4.067878246307373,13.759917185918798,13.33033433048788,56.415778626687626,46.31051232889958,-0.0001942634553415,0.1125474646687507,0,0,0
4403,195501.4485664205,2011-01-26 17:13:05,120.01371927573337,3,25,0.0,4.0617265701293945,13.759917185918798,13.33033433048788,56.415778626687626,46.31051232889958,-0.0001618385285837,0.1125474646687507,0,0,0
4404,195501.44928606707,2011-01-26 17:13:05,2.681683581e-06,4,25,1.0294536352157593,4.199976921081543,13.759917186685652,13.33033433048788,56.41577862990838,46.31051232889958,0.0,0.1125474646687507,0,0,0
4405,195501.68391408227,2011-01-26 17:13:05,0.234630721953176,4,25,0.9788830280303956,4.199653148651123,13.759981777808571,13.33033433048788,56.41604990068152,46.31051232889958,-6.47544875391759e-05,0.1125474646687507,0,0,0
4406,195503.18390889588,2011-01-26 17:13:07,1.734625520528085,4,25,0.9283124208450316,4.199814796447754,13.76037771175698,13.33033433048788,56.41771275815109,46.31051232889958,-3.24249267578125e-05,0.1125474646687507,0,0,0
4407,195505.8086438129,2011-01-26 17:13:09,4.359360437552053,4,25,0.8781030774116516,4.199814796447754,13.761035088504237,13.33033433048788,56.42047364155894,46.31051232889958,0.0,0.1125474646687507,0,0,0
4408,195509.62107153083,2011-01-26 17:13:13,8.17178817051729,4,25,0.8278936743736267,4.199976921081543,13.76193715149647,13.33033433048788,56.42426216806645,46.31051232889958,3.24249267578125e-05,0.1125474646687507,0,0,0
4409,195514.7463322475,2011-01-26 17:13:18,13.297048882214137,4,25,0.777864933013916,4.199814796447754,13.763078664288164,13.33033433048788,56.42905636606407,46.31051232889958,0.0,0.1125474646687507,0,0,0
4410,195521.52723779052,2011-01-26 17:13:25,20.0779544102224,4,25,0.7278361320495605,4.199653148651123,13.764494838602063,13.33033433048788,56.43500411314239,46.31051232889958,-6.47544875391759e-05,0.1125474646687507,0,0,0
4411,195530.6211309154,2011-01-26 17:13:34,29.17184765531016,4,25,0.6778073906898499,4.199976921081543,13.766267269267283,13.33033433048788,56.44244810708915,46.31051232889958,0.0,0.1125474646687507,0,0,0
4412,195543.2455062331,2011-01-26 17:13:47,41.79622285272525,4,25,0.627597987651825,4.199814796447754,13.768550936907843,13.33033433048788,56.45203923211087,46.31051232889958,0.0,0.1125474646687507,0,0,0
4413,195562.2606825232,2011-01-26 17:14:06,60.81139915288873,4,25,0.5775692462921143,4.199814796447754,13.771723759826529,13.33033433048788,56.46536468524201,46.31051232889958,-3.24249267578125e-05,0.1125474646687507,0,0,0
4414,195595.08836337476,2011-01-26 17:14:39,93.63908000940806,4,25,0.5273598432540894,4.199653148651123,13.776739637668122,13.33033433048788,56.4864307818957,46.31051232889958,-6.47544875391759e-05,0.1125474646687507,0,0,0
4415,195658.96215737285,2011-01-26 17:15:42,157.5128739874765,4,25,0.4773310720920563,4.199814796447754,13.785608456210888,13.33033433048788,56.52367873132272,46.31051232889958,0.0,0.1125474646687507,0,0,0
4416,195769.21028994676,2011-01-26 17:17:33,267.76100656135293,4,25,0.4273023009300232,4.199814796447754,13.799421174149249,13.33033433048788,56.58169055853804,46.31051232889958,-6.47544875391759e-05,0.1125474646687507,0,0,0
4417,195913.62975806807,2011-01-26 17:19:57,412.1804746776582,4,25,0.3770929276943207,4.199814796447754,13.81554275171572,13.33033433048788,56.64939930715234,46.31051232889958,0.0,0.1125474646687507,0,0,0
4418,196089.5017400717,2011-01-26 17:22:53,588.0524566812671,4,25,0.3270641565322876,4.199653148651123,13.832725351471767,13.33033433048788,56.721563683542605,46.31051232889958,0.0,0.1125474646687507,0,0,0
4419,196304.435731562,2011-01-26 17:26:28,802.9864481966594,4,25,0.2770353853702545,4.199814796447754,13.850730511180604,13.33033433048788,56.79718317471005,46.31051232889958,0.0,0.1125474646687507,0,0,0
4420,196566.74603738496,2011-01-26 17:30:50,1065.2967540948207,4,25,0.2270066142082214,4.199814796447754,13.869042683414047,13.33033433048788,56.87409213411882,46.31051232889958,0.0,0.1125474646687507,0,0,0
4421,196901.1288420412,2011-01-26 17:36:25,1399.6795586808662,4,25,0.1769778430461883,4.199653148651123,13.887736663366915,13.33033433048788,56.95260467190717,46.31051232889958,-3.23295607813634e-05,0.1125474646687507,0,0,0
4422,197360.32407125825,2011-01-26 17:44:04,1858.8747878628271,4,25,0.1269490718841552,4.199814796447754,13.906997053688682,13.33033433048788,57.033495846907165,46.31051232889958,-3.24249267578125e-05,0.1125474646687507,0,0,0
4423,198095.2803838847,2011-01-26 17:56:19,2593.831100499321,4,25,0.0769203081727027,4.199814796447754,13.927399196175424,13.33033433048788,57.1191822753903,46.31051232889958,0.0,0.1125474646687507,0,0,0
4424,198793.2998023006,2011-01-26 18:07:57,3291.850518910207,4,25,0.0498289167881011,4.199653148651123,13.939560592447943,13.33033433048788,57.170258563834565,46.31051232889958,-3.23295607813634e-05,0.1125474646687507,0,0,0
4425,198823.30892343845,2011-01-26 18:08:27,30.01513427503933,5,25,0.0,4.1892924308776855,13.939560592447943,13.33033433048788,57.170258563834565,46.31051232889958,-6.47544875391759e-05,0.1125474646687507,0,0,0
4426,198853.30845693656,2011-01-26 18:08:57,60.01466772802986,5,25,0.0,4.187511920928955,13.939560592447943,13.33033433048788,57.170258563834565,46.31051232889958,0.0,0.1125474646687507,0,0,0
4427,198853.49104707272,2011-01-26 18:08:57,0.187650492766587,6,25,-1.9243103452026844e-05,4.187511920928955,13.939560592447943,13.33033433149093,57.170258563834565,46.31051233309986,0.0,0.117299661040306,0,0,0
4428,198858.318937441,2011-01-26 18:09:02,5.0155408109442,6,25,0.0010644125286489,4.187511920928955,13.939561508301328,13.330334331657149,57.17026239915788,46.31051233379591,-6.47544875391759e-05,0.117299661040306,0,0,0
4429,198869.9387686829,2011-01-26 18:09:14,11.624777572565472,7,25,-1.0997490882873535,3.987259149551392,13.939561508301328,13.333884881389542,57.17026239915788,46.324728362084734,-0.0020720958709716,0.117299661040306,0,0,0
4430,198899.95387858723,2011-01-26 18:09:44,41.63988747185292,7,25,-1.0992072820663452,3.924447298049927,13.939561508301328,13.34305230142091,57.17026239915788,46.36098714643084,-0.0015864849556237,0.117299661040306,0,0,0
4431,198929.96904078184,2011-01-26 18:10:14,71.6550496915389,7,25,-1.0993878841400146,3.868596792221069,13.939561508301328,13.352219734652817,57.17026239915788,46.3967024157495,-0.0013922214275225,0.117299661040306,0,0,0
4432,198959.9841340948,2011-01-26 18:10:44,101.67014300448812,7,25,-1.099568486213684,3.82035493850708,13.939561508301328,13.361387182612116,57.17026239915788,46.43193874558376,-0.0011655807029455,0.117299661040306,0,0,0
4433,198989.9992297335,2011-01-26 18:11:14,131.68523862318395,7,25,-1.099568486213684,3.782635450363159,13.939561508301328,13.37055459329038,57.17026239915788,46.46678103839357,-0.0008741855854168,0.117299661040306,0,0,0
4434,199020.01431822445,2011-01-26 18:11:44,161.70032711912768,7,25,-1.0993878841400146,3.7525248527526855,13.939561508301328,13.379721512791868,57.17026239915788,46.50131427581205,-0.0007770061492919,0.117299661040306,0,0,0
4435,199050.02942219892,2011-01-26 18:12:14,191.71543108863628,7,25,-1.099568486213684,3.7277562618255615,13.939561508301328,13.388888166055828,57.17026239915788,46.53559525464219,-0.0006151676061563,0.117299661040306,0,0,0
4436,199080.04456950148,2011-01-26 18:12:44,221.7305783861316,7,25,-1.0993878841400146,3.706872940063477,13.939561508301328,13.398054906116071,57.17026239915788,46.56966903757528,-0.0005180359003134,0.117299661040306,0,0,0
4437,199110.0599316144,2011-01-26 18:13:14,251.74594051906288,7,25,-1.099568486213684,3.688579797744751,13.939561508301328,13.407221597951732,57.17026239915788,46.603563543311225,-0.0004532813909463,0.117299661040306,0,0,0
4438,199140.07480374607,2011-01-26 18:13:44,281.76081263572286,7,25,-1.0993878841400146,3.672067642211914,13.939561508301328,13.416388147335232,57.17026239915788,46.63729817319485,-0.0004208564641885,0.117299661040306,0,0,0
4439,199170.0899171341,2011-01-26 18:14:14,311.7759260186927,7,25,-1.0993878841400146,3.657012224197388,13.939561508301328,13.425554805222802,57.17026239915788,46.67088841145651,-0.0003885269106831,0.117299661040306,0,0,0
4440,199200.1050656396,2011-01-26 18:14:44,341.7910745241988,7,25,-1.099568486213684,3.642604351043701,13.939561508301328,13.434721727131762,57.17026239915788,46.704345203865486,-0.0003885269106831,0.117299661040306,0,0,0
4441,199230.12014863177,2011-01-26 18:15:14,371.8061575164255,7,25,-1.0997490882873535,3.629329681396485,13.939561508301328,13.443889006882053,57.17026239915788,46.73767695330347,-0.0003237724304199,0.117299661040306,0,0,0
4442,199260.1353825552,2011-01-26 18:15:44,401.82139144483176,7,25,-1.099568486213684,3.6165406703948975,13.939561508301328,13.453056354661664,57.17026239915788,46.770888852068566,-0.0003237724304199,0.117299661040306,0,0,0
4443,199290.1503797185,2011-01-26 18:16:14,431.8363886081465,7,25,-1.0997490882873535,3.604237318038941,13.939561508301328,13.46222367821105,57.17026239915788,46.803986539864255,-0.0003885269106831,0.117299661040306,0,0,0
4444,199320.16553477533,2011-01-26 18:16:44,461.8515436649804,7,25,-1.099568486213684,3.592743396759033,13.939561508301328,13.471390998614218,57.17026239915788,46.83697500321758,-0.0002913951757363,0.117299661040306,0,0,0
4445,199350.18062614847,2011-01-26 18:17:14,491.86663505814494,7,25,-1.099568486213684,3.581411600112915,13.939561508301328,13.480558353588306,57.17026239915788,46.86985955830545,-0.0003237724304199,0.117299661040306,0,0,0
4446,199380.19596089312,2011-01-26 18:17:44,521.8819698078287,7,25,-1.099568486213684,3.570888996124268,13.939561508301328,13.489725769724105,57.17026239915788,46.90264414367321,-0.0002913951757363,0.117299661040306,0,0,0
4447,199410.21082688952,2011-01-26 18:18:14,551.8968357992227,7,25,-1.099568486213684,3.56036639213562,13.939561508301328,13.498893019309952,57.17026239915788,46.93533145114933,-0.0002913951757363,0.117299661040306,0,0,0
4448,199440.2260012796,2011-01-26 18:18:44,581.912010189241,7,25,-1.0993878841400146,3.5506532192230225,13.939561508301328,13.5080603992428,57.17026239915788,46.96792659951545,-0.0002590179501567,0.117299661040306,0,0,0
4449,199470.24104705403,2011-01-26 18:19:14,611.9270559637096,7,25,-1.0993878841400146,3.5411019325256348,13.939561508301328,13.517227738033087,57.17026239915788,47.0004324287584,-0.0002266406954731,0.117299661040306,0,0,0
4450,199500.25629587457,2011-01-26 18:19:44,641.9423047742065,7,25,-1.0993878841400146,3.531874418258667,13.939561508301328,13.526395124273163,57.17026239915788,47.0328523626542,-0.0002590179501567,0.117299661040306,0,0,0
4451,199530.27128049656,2011-01-26 18:20:14,671.9572894062895,7,25,-1.0993878841400146,3.522970676422119,13.939561508301328,13.535562180732628,57.17026239915788,47.06518814708386,-0.0002266406954731,0.117299661040306,0,0,0
4452,199560.28674610745,2011-01-26 18:20:44,701.972755032157,7,25,-1.099568486213684,3.514390707015991,13.939561508301328,13.544729332771826,57.17026239915788,47.09744449736627,-0.0002266406954731,0.117299661040306,0,0,0
4453,199590.30149476137,2011-01-26 18:21:14,731.98750364601,7,25,-1.099568486213684,3.5062966346740723,13.939561508301328,13.553896245675128,57.17026239915788,47.12962361246469,-0.0002266406954731,0.117299661040306,0,0,0
4454,199620.3166459285,2011-01-26 18:21:44,762.002654938462,7,25,-1.099568486213684,3.498364210128784,13.939561508301328,13.56306344457006,57.17026239915788,47.16172966421604,-0.0001942634553415,0.117299661040306,0,0,0
4455,199650.33175280027,2011-01-26 18:22:14,792.0177616848915,7,25,-1.099568486213684,3.490593671798706,13.939561508301328,13.57223079174576,57.17026239915788,47.19376429155504,-0.0001942634553415,0.117299661040306,0,0,0
4456,199680.34688318052,2011-01-26 18:22:44,822.0328920702366,7,25,-1.0993878841400146,3.483146905899048,13.939561508301328,13.58139817297022,57.17026239915788,47.22572921727789,-0.0001618862152099,0.117299661040306,0,0,0
4457,199710.3642134788,2011-01-26 18:23:14,852.0502223634289,7,25,-1.099568486213684,3.4757001399993896,13.939561508301328,13.590566075695673,57.17026239915788,47.25762734386628,-0.0001942634553415,0.117299661040306,0,0,0
4458,199740.3770625534,2011-01-26 18:23:44,882.0630714380457,7,25,-1.099568486213684,3.4684152603149414,13.939561508301328,13.599732627566148,57.17026239915788,47.28945283501668,-0.0001618862152099,0.117299661040306,0,0,0
4459,199770.39220144995,2011-01-26 18:24:14,912.0782103346032,7,25,-1.0992072820663452,3.461130380630493,13.939561508301328,13.608899944891403,57.17026239915788,47.32121444636884,-0.0001942634553415,0.117299661040306,0,0,0
4460,199800.4073044521,2011-01-26 18:24:44,942.0933133367008,7,25,-1.0993878841400146,3.454007387161255,13.939561508301328,13.61806726823804,57.17026239915788,47.35291018021661,-0.0001942634553415,0.117299661040306,0,0,0
4461,199830.42240715845,2011-01-26 18:25:14,972.1084160430612,7,25,-1.0993878841400146,3.4468843936920166,13.939561508301328,13.627234662367313,57.17026239915788,47.384540412161066,-0.0001618862152099,0.117299661040306,0,0,0
4462,199860.43765310172,2011-01-26 18:25:44,1002.1236620014496,7,25,-1.0993878841400146,3.4392757415771484,13.939561508301328,13.63640209559118,57.17026239915788,47.41610467874483,-0.0002266406954731,0.117299661040306,0,0,0
4463,199890.45264586413,2011-01-26 18:26:14,1032.1386547487584,7,25,-1.0993878841400146,3.4319908618927,13.939561508301328,13.645569432993968,57.17026239915788,47.4476015409324,-0.0002590179501567,0.117299661040306,0,0,0
4464,199920.4677681643,2011-01-26 18:26:44,1062.153777053965,7,25,-1.0997490882873535,3.424544334411621,13.939561508301328,13.654736878234358,57.17026239915788,47.479030931228,-0.0002266406954731,0.117299661040306,0,0,0
4465,199950.48287538192,2011-01-26 18:27:14,1092.1688842665567,7,25,-1.099568486213684,3.417097568511963,13.939561508301328,13.66390426206402,57.17026239915788,47.51039173676977,-0.0001942634553415,0.117299661040306,0,0,0
4466,199980.49824418648,2011-01-26 18:27:44,1122.1842530861531,7,25,-1.0993878841400146,3.409165143966675,13.939561508301328,13.673071763698642,57.17026239915788,47.541681811882746,-0.0002266406954731,0.117299661040306,0,0,0
4467,200010.51533618572,2011-01-26 18:28:14,1152.2013451756686,7,25,-1.0993878841400146,3.4012327194213867,13.939561508301328,13.682239828639768,57.17026239915788,47.57289993989756,-0.0001618862152099,0.117299661040306,0,0,0
4468,200040.52825167088,2011-01-26 18:28:44,1182.2142605605509,7,25,-1.099568486213684,3.392490863800049,13.939561508301328,13.691406524136992,57.17026239915788,47.60403734285764,-0.0002590179501567,0.117299661040306,0,0,0
4469,200070.54345243663,2011-01-26 18:29:14,1212.2294613463555,7,25,-1.0993878841400146,3.383587121963501,13.939561508301328,13.700573941609564,57.17026239915788,47.635097374253206,-0.0002590179501567,0.117299661040306,0,0,0
4470,200100.5584336101,2011-01-26 18:29:44,1242.244442514806,7,25,-1.0993878841400146,3.374359607696533,13.939561508301328,13.709741297241626,57.17026239915788,47.666074099157086,-0.0001942634553415,0.117299661040306,0,0,0
4471,200130.57372718217,2011-01-26 18:30:14,1272.2597360818502,7,25,-1.099568486213684,3.3646464347839355,13.939561508301328,13.71890877145025,57.17026239915788,47.69696420088791,-0.0002913951757363,0.117299661040306,0,0,0
4472,200160.58873948824,2011-01-26 18:30:44,1302.2747483728676,7,25,-1.0997490882873535,3.354285717010498,13.939561508301328,13.72807618502582,57.17026239915788,47.72776284904002,-0.0003237724304199,0.117299661040306,0,0,0
4473,200190.6038585654,2011-01-26 18:31:15,1332.2898674801042,7,25,-1.099568486213684,3.3432776927948,13.939561508301328,13.737243624972812,57.17026239915788,47.75846474685274,-0.0003237724304199,0.117299661040306,0,0,0
4474,200220.61895059017,2011-01-26 18:31:45,1362.3049594797803,7,25,-1.099568486213684,3.3312981128692627,13.939561508301328,13.746411135872036,57.17026239915788,47.78906046204947,-0.0003237724304199,0.117299661040306,0,0,0
4475,200250.6340672713,2011-01-26 18:32:15,1392.320076176008,7,25,-1.099568486213684,3.318023443222046,13.939561508301328,13.75557869171026,57.17026239915788,47.819540420099685,-0.0003885269106831,0.117299661040306,0,0,0
4476,200280.6491594364,2011-01-26 18:32:45,1422.3351683210462,7,25,-1.099568486213684,3.30361557006836,13.939561508301328,13.76474683423073,57.17026239915788,47.84989545320044,-0.0003885269106831,0.117299661040306,0,0,0
4477,200310.66422951643,2011-01-26 18:33:15,1452.3502384111168,7,25,-1.099568486213684,3.287588834762573,13.939561508301328,13.773914843013168,57.17026239915788,47.88011042506177,-0.0004856586456298,0.117299661040306,0,0,0
4478,200340.67938672868,2011-01-26 18:33:45,1482.3653956132978,7,25,-1.099568486213684,3.2697815895080566,13.939561508301328,13.783082934692429,57.17026239915788,47.91017095138742,-0.0004856109735555,0.117299661040306,0,0,0
4479,200370.6945140664,2011-01-26 18:34:15,1512.380522991147,7,25,-1.099568486213684,3.2493839263916016,13.939561508301328,13.792251034081,57.17026239915788,47.94005616157654,-0.0005504131549969,0.117299661040306,0,0,0
4480,200400.7096505269,2011-01-26 18:34:45,1542.395659436596,7,25,-1.099568486213684,3.2252628803253174,13.939561508301328,13.80141907507555,57.17026239915788,47.96973848578725,-0.0006799221155233,0.117299661040306,0,0,0
4481,200430.72473845645,2011-01-26 18:35:15,1572.4107473761528,7,25,-1.099568486213684,3.1962852478027344,13.939561508301328,13.810587190618248,57.17026239915788,47.99917934004101,-0.0008418083307333,0.117299661040306,0,0,0
4482,200460.7399930564,2011-01-26 18:35:45,1602.426001966054,7,25,-1.0993878841400146,3.160508632659912,13.939561508301328,13.819754675814323,57.17026239915788,48.0283234965883,-0.0010360718006268,0.117299661040306,0,0,0
4483,200490.75503985336,2011-01-26 18:36:15,1632.4410488482836,7,25,-1.0997490882873535,3.1142091751098637,13.939561508301328,13.828922037649612,57.17026239915788,48.05709424538659,-0.0013922214275225,0.117299661040306,0,0,0
4484,200520.77039542497,2011-01-26 18:36:45,1662.4564043396615,7,25,-1.099568486213684,3.0523688793182373,13.939561508301328,13.838089506024904,57.17026239915788,48.08537584384735,-0.0018778800731524,0.117299661040306,0,0,0
4485,200550.78522102567,2011-01-26 18:37:15,1692.47122994039,7,25,-1.0993878841400146,2.964950561523437,13.939561508301328,13.847256862896078,57.17026239915788,48.11298299910983,-0.0027520656585693,0.117299661040306,0,0,0
4486,200580.8003305691,2011-01-26 18:37:45,1722.4863394537151,7,25,-1.099568486213684,2.8365752696990967,13.939561508301328,13.856424300566545,57.17026239915788,48.13961428726672,-0.0040147779509425,0.117299661040306,0,0,0
4487,200604.62805384712,2011-01-26 18:38:09,1746.3140627317314,7,25,-1.0993878841400146,2.699943780899048,13.939561508301328,13.863701914316833,57.17026239915788,48.15977642921308,-0.0049212933517992,0.117299661040306,0,0,0
4488,200664.6360086268,2011-01-26 18:39:09,60.014478762068535,8,25,0.0,3.657983541488648,13.939561508301328,13.863701914316833,57.17026239915788,48.15977642921308,0.0011979580158367,0.117299661040306,0,0,0
4489,200664.8180147889,2011-01-26 18:39:09,0.187514569002745,9,25,-1.9243103452026844e-05,3.657983541488648,13.939561508301328,13.863701915319156,57.17026239915788,48.15977643287955,0.0,0.1134596467018127,0,0,0
4490,200669.6461680123,2011-01-26 18:39:14,5.015667787408618,9,25,0.0008838032954372,3.665268421173096,13.939562407617856,13.863701915486091,57.17026569259634,48.1597764334902,0.0010684489971026,0.1134596467018127,0,0,0
