Data_Point,Test_Time(s),Date_Time,Step_Time(s),Step_Index,Cycle_Index,Current(A),Voltage(V),Charge_Capacity(Ah),Discharge_Capacity(Ah),Charge_Energy(Wh),Discharge_Energy(Wh),dV/dt(V/s),Internal_Resistance(Ohm),Is_FC_Data,AC_Impedance(Ohm),ACI_Phase_Angle(Deg)
4836,216133.46588915796,2011-01-26 22:57:00,30.01509419013541,1,28,0.0,3.697321653366089,15.00390115154708,14.922474429380102,61.5391100817543,51.8276774228399,0.0005180359003134,0.1134596467018127,0,0,0
4837,216163.48099172887,2011-01-26 22:57:30,60.03019676617107,1,28,0.0,3.7144815921783447,15.00390115154708,14.922474429380102,61.5391100817543,51.8276774228399,0.0003885269106831,0.1134596467018127,0,0,0
4838,216193.49624109585,2011-01-26 22:58:00,90.04544616814213,1,28,0.0,3.726299285888672,15.00390115154708,14.922474429380102,61.5391100817543,51.8276774228399,0.0002913951757363,0.1134596467018127,0,0,0
4839,216223.46440095617,2011-01-26 22:58:30,120.01360598838644,1,28,0.0,3.7348792552948,15.00390115154708,14.922474429380102,61.5391100817543,51.8276774228399,0.0001942634553415,0.1134596467018127,0,0,0
4840,216253.487737271,2011-01-26 22:59:00,30.01513769355933,2,28,0.5501165986061096,3.8519225120544434,15.008487678231967,14.922474429380102,61.5566987634053,51.8276774228399,0.0006475448608398,0.1134596467018127,0,0,0
4841,216283.5029036561,2011-01-26 22:59:30,60.03030406860175,2,28,0.5501165986061096,3.8716726303100586,15.013074237291027,14.922474429380102,61.57441481585283,51.8276774228399,0.0003885269106831,0.1134596467018127,0,0,0
4842,216313.51794905463,2011-01-26 23:00:00,90.04534947715845,2,28,0.5501165986061096,3.885756731033325,15.017660729462872,14.922474429380102,61.59220611106574,51.8276774228399,0.0003561496851034,0.1134596467018127,0,0,0
4843,216343.53317147435,2011-01-26 23:00:30,120.06057190690645,2,28,0.550297200679779,3.897250652313232,15.02224731701099,14.922474429380102,61.61005534323242,51.8276774228399,0.0003237724304199,0.1134596467018127,0,0,0
4844,216373.5481680512,2011-01-26 23:01:00,150.0755684737345,2,28,0.5501165986061096,3.90712571144104,15.026833900895856,14.922474429380102,61.62795306473737,51.8276774228399,0.0002590179501567,0.1134596467018127,0,0,0
4845,216403.56329452177,2011-01-26 23:01:30,180.0906949342978,2,28,0.5501165986061096,3.916029214859009,15.03142046548338,14.922474429380102,61.64589386697405,51.8276774228399,0.0002266406954731,0.1134596467018127,0,0,0
4846,216433.57839575448,2011-01-26 23:02:00,210.1057961770104,2,28,0.5501165986061096,3.924285411834717,15.036006932155058,14.922474429380102,61.6638736011326,51.8276774228399,0.0002266406954731,0.1134596467018127,0,0,0
4847,216463.59351588425,2011-01-26 23:02:30,240.1209163017829,2,28,0.5501165986061096,3.932055950164795,15.040593424458246,14.922474429380102,61.68189019667279,51.8276774228399,0.0001942634553415,0.1134596467018127,0,0,0
4848,216493.60993273585,2011-01-26 23:03:00,270.1373331634227,2,28,0.5499359965324402,3.939340829849243,15.04518024084561,14.922474429380102,61.69994280561295,51.8276774228399,0.0001618862152099,0.1134596467018127,0,0,0
4849,216523.6238527897,2011-01-26 23:03:30,300.1512532372991,2,28,0.5499359965324402,3.946301937103272,15.049766601195072,14.922474429380102,61.71802638842217,51.8276774228399,0.0001942634553415,0.1134596467018127,0,0,0
4850,216553.63892615293,2011-01-26 23:04:00,330.1663265754649,2,28,0.5499359965324402,3.95277738571167,15.054353145800906,14.922474429380102,61.73614168709662,51.8276774228399,0.0001618862152099,0.1134596467018127,0,0,0
4851,216583.65410329483,2011-01-26 23:04:30,360.18150376245416,2,28,0.5501165986061096,3.9590909481048575,15.058939748369747,14.922474429380102,61.75428659876171,51.8276774228399,0.0001295089750783,0.1134596467018127,0,0,0
4852,216613.6692266426,2011-01-26 23:05:00,390.196627075172,2,28,0.550297200679779,3.965080738067627,15.063526361415036,14.922474429380102,61.77245928246288,51.8276774228399,0.0001942634553415,0.1134596467018127,0,0,0
4853,216643.6842172195,2011-01-26 23:05:30,420.2116176320214,2,28,0.5499359965324402,3.970422983169556,15.06811294195856,14.922474429380102,61.79065819217735,51.8276774228399,9.713172767078504e-05,0.1134596467018127,0,0,0
4854,216673.6993866572,2011-01-26 23:06:01,450.2267871649341,2,28,0.5501165986061096,3.9759271144866943,15.07269956750511,14.922474429380102,61.8088822802283,51.8276774228399,0.0001295089750783,0.1134596467018127,0,0,0
4855,216703.71444077248,2011-01-26 23:06:31,480.2418411849533,2,28,0.5501165986061096,3.981107473373413,15.077286135686268,14.922474429380102,61.82712992527143,51.8276774228399,0.0001295089750783,0.1134596467018127,0,0,0
4856,216733.7297268709,2011-01-26 23:07:01,510.2571273335081,2,28,0.5501165986061096,3.985964059829712,15.081872626053112,14.922474429380102,61.84540029835199,51.8276774228399,0.0001295089750783,0.1134596467018127,0,0,0
4857,216763.74483055467,2011-01-26 23:07:31,540.2722309822173,2,28,0.550297200679779,3.9908206462860103,15.086459097712703,14.922474429380102,61.86369250111094,51.8276774228399,0.0001618862152099,0.1134596467018127,0,0,0
4858,216793.75978305668,2011-01-26 23:08:01,570.2871834792098,2,28,0.550297200679779,3.9951913356781006,15.0910455168559,14.922474429380102,61.882005628976586,51.8276774228399,0.0001618862152099,0.1134596467018127,0,0,0
4859,216823.7749083744,2011-01-26 23:08:31,600.3023087919122,2,28,0.5501165986061096,3.9995622634887695,15.095631982789678,14.922474429380102,61.90033936095056,51.8276774228399,0.0001295089750783,0.1134596467018127,0,0,0
4860,216853.79004457925,2011-01-26 23:09:01,630.317445086986,2,28,0.550297200679779,4.0037713050842285,15.100218469356324,14.922474429380102,61.918693057898736,51.8276774228399,6.47544875391759e-05,0.1134596467018127,0,0,0
4861,216883.8052744776,2011-01-26 23:09:31,660.3326749101607,2,28,0.5501165986061096,4.007980346679688,15.10480497340258,14.922474429380102,61.937066295134485,51.8276774228399,0.0001295089750783,0.1134596467018127,0,0,0
4862,216913.8202528892,2011-01-26 23:10:01,690.3476533117154,2,28,0.550297200679779,4.012351512908936,15.109391466073598,14.922474429380102,61.95545840233836,51.8276774228399,0.0001619339018361,0.1134596467018127,0,0,0
4863,216943.8356228617,2011-01-26 23:10:31,720.3630233242852,2,28,0.5501165986061096,4.0160746574401855,15.113977998700244,14.922474429380102,61.97386927003552,51.8276774228399,6.47544875391759e-05,0.1134596467018127,0,0,0
4864,216973.85048156988,2011-01-26 23:11:01,750.3778819723773,2,28,0.5501165986061096,4.019959926605225,15.118564447140448,14.922474429380102,61.99229789693068,51.8276774228399,0.0001295089750783,0.1134596467018127,0,0,0
4865,217003.8659438374,2011-01-26 23:11:31,780.3933442699498,2,28,0.5501165986061096,4.023845195770264,15.123150961403232,14.922474429380102,62.01074449927853,51.8276774228399,9.70840483205393e-05,0.1134596467018127,0,0,0
4866,217033.8807170726,2011-01-26 23:12:01,810.4081174951417,2,28,0.5501165986061096,4.027568817138672,15.127737407649075,14.922474429380102,62.029208232635376,51.8276774228399,6.47544875391759e-05,0.1134596467018127,0,0,0
4867,217063.8958341448,2011-01-26 23:12:31,840.4232345673063,2,28,0.5501165986061096,4.031291961669922,15.132323920315192,14.922474429380102,62.04768937047511,51.8276774228399,9.70840483205393e-05,0.1134596467018127,0,0,0
4868,217093.91095230464,2011-01-26 23:13:01,870.4383527221692,2,28,0.5501165986061096,4.035015106201172,15.136910366392556,14.922474429380102,62.06618712585456,51.8276774228399,0.0001295089750783,0.1134596467018127,0,0,0
4869,217123.9260796825,2011-01-26 23:13:31,900.4534801000185,2,28,0.5501165986061096,4.038576602935791,15.141496844889245,14.922474429380102,62.08470168109661,51.8276774228399,9.70840483205393e-05,0.1134596467018127,0,0,0
4870,217153.94119773209,2011-01-26 23:14:01,930.4685981446064,2,28,0.5501165986061096,4.04213809967041,15.146083386363877,14.922474429380102,62.10323291959292,51.8276774228399,9.70840483205393e-05,0.1134596467018127,0,0,0
4871,217183.9562871253,2011-01-26 23:14:31,960.4836875478112,2,28,0.5501165986061096,4.045699596405029,15.150669912124402,14.922474429380102,62.12178042761705,51.8276774228399,9.70840483205393e-05,0.1134596467018127,0,0,0
4872,217213.97140923,2011-01-26 23:15:01,990.4988096525186,2,28,0.5501165986061096,4.049261093139648,15.155256411982654,14.922474429380102,62.14034397674464,51.8276774228399,9.70840483205393e-05,0.1134596467018127,0,0,0
4873,217243.9865380063,2011-01-26 23:15:31,1020.5139384288534,2,28,0.5501165986061096,4.052660942077637,15.159842884307237,14.922474429380102,62.15892321940024,51.8276774228399,9.71794142969884e-05,0.1134596467018127,0,0,0
4874,217274.0016433643,2011-01-26 23:16:01,1050.5290437767976,2,28,0.5499359965324402,4.055898666381836,15.164429436594952,14.922474429380102,62.17751852846484,51.8276774228399,6.47544875391759e-05,0.1134596467018127,0,0,0
4875,217304.01675296784,2011-01-26 23:16:31,1080.5441533803478,2,28,0.5501165986061096,4.059460163116455,15.16901599050886,14.922474429380102,62.19612945763007,51.8276774228399,6.47544875391759e-05,0.1134596467018127,0,0,0
4876,217334.0321513611,2011-01-26 23:17:01,1110.559551883926,2,28,0.5501165986061096,4.062535762786865,15.17360323696412,14.922474429380102,62.21475844057503,51.8276774228399,6.47544875391759e-05,0.1134596467018127,0,0,0
4877,217364.04701410947,2011-01-26 23:17:31,1140.5744145520373,2,28,0.5501165986061096,4.066259384155273,15.178190434688936,14.922474429380102,62.23340267752248,51.8276774228399,0.0001295089750783,0.1134596467018127,0,0,0
4878,217394.06210941737,2011-01-26 23:18:01,1170.5895098348965,2,28,0.550297200679779,4.069497108459473,15.182777591478796,14.922474429380102,62.25206227895535,51.8276774228399,9.71794142969884e-05,0.1134596467018127,0,0,0
4879,217424.077215828,2011-01-26 23:18:31,1200.6046162404762,2,28,0.5501165986061096,4.072896480560303,15.18736479727482,14.922474429380102,62.270737456846206,51.8276774228399,6.47544875391759e-05,0.1134596467018127,0,0,0
4880,217454.0923362184,2011-01-26 23:19:01,1230.619736630911,2,28,0.5501165986061096,4.076134204864502,15.191951338608837,14.922474429380102,62.28942517854964,51.8276774228399,6.47544875391759e-05,0.1134596467018127,0,0,0
4881,217484.1076922762,2011-01-26 23:19:31,1260.635092738826,2,28,0.5499359965324402,4.07953405380249,15.196537852971758,14.922474429380102,62.30812808608909,51.8276774228399,9.71794142969884e-05,0.1134596467018127,0,0,0
4882,217514.122577305,2011-01-26 23:20:01,1290.649977717542,2,28,0.5501165986061096,4.0827717781066895,15.201124255301997,14.922474429380102,62.326845889865055,51.8276774228399,6.47544875391759e-05,0.1134596467018127,0,0,0
4883,217544.1377093044,2011-01-26 23:20:31,1320.6651097269348,2,28,0.5501165986061096,4.08617115020752,15.205710713230522,14.922474429380102,62.3455793276294,51.8276774228399,9.70840483205393e-05,0.1134596467018127,0,0,0
4884,217574.15282231144,2011-01-26 23:21:01,1350.6802227439928,2,28,0.5501165986061096,4.089570999145508,15.210297117816005,14.922474429380102,62.36432785366765,51.8276774228399,9.71794142969884e-05,0.1134596467018127,0,0,0
4885,217604.1679633734,2011-01-26 23:21:31,1380.6953637858971,2,28,0.550297200679779,4.092970371246338,15.214883561578583,14.922474429380102,62.38309186658295,51.8276774228399,9.70840483205393e-05,0.1134596467018127,0,0,0
4886,217634.1830322354,2011-01-26 23:22:01,1410.7104326529195,2,28,0.5501165986061096,4.096208095550537,15.219469946889236,14.922474429380102,62.40187087421654,51.8276774228399,9.70840483205393e-05,0.1134596467018127,0,0,0
4887,217664.1982760434,2011-01-26 23:22:31,1440.7256764709737,2,28,0.5501165986061096,4.099607944488525,15.224056435185032,14.922474429380102,62.42066561157232,51.8276774228399,0.0001295089750783,0.1134596467018127,0,0,0
4888,217694.2132621642,2011-01-26 23:23:01,1470.7406625867548,2,28,0.5501165986061096,4.102845668792725,15.22864294494415,14.922474429380102,62.43947580699714,51.8276774228399,9.71794142969884e-05,0.1134596467018127,0,0,0
4889,217724.228410374,2011-01-26 23:23:31,1500.7558107864986,2,28,0.5501165986061096,4.106245040893555,15.233229340683716,14.922474429380102,62.45830101256849,51.8276774228399,6.47544875391759e-05,0.1134596467018127,0,0,0
4890,217754.24349818824,2011-01-26 23:24:01,1530.7708986909684,2,28,0.5501165986061096,4.109644889831543,15.237815858269952,14.922474429380102,62.47714233195722,51.8276774228399,9.71794142969884e-05,0.1134596467018127,0,0,0
4891,217784.25890336343,2011-01-26 23:24:31,1560.7863037959992,2,28,0.5499359965324402,4.113044261932373,15.24240235427746,14.922474429380102,62.495999091123366,51.8276774228399,9.70840483205393e-05,0.1134596467018127,0,0,0
4892,217814.273728082,2011-01-26 23:25:01,1590.8011284944785,2,28,0.5499359965324402,4.116281986236572,15.246988742960715,14.922474429380102,62.5148710419113,51.8276774228399,6.47544875391759e-05,0.1134596467018127,0,0,0
4893,217844.28888192071,2011-01-26 23:25:31,1620.8162823332766,2,28,0.5501165986061096,4.120005130767822,15.25157521209457,14.922474429380102,62.53375905055896,51.8276774228399,9.70840483205393e-05,0.1134596467018127,0,0,0
4894,217874.30396090803,2011-01-26 23:26:01,1650.831361320522,2,28,0.5501165986061096,4.1232428550720215,15.256161666543974,14.922474429380102,62.552662706194766,51.8276774228399,6.47544875391759e-05,0.1134596467018127,0,0,0
4895,217904.31920487143,2011-01-26 23:26:31,1680.8466053039883,2,28,0.5501165986061096,4.12696647644043,15.260748093729088,14.922474429380102,62.57158211378798,51.8276774228399,0.0001295089750783,0.1134596467018127,0,0,0
4896,217934.3341907767,2011-01-26 23:27:01,1710.8615911891948,2,28,0.550297200679779,4.13036584854126,15.265334529696217,14.922474429380102,62.590517529815735,51.8276774228399,6.47544875391759e-05,0.1134596467018127,0,0,0
4897,217964.3496402824,2011-01-26 23:27:31,1740.8770407450106,2,28,0.5501165986061096,4.133765697479248,15.26992107423204,14.922474429380102,62.60946948429019,51.8276774228399,9.71794142969884e-05,0.1134596467018127,0,0,0
4898,217994.36444676545,2011-01-26 23:28:01,1770.8918471779668,2,28,0.5501165986061096,4.137488842010498,15.27450746068462,14.922474429380102,62.62843693579608,51.8276774228399,0.0001295089750783,0.1134596467018127,0,0,0
4899,218024.37955204825,2011-01-26 23:28:31,1800.9069524607485,2,28,0.5499359965324402,4.140888690948486,15.279093908197538,14.922474429380102,62.64742083138508,51.8276774228399,6.47544875391759e-05,0.1134596467018127,0,0,0
4900,218054.39465188744,2011-01-26 23:29:01,1830.9220523049755,2,28,0.5501165986061096,4.144611835479736,15.283680421502773,14.922474429380102,62.66642132366543,51.8276774228399,9.70840483205393e-05,0.1134596467018127,0,0,0
4901,218084.40986953027,2011-01-26 23:29:31,1860.9372699427804,2,28,0.550297200679779,4.148173332214356,15.28826680661336,14.922474429380102,62.685438043911454,51.8276774228399,0.0001295089750783,0.1134596467018127,0,0,0
4902,218114.4270687468,2011-01-26 23:30:01,1890.9544691643016,2,28,0.5501165986061096,4.151734828948975,15.292853625210936,14.922474429380102,62.704473192756026,51.8276774228399,9.70840483205393e-05,0.1134596467018127,0,0,0
4903,218144.4400058057,2011-01-26 23:30:31,1920.96740621819,2,28,0.5501165986061096,4.155458450317383,15.297439744052138,14.922474429380102,62.7235220730454,51.8276774228399,9.71794142969884e-05,0.1134596467018127,0,0,0
4904,218174.45511967485,2011-01-26 23:31:01,1950.9825200873715,2,28,0.5501165986061096,4.159019947052002,15.302026215709862,14.922474429380102,62.74258914368006,51.8276774228399,9.71794142969884e-05,0.1134596467018127,0,0,0
4905,218204.4702901652,2011-01-26 23:31:31,1980.9976906177703,2,28,0.5501165986061096,4.162743091583252,15.30661266103832,14.922474429380102,62.76167288333722,51.8276774228399,9.70840483205393e-05,0.1134596467018127,0,0,0
4906,218234.48534701223,2011-01-26 23:32:01,2011.0127474247352,2,28,0.5501165986061096,4.16646671295166,15.311199071430952,14.922474429380102,62.78077334130379,51.8276774228399,6.47544875391759e-05,0.1134596467018127,0,0,0
4907,218264.5004633476,2011-01-26 23:32:31,2041.0278637801136,2,28,0.5499359965324402,4.170028209686279,15.31578546753346,14.922474429380102,62.79989070026148,51.8276774228399,9.71794142969884e-05,0.1134596467018127,0,0,0
4908,218294.51562204343,2011-01-26 23:33:01,2071.043022576267,2,28,0.5499359965324402,4.173913478851318,15.320371915433885,14.922474429380102,62.81902536085266,51.8276774228399,0.0001295089750783,0.1134596467018127,0,0,0
4909,218324.53070506075,2011-01-26 23:33:31,2101.0581054933064,2,28,0.550297200679779,4.177636623382568,15.324958357135644,14.922474429380102,62.838177168202606,51.8276774228399,9.70840483205393e-05,0.1134596467018127,0,0,0
4910,218354.54581554147,2011-01-26 23:34:01,2131.073216074293,2,28,0.5501165986061096,4.181360244750977,15.329544777190174,14.922474429380102,62.85734622890636,51.8276774228399,9.71794142969884e-05,0.1134596467018127,0,0,0
4911,218384.560941586,2011-01-26 23:34:31,2161.08834199852,2,28,0.5499359965324402,4.185083389282227,15.334131230435572,14.922474429380102,62.876532915368905,51.8276774228399,6.47544875391759e-05,0.1134596467018127,0,0,0
4912,218414.57828819487,2011-01-26 23:35:01,2191.1056886174006,2,28,0.5501165986061096,4.188968658447266,15.33871757137489,14.922474429380102,62.89573663684432,51.8276774228399,6.47544875391759e-05,0.1134596467018127,0,0,0
4913,218444.59140964836,2011-01-26 23:35:31,2221.118810196181,2,28,0.5501165986061096,4.193016052246094,15.34330281576922,14.922474429380102,62.91495334214311,51.8276774228399,0.0001295089750783,0.1134596467018127,0,0,0
4914,218474.6062722011,2011-01-26 23:36:01,2251.1336726186805,2,28,0.5499359965324402,4.196739196777344,15.347888728673675,14.922474429380102,62.93419064142714,51.8276774228399,6.47544875391759e-05,0.1134596467018127,0,0,0
4915,218497.7465069061,2011-01-26 23:36:25,2274.273907343688,2,28,0.5501165986061096,4.200138568878174,15.351424591711472,14.922474429380102,62.94903539590934,51.8276774228399,0.0001618385285837,0.1134596467018127,0,0,0
4916,218527.76163948784,2011-01-26 23:36:55,30.015182685693578,3,28,0.0,4.089408874511719,15.351424591711472,14.922474429380102,62.94903539590934,51.8276774228399,-0.0004857063177041,0.1134596467018127,0,0,0
4917,218557.77674118167,2011-01-26 23:37:25,60.03028440459299,3,28,0.0,4.075972557067871,15.351424591711472,14.922474429380102,62.94903539590934,51.8276774228399,-0.0002913475036621,0.1134596467018127,0,0,0
4918,218587.791841467,2011-01-26 23:37:55,90.04538468490699,3,28,0.0,4.067554473876953,15.351424591711472,14.922474429380102,62.94903539590934,51.8276774228399,-0.0001295089750783,0.1134596467018127,0,0,0
4919,218617.7601260632,2011-01-26 23:38:25,120.01366925606897,3,28,0.0,4.061079025268555,15.351424591711472,14.922474429380102,62.94903539590934,51.8276774228399,-0.0001618385285837,0.1134596467018127,0,0,0
4920,218617.7620295061,2011-01-26 23:38:25,2.711758537e-06,4,28,1.015907883644104,4.199814796447754,15.35142459247672,14.922474429380102,62.94903539912325,51.8276774228399,0.0,0.1134596467018127,0,0,0
4921,218618.19944839852,2011-01-26 23:38:25,0.437421629291465,4,28,0.9658791422843932,4.199814796447754,15.351543645948336,14.922474429380102,62.949535403154215,51.8276774228399,0.0,0.1134596467018127,0,0,0
4922,218619.96514739876,2011-01-26 23:38:27,2.203120644529443,4,28,0.9156697988510132,4.199976921081543,15.352003667236977,14.922474429380102,62.95146743090043,51.8276774228399,3.24249267578125e-05,0.1134596467018127,0,0,0
4923,218622.8400964514,2011-01-26 23:38:30,5.078069667093371,4,28,0.8656409978866577,4.199976921081543,15.35271358958232,14.922474429380102,62.95444899915135,51.8276774228399,3.24249267578125e-05,0.1134596467018127,0,0,0
4924,218626.93380387992,2011-01-26 23:38:34,9.171777110644992,4,28,0.815612256526947,4.199814796447754,15.353668013230235,14.922474429380102,62.95845744089508,51.8276774228399,0.0,0.1134596467018127,0,0,0
4925,218632.40251830392,2011-01-26 23:38:40,14.640491509608562,4,28,0.7655834555625916,4.199491024017334,15.35486741861477,14.922474429380102,62.96349476396574,51.8276774228399,-6.47544875391759e-05,0.1134596467018127,0,0,0
4926,218639.6678412041,2011-01-26 23:38:47,21.90581443482217,4,28,0.7155547142028809,4.199814796447754,15.3563602581288,14.922474429380102,62.96976448644671,51.8276774228399,-3.24249267578125e-05,0.1134596467018127,0,0,0
4927,218649.52712618085,2011-01-26 23:38:57,31.765099426647957,4,28,0.6655259132385254,4.199814796447754,15.358248161979947,14.922474429380102,62.977693436391945,51.8276774228399,0.0,0.1134596467018127,0,0,0
4928,218663.2924468755,2011-01-26 23:39:10,45.53042008120239,4,28,0.6154971718788147,4.199976921081543,15.360691502568969,14.922474429380102,62.98795516575562,51.8276774228399,3.24249267578125e-05,0.1134596467018127,0,0,0
4929,218684.7609754895,2011-01-26 23:39:32,66.99894872027207,4,28,0.565468430519104,4.199814796447754,15.364201455371424,14.922474429380102,63.00269652626853,51.8276774228399,-6.47544875391759e-05,0.1134596467018127,0,0,0
4930,218723.32286666756,2011-01-26 23:40:10,105.56083990830992,4,28,0.5154396295547485,4.199814796447754,15.369962753645757,14.922474429380102,63.02689326751205,51.8276774228399,0.0,0.1134596467018127,0,0,0
4931,218798.16516161995,2011-01-26 23:41:25,180.40313485571733,4,28,0.4654108583927154,4.199814796447754,15.380108802007424,14.922474429380102,63.06950539267957,51.8276774228399,-3.24249267578125e-05,0.1134596467018127,0,0,0
4932,218918.39753498897,2011-01-26 23:43:26,300.6355081846294,4,28,0.4153820872306824,4.199814796447754,15.394782779243712,14.922474429380102,63.13113431210394,51.8276774228399,-3.24249267578125e-05,0.1134596467018127,0,0,0
4933,219070.67619052852,2011-01-26 23:45:58,452.91416373422993,4,28,0.3653533160686493,4.199814796447754,15.411273353680247,14.922474429380102,63.20039270790111,51.8276774228399,0.0,0.1134596467018127,0,0,0
4934,219255.57930130887,2011-01-26 23:49:03,637.8172745145594,4,28,0.3153245449066162,4.199814796447754,15.42872989389803,14.922474429380102,63.273707957070016,51.8276774228399,-3.24249267578125e-05,0.1134596467018127,0,0,0
4935,219477.82551072625,2011-01-26 23:52:45,860.0634839519264,4,28,0.2652957737445831,4.199653148651123,15.446626187415234,14.922474429380102,63.348870054098114,51.8276774228399,-3.23295607813634e-05,0.1134596467018127,0,0,0
4936,219759.21138441368,2011-01-26 23:57:26,1141.4493576193745,4,28,0.2152670174837112,4.199976921081543,15.46536444230852,14.922474429380102,63.42756827143215,51.8276774228399,3.24249267578125e-05,0.1134596467018127,0,0,0
4937,220118.73665016916,2011-01-27 00:03:26,1500.9746233747956,4,28,0.1652382463216781,4.199976921081543,15.48427120179746,14.922474429380102,63.506973755483415,51.8276774228399,0.0,0.1134596467018127,0,0,0
4938,220624.75917682977,2011-01-27 00:11:52,2006.997150025448,4,28,0.115209475159645,4.199814796447754,15.50379519146847,14.922474429380102,63.58897199993197,51.8276774228399,0.0,0.1134596467018127,0,0,0
4939,221480.9478083522,2011-01-27 00:26:08,2863.18578155287,4,28,0.065180703997612,4.199814796447754,15.524638479280815,14.922474429380102,63.67651142355801,51.8276774228399,0.0,0.1134596467018127,0,0,0
4940,221928.09859193471,2011-01-27 00:33:35,3310.336565155464,4,28,0.0498289167881011,4.199814796447754,15.531784948425836,14.922474429380102,63.70652573722614,51.8276774228399,-3.24249267578125e-05,0.1134596467018127,0,0,0
4941,221958.10715125265,2011-01-27 00:34:05,30.015123252567932,5,28,0.0,4.189454555511475,15.531784948425836,14.922474429380102,63.70652573722614,51.8276774228399,-6.47544875391759e-05,0.1134596467018127,0,0,0
4942,221988.1066337887,2011-01-27 00:34:35,60.01460578865789,5,28,0.0,4.187673568725586,15.531784948425836,14.922474429380102,63.70652573722614,51.8276774228399,-3.24249267578125e-05,0.1134596467018127,0,0,0
4943,221988.29091384925,2011-01-27 00:34:36,0.187662372374225,6,28,-1.9243103452026844e-05,4.187835693359375,15.531784948425836,14.922474430383216,63.70652573722614,51.82767742704077,0.0,0.1174056306481361,0,0,0
4944,221993.11879451337,2011-01-27 00:34:41,5.015543056540917,6,28,0.0005225847125984,4.187511920928955,15.531785868604867,14.922474430466163,63.70652959070256,51.82767742738815,-9.70840483205393e-05,0.1174056306481361,0,0,0
4945,222004.39662170396,2011-01-27 00:34:52,11.281116673864092,7,28,-1.0993878841400146,3.9874210357666016,15.531785868604867,14.925920014613624,63.70652959070256,51.841472370916414,-0.0020397186744958,0.1174056306481361,0,0,0
4946,222034.41166996452,2011-01-27 00:35:22,41.29616505482896,7,28,-1.099568486213684,3.924123525619507,15.531785868604867,14.935087364270736,63.70652959070256,51.877729984448806,-0.0016188621520996,0.1174056306481361,0,0,0
4947,222064.42678950288,2011-01-27 00:35:52,71.31128447785248,7,28,-1.0993878841400146,3.86778736114502,15.531785868604867,14.944254745365086,63.70652959070256,51.91344101507741,-0.0014569759368896,0.1174056306481361,0,0,0
4948,222094.4418938684,2011-01-27 00:36:22,101.32638884836052,7,28,-1.099568486213684,3.818412303924561,15.531785868604867,14.953422096108348,63.70652959070256,51.94866334102832,-0.0011655807029455,0.1174056306481361,0,0,0
4949,222124.45702484017,2011-01-27 00:36:52,131.3415198101422,7,28,-1.099568486213684,3.7784264087677,15.531785868604867,14.962589449980497,63.70652959070256,51.98347684144595,-0.0009389400365762,0.1174056306481361,0,0,0
4950,222154.47213288987,2011-01-27 00:37:22,161.35662786483235,7,28,-1.099568486213684,3.7476682662963863,15.531785868604867,14.971756772810757,63.70652959070256,52.01796811965095,-0.0006799221155233,0.1174056306481361,0,0,0
4951,222184.4872777012,2011-01-27 00:37:52,191.3717726761313,7,28,-1.0993878841400146,3.7227377891540527,15.531785868604867,14.980924086120313,63.70652959070256,52.052204913562086,-0.0005827903514727,0.1174056306481361,0,0,0
4952,222214.4873004988,2011-01-27 00:38:22,221.37179548374408,7,28,-1.0993878841400146,3.701368808746338,15.531785868604867,14.990086852814892,63.70652959070256,52.0862137377557,-0.0005180359003134,0.1174056306481361,0,0,0
4953,222244.48779918745,2011-01-27 00:38:52,251.3722941673864,7,28,-1.0993878841400146,3.6825900077819824,15.531785868604867,14.999249665562765,63.70652959070256,52.12003971939025,-0.0004532813909463,0.1174056306481361,0,0,0
4954,222274.5014140155,2011-01-27 00:39:22,281.38590899549644,7,28,-1.099568486213684,3.665592193603516,15.531785868604867,15.008416581027388,63.70652959070256,52.15371734300217,-0.0004209041653666,0.1174056306481361,0,0,0
4955,222304.51658197952,2011-01-27 00:39:52,311.40107695949905,7,28,-1.0993878841400146,3.65005111694336,15.531785868604867,15.017583943483103,63.70652959070256,52.1872483416816,-0.0003885269106831,0.1174056306481361,0,0,0
4956,222334.53158515785,2011-01-27 00:40:22,341.4160801378049,7,28,-1.0993878841400146,3.635805130004883,15.531785868604867,15.026751137787084,63.70652959070256,52.22064154446928,-0.0002913951757363,0.1174056306481361,0,0,0
4957,222364.5467112976,2011-01-27 00:40:52,371.43120627255627,7,28,-1.0993878841400146,3.621882915496826,15.531785868604867,15.035918356348766,63.70652959070256,52.25390629257458,-0.0003885269106831,0.1174056306481361,0,0,0
4958,222394.5619320431,2011-01-27 00:41:22,401.44642702813167,7,28,-1.099568486213684,3.6090939044952393,15.531785868604867,15.045085649864538,63.70652959070256,52.28704993802699,-0.0003237724304199,0.1174056306481361,0,0,0
4959,222424.5771563025,2011-01-27 00:41:52,431.4616512824269,7,28,-1.0993878841400146,3.5966286659240723,15.531785868604867,15.054253052528802,63.70652959070256,52.32007777652741,-0.0002913951757363,0.1174056306481361,0,0,0
4960,222454.59208605776,2011-01-27 00:42:22,461.47658103272767,7,28,-1.0993878841400146,3.584973096847534,15.531785868604867,15.063420317311614,63.70652959070256,52.35299374800936,-0.0002590179501567,0.1174056306481361,0,0,0
4961,222484.60713674448,2011-01-27 00:42:52,491.4916317194392,7,28,-1.0997490882873535,3.573317289352417,15.531785868604867,15.072587632870611,63.70652959070256,52.3858040810615,-0.0003237724304199,0.1174056306481361,0,0,0
4962,222514.62224270395,2011-01-27 00:43:22,521.5067376738949,7,28,-1.0993878841400146,3.5624709129333496,15.531785868604867,15.081754954160106,63.70652959070256,52.41851185277878,-0.0002590179501567,0.1174056306481361,0,0,0
4963,222544.6376601347,2011-01-27 00:43:52,551.5221551447454,7,28,-1.0993878841400146,3.551948308944702,15.531785868604867,15.090922356350935,63.70652959070256,52.45112098933369,-0.0002590179501567,0.1174056306481361,0,0,0
4964,222574.65241736,2011-01-27 00:44:22,581.5369123349733,7,28,-1.099568486213684,3.5415875911712646,15.531785868604867,15.100089526034273,63.70652959070256,52.48363441954202,-0.0002590179501567,0.1174056306481361,0,0,0
4965,222604.667778716,2011-01-27 00:44:52,611.5522737210432,7,28,-1.099568486213684,3.531712532043457,15.531785868604867,15.109256955957807,63.70652959070256,52.516056547568745,-0.0002913951757363,0.1174056306481361,0,0,0
4966,222634.68272507773,2011-01-27 00:45:22,641.5672200626948,7,28,-1.0993878841400146,3.5223231315612797,15.531785868604867,15.118424306704274,63.70652959070256,52.54838986155718,-0.0002590179501567,0.1174056306481361,0,0,0
4967,222664.6978824553,2011-01-27 00:45:52,671.5823774302878,7,28,-1.099568486213684,3.5130956172943115,15.531785868604867,15.127591666197626,63.70652959070256,52.58063779501207,-0.0002590179501567,0.1174056306481361,0,0,0
4968,222694.71310458932,2011-01-27 00:46:22,701.5975995843487,7,28,-1.099568486213684,3.504030227661133,15.531785868604867,15.136759126564709,63.70652959070256,52.61280281465478,-0.0002590179501567,0.1174056306481361,0,0,0
4969,222724.7282351451,2011-01-27 00:46:52,731.6127301300935,7,28,-1.099568486213684,3.495774030685425,15.531785868604867,15.145926563630804,63.70652959070256,52.64488782405947,-0.0001942634553415,0.1174056306481361,0,0,0
4970,222754.74538538457,2011-01-27 00:47:22,761.6298803745487,7,28,-1.099568486213684,3.487517833709717,15.531785868604867,15.155094639462485,63.70652959070256,52.67689913156859,-0.0002266406954731,0.1174056306481361,0,0,0
4971,222784.758339521,2011-01-27 00:47:52,791.6428345009871,7,28,-1.0997490882873535,3.479261636734009,15.531785868604867,15.164261392719368,63.70652959070256,52.70883038402496,-0.0002266406954731,0.1174056306481361,0,0,0
4972,222814.7734680066,2011-01-27 00:48:22,821.6579629966224,7,28,-1.0993878841400146,3.4713292121887207,15.531785868604867,15.17342879201105,63.70652959070256,52.74069008469822,-0.0002266406954731,0.1174056306481361,0,0,0
4973,222844.78862455217,2011-01-27 00:48:52,851.673119647429,7,28,-1.099568486213684,3.4637205600738525,15.531785868604867,15.18259620699963,63.70652959070256,52.77247732737413,-0.0002266406954731,0.1174056306481361,0,0,0
4974,222874.803670071,2011-01-27 00:49:22,881.6881650559856,7,28,-1.099568486213684,3.4561119079589844,15.531785868604867,15.19176361818934,63.70652959070256,52.80419508001288,-0.0001942634553415,0.1174056306481361,0,0,0
4975,222904.81877557436,2011-01-27 00:49:52,911.7032705543046,7,28,-1.099568486213684,3.4483413696289062,15.531785868604867,15.200931016062988,63.70652959070256,52.83584355716058,-0.0002266406954731,0.1174056306481361,0,0,0
4976,222934.8339051727,2011-01-27 00:50:22,941.718400147676,7,28,-1.099568486213684,3.440894603729248,15.531785868604867,15.210098404873206,63.70652959070256,52.86742188029041,-0.0001618862152099,0.1174056306481361,0,0,0
4977,222964.84902270604,2011-01-27 00:50:52,971.7335176759772,7,28,-1.0993878841400146,3.43328595161438,15.531785868604867,15.219265771775488,63.70652959070256,52.89892955921236,-0.0001942634553415,0.1174056306481361,0,0,0
4978,222994.86412098136,2011-01-27 00:51:22,1001.7486159663316,7,28,-1.099568486213684,3.425353765487671,15.531785868604867,15.22843313451361,63.70652959070256,52.93036565885454,-0.0001618862152099,0.1174056306481361,0,0,0
4979,223024.87923257987,2011-01-27 00:51:52,1031.7637275548293,7,28,-1.099568486213684,3.4175832271575928,15.531785868604867,15.237600537769586,63.70652959070256,52.96173076922747,-0.0001618862152099,0.1174056306481361,0,0,0
4980,223054.8966206571,2011-01-27 00:52:22,1061.7811157322865,7,28,-1.099568486213684,3.4093270301818848,15.531785868604867,15.246768559854592,63.70652959070256,52.99302529017256,-0.0002266406954731,0.1174056306481361,0,0,0
4981,223084.90942773703,2011-01-27 00:52:52,1091.7939227370523,7,28,-1.099568486213684,3.400747060775757,15.531785868604867,15.255935307721202,63.70652959070256,53.02423859029983,-0.0002266406954731,0.1174056306481361,0,0,0
4982,223114.9247084621,2011-01-27 00:53:22,1121.8092034671026,7,28,-1.099568486213684,3.392005205154419,15.531785868604867,15.2651034435441,63.70652959070256,53.05537719288294,-0.0002913951757363,0.1174056306481361,0,0,0
4983,223144.93896007727,2011-01-27 00:53:52,1151.8234550572197,7,28,-1.0997490882873535,3.382615804672241,15.531785868604867,15.27422375827376,63.70652959070256,53.086271290409776,-0.0002590179501567,0.1174056306481361,0,0,0
4984,223174.9392441961,2011-01-27 00:54:22,1181.8237391761004,7,28,-1.099568486213684,3.3732264041900635,15.531785868604867,15.28343413696698,63.70652959070256,53.117383704849054,-0.0002266406954731,0.1174056306481361,0,0,0
4985,223204.95434648145,2011-01-27 00:54:52,1211.8388414513863,7,28,-1.0993878841400146,3.362703800201416,15.531785868604867,15.292601568635511,63.70652959070256,53.14825893501137,-0.0002913951757363,0.1174056306481361,0,0,0
4986,223234.9694726914,2011-01-27 00:55:22,1241.85396767135,7,28,-1.0997490882873535,3.3515336513519287,15.531785868604867,15.301768923090991,63.70652959070256,53.17903484151878,-0.0003237724304199,0.1174056306481361,0,0,0
4987,223264.9845521949,2011-01-27 00:55:53,1271.8690471698696,7,28,-1.099568486213684,3.3402018547058105,15.531785868604867,15.310936282069612,63.70652959070256,53.20970766032214,-0.0002590179501567,0.1174056306481361,0,0,0
4988,223294.9997913363,2011-01-27 00:56:23,1301.8842863263055,7,28,-1.0997490882873535,3.327898502349853,15.531785868604867,15.320103757704796,63.70652959070256,53.240274060608925,-0.0003561496851034,0.1174056306481361,0,0,0
4989,223325.01485274476,2011-01-27 00:56:53,1331.8993477247138,7,28,-1.099568486213684,3.3147857189178467,15.531785868604867,15.329271257923809,63.70652959070256,53.27072368472189,-0.0003561496851034,0.1174056306481361,0,0,0
4990,223355.0299430352,2011-01-27 00:57:23,1361.9144380301675,7,28,-1.099568486213684,3.30053973197937,15.531785868604867,15.338438563433428,63.70652959070256,53.3010478707613,-0.0003885269106831,0.1174056306481361,0,0,0
4991,223385.0451307484,2011-01-27 00:57:53,1391.9296257333665,7,28,-1.0993878841400146,3.284836769104004,15.531785868604867,15.347605948323856,63.70652959070256,53.33123394610087,-0.0004209041653666,0.1174056306481361,0,0,0
4992,223415.06012959583,2011-01-27 00:58:23,1421.944624575866,7,28,-1.0993878841400146,3.2670295238494877,15.531785868604867,15.356773339980585,63.70652959070256,53.36126553903392,-0.0004856586456298,0.1174056306481361,0,0,0
4993,223445.075232588,2011-01-27 00:58:53,1451.959727562926,7,28,-1.0997490882873535,3.247117519378662,15.531785868604867,15.365940777731714,63.70652959070256,53.39112663078957,-0.0005827903514727,0.1174056306481361,0,0,0
4994,223475.090355625,2011-01-27 00:59:23,1481.9748505999569,7,28,-1.099568486213684,3.224453449249268,15.531785868604867,15.37510820102351,63.70652959070256,53.42079303884296,-0.0006475448608398,0.1174056306481361,0,0,0
4995,223505.10546098297,2011-01-27 00:59:53,1511.989955957926,7,28,-1.0997490882873535,3.197742223739624,15.531785868604867,15.384275562641433,63.70652959070256,53.45023370851766,-0.0008094310760498,0.1174056306481361,0,0,0
4996,223535.12073033967,2011-01-27 01:00:23,1542.00522533468,7,28,-1.0993878841400146,3.166012763977051,15.531785868604867,15.393442994048849,63.70652959070256,53.47940905348515,-0.0009389400365762,0.1174056306481361,0,0,0
4997,223565.13568734287,2011-01-27 01:00:53,1572.0201823178536,7,28,-1.0993878841400146,3.12699818611145,15.531785868604867,15.40261039123878,63.70652959070256,53.508261388983016,-0.0011332035064697,0.1174056306481361,0,0,0
4998,223595.1508120892,2011-01-27 01:01:23,1602.0353070691567,7,28,-1.099568486213684,3.0768136978149414,15.531785868604867,15.411777859650329,63.70652959070256,53.53670931594258,-0.0014893531333655,0.1174056306481361,0,0,0
4999,223625.1659395873,2011-01-27 01:01:53,1632.0504345823438,7,28,-1.0993878841400146,3.008821725845337,15.531785868604867,15.420945298016669,63.70652959070256,53.56462185602101,-0.0021045207977294,0.1174056306481361,0,0,0
5000,223655.18102501563,2011-01-27 01:02:23,1662.0655200056294,7,28,-1.0993878841400146,2.912661552429199,15.531785868604867,15.430112701783226,63.70652959070256,53.591791923558986,-0.0030110836960375,0.1174056306481361,0,0,0
5001,223685.1962259468,2011-01-27 01:02:53,1692.0807209468214,7,28,-1.099568486213684,2.772954225540161,15.531785868604867,15.43928011794425,63.70652959070256,53.61789056641715,-0.0043061254546046,0.1174056306481361,0,0,0
5002,223697.8678668449,2011-01-27 01:03:05,1704.7523618248558,7,28,-1.099568486213684,2.699943780899048,15.531785868604867,15.443150393897634,63.70652959070256,53.6284837026919,-0.0047917841002345,0.1174056306481361,0,0,0
5003,223757.8767434715,2011-01-27 01:04:06,60.01453306240168,8,28,0.0,3.667696714401245,15.531785868604867,15.443150393897634,63.70652959070256,53.6284837026919,0.0011655807029455,0.1174056306481361,0,0,0
5004,223758.05991003243,2011-01-27 01:04:06,0.187737304127209,9,28,-1.9243103452026844e-05,3.667858600616455,15.531785868604867,15.443150394901147,63.70652959070256,53.62848370637265,0.0,0.1149765476584434,0,0,0
5005,223762.88806807285,2011-01-27 01:04:11,5.015895259338659,9,28,0.0007031940040178,3.674819469451904,15.531786721789617,15.443150394984007,63.70653272348944,53.628483706676576,0.0009712696191854,0.1149765476584434,0,0,0
