Data_Point,Test_Time(s),Date_Time,Step_Time(s),Step_Index,Cycle_Index,Current(A),Voltage(V),Charge_Capacity(Ah),Discharge_Capacity(Ah),Charge_Energy(Wh),Discharge_Energy(Wh),dV/dt(V/s),Internal_Resistance(Ohm),Is_FC_Data,AC_Impedance(Ohm),ACI_Phase_Angle(Deg)
2039,90516.6250560946,2011-01-25 12:03:04,30.015116661140077,1,12,0.0,3.685989618301392,6.335812444314104,6.282153658082288,25.96479864946046,21.87053816954712,0.0006475448608398,0.1109280735254287,0,0,0
2040,90546.64042270368,2011-01-25 12:03:34,60.03048327523983,1,12,0.0,3.7037971019744873,6.335812444314104,6.282153658082288,25.96479864946046,21.87053816954712,0.0003885269106831,0.1109280735254287,0,0,0
2041,90576.6552945196,2011-01-25 12:04:04,90.04535507611277,1,12,0.0,3.7162623405456543,6.335812444314104,6.282153658082288,25.96479864946046,21.87053816954712,0.0002913951757363,0.1109280735254287,0,0,0
2042,90606.6235123093,2011-01-25 12:04:34,120.01357286082236,1,12,0.0,3.725489854812622,6.335812444314104,6.282153658082288,25.96479864946046,21.87053816954712,0.0002266406954731,0.1109280735254287,0,0,0
2043,90636.6405548552,2011-01-25 12:05:04,30.015140791279805,2,12,0.5501165986061096,3.843018770217896,6.340399649786352,6.282153658082288,25.982348152031687,21.87053816954712,0.0006799221155233,0.1109280735254287,0,0,0
2044,90666.65575818231,2011-01-25 12:05:34,60.03034415851815,2,12,0.5499359965324402,3.862768888473511,6.344986367526484,6.282153658082288,26.00002381520365,21.87053816954712,0.0003561496851034,0.1109280735254287,0,0,0
2045,90696.6708207687,2011-01-25 12:06:04,90.04540672483729,2,12,0.5501165986061096,3.876852989196777,6.349572730148395,6.282153658082288,26.017773404054203,21.87053816954712,0.0003561496851034,0.1109280735254287,0,0,0
2046,90726.6858598164,2011-01-25 12:06:34,120.06044574246584,2,12,0.5499359965324402,3.8881850242614746,6.354159157915056,6.282153658082288,26.03558102220549,21.87053816954712,0.0002913951757363,0.1109280735254287,0,0,0
2047,90756.70105087296,2011-01-25 12:07:04,150.07563688423454,2,12,0.5501165986061096,3.897898197174072,6.358745634116309,6.282153658082288,26.053437420588665,21.87053816954712,0.0002266406954731,0.1109280735254287,0,0,0
2048,90786.71609433668,2011-01-25 12:07:34,180.09068038804403,2,12,0.5501165986061096,3.90696382522583,6.363332023076775,6.282153658082288,26.07133589897808,21.87053816954712,0.0002266406954731,0.1109280735254287,0,0,0
2049,90816.7312160103,2011-01-25 12:08:04,210.105801951402,2,12,0.550297200679779,3.915057897567749,6.367918433766706,6.282153658082288,26.08927359711684,21.87053816954712,0.0001942634553415,0.1109280735254287,0,0,0
2050,90846.74861092956,2011-01-25 12:08:34,240.12319687066227,2,12,0.550297200679779,3.922828435897827,6.372505175047259,6.282153658082288,26.107248819916823,21.87053816954712,0.0001942634553415,0.1109280735254287,0,0,0
2051,90876.76157101584,2011-01-25 12:09:04,270.1361569619668,2,12,0.5499359965324402,3.9299514293670654,6.377091238556341,6.282153658082288,26.125255454666785,21.87053816954712,0.0001942634553415,0.1109280735254287,0,0,0
2052,90906.77655442488,2011-01-25 12:09:34,300.151140456214,2,12,0.5501165986061096,3.9369125366210938,6.381677695282914,6.282153658082288,26.143295738743166,21.87053816954712,0.0001942634553415,0.1109280735254287,0,0,0
2053,90936.7917665339,2011-01-25 12:10:04,330.1663524800271,2,12,0.5501165986061096,3.943226099014282,6.386264156141956,6.282153658082288,26.16136651288451,21.87053816954712,0.0001618862152099,0.1109280735254287,0,0,0
2054,90966.80677992768,2011-01-25 12:10:34,360.18136585875567,2,12,0.550297200679779,3.9493777751922607,6.390850515561268,6.282153658082288,26.179465772100023,21.87053816954712,0.0001618862152099,0.1109280735254287,0,0,0
2055,90996.8218790852,2011-01-25 12:11:04,390.19646504133374,2,12,0.5501165986061096,3.9552056789398193,6.395436878910943,6.282153658082288,26.197592372019702,21.87053816954712,0.0001618862152099,0.1109280735254287,0,0,0
2056,91026.83697469888,2011-01-25 12:11:35,420.2115606299547,2,12,0.5499359965324402,3.960709810256958,6.400023317842734,6.282153658082288,26.21574539141944,21.87053816954712,0.0001295089750783,0.1109280735254287,0,0,0
2057,91056.85209220213,2011-01-25 12:12:05,450.2266781532434,2,12,0.5499359965324402,3.966052055358887,6.404609708208128,6.282153658082288,26.233923127741388,21.87053816954712,0.0001295089750783,0.1109280735254287,0,0,0
2058,91086.8671986077,2011-01-25 12:12:35,480.241784543786,2,12,0.5501165986061096,3.971070528030396,6.409196113227864,6.282153658082288,26.25212462387361,21.87053816954712,0.0001295089750783,0.1109280735254287,0,0,0
2059,91116.88232661712,2011-01-25 12:13:05,510.256912548197,2,12,0.5499359965324402,3.9759271144866943,6.413782542844446,6.282153658082288,26.270348825160504,21.87053816954712,0.0001295089750783,0.1109280735254287,0,0,0
2060,91146.89741959923,2011-01-25 12:13:35,540.2720055553842,2,12,0.5501165986061096,3.980621814727783,6.418368897287883,6.282153658082288,26.288594300162963,21.87053816954712,0.0001295089750783,0.1109280735254287,0,0,0
2061,91176.91256256597,2011-01-25 12:14:05,570.2871485170733,2,12,0.550297200679779,3.985154628753662,6.422955259576574,6.282153658082288,26.30686107901029,21.87053816954712,0.0001618862152099,0.1109280735254287,0,0,0
2062,91206.92764626494,2011-01-25 12:14:35,600.3022322210741,2,12,0.5501165986061096,3.989363670349121,6.427541565723581,6.282153658082288,26.325147908794364,21.87053816954712,0.0001295089750783,0.1109280735254287,0,0,0
2063,91236.94278408884,2011-01-25 12:15:05,630.3173701401956,2,12,0.5501165986061096,3.99373459815979,6.432127939809291,6.282153658082288,26.343454562724585,21.87053816954712,0.0001618862152099,0.1109280735254287,0,0,0
2064,91266.95787268,2011-01-25 12:15:35,660.3324586261143,2,12,0.550297200679779,3.99794340133667,6.436714283067213,6.282153658082288,26.361780264867992,21.87053816954712,0.0001295089750783,0.1109280735254287,0,0,0
2065,91296.97311115976,2011-01-25 12:16:05,690.3476970958388,2,12,0.5501165986061096,4.001828670501709,6.44130060789482,6.282153658082288,26.38012438923488,21.87053816954712,0.0001295089750783,0.1109280735254287,0,0,0
2066,91326.98811611749,2011-01-25 12:16:35,720.3627020585923,2,12,0.5499359965324402,4.005552291870117,6.445886890152558,6.282153658082288,26.398486545508145,21.87053816954712,6.47544875391759e-05,0.1109280735254287,0,0,0
2067,91357.0032279466,2011-01-25 12:17:05,750.3778139027268,2,12,0.550297200679779,4.009761333465576,6.450473236028157,6.282153658082288,26.41686688541319,21.87053816954712,0.0001619339018361,0.1109280735254287,0,0,0
2068,91387.01833668798,2011-01-25 12:17:35,780.392922629091,2,12,0.5501165986061096,4.013160705566406,6.455059572805019,6.282153658082288,26.43526463822808,21.87053816954712,6.47544875391759e-05,0.1109280735254287,0,0,0
2069,91417.03355941348,2011-01-25 12:18:05,810.408145354576,2,12,0.550297200679779,4.017045974731445,6.4596459505946,6.282153658082288,26.45367967062852,21.87053816954712,9.70840483205393e-05,0.1109280735254287,0,0,0
2070,91447.0487549562,2011-01-25 12:18:35,840.4233409223758,2,12,0.5501165986061096,4.0206074714660645,6.464232340149349,6.282153658082288,26.472111525623617,21.87053816954712,9.70840483205393e-05,0.1109280735254287,0,0,0
2071,91477.06380025447,2011-01-25 12:19:05,870.4383862106326,2,12,0.5501165986061096,4.024168968200684,6.468818631848811,6.282153658082288,26.490559658258363,21.87053816954712,9.70840483205393e-05,0.1109280735254287,0,0,0
2072,91507.07875792938,2011-01-25 12:19:35,900.4533438604677,2,12,0.5501165986061096,4.027892589569092,6.473404923498721,6.282153658082288,26.509024124823984,21.87053816954712,0.0001295089750783,0.1109280735254287,0,0,0
2073,91537.09389982844,2011-01-25 12:20:05,930.4684857845708,2,12,0.550297200679779,4.031454086303711,6.477991255568172,6.282153658082288,26.527504715263955,21.87053816954712,0.0001619339018361,0.1109280735254287,0,0,0
2074,91567.10899629928,2011-01-25 12:20:35,960.4835822553904,2,12,0.5501165986061096,4.034691333770752,6.482577600012693,6.282153658082288,26.546001205323435,21.87053816954712,6.47544875391759e-05,0.1109280735254287,0,0,0
2075,91597.12412159191,2011-01-25 12:21:05,990.4987075630802,2,12,0.5501165986061096,4.03809118270874,6.487163912613513,6.282153658082288,26.56451326644172,21.87053816954712,9.71794142969884e-05,0.1109280735254287,0,0,0
2076,91627.1394076352,2011-01-25 12:21:35,1020.5139935913354,2,12,0.5501165986061096,4.04132890701294,6.491750241635004,6.282153658082288,26.583040860429502,21.87053816954712,6.47544875391759e-05,0.1109280735254287,0,0,0
2077,91657.15431267393,2011-01-25 12:22:05,1050.5288986099972,2,12,0.5499359965324402,4.0447282791137695,6.496336540382178,6.282153658082288,26.601583742404973,21.87053816954712,0.0001295089750783,0.1109280735254287,0,0,0
2078,91687.16943191648,2011-01-25 12:22:35,1080.5440178525712,2,12,0.5501165986061096,4.047966003417969,6.500922902967135,6.282153658082288,26.62014212543659,21.87053816954712,6.47544875391759e-05,0.1109280735254287,0,0,0
2079,91717.18456133944,2011-01-25 12:23:05,1110.55914728053,2,12,0.5501165986061096,4.051365852355957,6.505509274073083,6.282153658082288,26.638715605974603,21.87053816954712,9.71794142969884e-05,0.1109280735254287,0,0,0
2080,91747.19964140435,2011-01-25 12:23:35,1140.574227335436,2,12,0.5501165986061096,4.054603576660156,6.510095588821653,6.282153658082288,26.657303841120378,21.87053816954712,6.47544875391759e-05,0.1109280735254287,0,0,0
2081,91777.21476206044,2011-01-25 12:24:05,1170.5893479865204,2,12,0.5501165986061096,4.057841300964356,6.514681963855822,6.282153658082288,26.675907127490813,21.87053816954712,9.71794142969884e-05,0.1109280735254287,0,0,0
2082,91807.22989205984,2011-01-25 12:24:35,1200.6044781062033,2,12,0.5499359965324402,4.060755252838135,6.519268373765663,6.282153658082288,26.69452524962709,21.87053816954712,3.24249267578125e-05,0.1109280735254287,0,0,0
2083,91837.2450168312,2011-01-25 12:25:05,1230.6196027773065,2,12,0.550297200679779,4.064316749572754,6.523854631976811,6.282153658082288,26.713157172205797,21.87053816954712,9.71794142969884e-05,0.1109280735254287,0,0,0
2084,91867.2600907909,2011-01-25 12:25:35,1260.634676721984,2,12,0.5501165986061096,4.067392349243164,6.528440885689728,6.282153658082288,26.731803685791075,21.87053816954712,0.0001295089750783,0.1109280735254287,0,0,0
2085,91897.27529671454,2011-01-25 12:26:05,1290.649882670656,2,12,0.5501165986061096,4.070630073547363,6.533027185857745,6.282153658082288,26.75046483160678,21.87053816954712,0.0001295089750783,0.1109280735254287,0,0,0
2086,91927.29031353182,2011-01-25 12:26:35,1320.6648994879545,2,12,0.5499359965324402,4.073544025421143,6.5376134436026,6.282153658082288,26.769140160918045,21.87053816954712,9.70840483205393e-05,0.1109280735254287,0,0,0
2087,91957.305435827,2011-01-25 12:27:05,1350.6800217831365,2,12,0.5501165986061096,4.076943874359131,6.542199722202061,6.282153658082288,26.78783016457299,21.87053816954712,9.71794142969884e-05,0.1109280735254287,0,0,0
2088,91987.3205307289,2011-01-25 12:27:35,1380.6951166850458,2,12,0.5499359965324402,4.080019474029541,6.546785951550938,6.282153658082288,26.806534711492333,21.87053816954712,9.70840483205393e-05,0.1109280735254287,0,0,0
2089,92017.33578641152,2011-01-25 12:28:05,1410.7103723676703,2,12,0.5501165986061096,4.083095550537109,6.551372272492581,6.282153658082288,26.82525409513329,21.87053816954712,9.71794142969884e-05,0.1109280735254287,0,0,0
2090,92047.35075918908,2011-01-25 12:28:35,1440.7253451502204,2,12,0.5499359965324402,4.08617115020752,6.55595853127249,6.282153658082288,26.84398785458132,21.87053816954712,3.23295607813634e-05,0.1109280735254287,0,0,0
2091,92077.36585864233,2011-01-25 12:29:05,1470.7404445934485,2,12,0.5501165986061096,4.089408874511719,6.560544781785037,6.282153658082288,26.862736073360782,21.87053816954712,6.47544875391759e-05,0.1109280735254287,0,0,0
2092,92107.38095627604,2011-01-25 12:29:35,1500.7555422321786,2,12,0.5499359965324402,4.092646598815918,6.565131070314032,6.282153658082288,26.88149909549104,21.87053816954712,6.47544875391759e-05,0.1109280735254287,0,0,0
2093,92137.39646189158,2011-01-25 12:30:05,1530.771047847713,2,12,0.5501165986061096,4.095884323120117,6.569717387723925,6.282153658082288,26.90027701572964,21.87053816954712,6.47544875391759e-05,0.1109280735254287,0,0,0
2094,92167.41128618404,2011-01-25 12:30:35,1560.7858721251428,2,12,0.5499359965324402,4.099122047424316,6.574303662950472,6.282153658082288,26.919069546748545,21.87053816954712,6.47544875391759e-05,0.1109280735254287,0,0,0
2095,92197.42630387352,2011-01-25 12:31:05,1590.8008898146147,2,12,0.5501165986061096,4.102359771728516,6.578890009395392,6.282153658082288,26.93787708363829,21.87053816954712,6.47544875391759e-05,0.1109280735254287,0,0,0
2096,92227.44141620888,2011-01-25 12:31:35,1620.8160021650117,2,12,0.5501165986061096,4.105597496032715,6.583476333946332,6.282153658082288,26.956699290480216,21.87053816954712,6.47544875391759e-05,0.1109280735254287,0,0,0
2097,92257.45659110014,2011-01-25 12:32:05,1650.8311770562789,2,12,0.5497553944587708,4.108673572540283,6.588062212582873,6.282153658082288,26.975534442427765,21.87053816954712,3.24249267578125e-05,0.1109280735254287,0,0,0
2098,92287.47170348564,2011-01-25 12:32:35,1680.8462894417626,2,12,0.5499359965324402,4.112072944641113,6.592647674169146,6.282153658082288,26.99438283111851,21.87053816954712,9.70840483205393e-05,0.1109280735254287,0,0,0
2099,92317.48691333905,2011-01-25 12:33:05,1710.8614992751166,2,12,0.5501165986061096,4.1153106689453125,6.597233343534093,6.282153658082288,27.01324709003077,21.87053816954712,6.47544875391759e-05,0.1109280735254287,0,0,0
2100,92347.50182790146,2011-01-25 12:33:35,1740.8764138576144,2,12,0.5499359965324402,4.118710041046143,6.601818812323669,6.282153658082288,27.032125617710797,21.87053816954712,6.47544875391759e-05,0.1109280735254287,0,0,0
2101,92377.51694882826,2011-01-25 12:34:05,1770.8915347843856,2,12,0.5499359965324402,4.122109889984131,6.606404316796935,6.282153658082288,27.051019419995185,21.87053816954712,9.71794142969884e-05,0.1109280735254287,0,0,0
2102,92407.532054903,2011-01-25 12:34:35,1800.9066408741787,2,12,0.5499359965324402,4.12534761428833,6.610989790252093,6.282153658082288,27.069928236795047,21.87053816954712,6.47544875391759e-05,0.1109280735254287,0,0,0
2103,92437.54718762918,2011-01-25 12:35:05,1830.9217735853204,2,12,0.5501165986061096,4.128585338592529,6.615575611634218,6.282153658082288,27.08885393253512,21.87053816954712,9.71794142969884e-05,0.1109280735254287,0,0,0
2104,92467.5644526898,2011-01-25 12:35:35,1860.9390387361573,2,12,0.5501165986061096,4.132146835327148,6.620162339157004,6.282153658082288,27.10779893821209,21.87053816954712,9.71794142969884e-05,0.1109280735254287,0,0,0
2105,92497.57745987848,2011-01-25 12:36:05,1890.952045839631,2,12,0.5499359965324402,4.135384559631348,6.624748446582516,6.282153658082288,27.126756861396128,21.87053816954712,6.47544875391759e-05,0.1109280735254287,0,0,0
2106,92527.59249341243,2011-01-25 12:36:35,1920.967079358555,2,12,0.5501165986061096,4.138946056365967,6.629334879489219,6.282153658082288,27.145731763604964,21.87053816954712,9.71794142969884e-05,0.1109280735254287,0,0,0
2107,92557.60770217814,2011-01-25 12:37:05,1950.982288204448,2,12,0.5501165986061096,4.142345428466797,6.6339212624183,6.282153658082288,27.164722387061296,21.87053816954712,9.70840483205393e-05,0.1109280735254287,0,0,0
2108,92587.62270750178,2011-01-25 12:37:35,1980.9972934428883,2,12,0.5501165986061096,4.146069049835205,6.638507667030609,6.282153658082288,27.18372916003828,21.87053816954712,9.71794142969884e-05,0.1109280735254287,0,0,0
2109,92617.63782499,2011-01-25 12:38:05,2011.0124109461271,2,12,0.5501165986061096,4.149630546569824,6.643094095388621,6.282153658082288,27.202752249541383,21.87053816954712,0.0001619339018361,0.1109280735254287,0,0,0
2110,92647.65295374628,2011-01-25 12:38:35,2041.027539702412,2,12,0.5501165986061096,4.152868270874023,6.64768052399269,6.282153658082288,27.221791590430204,21.87053816954712,3.24249267578125e-05,0.1109280735254287,0,0,0
2111,92677.66805463812,2011-01-25 12:39:05,2071.0426405942503,2,12,0.5499359965324402,4.156429767608643,6.652266925695145,6.282153658082288,27.240847036866317,21.87053816954712,9.71794142969884e-05,0.1109280735254287,0,0,0
2112,92707.68320580023,2011-01-25 12:39:35,2101.05779176139,2,12,0.5501165986061096,4.160152912139893,6.656853368387029,6.282153658082288,27.25991900480492,21.87053816954712,9.70840483205393e-05,0.1109280735254287,0,0,0
2113,92737.69839662622,2011-01-25 12:40:05,2131.0729825973967,2,12,0.550297200679779,4.163876533508301,6.661439745644748,6.282153658082288,27.279007229324623,21.87053816954712,9.71794142969884e-05,0.1109280735254287,0,0,0
2114,92767.71563218832,2011-01-25 12:40:35,2161.0902182296645,2,12,0.550297200679779,4.16743803024292,6.666026467074694,6.282153658082288,27.298113369214875,21.87053816954712,0.0001295089750783,0.1109280735254287,0,0,0
2115,92797.72857042012,2011-01-25 12:41:05,2191.1031565667517,2,12,0.5499359965324402,4.170999526977539,6.670612527100145,6.282153658082288,27.31723347902643,21.87053816954712,9.71794142969884e-05,0.1109280735254287,0,0,0
2116,92827.7435983752,2011-01-25 12:41:35,2221.1181843313334,2,12,0.5501165986061096,4.174561023712158,6.675198872828447,6.282153658082288,27.33637141929897,21.87053816954712,9.71794142969884e-05,0.1109280735254287,0,0,0
2117,92857.75873454996,2011-01-25 12:42:05,2251.133320506108,2,12,0.550297200679779,4.178446292877197,6.679785299533701,6.282153658082288,27.35552634662277,21.87053816954712,0.0001619339018361,0.1109280735254287,0,0,0
2118,92887.7738539379,2011-01-25 12:42:35,2281.148439894044,2,12,0.5501165986061096,4.182007789611816,6.684371698863561,6.282153658082288,27.374697917358148,21.87053816954712,0.0001295089750783,0.1109280735254287,0,0,0
2119,92917.78900985188,2011-01-25 12:43:05,2311.163595787964,2,12,0.5501165986061096,4.185730934143066,6.688958131775198,6.282153658082288,27.393886534337057,21.87053816954712,0.0001295089750783,0.1109280735254287,0,0,0
2120,92947.8040440525,2011-01-25 12:43:36,2341.1786299935998,2,12,0.5501165986061096,4.1892924308776855,6.693544453324182,6.282153658082288,27.41309183159524,21.87053816954712,9.70840483205393e-05,0.1109280735254287,0,0,0
2121,92977.81915786654,2011-01-25 12:44:06,2371.1937438226814,2,12,0.550297200679779,4.193339824676514,6.698130882306769,6.282153658082288,27.432314821808237,21.87053816954712,0.0001295089750783,0.1109280735254287,0,0,0
2122,93007.83439284256,2011-01-25 12:44:36,2401.208978788673,2,12,0.550297200679779,4.197062969207764,6.702717317002944,6.282153658082288,27.451555189453373,21.87053816954712,9.71794142969884e-05,0.1109280735254287,0,0,0
2123,93030.4276963968,2011-01-25 12:44:58,2423.802282533391,2,12,0.550297200679779,4.200138568878174,6.706169656399158,6.282153658082288,27.46604960026653,21.87053816954712,0.0001618385285837,0.1109280735254287,0,0,0
2124,93060.4494217479,2011-01-25 12:45:28,30.017425721027795,3,12,0.0,4.089408874511719,6.706169656399158,6.282153658082288,27.46604960026653,21.87053816954712,-0.0004857063177041,0.1109280735254287,0,0,0
2125,93090.46223103337,2011-01-25 12:45:58,60.03023491625281,3,12,0.0,4.075486660003662,6.706169656399158,6.282153658082288,27.46604960026653,21.87053816954712,-0.0003237724304199,0.1109280735254287,0,0,0
2126,93120.47732337887,2011-01-25 12:46:28,90.04532726179093,3,12,0.0,4.066421031951904,6.706169656399158,6.282153658082288,27.46604960026653,21.87053816954712,-0.0002266883820993,0.1109280735254287,0,0,0
2127,93150.44773044996,2011-01-25 12:46:58,120.01573440806315,3,12,0.0,4.060593128204346,6.706169656399158,6.282153658082288,27.46604960026653,21.87053816954712,-9.71794142969884e-05,0.1109280735254287,0,0,0
2128,93150.45195082086,2011-01-25 12:46:58,2.571408742e-06,4,12,1.0357749462127686,4.200138568878174,6.706169657138991,6.282153658082288,27.46604960337393,21.87053816954712,0.0,0.1109280735254287,0,0,0
2129,93150.71552139484,2011-01-25 12:46:59,0.263573180465159,4,12,0.9837594628334044,4.199814796447754,6.706242599664224,6.282153658082288,27.46635595185111,21.87053816954712,-6.47544875391759e-05,0.1109280735254287,0,0,0
2130,93152.23090703713,2011-01-25 12:47:00,1.778958837795737,4,12,0.933369517326355,4.199814796447754,6.706644764399208,6.282153658082288,27.46804498135669,21.87053816954712,-6.47544875391759e-05,0.1109280735254287,0,0,0
2131,93154.84025200766,2011-01-25 12:47:03,4.38830378327524,4,12,0.8831601142883301,4.199653148651123,6.707301943812676,6.282153658082288,27.470805026633567,21.87053816954712,-6.47544875391759e-05,0.1109280735254287,0,0,0
2132,93158.6214147637,2011-01-25 12:47:07,8.16946655433542,4,12,0.8324089050292969,4.199814796447754,6.708201780537918,6.282153658082288,27.474584219061025,21.87053816954712,0.0,0.1109280735254287,0,0,0
2133,93163.74639383344,2011-01-25 12:47:12,13.294445624093896,4,12,0.7820188999176025,4.199814796447754,6.709349592371313,6.282153658082288,27.47940490475696,21.87053816954712,0.0,0.1109280735254287,0,0,0
2134,93170.46499750104,2011-01-25 12:47:18,20.013049366883617,4,12,0.731628954410553,4.199653148651123,6.710760373602484,6.282153658082288,27.485330033621068,21.87053816954712,-6.47544875391759e-05,0.1109280735254287,0,0,0
2135,93179.3554552974,2011-01-25 12:47:27,28.90350716323761,4,12,0.6816001534461975,4.199814796447754,6.712502719879616,6.282153658082288,27.49264761292729,21.87053816954712,-3.24249267578125e-05,0.1109280735254287,0,0,0
2136,93191.71461335207,2011-01-25 12:47:40,41.26266513271538,4,12,0.6315714120864868,4.199814796447754,6.714752191634514,6.282153658082288,27.502095032921925,21.87053816954712,0.0,0.1109280735254287,0,0,0
2137,93210.15192444938,2011-01-25 12:47:58,59.69997625505105,4,12,0.5815426111221313,4.199814796447754,6.71784953845015,6.282153658082288,27.51510336433018,21.87053816954712,-3.24249267578125e-05,0.1109280735254287,0,0,0
2138,93241.72938356362,2011-01-25 12:48:30,91.27743532920508,4,12,0.5315138697624207,4.199653148651123,6.72271026770813,6.282153658082288,27.535517597016224,21.87053816954712,-3.23295607813634e-05,0.1109280735254287,0,0,0
2139,93304.05667375842,2011-01-25 12:49:32,153.60472553903574,4,12,0.4814850986003876,4.199653148651123,6.731433265127437,6.282153658082288,27.57215278228738,21.87053816954712,-6.47544875391759e-05,0.1109280735254287,0,0,0
2140,93413.3984391464,2011-01-25 12:51:21,262.94649094705267,4,12,0.4314563274383545,4.199814796447754,6.745254094121122,6.282153658082288,27.63019870955716,21.87053816954712,-3.24249267578125e-05,0.1109280735254287,0,0,0
2141,93558.58334487372,2011-01-25 12:53:47,408.1313966493415,4,12,0.3814275562763214,4.199814796447754,6.761621029674154,6.282153658082288,27.69893803653769,21.87053816954712,0.0,0.1109280735254287,0,0,0
2142,93735.81476989262,2011-01-25 12:56:44,585.3628216832722,4,12,0.3313987851142883,4.199814796447754,6.779144622331228,6.282153658082288,27.77253526761596,21.87053816954712,-3.24249267578125e-05,0.1109280735254287,0,0,0
2143,93949.63911959415,2011-01-25 13:00:18,799.1871713497486,4,12,0.2813700139522552,4.199814796447754,6.797319592825589,6.282153658082288,27.84886811906369,21.87053816954712,-3.24249267578125e-05,0.1109280735254287,0,0,0
2144,94215.16592517926,2011-01-25 13:04:43,1064.7139769699097,4,12,0.2313412427902221,4.199653148651123,6.816192896654894,6.282153658082288,27.928133787915726,21.87053816954712,-3.23295607813634e-05,0.1109280735254287,0,0,0
2145,94553.41023386669,2011-01-25 13:10:21,1402.958285652318,4,12,0.1811318546533584,4.199814796447754,6.835499502861134,6.282153658082288,28.00921925941673,21.87053816954712,0.0,0.1109280735254287,0,0,0
2146,95009.9022012284,2011-01-25 13:17:58,1859.4502529990127,4,12,0.1311030983924865,4.199814796447754,6.855178355652482,6.282153658082288,28.091868145740417,21.87053816954712,0.0,0.1109280735254287,0,0,0
2147,95734.60866937364,2011-01-25 13:30:03,2584.1567211442366,4,12,0.0807131007313728,4.199814796447754,6.876172513710934,6.282153658082288,28.180041076990182,21.87053816954712,-3.24249267578125e-05,0.1109280735254287,0,0,0
2148,96548.82901299428,2011-01-25 13:43:37,3398.377064769888,4,12,0.0498289167881011,4.199814796447754,6.890694410706812,6.282153658082288,28.241031186168467,21.87053816954712,0.0,0.1109280735254287,0,0,0
2149,96578.84633765116,2011-01-25 13:44:07,30.015232565008173,5,12,0.0,4.1892924308776855,6.890694410706812,6.282153658082288,28.241031186168467,21.87053816954712,-6.47544875391759e-05,0.1109280735254287,0,0,0
2150,96608.8457056568,2011-01-25 13:44:37,60.01460055060304,5,12,0.0,4.187511920928955,6.890694410706812,6.282153658082288,28.241031186168467,21.87053816954712,-6.47544875391759e-05,0.1109280735254287,0,0,0
2151,96609.03646509469,2011-01-25 13:44:37,0.187623009269256,6,12,-1.9243103452026844e-05,4.187511920928955,6.890694410706812,6.282153659085191,28.241031186168467,21.870538173746784,0.0,0.117299661040306,0,0,0
2152,96613.8643920291,2011-01-25 13:44:42,5.015549933680866,6,12,0.0010644125286489,4.187511920928955,6.890695329907382,6.282153659251518,28.24103503550872,21.870538174443283,-6.47544875391759e-05,0.117299661040306,0,0,0
2153,96624.91442646208,2011-01-25 13:44:53,11.046827432986827,7,12,-1.099568486213684,3.9874210357666016,6.890695329907382,6.285527667687446,28.24103503550872,21.884046140960173,-0.0020720958709716,0.117299661040306,0,0,0
2154,96654.93160360356,2011-01-25 13:45:23,41.06400457949042,7,12,-1.099568486213684,3.924285411834717,6.890695329907382,6.294695595434905,28.24103503550872,21.92030508272373,-0.0015864849556237,0.117299661040306,0,0,0
2155,96684.94463784467,2011-01-25 13:45:53,71.07703882561152,7,12,-1.099568486213684,3.869729995727539,6.890695329907382,6.303862206782074,28.24103503550872,21.956021769324945,-0.0013274669181555,0.117299661040306,0,0,0
2156,96714.9596263414,2011-01-25 13:46:23,101.09202730728894,7,12,-1.0993878841400146,3.8235926628112793,6.890695329907382,6.313029438034698,28.24103503550872,21.99127709438739,-0.0011332035064697,0.117299661040306,0,0,0
2157,96744.97476705749,2011-01-25 13:46:53,131.10716801836887,7,12,-1.099568486213684,3.787815809249878,6.890695329907382,6.322196671160954,28.24103503550872,22.026157583209265,-0.0008418083307333,0.117299661040306,0,0,0
2158,96774.98992973832,2011-01-25 13:47:23,161.12233082451647,7,12,-1.099568486213684,3.7598094940185542,6.890695329907382,6.331363936643484,28.24103503550872,22.06074758329043,-0.0007122993702068,0.117299661040306,0,0,0
2159,96805.00494196922,2011-01-25 13:47:53,191.13734293007187,7,12,-1.099568486213684,3.7360124588012695,6.890695329907382,6.340531194122661,28.24103503550872,22.0951024278638,-0.0005827903514727,0.117299661040306,0,0,0
2160,96835.02005715165,2011-01-25 13:48:23,221.15245811753908,7,12,-1.0997490882873535,3.716100454330444,6.890695329907382,6.349698431020011,28.24103503550872,22.12925843692993,-0.0005180359003134,0.117299661040306,0,0,0
2161,96865.03518662971,2011-01-25 13:48:53,251.1675875906104,7,12,-1.0993878841400146,3.698616743087769,6.890695329907382,6.358865712035579,28.24103503550872,22.163243384497903,-0.0004209041653666,0.117299661040306,0,0,0
2162,96895.05027809308,2011-01-25 13:49:23,281.18267904893736,7,12,-1.099568486213684,3.6825900077819824,6.890695329907382,6.368032916530697,28.24103503550872,22.197074328223465,-0.0003885269106831,0.117299661040306,0,0,0
2163,96925.06540933056,2011-01-25 13:49:53,311.1978103014436,7,12,-1.099568486213684,3.667858600616455,6.890695329907382,6.377200197430162,28.24103503550872,22.23076493596985,-0.0003561496851034,0.117299661040306,0,0,0
2164,96955.08273476663,2011-01-25 13:50:23,341.2151358177304,7,12,-1.0993878841400146,3.6539363861083984,6.890695329907382,6.386368159764679,28.24103503550872,22.26432678136284,-0.0003885269106831,0.117299661040306,0,0,0
2165,96985.09567454732,2011-01-25 13:50:53,371.2280756084395,7,12,-1.099568486213684,3.6406617164611816,6.890695329907382,6.395534765645801,28.24103503550872,22.297759306165105,-0.0003237724304199,0.117299661040306,0,0,0
2166,97015.11071621654,2011-01-25 13:51:23,401.2431171824393,7,12,-1.0997490882873535,3.6280345916748047,6.890695329907382,6.404701952313074,28.24103503550872,22.331076559911462,-0.0003885269106831,0.117299661040306,0,0,0
2167,97045.12582913836,2011-01-25 13:51:53,431.2582300942349,7,12,-1.0997490882873535,3.6162168979644775,6.890695329907382,6.413869269209085,28.24103503550872,22.36428229007377,-0.0003237724304199,0.117299661040306,0,0,0
2168,97075.14097541833,2011-01-25 13:52:23,461.2733763842192,7,12,-1.099568486213684,3.6047229766845694,6.890695329907382,6.423036536829121,28.24103503550872,22.397380354331347,-0.0003237724304199,0.117299661040306,0,0,0
2169,97105.1560614381,2011-01-25 13:52:53,491.2884623939665,7,12,-1.099568486213684,3.593714714050293,6.890695329907382,6.432203786475317,28.24103503550872,22.430374775405287,-0.0002590179501567,0.117299661040306,0,0,0
2170,97135.171168776,2011-01-25 13:53:24,521.3035697368827,7,12,-1.0993878841400146,3.5827066898345947,6.890695329907382,6.441371036047433,28.24103503550872,22.46326752984436,-0.0002590179501567,0.117299661040306,0,0,0
2171,97165.18629651474,2011-01-25 13:53:54,551.3186974706191,7,12,-1.0993878841400146,3.5720221996307373,6.890695329907382,6.450538258639473,28.24103503550872,22.496061997989685,-0.0002590179501567,0.117299661040306,0,0,0
2172,97195.20137756212,2011-01-25 13:54:24,581.3337785480736,7,12,-1.0993878841400146,3.56198525428772,6.890695329907382,6.459705517309371,28.24103503550872,22.52876099780032,-0.0002590179501567,0.117299661040306,0,0,0
2173,97225.216640969,2011-01-25 13:54:54,611.3490419549493,7,12,-1.0993878841400146,3.552272081375122,6.890695329907382,6.468872790569335,28.24103503550872,22.561369507632552,-0.0002590179501567,0.117299661040306,0,0,0
2174,97255.23160371152,2011-01-25 13:55:24,641.3640046674018,7,12,-1.099568486213684,3.5427207946777344,6.890695329907382,6.478040031626129,28.24103503550872,22.59388998214839,-0.0002590179501567,0.117299661040306,0,0,0
2175,97285.24671998672,2011-01-25 13:55:54,671.3791209475925,7,12,-1.099568486213684,3.5334932804107666,6.890695329907382,6.487207279477477,28.24103503550872,22.62632457364469,-0.0002590179501567,0.117299661040306,0,0,0
2176,97315.26190064236,2011-01-25 13:56:24,701.394301608239,7,12,-1.099568486213684,3.5245895385742188,6.890695329907382,6.496374622652896,28.24103503550872,22.658676396909417,-0.0002590179501567,0.117299661040306,0,0,0
2177,97345.2769468529,2011-01-25 13:56:54,731.409347823807,7,12,-1.099568486213684,3.516009569168091,6.890695329907382,6.505541927201887,28.24103503550872,22.690948347372277,-0.0002266406954731,0.117299661040306,0,0,0
2178,97375.2920593637,2011-01-25 13:57:24,761.4244603396157,7,12,-1.099568486213684,3.507591724395752,6.890695329907382,6.514709237087028,28.24103503550872,22.723142729197576,-0.0002590179501567,0.117299661040306,0,0,0
2179,97405.30728334733,2011-01-25 13:57:54,791.4396843081989,7,12,-1.0993878841400146,3.499497413635254,6.890695329907382,6.523876623018074,28.24103503550872,22.755261205508724,-0.0002266406954731,0.117299661040306,0,0,0
2180,97435.32226521752,2011-01-25 13:58:24,821.4546661733859,7,12,-1.0993878841400146,3.491726875305176,6.890695329907382,6.533043977838409,28.24103503550872,22.787305520072863,-0.0001618862152099,0.117299661040306,0,0,0
2181,97465.33758707008,2011-01-25 13:58:54,851.4699880560012,7,12,-1.0993878841400146,3.4839563369750977,6.890695329907382,6.542211397039657,28.24103503550872,22.81927917783791,-0.0002266406954731,0.117299661040306,0,0,0
2182,97495.35249640448,2011-01-25 13:59:24,881.4848973603441,7,12,-1.099568486213684,3.476347684860229,6.890695329907382,6.551378692939705,28.24103503550872,22.851182020629068,-0.0001618862152099,0.117299661040306,0,0,0
2183,97525.3676044642,2011-01-25 13:59:54,911.5000055253092,7,12,-1.099568486213684,3.4689009189605717,6.890695329907382,6.560545949363154,28.24103503550872,22.883016180237785,-0.0001942634553415,0.117299661040306,0,0,0
2184,97555.38271912534,2011-01-25 14:00:24,941.5151200912272,7,12,-1.099568486213684,3.461454153060913,6.890695329907382,6.569713247853438,28.24103503550872,22.91478269132476,-0.0002266406954731,0.117299661040306,0,0,0
2185,97585.39786370606,2011-01-25 14:00:54,971.5302646920017,7,12,-1.099568486213684,3.454331159591675,6.890695329907382,6.578880580305705,28.24103503550872,22.94648222971611,-0.0001618862152099,0.117299661040306,0,0,0
2186,97615.41295178595,2011-01-25 14:01:24,1001.545352756871,7,12,-1.0993878841400146,3.4470462799072266,6.890695329907382,6.588047909366543,28.24103503550872,22.978115042448223,-0.0001618862152099,0.117299661040306,0,0,0
2187,97645.42823814004,2011-01-25 14:01:54,1031.5606392212128,7,12,-1.099568486213684,3.4392757415771484,6.890695329907382,6.597215341877962,28.24103503550872,23.00967998064812,-0.0002266406954731,0.117299661040306,0,0,0
2188,97675.44315554958,2011-01-25 14:02:24,1061.5755565204818,7,12,-1.0993878841400146,3.4319908618927,6.890695329907382,6.60638264778353,28.24103503550872,23.041176050966712,-0.0001942634553415,0.117299661040306,0,0,0
2189,97705.45829573936,2011-01-25 14:02:54,1091.590696815525,7,12,-1.0997490882873535,3.424382448196411,6.890695329907382,6.615549998580618,28.24103503550872,23.07260347381053,-0.0002266406954731,0.117299661040306,0,0,0
2190,97735.47337236573,2011-01-25 14:03:24,1121.6057733215862,7,12,-1.099568486213684,3.416935682296753,6.890695329907382,6.624717269643181,28.24103503550872,23.103961500715307,-0.0001942634553415,0.117299661040306,0,0,0
2191,97765.48848662588,2011-01-25 14:03:54,1151.6208875867546,7,12,-1.099568486213684,3.408841371536255,6.890695329907382,6.633884607265339,28.24103503550872,23.13524845169156,-0.0002266406954731,0.117299661040306,0,0,0
2192,97795.5036990607,2011-01-25 14:04:24,1181.6361000566797,7,12,-1.099568486213684,3.400585174560547,6.890695329907382,6.643051973335081,28.24103503550872,23.166461666985384,-0.0002266406954731,0.117299661040306,0,0,0
2193,97825.51871710106,2011-01-25 14:04:54,1211.651118061939,7,12,-1.099568486213684,3.391843318939209,6.890695329907382,6.652219281219485,28.24103503550872,23.19759629054628,-0.0002590179501567,0.117299661040306,0,0,0
2194,97855.53381720594,2011-01-25 14:05:24,1241.6662181618033,7,12,-1.0993878841400146,3.382939577102661,6.890695329907382,6.661386623239098,28.24103503550872,23.228649847498183,-0.0002590179501567,0.117299661040306,0,0,0
2195,97885.5489355212,2011-01-25 14:05:54,1271.681336487091,7,12,-1.0997490882873535,3.3735501766204834,6.890695329907382,6.670554017174247,28.24103503550872,23.259618957819747,-0.0002266406954731,0.117299661040306,0,0,0
2196,97915.56410721951,2011-01-25 14:06:24,1301.6965081854007,7,12,-1.099568486213684,3.363513231277466,6.890695329907382,6.679721349546039,28.24103503550872,23.290499901697757,-0.0002913951757363,0.117299661040306,0,0,0
2197,97945.57924313364,2011-01-25 14:06:54,1331.7116441145624,7,12,-1.099568486213684,3.3529906272888184,6.890695329907382,6.688888721477055,28.24103503550872,23.32128718783383,-0.0003237724304199,0.117299661040306,0,0,0
2198,97975.59426991075,2011-01-25 14:07:24,1361.7266708666214,7,12,-1.0993878841400146,3.34230637550354,6.890695329907382,6.698056106461046,28.24103503550872,23.35197657161408,-0.0002590179501567,0.117299661040306,0,0,0
2199,98005.6093993738,2011-01-25 14:07:54,1391.7418003647554,7,12,-1.099568486213684,3.330326795578003,6.890695329907382,6.707223488840597,28.24103503550872,23.382562519766584,-0.0003561496851034,0.117299661040306,0,0,0
2200,98035.6244890527,2011-01-25 14:08:24,1421.7568900085596,7,12,-1.0993878841400146,3.317537784576416,6.890695329907382,6.716390857423082,28.24103503550872,23.41303423387377,-0.0003237724304199,0.117299661040306,0,0,0
2201,98065.63960712234,2011-01-25 14:08:54,1451.7720080782103,7,12,-1.099568486213684,3.3034536838531494,6.890695329907382,6.725558131166276,28.24103503550872,23.4433827954703,-0.0004209041653666,0.117299661040306,0,0,0
2202,98095.65471472593,2011-01-25 14:09:24,1481.7871156867886,7,12,-1.0993878841400146,3.288560152053833,6.890695329907382,6.734725465418649,28.24103503550872,23.47359956656571,-0.0004209041653666,0.117299661040306,0,0,0
2203,98125.66992442892,2011-01-25 14:09:54,1511.8023254048553,7,12,-1.0997490882873535,3.271562099456787,6.890695329907382,6.743892799356579,28.24103503550872,23.50367148029308,-0.0005180359003134,0.117299661040306,0,0,0
2204,98155.68486955756,2011-01-25 14:10:24,1541.8172705485208,7,12,-1.0993878841400146,3.252459764480591,6.890695329907382,6.753060358200834,28.24103503550872,23.533578697255003,-0.0005180359003134,0.117299661040306,0,0,0
2205,98185.70023455763,2011-01-25 14:10:54,1571.832635528548,7,12,-1.099568486213684,3.2297956943511963,6.890695329907382,6.762228488893727,28.24103503550872,23.56329531956833,-0.0006151676061563,0.117299661040306,0,0,0
2206,98215.7151917664,2011-01-25 14:11:24,1601.8475927673587,7,12,-1.099568486213684,3.2034082412719727,6.890695329907382,6.771396392184307,28.24103503550872,23.592789401032093,-0.0007770538213662,0.117299661040306,0,0,0
2207,98245.73049044116,2011-01-25 14:11:54,1631.8628915123077,7,12,-1.099568486213684,3.1716787815093994,6.890695329907382,6.78056449241046,28.24103503550872,23.622019020883645,-0.0009389400365762,0.117299661040306,0,0,0
2208,98275.74534771082,2011-01-25 14:12:24,1661.877748666677,7,12,-1.099568486213684,3.131692886352539,6.890695329907382,6.789732413043268,28.24103503550872,23.65092082181056,-0.0011655807029455,0.117299661040306,0,0,0
2209,98305.7605431984,2011-01-25 14:12:54,1691.8929441542768,7,12,-1.099568486213684,3.0810227394104004,6.890695329907382,6.798900520206312,28.24103503550872,23.679409554658942,-0.0015217304462566,0.117299661040306,0,0,0
2210,98335.77565253129,2011-01-25 14:13:24,1721.9080535072026,7,12,-1.099568486213684,3.012706995010376,6.890695329907382,6.808068440969342,28.24103503550872,23.707361248399145,-0.0021368979942053,0.117299661040306,0,0,0
2211,98365.79088334693,2011-01-25 14:13:54,1751.923284332876,7,12,-1.099568486213684,2.918327569961548,6.890695329907382,6.817235683269135,28.24103503550872,23.734572322002887,-0.0029463290702551,0.117299661040306,0,0,0
2212,98395.80587449024,2011-01-25 14:14:24,1781.9382754511244,7,12,-1.099568486213684,2.785581350326538,6.890695329907382,6.826402906179102,28.24103503550872,23.760753070075424,-0.0041118622757494,0.117299661040306,0,0,0
2213,98411.07125435892,2011-01-25 14:14:39,1797.203655319797,7,12,-1.0993878841400146,2.699943780899048,6.890695329907382,6.831065282938333,28.24103503550872,23.77354401066346,-0.0046298978850245,0.117299661040306,0,0,0
2214,98471.0884155828,2011-01-25 14:15:40,60.01446449651439,8,12,0.0,3.653774499893189,6.890695329907382,6.831065282938333,28.24103503550872,23.77354401066346,0.0012303352123126,0.117299661040306,0,0,0
2215,98471.2798185601,2011-01-25 14:15:40,0.187631600681699,9,12,-1.9243103452026844e-05,3.653774499893189,6.890695329907382,6.831065283941282,28.24103503550872,23.773544014328007,0.0,0.1118387952446937,0,0,0
2216,98476.10795190895,2011-01-25 14:15:45,5.015764934529134,9,12,0.0007031940040178,3.6608974933624263,6.890696202917042,6.831065284024887,28.2410382288468,23.77354401463348,0.0010036944877356,0.1118387952446937,0,0,0
