Data_Point,Test_Time(s),Date_Time,Step_Time(s),Step_Index,Cycle_Index,Current(A),Voltage(V),Charge_Capacity(Ah),Discharge_Capacity(Ah),Charge_Energy(Wh),Discharge_Energy(Wh),dV/dt(V/s),Internal_Resistance(Ohm),Is_FC_Data,AC_Impedance(Ohm),ACI_Phase_Angle(Deg)
5825,261456.3722355698,2011-01-27 11:32:30,30.01523739705111,1,34,0.0,3.713510274887085,18.081686423968137,17.972791918106427,74.19144967323406,62.34144641029443,0.0005180359003134,0.1142700687050819,0,0,0
5826,261486.3895184398,2011-01-27 11:33:00,60.03252028710016,1,34,0.0,3.729051351547241,18.081686423968137,17.972791918106427,74.19144967323406,62.34144641029443,0.0003561496851034,0.1142700687050819,0,0,0
5827,261516.40231400105,2011-01-27 11:33:30,90.04531582328264,1,34,0.0,3.739735841751098,18.081686423968137,17.972791918106427,74.19144967323406,62.34144641029443,0.0002266406954731,0.1142700687050819,0,0,0
5828,261546.37055035704,2011-01-27 11:34:00,120.01355217927758,1,34,0.0,3.7481539249420166,18.081686423968137,17.972791918106427,74.19144967323406,62.34144641029443,0.0001618862152099,0.1142700687050819,0,0,0
5829,261576.3874786665,2011-01-27 11:34:30,30.015183978916685,2,34,0.550297200679779,3.86633038520813,18.0862727654604,17.972791918106427,74.20910229943209,62.34144641029443,0.0007122993702068,0.1142700687050819,0,0,0
5830,261606.4033703993,2011-01-27 11:35:00,60.03107591728616,2,34,0.5501165986061096,3.886242389678955,18.09085928629822,17.972791918106427,74.22688421479553,62.34144641029443,0.0004532813909463,0.1142700687050819,0,0,0
5831,261636.41781314087,2011-01-27 11:35:30,90.04551855354885,2,34,0.5499359965324402,3.9003264904022217,18.095444815651387,17.972791918106427,74.24473889264955,62.34144641029443,0.0002913951757363,0.1142700687050819,0,0,0
5832,261666.43273481604,2011-01-27 11:36:00,120.06044013849905,2,34,0.5497553944587708,3.911820411682129,18.10003032118019,17.972791918106427,74.26265197346501,62.34144641029443,0.0002266406954731,0.1142700687050819,0,0,0
5833,261696.44799293476,2011-01-27 11:36:30,150.07569824716987,2,34,0.5499359965324402,3.922342777252197,18.10461658532377,17.972791918106427,74.28061804521067,62.34144641029443,0.0002590179501567,0.1142700687050819,0,0,0
5834,261726.46300281977,2011-01-27 11:37:00,180.09070815224095,2,34,0.5501165986061096,3.931570291519165,18.10920294524482,17.972791918106427,74.29862910220993,62.34144641029443,0.0002266406954731,0.1142700687050819,0,0,0
5835,261756.4781001728,2011-01-27 11:37:30,210.10580547518435,2,34,0.550297200679779,3.940312147140503,18.11378929604441,17.972791918106427,74.31668117570922,62.34144641029443,0.0001942634553415,0.1142700687050819,0,0,0
5836,261786.49332321907,2011-01-27 11:38:01,240.1210285365064,2,34,0.5499359965324402,3.948244571685791,18.11837566741526,17.972791918106427,74.33477142714324,62.34144641029443,0.0002266406954731,0.1142700687050819,0,0,0
5837,261816.5083120967,2011-01-27 11:38:31,270.13601739913327,2,34,0.5501165986061096,3.956015110015869,18.122962098697663,17.972791918106427,74.35289778515552,62.34144641029443,0.0001942634553415,0.1142700687050819,0,0,0
5838,261846.52344699836,2011-01-27 11:39:01,300.15115239095906,2,34,0.5499359965324402,3.962814331054688,18.12754845578743,17.972791918106427,74.37105739750857,62.34144641029443,0.0001618862152099,0.1142700687050819,0,0,0
5839,261876.53854576987,2011-01-27 11:39:31,330.1662510973503,2,34,0.5501165986061096,3.969775438308716,18.132134858098144,17.972791918106427,74.38924885236416,62.34144641029443,0.0001618862152099,0.1142700687050819,0,0,0
5840,261906.55365384463,2011-01-27 11:40:01,360.1813592673278,2,34,0.5499359965324402,3.976089000701904,18.13672130684527,17.972791918106427,74.4074703923839,62.34144641029443,0.0001942634553415,0.1142700687050819,0,0,0
5841,261936.56875672145,2011-01-27 11:40:31,390.1964620238133,2,34,0.5501165986061096,3.982078790664673,18.14130766215996,17.972791918106427,74.42571974475874,62.34144641029443,0.0001618862152099,0.1142700687050819,0,0,0
5842,261966.58383943792,2011-01-27 11:41:01,420.2115447654154,2,34,0.5501165986061096,3.987906694412232,18.14589388499421,17.972791918106427,74.4439956291752,62.34144641029443,0.0001295089750783,0.1142700687050819,0,0,0
5843,261996.5989981489,2011-01-27 11:41:31,450.22670348638144,2,34,0.5501165986061096,3.99308705329895,18.15048014486217,17.972791918106427,74.4622973421784,62.34144641029443,9.713172767078504e-05,0.1142700687050819,0,0,0
5844,262026.61464090625,2011-01-27 11:42:01,480.2423463189025,2,34,0.5501165986061096,3.9984290599823,18.15506652019399,17.972791918106427,74.48062394137929,62.34144641029443,9.713172767078504e-05,0.1142700687050819,0,0,0
5845,262056.62941444217,2011-01-27 11:42:31,510.2571197746691,2,34,0.5499359965324402,4.003447532653809,18.15965266500415,17.972791918106427,74.4989730022033,62.34144641029443,0.0001295089750783,0.1142700687050819,0,0,0
5846,262086.6443027542,2011-01-27 11:43:01,540.2720080716555,2,34,0.5501165986061096,4.0084662437438965,18.164238849630657,17.972791918106427,74.5173447482531,62.34144641029443,0.0001619339018361,0.1142700687050819,0,0,0
5847,262116.6594667583,2011-01-27 11:43:31,570.2871720908263,2,34,0.5501165986061096,4.012999057769775,18.1688251433149,17.972791918106427,74.53573877159197,62.34144641029443,0.0001295089750783,0.1142700687050819,0,0,0
5848,262146.674586818,2011-01-27 11:44:01,600.302292135399,2,34,0.5501165986061096,4.017531871795654,18.17341145941378,17.972791918106427,74.55415403240352,62.34144641029443,0.0001295089750783,0.1142700687050819,0,0,0
5849,262176.68967369484,2011-01-27 11:44:31,630.3173790022827,2,34,0.5499359965324402,4.021902561187744,18.17799768045072,17.972791918106427,74.57258937677884,62.34144641029443,9.70840483205393e-05,0.1142700687050819,0,0,0
5850,262206.704819248,2011-01-27 11:45:01,660.332524560443,2,34,0.5501165986061096,4.026273727416992,18.182583931317357,17.972791918106427,74.59104498396931,62.34144641029443,0.0001295089750783,0.1142700687050819,0,0,0
5851,262236.7199122352,2011-01-27 11:45:31,690.3476175726427,2,34,0.5501165986061096,4.030482769012451,18.187170172472023,17.972791918106427,74.60952023262334,62.34144641029443,0.0001295089750783,0.1142700687050819,0,0,0
5852,262266.7351282439,2011-01-27 11:46:01,720.3628335914124,2,34,0.5501165986061096,4.034691333770752,18.191756442404643,17.972791918106427,74.628014775714,62.34144641029443,0.0001294136018259,0.1142700687050819,0,0,0
5853,262296.75011002383,2011-01-27 11:46:31,750.3778153563497,2,34,0.5499359965324402,4.03873872756958,18.19634269059458,17.972791918106427,74.64652791677223,62.34144641029443,9.71794142969884e-05,0.1142700687050819,0,0,0
5854,262326.7652447951,2011-01-27 11:47:01,780.3929501075759,2,34,0.5499359965324402,4.04278564453125,18.20092898000481,17.972791918106427,74.66505966658328,62.34144641029443,9.70840483205393e-05,0.1142700687050819,0,0,0
5855,262356.7803720777,2011-01-27 11:47:31,810.4080774152502,2,34,0.550297200679779,4.046670913696289,18.205515210147173,17.972791918106427,74.68360938436157,62.34144641029443,0.0001295089750783,0.1142700687050819,0,0,0
5856,262386.7954413859,2011-01-27 11:48:01,840.4231466882846,2,34,0.5499359965324402,4.050556182861328,18.210101522720755,17.972791918106427,74.7021772925823,62.34144641029443,0.0001618385285837,0.1142700687050819,0,0,0
5857,262416.81068116886,2011-01-27 11:48:31,870.4383865013572,2,34,0.5501165986061096,4.054279804229736,18.21468783429112,17.972791918106427,74.72076266977214,62.34144641029443,9.71794142969884e-05,0.1142700687050819,0,0,0
5858,262446.8257962611,2011-01-27 11:49:01,900.4535015885746,2,34,0.5501165986061096,4.058002948760986,18.21927415712389,17.972791918106427,74.73936539209072,62.34144641029443,9.70840483205393e-05,0.1142700687050819,0,0,0
5859,262476.8407911337,2011-01-27 11:49:31,930.4684965313552,2,34,0.5499359965324402,4.0615644454956055,18.22386057288715,17.972791918106427,74.75798538880406,62.34144641029443,9.70840483205393e-05,0.1142700687050819,0,0,0
5860,262506.85599837056,2011-01-27 11:50:01,960.4837036830254,2,34,0.5501165986061096,4.065288066864014,18.228446895487217,17.972791918106427,74.77662175320545,62.34144641029443,9.71794142969884e-05,0.1142700687050819,0,0,0
5861,262536.8709933334,2011-01-27 11:50:31,990.4986986408434,2,34,0.5501165986061096,4.068849563598633,18.233033172597537,17.972791918106427,74.79527471374652,62.34144641029443,6.47544875391759e-05,0.1142700687050819,0,0,0
5862,262566.88612689165,2011-01-27 11:51:01,1020.5138322241588,2,34,0.5501165986061096,4.072572708129883,18.23761949627272,17.972791918106427,74.81394450536203,62.34144641029443,9.70840483205393e-05,0.1142700687050819,0,0,0
5863,262596.90122647025,2011-01-27 11:51:31,1050.5289318027235,2,34,0.5499359965324402,4.076134204864502,18.24220574902415,17.972791918106427,74.83263054929382,62.34144641029443,0.0001295089750783,0.1142700687050819,0,0,0
5864,262626.9163421189,2011-01-27 11:52:01,1080.5440474413151,2,34,0.5501165986061096,4.07953405380249,18.24679201368236,17.972791918106427,74.85133304275851,62.34144641029443,3.24249267578125e-05,0.1142700687050819,0,0,0
5865,262656.93156222784,2011-01-27 11:52:31,1110.5592675502792,2,34,0.5499359965324402,4.08325719833374,18.25137824142893,17.972791918106427,74.87005171509223,62.34144641029443,6.47544875391759e-05,0.1142700687050819,0,0,0
5866,262686.94673092366,2011-01-27 11:53:01,1140.5744362410933,2,34,0.5501165986061096,4.0866570472717285,18.25596452144248,17.972791918106427,74.88878685284593,62.34144641029443,6.47544875391759e-05,0.1142700687050819,0,0,0
5867,262716.9617945025,2011-01-27 11:53:31,1170.5894998349734,2,34,0.5501165986061096,4.0903801918029785,18.260550781145543,17.972791918106427,74.90753812117572,62.34144641029443,9.70840483205393e-05,0.1142700687050819,0,0,0
5868,262746.9767173205,2011-01-27 11:54:01,1200.6044226229217,2,34,0.5499359965324402,4.093780040740967,18.265136834972505,17.972791918106427,74.92630468274666,62.34144641029443,6.47544875391759e-05,0.1142700687050819,0,0,0
5869,262776.991974968,2011-01-27 11:54:31,1230.619680305531,2,34,0.5497553944587708,4.097179412841797,18.269722343012692,17.972791918106427,74.94508497470581,62.34144641029443,6.47544875391759e-05,0.1142700687050819,0,0,0
5870,262807.0069026131,2011-01-27 11:55:01,1260.6346079255222,2,34,0.5497553944587708,4.100579261779785,18.27430798237537,17.972791918106427,74.96388191201247,62.34144641029443,3.24249267578125e-05,0.1142700687050819,0,0,0
5871,262837.02217664645,2011-01-27 11:55:31,1290.649881968907,2,34,0.5499359965324402,4.104302406311035,18.27889356307606,17.972791918106427,74.98269458173098,62.34144641029443,9.70840483205393e-05,0.1142700687050819,0,0,0
5872,262867.0371790127,2011-01-27 11:56:01,1320.6648843351893,2,34,0.5499359965324402,4.107702255249023,18.283479067179897,17.972791918106427,75.00152308309974,62.34144641029443,6.47544875391759e-05,0.1142700687050819,0,0,0
5873,262897.0525671304,2011-01-27 11:56:31,1350.6802724528825,2,34,0.5497553944587708,4.111263751983643,18.288064580778897,17.972791918106427,75.0203677309622,62.34144641029443,6.47544875391759e-05,0.1142700687050819,0,0,0
5874,262927.067345724,2011-01-27 11:57:01,1380.6950510614918,2,34,0.5501165986061096,4.114824771881104,18.292650103113207,17.972791918106427,75.03922847006608,62.34144641029443,9.70840483205393e-05,0.1142700687050819,0,0,0
5875,262957.0825190263,2011-01-27 11:57:31,1410.7102243587865,2,34,0.5499359965324402,4.118548393249512,18.29723649316451,17.972791918106427,75.05810910195484,62.34144641029443,9.71794142969884e-05,0.1142700687050819,0,0,0
5876,262987.0976546697,2011-01-27 11:58:01,1440.7253600022364,2,34,0.550297200679779,4.122109889984131,18.30182286090301,17.972791918106427,75.0770058900618,62.34144641029443,9.71794142969884e-05,0.1142700687050819,0,0,0
5877,263017.1128590896,2011-01-27 11:58:31,1470.7405644020482,2,34,0.5499359965324402,4.12534761428833,18.30640926589989,17.972791918106427,75.09591896296868,62.34144641029443,6.47544875391759e-05,0.1142700687050819,0,0,0
5878,263047.1278409347,2011-01-27 11:59:01,1500.7555462421728,2,34,0.5499359965324402,4.128909111022949,18.31099560633931,17.972791918106427,75.11484796238551,62.34144641029443,6.47544875391759e-05,0.1142700687050819,0,0,0
5879,263077.1431824162,2011-01-27 11:59:31,1530.7708877236344,2,34,0.5501165986061096,4.132632255554199,18.315581994178835,17.972791918106427,75.13379346168668,62.34144641029443,9.70840483205393e-05,0.1142700687050819,0,0,0
5880,263107.1582878444,2011-01-27 12:00:01,1560.785993242003,2,34,0.550297200679779,4.136355876922607,18.320168397355467,17.972791918106427,75.15275535172725,62.34144641029443,9.71794142969884e-05,0.1142700687050819,0,0,0
5881,263137.17329479207,2011-01-27 12:00:31,1590.8010001145162,2,34,0.5499359965324402,4.139593601226807,18.324754798133355,17.972791918106427,75.17173376484003,62.34144641029443,6.47544875391759e-05,0.1142700687050819,0,0,0
5882,263167.18828055693,2011-01-27 12:01:01,1620.8159858643853,2,34,0.5499359965324402,4.143316745758057,18.32934125104345,17.972791918106427,75.19072903808434,62.34144641029443,9.70840483205393e-05,0.1142700687050819,0,0,0
5883,263197.2034462052,2011-01-27 12:01:31,1650.831151512616,2,34,0.5499359965324402,4.147040367126465,18.333927600993743,17.972791918106427,75.20974066215508,62.34144641029443,9.71794142969884e-05,0.1142700687050819,0,0,0
5884,263227.2206719829,2011-01-27 12:02:01,1680.8483773905734,2,34,0.5501165986061096,4.150763511657715,18.33851428690391,17.972791918106427,75.22877052733256,62.34144641029443,9.70840483205393e-05,0.1142700687050819,0,0,0
5885,263257.23361629486,2011-01-27 12:02:31,1710.8613216173385,2,34,0.5501165986061096,4.154487133026123,18.343100304823757,17.972791918106427,75.24781443289265,62.34144641029443,9.71794142969884e-05,0.1142700687050819,0,0,0
5886,263287.24872848985,2011-01-27 12:03:01,1740.8764338023227,2,34,0.5501165986061096,4.158048629760742,18.34768666355285,17.972791918106427,75.26687673599018,62.34144641029443,6.47544875391759e-05,0.1142700687050819,0,0,0
5887,263317.2638775919,2011-01-27 12:03:31,1770.891582904315,2,34,0.5499359965324402,4.161933898925781,18.352272367939783,17.972791918106427,75.28595321414244,62.34144641029443,9.71794142969884e-05,0.1142700687050819,0,0,0
5888,263347.27893577726,2011-01-27 12:04:01,1800.906641079691,2,34,0.5497553944587708,4.1654953956604,18.356857860704164,17.972791918106427,75.3050458865581,62.34144641029443,9.71794142969884e-05,0.1142700687050819,0,0,0
5889,263377.2940466189,2011-01-27 12:04:31,1830.9217519213275,2,34,0.5497553944587708,4.16938066482544,18.36144335179437,17.972791918106427,75.3241557016748,62.34144641029443,9.71794142969884e-05,0.1142700687050819,0,0,0
5890,263407.3093075196,2011-01-27 12:05:01,1860.937012862056,2,34,0.5499359965324402,4.1731038093566895,18.366029413089286,17.972791918106427,75.34328526433623,62.34144641029443,9.70840483205393e-05,0.1142700687050819,0,0,0
5891,263437.3242827181,2011-01-27 12:05:31,1890.9519880255405,2,34,0.5501165986061096,4.1769890785217285,18.370616393429497,17.972791918106427,75.36243621788755,62.34144641029443,0.0001295089750783,0.1142700687050819,0,0,0
5892,263467.3394019908,2011-01-27 12:06:01,1920.9671072931767,2,34,0.5501165986061096,4.180712699890137,18.375203068486204,17.972791918106427,75.38160338714499,62.34144641029443,6.47544875391759e-05,0.1142700687050819,0,0,0
5893,263497.35451382486,2011-01-27 12:06:31,1950.982219142324,2,34,0.550297200679779,4.184759616851807,18.37978934968761,17.972791918106427,75.40078649108872,62.34144641029443,0.0001295089750783,0.1142700687050819,0,0,0
5894,263527.369629674,2011-01-27 12:07:01,1980.9973349764027,2,34,0.5501165986061096,4.188644886016846,18.38437568270987,17.972791918106427,75.41998749292925,62.34144641029443,9.70840483205393e-05,0.1142700687050819,0,0,0
5895,263557.371292093,2011-01-27 12:07:31,2010.9989974956816,2,34,0.5499359965324402,4.192206382751465,18.38895989325833,17.972791918106427,75.43919753712203,62.34144641029443,3.23295607813634e-05,0.1142700687050819,0,0,0
5896,263587.38440879463,2011-01-27 12:08:01,2041.0121142173573,2,34,0.5501165986061096,4.196253299713135,18.393545856808327,17.972791918106427,75.45843287154395,62.34144641029443,6.47544875391759e-05,0.1142700687050819,0,0,0
5897,263615.27442802914,2011-01-27 12:08:29,2068.902133331534,2,34,0.5501165986061096,4.200138568878174,18.397807443139182,17.972791918106427,75.47632365449732,62.34144641029443,0.0001295089750783,0.1142700687050819,0,0,0
5898,263645.2954361419,2011-01-27 12:08:59,30.01513556826244,3,34,0.0,4.087952136993408,18.397807443139182,17.972791918106427,75.47632365449732,62.34144641029443,-0.0005180359003134,0.1142700687050819,0,0,0
5899,263675.3106376595,2011-01-27 12:09:29,60.030337075866,3,34,0.0,4.074191570281982,18.397807443139182,17.972791918106427,75.47632365449732,62.34144641029443,-0.0003237724304199,0.1142700687050819,0,0,0
5900,263705.32563176024,2011-01-27 12:09:59,90.04533116151023,3,34,0.0,4.0657734870910645,18.397807443139182,17.972791918106427,75.47632365449732,62.34144641029443,-0.0001619339018361,0.1142700687050819,0,0,0
5901,263735.2938679859,2011-01-27 12:10:29,120.01356740723033,3,34,0.0,4.059621810913086,18.397807443139182,17.972791918106427,75.47632365449732,62.34144641029443,-0.0001295089750783,0.1142700687050819,0,0,0
5902,263735.30185258284,2011-01-27 12:10:30,0.015629012307597,4,34,1.0001949071884155,4.199814796447754,18.397811785377662,17.972791918106427,75.47634189109475,62.34144641029443,0.0,0.1142700687050819,0,0,0
5903,263735.9580909407,2011-01-27 12:10:30,0.671867350165027,4,34,0.9490824937820436,4.199814796447754,18.397987744953877,17.972791918106427,75.47708089489495,62.34144641029443,0.0,0.1142700687050819,0,0,0
5904,263738.004813042,2011-01-27 12:10:32,2.718589446389463,4,34,0.8985118865966797,4.199814796447754,18.39851170848523,17.972791918106427,75.47928146292877,62.34144641029443,0.0,0.1142700687050819,0,0,0
5905,263741.2704991265,2011-01-27 12:10:36,5.984275540963632,4,34,0.8479413390159607,4.199976921081543,18.399302625535626,17.972791918106427,75.48260319652105,62.34144641029443,0.0,0.1142700687050819,0,0,0
5906,263745.8173700178,2011-01-27 12:10:40,10.531146457324407,4,34,0.7979125380516052,4.199814796447754,18.400340545523125,17.972791918106427,75.48696229904294,62.34144641029443,0.0,0.1142700687050819,0,0,0
5907,263751.92657228466,2011-01-27 12:10:46,16.640348709090347,4,34,0.7477031350135803,4.199814796447754,18.401650207537557,17.972791918106427,75.49246271138536,62.34144641029443,-3.24249267578125e-05,0.1142700687050819,0,0,0
5908,263760.0536455268,2011-01-27 12:10:54,24.76742205149758,4,34,0.6976743936538696,4.199814796447754,18.403279141036368,17.972791918106427,75.49930401181167,62.34144641029443,-3.24249267578125e-05,0.1142700687050819,0,0,0
5909,263771.16060344846,2011-01-27 12:11:06,35.874379872914034,4,34,0.6474649906158447,4.200138568878174,18.40535038672231,17.972791918106427,75.50800299556496,62.34144641029443,3.23295607813634e-05,0.1142700687050819,0,0,0
5910,263787.3165990005,2011-01-27 12:11:22,52.03037541989266,4,34,0.597436249256134,4.199814796447754,18.408136804158897,17.972791918106427,75.51970563709298,62.34144641029443,-3.24249267578125e-05,0.1142700687050819,0,0,0
5911,263813.5973846246,2011-01-27 12:11:48,78.31116104406367,4,34,0.5474074482917786,4.199976921081543,18.41229960090449,17.972791918106427,75.53718888950837,62.34144641029443,0.0,0.1142700687050819,0,0,0
5912,263862.54953832884,2011-01-27 12:12:37,127.26331475832072,4,34,0.4973787069320678,4.199814796447754,18.41936966375608,17.972791918106427,75.56688230599386,62.34144641029443,0.0,0.1142700687050819,0,0,0
5913,263956.0637411759,2011-01-27 12:14:10,220.77751760541656,4,34,0.4471693336963653,4.199976921081543,18.43159399179503,17.972791918106427,75.61822299788386,62.34144641029443,3.24249267578125e-05,0.1142700687050819,0,0,0
5914,264090.6863094484,2011-01-27 12:16:25,355.4000859480552,4,34,0.3971405625343323,4.199814796447754,18.44735405808619,17.972791918106427,75.68441339629162,62.34144641029443,0.0,0.1142700687050819,0,0,0
5915,264256.4802782271,2011-01-27 12:19:11,521.1940546315433,4,34,0.3471117913722992,4.199814796447754,18.46447073591669,17.972791918106427,75.75630142831115,62.34144641029443,0.0,0.1142700687050819,0,0,0
5916,264458.1643277552,2011-01-27 12:22:33,722.8781041595978,4,34,0.2970830202102661,4.199814796447754,18.48249377438674,17.972791918106427,75.83199602598016,62.34144641029443,-3.24249267578125e-05,0.1142700687050819,0,0,0
5917,264707.70713789546,2011-01-27 12:26:42,972.4209143199204,4,34,0.247054249048233,4.199814796447754,18.50131378368667,17.972791918106427,75.91103778188587,62.34144641029443,0.0,0.1142700687050819,0,0,0
5918,265019.43588873406,2011-01-27 12:31:54,1284.1496651435116,4,34,0.1968448758125305,4.199814796447754,18.52047800977348,17.972791918106427,75.99152522409658,62.34144641029443,0.0,0.1142700687050819,0,0,0
5919,265434.2570572032,2011-01-27 12:38:49,1698.9708336326692,4,34,0.1466354876756668,4.199814796447754,18.54018338703449,17.972791918106427,76.07428543891851,62.34144641029443,3.23295607813634e-05,0.1142700687050819,0,0,0
5920,266041.1840341114,2011-01-27 12:48:56,2305.897810525849,4,34,0.0966067165136337,4.199814796447754,18.560446771997658,17.972791918106427,76.15938897140892,62.34144641029443,3.23295607813634e-05,0.1142700687050819,0,0,0
5921,267100.5094368613,2011-01-27 13:06:35,3365.223213310867,4,34,0.0498289167881011,4.199653148651123,18.581184790624423,17.972791918106427,76.24648572945969,62.34144641029443,3.24249267578125e-05,0.1142700687050819,0,0,0
5922,267130.5123478905,2011-01-27 13:07:05,30.01512605956384,5,34,0.0,4.188968658447266,18.581184790624423,17.972791918106427,76.24648572945969,62.34144641029443,-9.71794142969884e-05,0.1142700687050819,0,0,0
5923,267160.51181781513,2011-01-27 13:07:35,60.01459588397236,5,34,0.0,4.187349796295166,18.581184790624423,17.972791918106427,76.24648572945969,62.34144641029443,-3.24249267578125e-05,0.1142700687050819,0,0,0
5924,267160.68805604253,2011-01-27 13:07:35,0.187423376723526,6,34,0.0012450218200683,4.187835693359375,18.58118485544281,17.972791918106427,76.24648600090845,62.34144641029443,0.0,0.1190250143408775,0,0,0
5925,267165.5159515988,2011-01-27 13:07:40,5.015318947993461,6,34,0.0005225847125984,4.187188148498535,18.581185487591306,17.972791918106427,76.24648864804732,62.34144641029443,-9.70840483205393e-05,0.1190250143408775,0,0,0
5926,267174.942142344,2011-01-27 13:07:50,9.421632822958758,7,34,-1.0997490882873535,3.9870972633361816,18.581185487591306,17.97566963389326,76.24648864804732,62.35296221565152,-0.0023311139084398,0.1190250143408775,0,0,0
5927,267204.9573611597,2011-01-27 13:08:20,39.43685164371202,7,34,-1.099568486213684,3.921209573745728,18.581185487591306,17.984837483230613,76.24648864804732,62.38920683826281,-0.0016836166614666,0.1190250143408775,0,0,0
5928,267234.9725142215,2011-01-27 13:08:50,69.4520047055739,7,34,-1.0993878841400146,3.8605024814605713,18.581185487591306,17.994005264601647,76.24648864804732,62.424874984513536,-0.0015864849556237,0.1190250143408775,0,0,0
5929,267264.9875867577,2011-01-27 13:09:20,99.46707723672846,7,34,-1.099568486213684,3.8056232929229736,18.581185487591306,18.003173014629976,76.24648864804732,62.46000922842978,-0.0012950897216796,0.1190250143408775,0,0,0
5930,267295.002676201,2011-01-27 13:09:50,129.48216668003332,7,34,-1.099568486213684,3.761590242385864,18.581185487591306,18.012340806010474,76.24648864804732,62.49468809260177,-0.0010360718006268,0.1190250143408775,0,0,0
5931,267325.0178163206,2011-01-27 13:10:20,159.4973067996391,7,34,-1.099568486213684,3.7267849445343018,18.581185487591306,18.02150857228957,76.24648864804732,62.5290064784833,-0.0008094310760498,0.1190250143408775,0,0,0
5932,267355.0329148766,2011-01-27 13:10:50,189.51240533560568,7,34,-1.1001102924346924,3.698940515518189,18.581185487591306,18.03067641022121,76.24648864804732,62.56304176622495,-0.0007122993702068,0.1190250143408775,0,0,0
5933,267385.04811671504,2011-01-27 13:11:20,219.52760718907123,7,34,-1.0993878841400146,3.675952672958374,18.581185487591306,18.039844291525565,76.24648864804732,62.59684550327126,-0.0005504131549969,0.1190250143408775,0,0,0
5934,267415.06312152743,2011-01-27 13:11:50,249.54261200646224,7,34,-1.099568486213684,3.656040906906128,18.581185487591306,18.0490121308097,76.24648864804732,62.63045303886673,-0.0004856586456298,0.1190250143408775,0,0,0
5935,267445.07836010243,2011-01-27 13:12:20,279.55785061152415,7,34,-1.0993878841400146,3.638395309448242,18.581185487591306,18.05817998793883,76.24648864804732,62.66388915298226,-0.0004532813909463,0.1190250143408775,0,0,0
5936,267475.0934919464,2011-01-27 13:12:50,309.572982440467,7,34,-1.099568486213684,3.622530460357666,18.581185487591306,18.06734777669684,76.24648864804732,62.69717099316178,-0.0003885269106831,0.1190250143408775,0,0,0
5937,267505.10854910425,2011-01-27 13:13:20,339.5880395832691,7,34,-1.099568486213684,3.60747504234314,18.581185487591306,18.07651564190548,76.24648864804732,62.73031153019573,-0.0003885269106831,0.1190250143408775,0,0,0
5938,267535.1235555206,2011-01-27 13:13:50,369.6030459996453,7,34,-1.099568486213684,3.593876600265503,18.581185487591306,18.085683426738203,76.24648864804732,62.76332072181259,-0.0003237724304199,0.1190250143408775,0,0,0
5939,267565.1386941816,2011-01-27 13:14:20,399.6181846706408,7,34,-1.099568486213684,3.5804402828216557,18.581185487591306,18.09485127098752,76.24648864804732,62.7962063874488,-0.0003561496851034,0.1190250143408775,0,0,0
5940,267595.153780858,2011-01-27 13:14:50,429.63327134203706,7,34,-1.0997490882873535,3.5681369304656982,18.581185487591306,18.104019027266027,76.24648864804732,62.82897406843664,-0.0002913951757363,0.1190250143408775,0,0,0
5941,267625.16891177464,2011-01-27 13:15:20,459.6484022587063,7,34,-1.099568486213684,3.556481122970581,18.581185487591306,18.113186849622437,76.24648864804732,62.861631605480426,-0.0002913951757363,0.1190250143408775,0,0,0
5942,267655.1840024711,2011-01-27 13:15:50,489.66349295012174,7,34,-1.099568486213684,3.544987201690674,18.581185487591306,18.1223547045571,76.24648864804732,62.89418350884362,-0.0003237724304199,0.1190250143408775,0,0,0
5943,267685.1991151423,2011-01-27 13:16:20,519.6786056513927,7,34,-1.099568486213684,3.5344645977020264,18.581185487591306,18.131522530764062,76.24648864804732,62.92663427687276,-0.0002266406954731,0.1190250143408775,0,0,0
5944,267715.2144478569,2011-01-27 13:16:50,549.693938360992,7,34,-1.099568486213684,3.524103879928589,18.581185487591306,18.1406904869497,76.24648864804732,62.95899020242983,-0.0002590179501567,0.1190250143408775,0,0,0
5945,267745.22934926656,2011-01-27 13:17:20,579.7088397455967,7,34,-1.099568486213684,3.514390707015991,18.581185487591306,18.149858330838143,76.24648864804732,62.9912537952929,-0.0002913951757363,0.1190250143408775,0,0,0
5946,267775.24446213327,2011-01-27 13:17:50,609.7239526122798,7,34,-1.099568486213684,3.5048396587371826,18.581185487591306,18.159026296508458,76.24648864804732,63.02342976560851,-0.0002590179501567,0.1190250143408775,0,0,0
5947,267805.25967793644,2011-01-27 13:18:20,639.7391684155125,7,34,-1.099568486213684,3.4959359169006348,18.581185487591306,18.168194332136835,76.24648864804732,63.05552047633348,-0.0001942634553415,0.1190250143408775,0,0,0
5948,267835.274667957,2011-01-27 13:18:50,669.7541584360251,7,34,-1.099568486213684,3.487032175064087,18.581185487591306,18.17736221303976,76.24648864804732,63.087528734606565,-0.0002266406954731,0.1190250143408775,0,0,0
5949,267865.2897918311,2011-01-27 13:19:20,699.7692823151547,7,34,-1.099568486213684,3.478290319442749,18.581185487591306,18.186530104227508,76.24648864804732,63.11945607719579,-0.0001942634553415,0.1190250143408775,0,0,0
5950,267895.304884708,2011-01-27 13:19:50,729.7843751920169,7,34,-1.099568486213684,3.469872236251831,18.581185487591306,18.195697936051957,76.24648864804732,63.15130497581318,-0.0001942634553415,0.1190250143408775,0,0,0
5951,267925.3201623052,2011-01-27 13:20:20,759.7996527942719,7,34,-1.099568486213684,3.461616039276123,18.581185487591306,18.204865886279816,76.24648864804732,63.18307826219605,-0.0002266406954731,0.1190250143408775,0,0,0
5952,267955.3350809929,2011-01-27 13:20:50,789.8145714769888,7,34,-1.099568486213684,3.453683614730835,18.581185487591306,18.214033690090904,76.24648864804732,63.21477662647519,-0.0001942634553415,0.1190250143408775,0,0,0
5953,267985.3503639385,2011-01-27 13:21:20,819.8298544375984,7,34,-1.0993878841400146,3.445589303970337,18.581185487591306,18.22320160114958,76.24648864804732,63.24640126070923,-0.0001942634553415,0.1190250143408775,0,0,0
5954,268015.36529042065,2011-01-27 13:21:50,849.8447809047163,7,34,-1.0997490882873535,3.437171220779419,18.581185487591306,18.232369426411648,76.24648864804732,63.27795131603556,-0.0002266406954731,0.1190250143408775,0,0,0
5955,268045.3805693663,2011-01-27 13:22:20,879.8600599455566,7,34,-1.099568486213684,3.42923903465271,18.581185487591306,18.241537357432776,76.24648864804732,63.30942697456545,-0.0001618862152099,0.1190250143408775,0,0,0
5956,268075.3954735629,2011-01-27 13:22:50,909.8749640569574,7,34,-1.0997490882873535,3.420982837677002,18.581185487591306,18.25070517625862,76.24648864804732,63.34082820104644,-0.0002266406954731,0.1190250143408775,0,0,0
5957,268105.41089863767,2011-01-27 13:23:20,939.8903891167216,7,34,-1.099568486213684,3.412726640701294,18.581185487591306,18.2598731391062,76.24648864804732,63.37215521503175,-0.0002590179501567,0.1190250143408775,0,0,0
5958,268135.4257664436,2011-01-27 13:23:50,969.9052569376754,7,34,-1.099568486213684,3.404632329940796,18.581185487591306,18.26904093646484,76.24648864804732,63.40340544040065,-0.0001618862152099,0.1190250143408775,0,0,0
5959,268165.4408737715,2011-01-27 13:24:20,999.9203642605416,7,34,-1.099568486213684,3.396052360534668,18.581185487591306,18.27820881177609,76.24648864804732,63.43457848428412,-0.0002266406954731,0.1190250143408775,0,0,0
5960,268195.45601205656,2011-01-27 13:24:50,1029.93550253555,7,34,-1.099568486213684,3.38714861869812,18.581185487591306,18.28737670605261,76.24648864804732,63.46567268587026,-0.0002590179501567,0.1190250143408775,0,0,0
5961,268225.4711098256,2011-01-27 13:25:20,1059.9506003096178,7,34,-1.099568486213684,3.3779211044311523,18.581185487591306,18.29654465396723,76.24648864804732,63.49668381863954,-0.0002590179501567,0.1190250143408775,0,0,0
5962,268255.48837622954,2011-01-27 13:25:50,1089.9678668138283,7,34,-1.099568486213684,3.3683698177337646,18.581185487591306,18.30571318881345,76.24648864804732,63.527611260498645,-0.0002590179501567,0.1190250143408775,0,0,0
5963,268285.5013229726,2011-01-27 13:26:20,1119.9808134616271,7,34,-1.099568486213684,3.358009099960327,18.581185487591306,18.314880411349463,76.24648864804732,63.558442282737374,-0.0002590179501567,0.1190250143408775,0,0,0
5964,268315.5165227158,2011-01-27 13:26:50,1149.9960131948085,7,34,-1.0997490882873535,3.347001075744629,18.581185487591306,18.32404828887246,76.24648864804732,63.58917709448685,-0.0002913951757363,0.1190250143408775,0,0,0
5965,268345.53154741274,2011-01-27 13:27:20,1180.011037896758,7,34,-1.0993878841400146,3.3355071544647217,18.581185487591306,18.333216168975746,76.24648864804732,63.619809214185416,-0.0003237724304199,0.1190250143408775,0,0,0
5966,268375.5466414274,2011-01-27 13:27:50,1210.0261319114563,7,34,-1.099568486213684,3.3233656883239746,18.581185487591306,18.342384037251108,76.24648864804732,63.65033285103225,-0.0003237724304199,0.1190250143408775,0,0,0
5967,268405.56177799817,2011-01-27 13:28:20,1240.0412685122922,7,34,-1.0993878841400146,3.310252904891968,18.581185487591306,18.351551889560856,76.24648864804732,63.68074151133331,-0.0003237724304199,0.1190250143408775,0,0,0
5968,268435.57686692016,2011-01-27 13:28:50,1270.056357404223,7,34,-1.099568486213684,3.296168804168701,18.581185487591306,18.36071966028588,76.24648864804732,63.71102559629239,-0.0004209041653666,0.1190250143408775,0,0,0
5969,268465.5919873156,2011-01-27 13:29:20,1300.0714778046824,7,34,-1.099568486213684,3.280951499938965,18.581185487591306,18.369887493320896,76.24648864804732,63.74117565220638,-0.0004209041653666,0.1190250143408775,0,0,0
5970,268495.60708470375,2011-01-27 13:29:50,1330.0865751877757,7,34,-1.0992072820663452,3.263791799545288,18.581185487591306,18.37905534613441,76.24648864804732,63.77117697877702,-0.0004856586456298,0.1190250143408775,0,0,0
5971,268525.62219070835,2011-01-27 13:30:20,1360.1016811973689,7,34,-1.0997490882873535,3.2450129985809326,18.581185487591306,18.38822322433381,76.24648864804732,63.80101423312962,-0.0005504131549969,0.1190250143408775,0,0,0
5972,268555.63798514364,2011-01-27 13:30:50,1390.1174756277182,7,34,-1.099568486213684,3.223805904388428,18.581185487591306,18.39739132486427,76.24648864804732,63.830669533795856,-0.0005504131549969,0.1190250143408775,0,0,0
5973,268585.64017332305,2011-01-27 13:31:20,1420.1196639023412,7,34,-1.099568486213684,3.199037313461304,18.581185487591306,18.40655529528276,76.24648864804732,63.86010113604314,-0.0006799221155233,0.1190250143408775,0,0,0
5974,268615.6519468321,2011-01-27 13:31:50,1450.1314373060552,7,34,-1.099568486213684,3.1705455780029297,18.581185487591306,18.415722160735207,76.24648864804732,63.88929883887604,-0.0007770538213662,0.1190250143408775,0,0,0
5975,268645.6670137091,2011-01-27 13:32:20,1480.146504203168,7,34,-1.099568486213684,3.136063814163208,18.581185487591306,18.424890006022395,76.24648864804732,63.91821226604815,-0.0009713172912597,0.1190250143408775,0,0,0
5976,268675.68211545306,2011-01-27 13:32:50,1510.1616059371047,7,34,-1.0997490882873535,3.0938117504119877,18.581185487591306,18.434057902400284,76.24648864804732,63.94677691247583,-0.0012303352123126,0.1190250143408775,0,0,0
5977,268705.6972261543,2011-01-27 13:33:20,1540.1767166434036,7,34,-1.099568486213684,3.03860855102539,18.581185487591306,18.44322587001111,76.24648864804732,63.9748990460864,-0.0016512393485754,0.1190250143408775,0,0,0
5978,268735.7123443092,2011-01-27 13:33:50,1570.191834803279,7,34,-1.099568486213684,2.963007926940918,18.581185487591306,18.452393765220723,76.24648864804732,64.00242865665658,-0.0022664070129394,0.1190250143408775,0,0,0
5979,268765.72746823844,2011-01-27 13:34:21,1600.2069587174958,7,34,-1.0997490882873535,2.855192184448242,18.581185487591306,18.4615616354156,76.24648864804732,64.02912985296331,-0.0033348083961755,0.1190250143408775,0,0,0
5980,268795.74268628226,2011-01-27 13:34:51,1630.222176771338,7,34,-1.0997490882873535,2.705286026000977,18.581185487591306,18.47072957835852,76.24648864804732,64.05464991677101,-0.0044356347061693,0.1190250143408775,0,0,0
5981,268796.7269060007,2011-01-27 13:34:52,1631.2063964897127,7,34,-1.099568486213684,2.699943780899048,18.581185487591306,18.47103019682083,76.24648864804732,64.05546239134038,-0.0044356347061693,0.1190250143408775,0,0,0
5982,268856.7429030733,2011-01-27 13:35:52,60.0147261987569,8,34,0.0,3.681294918060303,18.581185487591306,18.47103019682083,76.24648864804732,64.05546239134038,0.0010684489971026,0.1190250143408775,0,0,0
5983,268856.9170702259,2011-01-27 13:35:52,0.187629555584688,9,34,-1.9243103452026844e-05,3.681618690490722,18.581185487591306,18.47103019782377,76.24648864804732,64.05546239503282,0.0,0.1156817376613617,0,0,0
5984,268861.7450378167,2011-01-27 13:35:57,5.015597146349363,9,34,0.0001613661734154,3.687770366668701,18.58118600943052,18.471030198073592,76.2464905710741,64.05546239595303,0.0009065627818927,0.1156817376613617,0,0,0
