Data_Point,Test_Time(s),Date_Time,Step_Time(s),Step_Index,Cycle_Index,Current(A),Voltage(V),Charge_Capacity(Ah),Discharge_Capacity(Ah),Charge_Energy(Wh),Discharge_Energy(Wh),dV/dt(V/s),Internal_Resistance(Ohm),Is_FC_Data,AC_Impedance(Ohm),ACI_Phase_Angle(Deg)
3264,145893.99564476553,2011-01-26 03:26:10,30.015134931675867,1,19,0.0,3.69278883934021,10.14657853735061,10.078085486629249,41.608070164899,35.01788554954855,0.0005827903514727,0.1133571565151214,0,0,0
3265,145924.0107332314,2011-01-26 03:26:40,60.03022339754465,1,19,0.0,3.709948778152466,10.14657853735061,10.078085486629249,41.608070164899,35.01788554954855,0.0003885269106831,0.1133571565151214,0,0,0
3266,145954.02599734,2011-01-26 03:27:10,90.04548750115674,1,19,0.0,3.721928358078003,10.14657853735061,10.078085486629249,41.608070164899,35.01788554954855,0.0002266406954731,0.1133571565151214,0,0,0
3267,145983.99411065434,2011-01-26 03:27:40,120.01360079544403,1,19,0.0,3.7309939861297607,10.14657853735061,10.078085486629249,41.608070164899,35.01788554954855,0.0002266406954731,0.1133571565151214,0,0,0
3268,146014.01401120544,2011-01-26 03:28:10,30.015084385699744,2,19,0.5501165986061096,3.848684787750244,10.151164590983194,10.078085486629249,41.62564107060562,35.01788554954855,0.0007122993702068,0.1133571565151214,0,0,0
3269,146044.02912457337,2011-01-26 03:28:40,60.03019775363213,2,19,0.5501165986061096,3.8684349060058594,10.155750976146807,10.078085486629249,41.64334087655519,35.01788554954855,0.0004532813909463,0.1133571565151214,0,0,0
3270,146074.045474824,2011-01-26 03:29:10,90.04654802430673,2,19,0.5499359965324402,3.882195234298706,10.160337466832267,10.078085486629249,41.66111655028125,35.01788554954855,0.0002913951757363,0.1133571565151214,0,0,0
3271,146104.06040634873,2011-01-26 03:29:40,120.0614797495296,2,19,0.5499359965324402,3.893689155578613,10.164923821078574,10.078085486629249,41.67894941777679,35.01788554954855,0.0002913951757363,0.1133571565151214,0,0,0
3272,146134.07464729232,2011-01-26 03:30:10,150.0757204775749,2,19,0.5501165986061096,3.903726100921631,10.169510048929672,10.078085486629249,41.696830161943055,35.01788554954855,0.0002590179501567,0.1133571565151214,0,0,0
3273,146164.0897047459,2011-01-26 03:30:40,180.09077794618895,2,19,0.5501165986061096,3.9124679565429688,10.17409633052417,10.078085486629249,41.714753947760585,35.01788554954855,0.0002266406954731,0.1133571565151214,0,0,0
3274,146194.10474502164,2011-01-26 03:31:10,210.10581822696568,2,19,0.5501165986061096,3.9207239151000977,10.178682654978052,10.078085486629249,41.73271705121684,35.01788554954855,0.0002266406954731,0.1133571565151214,0,0,0
3275,146224.11979638506,2011-01-26 03:31:40,240.12086956530123,2,19,0.5501165986061096,3.928494453430176,10.183269053371072,10.078085486629249,41.75071675421636,35.01788554954855,0.0001942634553415,0.1133571565151214,0,0,0
3276,146254.13518309925,2011-01-26 03:32:10,270.13625628952155,2,19,0.5501165986061096,3.935617446899414,10.18785551031844,10.078085486629249,41.76875084499955,35.01788554954855,0.0001942634553415,0.1133571565151214,0,0,0
3277,146284.150029171,2011-01-26 03:32:40,300.1511023512447,2,19,0.5501165986061096,3.9425785541534415,10.19244186555364,10.078085486629249,41.7868168644099,35.01788554954855,0.0002266406954731,0.1133571565151214,0,0,0
3278,146314.16513773694,2011-01-26 03:33:10,330.1662109222215,2,19,0.5499359965324402,3.949054002761841,10.197028190216011,10.078085486629249,41.80491343257281,35.01788554954855,0.0001618862152099,0.1133571565151214,0,0,0
3279,146344.18023913505,2011-01-26 03:33:40,360.1813123153089,2,19,0.5501165986061096,3.9552056789398193,10.201614499027343,10.078085486629249,41.823039054192925,35.01788554954855,0.0001618862152099,0.1133571565151214,0,0,0
3280,146374.19536540014,2011-01-26 03:34:10,390.1964386054474,2,19,0.550297200679779,3.961195468902588,10.206200936331731,10.078085486629249,41.84119281223319,35.01788554954855,0.0001618862152099,0.1133571565151214,0,0,0
3281,146404.2106028072,2011-01-26 03:34:40,420.2116760826984,2,19,0.5501165986061096,3.966699600219727,10.210787457350792,10.078085486629249,41.85937322082841,35.01788554954855,0.0001618862152099,0.1133571565151214,0,0,0
3282,146434.22580236994,2011-01-26 03:35:10,450.2268755802924,2,19,0.5501165986061096,3.971879959106445,10.215373985997989,10.078085486629249,41.877578588314535,35.01788554954855,0.0001295089750783,0.1133571565151214,0,0,0
3283,146464.24066759442,2011-01-26 03:35:40,480.24174079976245,2,19,0.5501165986061096,3.977060317993164,10.21996048065099,10.078085486629249,41.89580771832226,35.01788554954855,0.0001618862152099,0.1133571565151214,0,0,0
3284,146494.2556914192,2011-01-26 03:36:10,510.25676461951326,2,19,0.5501165986061096,3.981916904449463,10.22454695475658,10.078085486629249,41.91405960144124,35.01788554954855,9.713172767078504e-05,0.1133571565151214,0,0,0
3285,146524.27089347318,2011-01-26 03:36:40,540.2719666534285,2,19,0.5499359965324402,3.986611604690552,10.22913341147914,10.078085486629249,41.93233364933242,35.01788554954855,9.713172767078504e-05,0.1133571565151214,0,0,0
3286,146554.28602004904,2011-01-26 03:37:10,570.2870932393041,2,19,0.5501165986061096,3.991144418716431,10.23371979066044,10.078085486629249,41.95062855992954,35.01788554954855,0.0001295089750783,0.1133571565151214,0,0,0
3287,146584.3033235655,2011-01-26 03:37:40,600.304396760773,2,19,0.550297200679779,3.9956769943237305,10.238306531347131,10.078085486629249,41.96894538428795,35.01788554954855,9.713172767078504e-05,0.1133571565151214,0,0,0
3288,146614.31625237883,2011-01-26 03:38:10,630.3173255741232,2,19,0.5499359965324402,3.99972414970398,10.242892577071512,10.078085486629249,41.98727930190359,35.01788554954855,6.47544875391759e-05,0.1133571565151214,0,0,0
3289,146644.33148030727,2011-01-26 03:38:40,660.3325534975631,2,19,0.5499359965324402,4.004095077514648,10.247478965521896,10.078085486629249,42.00563398233292,35.01788554954855,0.0001295089750783,0.1133571565151214,0,0,0
3290,146674.34660921394,2011-01-26 03:39:10,690.3476824042228,2,19,0.5501165986061096,4.008142471313477,10.252065428556694,10.078085486629249,42.02400785431758,35.01788554954855,0.0001295089750783,0.1133571565151214,0,0,0
3291,146704.3615397412,2011-01-26 03:39:40,720.3626129264475,2,19,0.5499359965324402,4.012027740478516,10.256651844469136,10.078085486629249,42.04239984969096,35.01788554954855,9.71794142969884e-05,0.1133571565151214,0,0,0
3292,146734.37665725447,2011-01-26 03:40:10,750.3777304346987,2,19,0.550297200679779,4.0160746574401855,10.261238275689562,10.078085486629249,42.06081000452955,35.01788554954855,0.0001295089750783,0.1133571565151214,0,0,0
3293,146764.39184011056,2011-01-26 03:40:40,780.3929133910668,2,19,0.5501165986061096,4.019798278808594,10.26582467380193,10.078085486629249,42.07923770713549,35.01788554954855,9.71794142969884e-05,0.1133571565151214,0,0,0
3294,146794.40694095226,2011-01-26 03:41:10,810.4080141375428,2,19,0.5499359965324402,4.023683547973633,10.27041098482974,10.078085486629249,42.09768254881882,35.01788554954855,0.0001295089750783,0.1133571565151214,0,0,0
3295,146824.42205888158,2011-01-26 03:41:40,840.423132091906,2,19,0.5499359965324402,4.027245044708252,10.274997408310794,10.078085486629249,42.11614495021442,35.01788554954855,9.71794142969884e-05,0.1133571565151214,0,0,0
3296,146854.43714830987,2011-01-26 03:42:10,870.4382214951108,2,19,0.5501165986061096,4.030806541442871,10.279583888594695,10.078085486629249,42.1346243842868,35.01788554954855,6.47544875391759e-05,0.1133571565151214,0,0,0
3297,146884.453469894,2011-01-26 03:42:40,900.4545430843026,2,19,0.5501165986061096,4.034691333770752,10.284170450738449,10.078085486629249,42.15312070300036,35.01788554954855,0.0001294136018259,0.1133571565151214,0,0,0
3298,146914.4674416367,2011-01-26 03:43:10,930.4685148319658,2,19,0.5501165986061096,4.03809118270874,10.288756670062172,10.078085486629249,42.17163204058219,35.01788554954855,6.47544875391759e-05,0.1133571565151214,0,0,0
3299,146944.4824851054,2011-01-26 03:43:40,960.4835583006878,2,19,0.550297200679779,4.041652679443359,10.293343083588152,10.078085486629249,42.19016039876542,35.01788554954855,9.71794142969884e-05,0.1133571565151214,0,0,0
3300,146974.4975949345,2011-01-26 03:44:10,990.498668124788,2,19,0.5501165986061096,4.0450520515441895,10.297929514547452,10.078085486629249,42.2087048882836,35.01788554954855,6.47544875391759e-05,0.1133571565151214,0,0,0
3301,147004.5127062824,2011-01-26 03:44:40,1020.5137794626608,2,19,0.5499359965324402,4.048289775848389,10.302516021161091,10.078085486629249,42.22726545218173,35.01788554954855,3.23295607813634e-05,0.1133571565151214,0,0,0
3302,147034.52799444098,2011-01-26 03:45:10,1050.529067641275,2,19,0.5501165986061096,4.051851272583008,10.307102473812384,10.078085486629249,42.2458414518389,35.01788554954855,9.70840483205393e-05,0.1133571565151214,0,0,0
3303,147064.54293440672,2011-01-26 03:45:41,1080.544007586986,2,19,0.5501165986061096,4.055412769317627,10.311688879855447,10.078085486629249,42.26443289424241,35.01788554954855,9.70840483205393e-05,0.1133571565151214,0,0,0
3304,147094.55804876212,2011-01-26 03:46:11,1110.5591219423795,2,19,0.5499359965324402,4.058650493621826,10.316275356519691,10.078085486629249,42.283040067266455,35.01788554954855,9.70840483205393e-05,0.1133571565151214,0,0,0
3305,147124.57328396372,2011-01-26 03:46:41,1140.5743571589962,2,19,0.5501165986061096,4.061888217926025,10.32086201016624,10.078085486629249,42.30166307926219,35.01788554954855,6.47544875391759e-05,0.1133571565151214,0,0,0
3306,147154.58841525132,2011-01-26 03:47:11,1170.58948844659,2,19,0.550297200679779,4.065288066864014,10.325449111116871,10.078085486629249,42.320303175169954,35.01788554954855,9.71794142969884e-05,0.1133571565151214,0,0,0
3307,147184.60361460352,2011-01-26 03:47:41,1200.6046879090966,2,19,0.5501165986061096,4.068525791168213,10.330036262890482,10.078085486629249,42.33895867213218,35.01788554954855,6.47544875391759e-05,0.1133571565151214,0,0,0
3308,147214.61849668002,2011-01-26 03:48:11,1230.6195698652796,2,19,0.5501165986061096,4.071925163269043,10.334623427458926,10.078085486629249,42.35762940677565,35.01788554954855,9.70840483205393e-05,0.1133571565151214,0,0,0
3309,147244.633625717,2011-01-26 03:48:41,1260.6346989273266,2,19,0.5501165986061096,4.075162887573242,10.339210408783876,10.078085486629249,42.37631443191325,35.01788554954855,0.0001295089750783,0.1133571565151214,0,0,0
3310,147274.64881019213,2011-01-26 03:49:11,1290.6498833974674,2,19,0.5501165986061096,4.078400611877441,10.343796781625011,10.078085486629249,42.39501202395597,35.01788554954855,9.70840483205393e-05,0.1133571565151214,0,0,0
3311,147304.66382254832,2011-01-26 03:49:41,1320.6648957536477,2,19,0.5499359965324402,4.08147668838501,10.34838314105034,10.078085486629249,42.41372466989248,35.01788554954855,3.24249267578125e-05,0.1133571565151214,0,0,0
3312,147334.67906872224,2011-01-26 03:50:11,1350.6801419426108,2,19,0.5501165986061096,4.08487606048584,10.35296951429679,10.078085486629249,42.43245240578295,35.01788554954855,6.47544875391759e-05,0.1133571565151214,0,0,0
3313,147364.69405999087,2011-01-26 03:50:41,1380.6951331761468,2,19,0.5501165986061096,4.088275909423828,10.357555817270404,10.078085486629249,42.45119491770097,35.01788554954855,9.71794142969884e-05,0.1133571565151214,0,0,0
3314,147394.709384495,2011-01-26 03:51:11,1410.7104577003454,2,19,0.5501165986061096,4.091513633728027,10.362142236255917,10.078085486629249,42.46995303644281,35.01788554954855,6.47544875391759e-05,0.1133571565151214,0,0,0
3315,147424.7242954986,2011-01-26 03:51:41,1440.7253686788613,2,19,0.5501165986061096,4.094913005828857,10.366728579213206,10.078085486629249,42.48872579056248,35.01788554954855,9.70840483205393e-05,0.1133571565151214,0,0,0
3316,147454.7394080445,2011-01-26 03:52:11,1470.740481249807,2,19,0.5499359965324402,4.098150730133057,10.371314948337846,10.078085486629249,42.50751390942798,35.01788554954855,9.70840483205393e-05,0.1133571565151214,0,0,0
3317,147484.75447958818,2011-01-26 03:52:41,1500.7555527935008,2,19,0.5497553944587708,4.101388454437256,10.375901183922696,10.078085486629249,42.52631668101315,35.01788554954855,6.47544875391759e-05,0.1133571565151214,0,0,0
3318,147514.76959701124,2011-01-26 03:53:11,1530.7706701964896,2,19,0.5499359965324402,4.104788303375244,10.380486758415516,10.078085486629249,42.54513177562826,35.01788554954855,0.0001295089750783,0.1133571565151214,0,0,0
3319,147544.7846953868,2011-01-26 03:53:41,1560.7857685921065,2,19,0.5499359965324402,4.108026027679443,10.385072512755288,10.078085486629249,42.56396291042239,35.01788554954855,3.24249267578125e-05,0.1133571565151214,0,0,0
3320,147574.79981325092,2011-01-26 03:54:11,1590.800886451232,2,19,0.5499359965324402,4.111587524414063,10.389658061585196,10.078085486629249,42.58280849520576,35.01788554954855,0.0001295089750783,0.1133571565151214,0,0,0
3321,147604.81493082433,2011-01-26 03:54:41,1620.816004024646,2,19,0.5499359965324402,4.114663124084473,10.394243633629708,10.078085486629249,42.60166953638922,35.01788554954855,6.47544875391759e-05,0.1133571565151214,0,0,0
3322,147634.8300592448,2011-01-26 03:55:11,1650.8311324300564,2,19,0.5501165986061096,4.118224620819092,10.39882920401266,10.078085486629249,42.62054597194759,35.01788554954855,0.0001295089750783,0.1133571565151214,0,0,0
3323,147664.84510568593,2011-01-26 03:55:41,1680.8461788962493,2,19,0.5499359965324402,4.121462345123291,10.403414795279478,10.078085486629249,42.6394379187115,35.01788554954855,9.71794142969884e-05,0.1133571565151214,0,0,0
3324,147694.86026182043,2011-01-26 03:56:11,1710.8613350257565,2,19,0.5501165986061096,4.12502384185791,10.408001277163564,10.078085486629249,42.65834915748969,35.01788554954855,9.71794142969884e-05,0.1133571565151214,0,0,0
3325,147724.87538003043,2011-01-26 03:56:41,1740.8764532407693,2,19,0.5501165986061096,4.12842321395874,10.412587724843888,10.078085486629249,42.677275781377816,35.01788554954855,9.70840483205393e-05,0.1133571565151214,0,0,0
3326,147754.89052746329,2011-01-26 03:57:11,1770.891600673602,2,19,0.5501165986061096,4.13166093826294,10.417174190162104,10.078085486629249,42.69621810093753,35.01788554954855,6.47544875391759e-05,0.1133571565151214,0,0,0
3327,147784.90560365855,2011-01-26 03:57:41,1800.906676863876,2,19,0.5501165986061096,4.135060787200928,10.421760666053604,10.078085486629249,42.71517619792655,35.01788554954855,6.47544875391759e-05,0.1133571565151214,0,0,0
3328,147814.92071289118,2011-01-26 03:58:11,1830.921786076452,2,19,0.5501165986061096,4.138783931732178,10.42634709304784,10.078085486629249,42.73414998016143,35.01788554954855,0.0001295089750783,0.1133571565151214,0,0,0
3329,147844.93585106093,2011-01-26 03:58:41,1860.936924336423,2,19,0.5501165986061096,4.142183780670166,10.430933605783755,10.078085486629249,42.75314018955008,35.01788554954855,9.71794142969884e-05,0.1133571565151214,0,0,0
3330,147874.95097266938,2011-01-26 03:59:11,1890.952045884744,2,19,0.5501165986061096,4.145745277404785,10.4355201337658,10.078085486629249,42.772146630441846,35.01788554954855,6.47544875391759e-05,0.1133571565151214,0,0,0
3331,147904.96605234838,2011-01-26 03:59:41,1920.9671255386504,2,19,0.5501165986061096,4.149306774139404,10.440106565356205,10.078085486629249,42.79116904644046,35.01788554954855,9.71794142969884e-05,0.1133571565151214,0,0,0
3332,147934.98131323396,2011-01-26 04:00:11,1950.982386434267,2,19,0.5501165986061096,4.152868270874023,10.444692934658262,10.078085486629249,42.81020736136799,35.01788554954855,9.71794142969884e-05,0.1133571565151214,0,0,0
3333,147964.99628418696,2011-01-26 04:00:41,1980.9973573922696,2,19,0.5501165986061096,4.156429767608643,10.44927936294926,10.078085486629249,42.82926208516832,35.01788554954855,9.71794142969884e-05,0.1133571565151214,0,0,0
3334,147995.01144408082,2011-01-26 04:01:11,2011.0125172661096,2,19,0.5499359965324402,4.159667491912842,10.453865817303315,10.078085486629249,42.84833330082227,35.01788554954855,3.24249267578125e-05,0.1133571565151214,0,0,0
3335,148025.02649841667,2011-01-26 04:01:41,2041.0275716019155,2,19,0.5501165986061096,4.163552761077881,10.458452221136028,10.078085486629249,42.86742089221621,35.01788554954855,6.47544875391759e-05,0.1133571565151214,0,0,0
3336,148055.04173223476,2011-01-26 04:02:11,2071.042805420047,2,19,0.5501165986061096,4.167275905609131,10.463038704759269,10.078085486629249,42.8865254124882,35.01788554954855,0.0001295089750783,0.1133571565151214,0,0,0
3337,148085.05674867614,2011-01-26 04:02:41,2101.0578218814585,2,19,0.5499359965324402,4.17083740234375,10.46762517295612,10.078085486629249,42.90564669318022,35.01788554954855,9.70840483205393e-05,0.1133571565151214,0,0,0
3338,148115.0718594827,2011-01-26 04:03:11,2131.0729326930195,2,19,0.550297200679779,4.174561023712158,10.47221160231553,10.078085486629249,42.92478474527348,35.01788554954855,6.47544875391759e-05,0.1133571565151214,0,0,0
3339,148145.08701335156,2011-01-26 04:03:41,2161.088086551868,2,19,0.5501165986061096,4.178446292877197,10.476798047706977,10.078085486629249,42.94393984060499,35.01788554954855,9.71794142969884e-05,0.1133571565151214,0,0,0
3340,148175.10246144372,2011-01-26 04:04:11,2191.1035346690983,2,19,0.5501165986061096,4.182169437408447,10.48138454733238,10.078085486629249,42.96311226068266,35.01788554954855,0.0001295089750783,0.1133571565151214,0,0,0
3341,148205.11717625835,2011-01-26 04:04:41,2221.118249468676,2,19,0.5501165986061096,4.185730934143066,10.485970907814128,10.078085486629249,42.98230128079433,35.01788554954855,9.70840483205393e-05,0.1133571565151214,0,0,0
3342,148235.132434758,2011-01-26 04:05:11,2251.133507973333,2,19,0.5501165986061096,4.1896162033081055,10.490557300869977,10.078085486629249,43.0015079322118,35.01788554954855,9.70840483205393e-05,0.1133571565151214,0,0,0
3343,148265.14739988145,2011-01-26 04:05:41,2281.1484730667203,2,19,0.5499359965324402,4.193339824676514,10.495143709843214,10.078085486629249,43.020732126328745,35.01788554954855,6.47544875391759e-05,0.1133571565151214,0,0,0
3344,148295.1626989021,2011-01-26 04:06:11,2311.1637721976317,2,19,0.5499359965324402,4.197386741638184,10.499730188064694,10.078085486629249,43.03997425327144,35.01788554954855,9.71794142969884e-05,0.1133571565151214,0,0,0
3345,148315.67778096892,2011-01-26 04:06:32,2331.6788541592123,2,19,0.5501165986061096,4.200138568878174,10.502864534382958,10.078085486629249,43.05313420121879,35.01788554954855,0.0001618385285837,0.1133571565151214,0,0,0
3346,148345.69084954046,2011-01-26 04:07:02,30.01525066010673,3,19,0.0,4.089085102081299,10.502864534382958,10.078085486629249,43.05313420121879,35.01788554954855,-0.0004532813909463,0.1133571565151214,0,0,0
3347,148375.70582021275,2011-01-26 04:07:32,60.03022132237268,3,19,0.0,4.075162887573242,10.502864534382958,10.078085486629249,43.05313420121879,35.01788554954855,-0.0002590179501567,0.1133571565151214,0,0,0
3348,148405.72094905423,2011-01-26 04:08:02,90.04535015384496,3,19,0.0,4.066259384155273,10.502864534382958,10.078085486629249,43.05313420121879,35.01788554954855,-0.0002265930233988,0.1133571565151214,0,0,0
3349,148435.68920587626,2011-01-26 04:08:32,120.01360697584748,3,19,0.0,4.060431480407715,10.502864534382958,10.078085486629249,43.05313420121879,35.01788554954855,-6.47544875391759e-05,0.1133571565151214,0,0,0
3350,148435.70469480724,2011-01-26 04:08:32,0.015653107359882,4,19,1.0063356161117554,4.199814796447754,10.502868971673909,10.078085486629249,43.05315283737874,35.01788554954855,-3.24249267578125e-05,0.1133571565151214,0,0,0
3351,148436.47025193617,2011-01-26 04:08:33,0.7812102312687,4,19,0.9554038047790528,4.199653148651123,10.503075966202047,10.078085486629249,43.054022179914696,35.01788554954855,-6.47544875391759e-05,0.1133571565151214,0,0,0
3352,148438.51710477323,2011-01-26 04:08:35,2.82806309841451,4,19,0.905375063419342,4.199814796447754,10.503603792846604,10.078085486629249,43.05623897335113,35.01788554954855,-3.24249267578125e-05,0.1133571565151214,0,0,0
3353,148441.6889368547,2011-01-26 04:08:38,5.999895159859959,4,19,0.8549850583076477,4.199653148651123,10.504378116699272,10.078085486629249,43.059491032236,35.01788554954855,-3.23295607813634e-05,0.1133571565151214,0,0,0
3354,148446.0950905003,2011-01-26 04:08:42,10.406048805484437,4,19,0.804956316947937,4.199814796447754,10.505392674000872,10.078085486629249,43.06375203476527,35.01788554954855,-3.24249267578125e-05,0.1133571565151214,0,0,0
3355,148451.98562936566,2011-01-26 04:08:48,16.29658766078534,4,19,0.7547469139099121,4.199653148651123,10.506667129905113,10.078085486629249,43.06910456967047,35.01788554954855,-3.23295607813634e-05,0.1133571565151214,0,0,0
3356,148459.82924243787,2011-01-26 04:08:56,24.140200743005643,4,19,0.704537570476532,4.199814796447754,10.50825450677949,10.078085486629249,43.07577137699716,35.01788554954855,-3.24249267578125e-05,0.1133571565151214,0,0,0
3357,148470.360429341,2011-01-26 04:09:07,34.67138765615842,4,19,0.6545087695121765,4.199814796447754,10.510238743537972,10.078085486629249,43.08410494292814,35.01788554954855,0.0,0.1133571565151214,0,0,0
3358,148485.62566862427,2011-01-26 04:09:22,49.93662694446158,4,19,0.6044800281524658,4.199814796447754,10.512901121866731,10.078085486629249,43.09528660262242,35.01788554954855,0.0,0.1133571565151214,0,0,0
3359,148509.62525641656,2011-01-26 04:09:46,73.93621474174095,4,19,0.5544512271881104,4.199814796447754,10.516750946616964,10.078085486629249,43.11145545702593,35.01788554954855,-3.24249267578125e-05,0.1133571565151214,0,0,0
3360,148555.42135232364,2011-01-26 04:10:32,119.73231061877294,4,19,0.5044224858283997,4.199814796447754,10.523451951133593,10.078085486629249,43.13959894289078,35.01788554954855,0.0,0.1133571565151214,0,0,0
3361,148642.63861534416,2011-01-26 04:11:59,206.949573669376,4,19,0.4543936848640442,4.199814796447754,10.53501370329716,10.078085486629249,43.18815702241868,35.01788554954855,-3.24249267578125e-05,0.1133571565151214,0,0,0
3362,148772.43328265694,2011-01-26 04:14:09,336.7442409771276,4,19,0.4043649137020111,4.199976921081543,10.550463432037883,10.078085486629249,43.25304410531672,35.01788554954855,0.0,0.1133571565151214,0,0,0
3363,148934.71176965337,2011-01-26 04:16:51,499.0227279685524,4,19,0.3543361723423004,4.199814796447754,10.567540199447944,10.078085486629249,43.32476460750651,35.01788554954855,0.0,0.1133571565151214,0,0,0
3364,149129.61472718872,2011-01-26 04:20:06,693.9256854838212,4,19,0.3043074011802673,4.199814796447754,10.5853397252525,10.078085486629249,43.399520635413445,35.01788554954855,3.23295607813634e-05,0.1133571565151214,0,0,0
3365,149367.50135917647,2011-01-26 04:24:04,931.812317496684,4,19,0.2542786300182342,4.199814796447754,10.603760992748162,10.078085486629249,43.47688769872929,35.01788554954855,0.0,0.1133571565151214,0,0,0
3366,149665.05864546,2011-01-26 04:29:01,1229.3696037801908,4,19,0.2042498439550399,4.199814796447754,10.622661118085846,10.078085486629249,43.55626594564123,35.01788554954855,0.0,0.1133571565151214,0,0,0
3367,150057.23960327797,2011-01-26 04:35:34,1621.5505615931245,4,19,0.1542210727930069,4.199653148651123,10.642087444607483,10.078085486629249,43.63785432995087,35.01788554954855,-3.23295607813634e-05,0.1133571565151214,0,0,0
3368,150621.46418744428,2011-01-26 04:44:58,2185.775145764444,4,19,0.1041923090815544,4.199653148651123,10.662104005014209,10.078085486629249,43.72192143446932,35.01788554954855,-3.23295607813634e-05,0.1133571565151214,0,0,0
3369,151668.80601789977,2011-01-26 05:02:25,3233.116976235001,4,19,0.0541635416448116,4.199653148651123,10.684280311638108,10.078085486629249,43.81505914780772,35.01788554954855,0.0,0.1133571565151214,0,0,0
3370,151820.80328922332,2011-01-26 05:04:57,3385.114247548506,4,19,0.0498289167881011,4.199814796447754,10.686494069873367,10.078085486629249,43.82435665817849,35.01788554954855,-3.24249267578125e-05,0.1133571565151214,0,0,0
3371,151850.815522425,2011-01-26 05:05:27,30.01725765716093,5,19,0.0,4.189454555511475,10.686494069873367,10.078085486629249,43.82435665817849,35.01788554954855,-3.23295607813634e-05,0.1133571565151214,0,0,0
3372,151880.8150106503,2011-01-26 05:05:57,60.01674579721768,5,19,0.0,4.187511920928955,10.686494069873367,10.078085486629249,43.82435665817849,35.01788554954855,-3.23295607813634e-05,0.1133571565151214,0,0,0
3373,151880.99642681034,2011-01-26 05:05:58,0.18749598267991,6,19,-1.9243103452026844e-05,4.187511920928955,10.686494069873367,10.078085487631473,43.82435665817849,35.01788555374537,0.0,0.1174056306481361,0,0,0
3374,151885.82447555335,2011-01-26 05:06:02,5.015544725700979,6,19,0.0005225847125984,4.187511920928955,10.686494920235203,10.078085487798871,43.82436021924025,35.01788555444639,-6.47544875391759e-05,0.1174056306481361,0,0,0
3375,151896.78921337804,2011-01-26 05:06:13,10.968540698355902,7,19,-1.099568486213684,3.9874210357666016,10.686494920235203,10.081435617959103,43.82436021924025,35.03129762756361,-0.0020720958709716,0.1174056306481361,0,0,0
3376,151926.80432116208,2011-01-26 05:06:43,40.983648487383945,7,19,-1.0993878841400146,3.923961639404297,10.686494920235203,10.090602997909846,43.82436021924025,35.067552969748434,-0.0016188621520996,0.1174056306481361,0,0,0
3377,151956.8194324047,2011-01-26 05:07:13,70.99875971999444,7,19,-1.0993878841400146,3.86811113357544,10.686494920235203,10.099770349669592,43.82436021924025,35.1032633070939,-0.0013922214275225,0.1174056306481361,0,0,0
3378,151986.83456668977,2011-01-26 05:07:43,101.01389401007124,7,19,-1.099568486213684,3.81986927986145,10.686494920235203,10.10893771994698,43.82436021924025,35.13849488403218,-0.0011655807029455,0.1174056306481361,0,0,0
3379,152016.84968448876,2011-01-26 05:08:14,131.02901182909713,7,19,-1.0997490882873535,3.782149791717529,10.686494920235203,10.118105123763486,43.82436021924025,35.17333373030858,-0.0009713172912597,0.1174056306481361,0,0,0
3380,152046.86478213753,2011-01-26 05:08:44,161.04410945279002,7,19,-1.0993878841400146,3.7531721591949454,10.686494920235203,10.127272455092436,43.82436021924025,35.20786843560243,-0.0006799221155233,0.1174056306481361,0,0,0
3381,152076.87989881367,2011-01-26 05:09:14,191.05922613398005,7,19,-1.0993878841400146,3.729051351547241,10.686494920235203,10.136439865101314,43.82436021924025,35.24216118195646,-0.0005827903514727,0.1174056306481361,0,0,0
3382,152106.8950172392,2011-01-26 05:09:44,221.0743445645301,7,19,-1.099568486213684,3.708815574645996,10.686494920235203,10.145607204391707,43.82436021924025,35.276252767658605,-0.0005180359003134,0.1174056306481361,0,0,0
3383,152136.91011733408,2011-01-26 05:10:14,251.08944465938183,7,19,-1.0993878841400146,3.6911699771881104,10.686494920235203,10.154774591988618,43.82436021924025,35.31017091803358,-0.0004532813909463,0.1174056306481361,0,0,0
3384,152166.9252532983,2011-01-26 05:10:44,281.1045806486937,7,19,-1.099568486213684,3.674981355667114,10.686494920235203,10.163941967026714,43.82436021924025,35.34393415045917,-0.0004209041653666,0.1174056306481361,0,0,0
3385,152196.9403615084,2011-01-26 05:11:14,311.11968882368365,7,19,-1.0997490882873535,3.659926176071167,10.686494920235203,10.173109345806282,43.82436021924025,35.37755533016631,-0.0004209041653666,0.1174056306481361,0,0,0
3386,152226.95549749772,2011-01-26 05:11:44,341.1348248330454,7,19,-1.0993878841400146,3.64616584777832,10.686494920235203,10.182276708529969,43.82436021924025,35.41104447170656,-0.0003885269106831,0.1174056306481361,0,0,0
3387,152256.9705659637,2011-01-26 05:12:14,371.14989330909344,7,19,-1.099568486213684,3.6330530643463135,10.686494920235203,10.19144404604816,43.82436021924025,35.44440905993589,-0.0003237724304199,0.1174056306481361,0,0,0
3388,152286.98592017192,2011-01-26 05:12:44,401.1652474972239,7,19,-1.0993878841400146,3.6205878257751465,10.686494920235203,10.200611451526305,43.82436021924025,35.477656801858025,-0.0002913951757363,0.1174056306481361,0,0,0
3389,152317.00093158073,2011-01-26 05:13:14,431.18025891606766,7,19,-1.099568486213684,3.60860824584961,10.686494920235203,10.209778793970797,43.82436021924025,35.5107931456765,-0.0003237724304199,0.1174056306481361,0,0,0
3390,152347.0162018146,2011-01-26 05:13:44,461.1955291399333,7,19,-1.0997490882873535,3.597114324569702,10.686494920235203,10.218946245425464,43.82436021924025,35.54382268105103,-0.0003237724304199,0.1174056306481361,0,0,0
3391,152377.03114813622,2011-01-26 05:14:14,491.2104754615349,7,19,-1.099568486213684,3.586106300354004,10.686494920235203,10.22811359905996,43.82436021924025,35.576748579389985,-0.0002913951757363,0.1174056306481361,0,0,0
3392,152407.04612957034,2011-01-26 05:14:44,521.2254568856226,7,19,-1.0993878841400146,3.5755836963653564,10.686494920235203,10.23728097387154,43.82436021924025,35.609574467137165,-0.0002266406954731,0.1174056306481361,0,0,0
3393,152437.06130531375,2011-01-26 05:15:14,551.2406326590889,7,19,-1.099568486213684,3.565061092376709,10.686494920235203,10.246448345442303,43.82436021924025,35.64230422039297,-0.0003237724304199,0.1174056306481361,0,0,0
3394,152467.07651650044,2011-01-26 05:15:44,581.2558438257657,7,19,-1.0997490882873535,3.5553479194641118,10.686494920235203,10.255615750936768,43.82436021924025,35.67494282136735,-0.0002590179501567,0.1174056306481361,0,0,0
3395,152497.09147096233,2011-01-26 05:16:14,611.2707982926678,7,19,-1.099568486213684,3.545796632766724,10.686494920235203,10.264783099149591,43.82436021924025,35.70749253293322,-0.0002590179501567,0.1174056306481361,0,0,0
3396,152527.10671238945,2011-01-26 05:16:44,641.2860397147506,7,19,-1.099568486213684,3.536569118499756,10.686494920235203,10.273950509935547,43.82436021924025,35.73995691643241,-0.0002913951757363,0.1174056306481361,0,0,0
3397,152557.12169526715,2011-01-26 05:17:14,671.3010225924612,7,19,-1.099568486213684,3.527827262878418,10.686494920235203,10.28311788095705,43.82436021924025,35.772337843740914,-0.0002266406954731,0.1174056306481361,0,0,0
3398,152587.13682939683,2011-01-26 05:17:44,701.3161567121133,7,19,-1.099568486213684,3.51924729347229,10.686494920235203,10.292285284128004,43.82436021924025,35.80463859248984,-0.0001942634553415,0.1174056306481361,0,0,0
3399,152617.15226869707,2011-01-26 05:18:14,731.3315961276567,7,19,-1.099568486213684,3.510991334915161,10.686494920235203,10.301452793655589,43.82436021924025,35.836862537268416,-0.0001942157687153,0.1174056306481361,0,0,0
3400,152647.16743981393,2011-01-26 05:18:44,761.346767264567,7,19,-1.099568486213684,3.502573251724243,10.686494920235203,10.310620225596317,43.82436021924025,35.86901031369982,-0.0002590179501567,0.1174056306481361,0,0,0
3401,152677.1821671648,2011-01-26 05:19:14,791.3614944851013,7,19,-1.099568486213684,3.494802713394165,10.686494920235203,10.319787563823896,43.82436021924025,35.90108404325915,-0.0002266406954731,0.1174056306481361,0,0,0
3402,152707.19728045756,2011-01-26 05:19:44,821.3766077778463,7,19,-1.0997490882873535,3.487194061279297,10.686494920235203,10.328955016595208,43.82436021924025,35.93308829641945,-0.0002266406954731,0.1174056306481361,0,0,0
3403,152737.2123741364,2011-01-26 05:20:14,851.391701451695,7,19,-1.099568486213684,3.4795854091644287,10.686494920235203,10.338122484933043,43.82436021924025,35.96502381994327,-0.0002266406954731,0.1174056306481361,0,0,0
3404,152767.2276161199,2011-01-26 05:20:44,881.4069434552268,7,19,-1.0993878841400146,3.4726243019104004,10.686494920235203,10.347289929331934,43.82436021924025,35.99689136595421,-0.0001942634553415,0.1174056306481361,0,0,0
3405,152797.242559444,2011-01-26 05:21:14,911.4218867693328,7,19,-1.0993878841400146,3.465339422225952,10.686494920235203,10.35645773504411,43.82436021924025,36.028693244471576,-0.0001942634553415,0.1174056306481361,0,0,0
3406,152827.25769539824,2011-01-26 05:21:44,941.4370227385948,7,19,-1.099568486213684,3.458216428756714,10.686494920235203,10.365625922817111,43.82436021924025,36.06043049625938,-0.0001618862152099,0.1174056306481361,0,0,0
3407,152857.27282387382,2011-01-26 05:22:14,971.4521512091676,7,19,-1.099568486213684,3.451093435287476,10.686494920235203,10.374793925523974,43.82436021924025,36.09210270443041,-0.0001942634553415,0.1174056306481361,0,0,0
3408,152887.28792181332,2011-01-26 05:22:44,1001.4672491486474,7,19,-1.099568486213684,3.4439704418182373,10.686494920235203,10.38396206650121,43.82436021924025,36.123709977172105,-0.0001942634553415,0.1174056306481361,0,0,0
3409,152917.30296847498,2011-01-26 05:23:14,1031.4822958353898,7,19,-1.0997490882873535,3.436523675918579,10.686494920235203,10.393130212919994,43.82436021924025,36.15525086524948,-0.0001942634553415,0.1174056306481361,0,0,0
3410,152947.31815608795,2011-01-26 05:23:44,1061.4974834082636,7,19,-1.099568486213684,3.42923903465271,10.686494920235203,10.402298366341508,43.82436021924025,36.18672394085275,-0.0001942634553415,0.1174056306481361,0,0,0
3411,152977.33319381237,2011-01-26 05:24:14,1091.5125211326692,7,19,-1.0993878841400146,3.421792268753052,10.686494920235203,10.411466099864253,43.82436021924025,36.21812809651448,-0.0001942634553415,0.1174056306481361,0,0,0
3412,153007.34857532862,2011-01-26 05:24:44,1121.527902663947,7,19,-1.099568486213684,3.4143455028533936,10.686494920235203,10.420633502720325,43.82436021924025,36.24946255642365,-0.0001618862152099,0.1174056306481361,0,0,0
3413,153037.36356286294,2011-01-26 05:25:14,1151.542890203276,7,19,-1.0993878841400146,3.406413078308105,10.686494920235203,10.429800766280804,43.82436021924025,36.280725683622165,-0.0001942634553415,0.1174056306481361,0,0,0
3414,153067.3787470273,2011-01-26 05:25:44,1181.5580743676549,7,19,-1.099568486213684,3.398156881332397,10.686494920235203,10.438968144346168,43.82436021924025,36.31191618935214,-0.0002913951757363,0.1174056306481361,0,0,0
3415,153097.3938373979,2011-01-26 05:26:14,1211.573164743283,7,19,-1.0997490882873535,3.389576911926269,10.686494920235203,10.448135444407187,43.82436021924025,36.34303065537812,-0.0002590179501567,0.1174056306481361,0,0,0
3416,153127.4090685093,2011-01-26 05:26:44,1241.588395849656,7,19,-1.099568486213684,3.3806731700897217,10.686494920235203,10.45730281120318,43.82436021924025,36.37406448766408,-0.0002590179501567,0.1174056306481361,0,0,0
3417,153157.4239428114,2011-01-26 05:27:14,1271.603270136725,7,19,-1.099568486213684,3.371607542037964,10.686494920235203,10.466470006075475,43.82436021924025,36.40501466446884,-0.0002590179501567,0.1174056306481361,0,0,0
3418,153187.43894149852,2011-01-26 05:27:44,1301.6182688188255,7,19,-1.099568486213684,3.361732482910156,10.686494920235203,10.475637260258724,43.82436021924025,36.43587774835317,-0.0002590179501567,0.1174056306481361,0,0,0
3419,153217.45425833858,2011-01-26 05:28:14,1331.6335856638852,7,19,-1.0993878841400146,3.351047992706299,10.686494920235203,10.484804640594245,43.82436021924025,36.46664786260546,-0.0003237724304199,0.1174056306481361,0,0,0
3420,153247.46957386535,2011-01-26 05:28:44,1361.6489012157224,7,19,-1.099568486213684,3.3400399684906006,10.686494920235203,10.49397211763814,43.82436021924025,36.49731828322387,-0.0002913951757363,0.1174056306481361,0,0,0
3421,153277.48461972503,2011-01-26 05:29:14,1391.6639470703908,7,19,-1.0997490882873535,3.327412843704224,10.686494920235203,10.50313947328349,43.82436021924025,36.527879524145725,-0.0003561496851034,0.1174056306481361,0,0,0
3422,153307.49975969424,2011-01-26 05:29:44,1421.6790870145594,7,19,-1.099568486213684,3.314138174057007,10.686494920235203,10.51230685460575,43.82436021924025,36.55832285183213,-0.0003561496851034,0.1174056306481361,0,0,0
3423,153337.51464702384,2011-01-26 05:30:14,1451.6939743441346,7,19,-1.0993878841400146,3.2990827560424805,10.686494920235203,10.521474101733316,43.82436021924025,36.58863665870639,-0.0004209041653666,0.1174056306481361,0,0,0
3424,153367.5298817442,2011-01-26 05:30:44,1481.7092090745396,7,19,-1.0997490882873535,3.2828941345214844,10.686494920235203,10.530641442823647,43.82436021924025,36.61880880785787,-0.0004856586456298,0.1174056306481361,0,0,0
3425,153397.54486723343,2011-01-26 05:31:14,1511.7241945587464,7,19,-1.099568486213684,3.264439344406128,10.686494920235203,10.539808664821868,43.82436021924025,36.648822220872844,-0.0005504131549969,0.1174056306481361,0,0,0
3426,153427.55999188448,2011-01-26 05:31:44,1541.7393191997749,7,19,-1.099568486213684,3.243232250213623,10.686494920235203,10.548975953052835,43.82436021924025,36.67865408007832,-0.0006475448608398,0.1174056306481361,0,0,0
3427,153457.5773464933,2011-01-26 05:32:14,1571.7566739238564,7,19,-1.099568486213684,3.217978000640869,10.686494920235203,10.558143991847343,43.82436021924025,36.708276190379706,-0.0007122993702068,0.1174056306481361,0,0,0
3428,153487.59036669438,2011-01-26 05:32:44,1601.7696940547985,7,19,-1.0993878841400146,3.188029289245605,10.686494920235203,10.567310685810902,43.82436021924025,36.73764309205836,-0.0009065151098184,0.1174056306481361,0,0,0
3429,153517.60533245944,2011-01-26 05:33:14,1631.7846597797588,7,19,-1.099568486213684,3.1499860286712646,10.686494920235203,10.576478026525622,43.82436021924025,36.76670136030168,-0.0011332035064697,0.1174056306481361,0,0,0
3430,153547.62053001722,2011-01-26 05:33:44,1661.7998573425305,7,19,-1.0997490882873535,3.101258516311645,10.686494920235203,10.58564537709513,43.82436021924025,36.795364905005655,-0.0014569759368896,0.1174056306481361,0,0,0
3431,153577.63554541598,2011-01-26 05:34:14,1691.814872731269,7,19,-1.0993878841400146,3.0360183715820312,10.686494920235203,10.594812836866003,43.82436021924025,36.82351225681701,-0.0019750117789953,0.1174056306481361,0,0,0
3432,153607.65065266364,2011-01-26 05:34:44,1721.8299800090224,7,19,-1.0997490882873535,2.944067478179932,10.686494920235203,10.603981013768871,43.82436021924025,36.850949762403545,-0.0028167725540697,0.1174056306481361,0,0,0
3433,153637.6657667584,2011-01-26 05:35:14,1751.8450941137914,7,19,-1.099568486213684,2.8129398822784424,10.686494920235203,10.613149145857752,43.82436021924025,36.87737391084725,-0.0039500235579907,0.1174056306481361,0,0,0
3434,153657.68119471346,2011-01-26 05:35:34,1771.860522063836,7,19,-1.099568486213684,2.699943780899048,10.686494920235203,10.619262874064116,43.82436021924025,36.89423386934382,-0.0047917841002345,0.1174056306481361,0,0,0
3435,153717.69085709276,2011-01-26 05:36:34,60.01462170833462,8,19,0.0,3.655231475830078,10.686494920235203,10.619262948632716,43.82436021924025,36.89423407067484,0.0011979580158367,0.1174056306481361,0,0,0
3436,153717.87454096598,2011-01-26 05:36:35,0.187502178120855,9,19,-1.9243103452026844e-05,3.655393362045288,10.686494920235203,10.619262949634972,43.82436021924025,36.894234074338485,0.0,0.1124458834528923,0,0,0
3437,153722.70282577234,2011-01-26 05:36:40,5.01578700954687,9,19,0.0007031940040178,3.6625163555145264,10.686495778394326,10.619262949719664,43.82436335960186,36.89423407464806,0.0010360718006268,0.1124458834528923,0,0,0
