Data_Point,Test_Time(s),Date_Time,Step_Time(s),Step_Index,Cycle_Index,Current(A),Voltage(V),Charge_Capacity(Ah),Discharge_Capacity(Ah),Charge_Energy(Wh),Discharge_Energy(Wh),dV/dt(V/s),Internal_Resistance(Ohm),Is_FC_Data,AC_Impedance(Ohm),ACI_Phase_Angle(Deg)
3788,169453.3870433339,2011-01-26 09:58:53,30.01527744686758,1,22,0.0,3.6908462047576895,11.768989558890455,11.70128241258813,48.2667690982505,40.64760447324111,0.0006151676061563,0.1127511709928512,0,0,0
3789,169483.40221275657,2011-01-26 09:59:23,60.03044693466794,1,22,0.0,3.708329916000366,11.768989558890455,11.70128241258813,48.2667690982505,40.64760447324111,0.0003885269106831,0.1127511709928512,0,0,0
3790,169513.41711134923,2011-01-26 09:59:53,90.04534536190197,1,22,0.0,3.7206332683563232,11.768989558890455,11.70128241258813,48.2667690982505,40.64760447324111,0.0002913951757363,0.1127511709928512,0,0,0
3791,169543.38534250224,2011-01-26 10:00:23,120.01357649487954,1,22,0.0,3.729213237762451,11.768989558890455,11.70128241258813,48.2667690982505,40.64760447324111,0.0001295089750783,0.1127511709928512,0,0,0
3792,169573.4003758086,2011-01-26 10:00:53,30.014951840355963,2,22,0.5501165986061096,3.8467421531677246,11.77357570591474,11.70128241258813,48.28433220329705,40.64760447324111,0.0007122993702068,0.1127511709928512,0,0,0
3793,169603.41559567192,2011-01-26 10:01:23,60.03017168365773,2,22,0.5501165986061096,3.86649227142334,11.77816215907726,11.70128241258813,48.30202363350275,40.64760447324111,0.0004532813909463,0.1127511709928512,0,0,0
3794,169633.4305954969,2011-01-26 10:01:53,90.04517159883093,2,22,0.5499359965324402,3.8802525997161865,11.782748603022858,11.70128241258813,48.31979001106053,40.64760447324111,0.0003237724304199,0.1127511709928512,0,0,0
3795,169663.44586195136,2011-01-26 10:02:23,120.06043797811468,2,22,0.5501165986061096,3.891584634780884,11.787335025861008,11.70128241258813,48.33761327303704,40.64760447324111,0.0002590179501567,0.1127511709928512,0,0,0
3796,169693.4608183982,2011-01-26 10:02:53,150.07539440991394,2,22,0.5501165986061096,3.9012978076934814,11.791921392376665,11.70128241258813,48.35548411372468,40.64760447324111,0.0002266406954731,0.1127511709928512,0,0,0
3797,169723.47633278056,2011-01-26 10:03:23,180.09090881736017,2,22,0.5499359965324402,3.910201549530029,11.796507886074092,11.70128241258813,48.37339804227685,40.64760447324111,0.0002266406954731,0.1127511709928512,0,0,0
3798,169753.49107431175,2011-01-26 10:03:53,210.10565032349857,2,22,0.5499359965324402,3.918295621871948,11.801094272489784,11.70128241258813,48.39135030252914,40.64760447324111,0.0002266406954731,0.1127511709928512,0,0,0
3799,169783.50640951257,2011-01-26 10:04:23,240.12098555939417,2,22,0.5501165986061096,3.925904273986816,11.805680702547557,11.70128241258813,48.40933898053892,40.64760447324111,0.0001942634553415,0.1127511709928512,0,0,0
3800,169813.52127805032,2011-01-26 10:04:53,270.1358540820969,2,22,0.5501165986061096,3.9333510398864746,11.810267016383438,11.70128241258813,48.42736124143108,40.64760447324111,0.0001942634553415,0.1127511709928512,0,0,0
3801,169843.5365239636,2011-01-26 10:05:23,300.1510999903606,2,22,0.5497553944587708,3.939988374710083,11.81485345929292,11.70128241258813,48.44541632175288,40.64760447324111,0.0001618862152099,0.1127511709928512,0,0,0
3802,169873.5515132924,2011-01-26 10:05:53,330.16608929909927,2,22,0.5499359965324402,3.9464638233184814,11.81943988245764,11.70128241258813,48.46350205968001,40.64760447324111,0.0001295089750783,0.1127511709928512,0,0,0
3803,169903.5668852197,2011-01-26 10:06:23,360.18146123145374,2,22,0.5501165986061096,3.95277738571167,11.824026344305086,11.70128241258813,48.48161710539386,40.64760447324111,0.0001942634553415,0.1127511709928512,0,0,0
3804,169933.58174660965,2011-01-26 10:06:53,390.196322626392,2,22,0.5501165986061096,3.958605289459229,11.828612793933624,11.70128241258813,48.49975961058337,40.64760447324111,0.0001295089750783,0.1127511709928512,0,0,0
3805,169963.59686163173,2011-01-26 10:07:23,420.21143764844686,2,22,0.5501165986061096,3.964271306991577,11.833199223892969,11.70128241258813,48.51792826292928,40.64760447324111,0.0001618862152099,0.1127511709928512,0,0,0
3806,169993.61199983154,2011-01-26 10:07:53,450.22657585829296,2,22,0.5501165986061096,3.969451665878296,11.837785707249315,11.70128241258813,48.53612220373202,40.64760447324111,0.0001295089750783,0.1127511709928512,0,0,0
3807,170023.62710871326,2011-01-26 10:08:23,480.2416847250069,2,22,0.5501165986061096,3.9747939109802246,11.84237216998439,11.70128241258813,48.55433998745366,40.64760447324111,0.0001295089750783,0.1127511709928512,0,0,0
3808,170053.6444299138,2011-01-26 10:08:53,510.2590059305499,2,22,0.5501165986061096,3.9794886112213135,11.846958947975263,11.70128241258813,48.57258176256958,40.64760447324111,0.0001295089750783,0.1127511709928512,0,0,0
3809,170083.65750039025,2011-01-26 10:09:23,540.2720764169932,2,22,0.5501165986061096,3.9841833114624015,11.851544997719133,11.70128241258813,48.59084267825772,40.64760447324111,0.0001295089750783,0.1127511709928512,0,0,0
3810,170113.6724389926,2011-01-26 10:09:53,570.2870149993059,2,22,0.5501165986061096,3.988716125488281,11.85613133209726,11.70128241258813,48.60912572663735,40.64760447324111,0.0001295089750783,0.1127511709928512,0,0,0
3811,170143.68769258,2011-01-26 10:10:23,600.3022686067583,2,22,0.5499359965324402,3.9927632808685294,11.860717666702444,11.70128241258813,48.62742892725952,40.64760447324111,6.47544875391759e-05,0.1127511709928512,0,0,0
3812,170173.70266504175,2011-01-26 10:10:53,630.3172410584842,2,22,0.5501165986061096,3.99729585647583,11.865303971164726,11.70128241258813,48.64575169586914,40.64760447324111,0.0001295089750783,0.1127511709928512,0,0,0
3813,170203.71780536187,2011-01-26 10:11:23,660.3323814036521,2,22,0.5499359965324402,4.001343250274658,11.869890345398863,11.70128241258813,48.66409385350971,40.64760447324111,9.71794142969884e-05,0.1127511709928512,0,0,0
3814,170233.73289760714,2011-01-26 10:11:53,690.3474736238779,2,22,0.5501165986061096,4.005390167236328,11.874476700458285,11.70128241258813,48.68245474087606,40.64760447324111,9.70840483205393e-05,0.1127511709928512,0,0,0
3815,170263.74803069924,2011-01-26 10:12:23,720.3626067109566,2,22,0.5501165986061096,4.009275436401367,11.879063078103323,11.70128241258813,48.70083404739571,40.64760447324111,9.70840483205393e-05,0.1127511709928512,0,0,0
3816,170293.76312419263,2011-01-26 10:12:53,750.3777001943306,2,22,0.5501165986061096,4.013160705566406,11.883649360362078,11.70128241258813,48.719230944718525,40.64760447324111,9.70840483205393e-05,0.1127511709928512,0,0,0
3817,170323.77845196493,2011-01-26 10:13:23,780.3930280267743,2,22,0.5501165986061096,4.017045974731445,11.888235776035383,11.70128241258813,48.73764598059651,40.64760447324111,9.70840483205393e-05,0.1127511709928512,0,0,0
3818,170353.7956416928,2011-01-26 10:13:53,810.4102177045097,2,22,0.5499359965324402,4.0207695960998535,11.892822451588556,11.70128241258813,48.75607934691256,40.64760447324111,9.71794142969884e-05,0.1127511709928512,0,0,0
3819,170383.80850342897,2011-01-26 10:14:23,840.4230794507079,2,22,0.5501165986061096,4.024331092834473,11.89740841487312,11.70128241258813,48.77452692851739,40.64760447324111,6.47544875391759e-05,0.1127511709928512,0,0,0
3820,170413.8236236339,2011-01-26 10:14:53,870.4381996556804,2,22,0.5501165986061096,4.028054237365723,11.901994702174065,11.70128241258813,48.79299242573818,40.64760447324111,0.0001295089750783,0.1127511709928512,0,0,0
3821,170443.83870565373,2011-01-26 10:15:23,900.4532816654586,2,22,0.5495747923851013,4.031454086303711,11.906581006325013,11.70128241258813,48.81147452502822,40.64760447324111,6.47544875391759e-05,0.1127511709928512,0,0,0
3822,170473.853821964,2011-01-26 10:15:53,930.4683979757242,2,22,0.5501165986061096,4.035177230834961,11.91116734135836,11.70128241258813,48.829972931555645,40.64760447324111,9.71794142969884e-05,0.1127511709928512,0,0,0
3823,170503.868959828,2011-01-26 10:16:23,960.4835358346955,2,22,0.5499359965324402,4.038576602935791,11.915753686578364,11.70128241258813,48.84848735969051,40.64760447324111,9.70840483205393e-05,0.1127511709928512,0,0,0
3824,170533.88417629787,2011-01-26 10:16:54,990.4987523146148,2,22,0.5501165986061096,4.041976451873779,11.9203401568405,11.70128241258813,48.86701796806318,40.64760447324111,9.71794142969884e-05,0.1127511709928512,0,0,0
3825,170563.89916711036,2011-01-26 10:17:24,1020.513743122089,2,22,0.5501165986061096,4.045375823974609,11.924926424877825,11.70128241258813,48.885563288332655,40.64760447324111,9.70840483205393e-05,0.1127511709928512,0,0,0
3826,170593.91435606667,2011-01-26 10:17:54,1050.5289320934482,2,22,0.550297200679779,4.0489373207092285,11.929512795981728,11.70128241258813,48.90412453623382,40.64760447324111,0.0001295089750783,0.1127511709928512,0,0,0
3827,170623.92943845742,2011-01-26 10:18:24,1080.5440144891884,2,22,0.5501165986061096,4.052013397216797,11.934099196646716,11.70128241258813,48.9227012603212,40.64760447324111,6.47544875391759e-05,0.1127511709928512,0,0,0
3828,170653.94451414145,2011-01-26 10:18:54,1110.5590901581634,2,22,0.5499359965324402,4.055412769317627,11.938685587094168,11.70128241258813,48.94129318078641,40.64760447324111,0.0001295089750783,0.1127511709928512,0,0,0
3829,170683.95976677645,2011-01-26 10:19:24,1140.574342798205,2,22,0.5501165986061096,4.058650493621826,11.94327198423866,11.70128241258813,48.95990031166173,40.64760447324111,6.47544875391759e-05,0.1127511709928512,0,0,0
3830,170713.97474879702,2011-01-26 10:19:54,1170.589324808754,2,22,0.5501165986061096,4.061888217926025,11.947858342700552,11.70128241258813,48.97852216771904,40.64760447324111,9.70840483205393e-05,0.1127511709928512,0,0,0
3831,170743.9900204946,2011-01-26 10:20:24,1200.604596526343,2,22,0.5499359965324402,4.065125942230225,11.952444663246734,11.70128241258813,48.99715881328011,40.64760447324111,9.70840483205393e-05,0.1127511709928512,0,0,0
3832,170774.0049820842,2011-01-26 10:20:54,1230.6195580909343,2,22,0.5501165986061096,4.068202018737793,11.957030911409095,11.70128241258813,49.01581022179421,40.64760447324111,0.0,0.1127511709928512,0,0,0
3833,170804.02022060406,2011-01-26 10:21:24,1260.6347966308338,2,22,0.5499359965324402,4.071601390838623,11.961617259723209,11.70128241258813,49.03447709807063,40.64760447324111,6.47544875391759e-05,0.1127511709928512,0,0,0
3834,170834.03536126504,2011-01-26 10:21:54,1290.6499372968012,2,22,0.550297200679779,4.075162887573242,11.966203517662173,11.70128241258813,49.053158509221824,40.64760447324111,0.0001295089750783,0.1127511709928512,0,0,0
3835,170864.0505477101,2011-01-26 10:22:24,1320.6651237117894,2,22,0.5499359965324402,4.0780768394470215,11.970789856772928,11.70128241258813,49.07185512370447,40.64760447324111,3.23295607813634e-05,0.1127511709928512,0,0,0
3836,170894.06543209232,2011-01-26 10:22:54,1350.6800081291065,2,22,0.5501165986061096,4.08147668838501,11.975376081898473,11.70128241258813,49.09056613531789,40.64760447324111,9.71794142969884e-05,0.1127511709928512,0,0,0
3837,170924.08057482843,2011-01-26 10:23:24,1380.695150870246,2,22,0.5501165986061096,4.084714412689209,11.979962295743102,11.70128241258813,49.109291962250765,40.64760447324111,9.71794142969884e-05,0.1127511709928512,0,0,0
3838,170954.0956986725,2011-01-26 10:23:54,1410.710274684213,2,22,0.5499359965324402,4.087952136993408,11.984548539197949,11.70128241258813,49.12803283404434,40.64760447324111,9.71794142969884e-05,0.1127511709928512,0,0,0
3839,170984.11076137915,2011-01-26 10:24:24,1440.7253374159443,2,22,0.550297200679779,4.091351509094238,11.989135524034182,11.70128241258813,49.14679177409476,40.64760447324111,0.0001295089750783,0.1127511709928512,0,0,0
3840,171014.12585654674,2011-01-26 10:24:54,1470.7404325534408,2,22,0.5501165986061096,4.094427585601807,11.993722701081852,11.70128241258813,49.16556644592128,40.64760447324111,9.71794142969884e-05,0.1127511709928512,0,0,0
3841,171044.14101235045,2011-01-26 10:25:24,1500.7555883571365,2,22,0.5501165986061096,4.097665309906006,11.99830978950346,11.70128241258813,49.18435581355939,40.64760447324111,9.71794142969884e-05,0.1127511709928512,0,0,0
3842,171074.1561154177,2011-01-26 10:25:54,1530.770691424396,2,22,0.5501165986061096,4.101064682006836,12.002896978779964,11.70128241258813,49.20316066984792,40.64760447324111,9.70840483205393e-05,0.1127511709928512,0,0,0
3843,171104.17123119664,2011-01-26 10:26:24,1560.78580720835,2,22,0.550297200679779,4.104626178741455,12.007484191181888,11.70128241258813,49.221980638316616,40.64760447324111,0.0001295089750783,0.1127511709928512,0,0,0
3844,171134.18634234904,2011-01-26 10:26:54,1590.800918355748,2,22,0.5501165986061096,4.107540130615234,12.012071347549048,11.70128241258813,49.24081555297579,40.64760447324111,6.47544875391759e-05,0.1127511709928512,0,0,0
3845,171164.20152380667,2011-01-26 10:27:24,1620.8160999036058,2,22,0.5499359965324402,4.110777854919434,12.016657988083308,11.70128241258813,49.259663484338944,40.64760447324111,3.23295607813634e-05,0.1127511709928512,0,0,0
3846,171194.2165761074,2011-01-26 10:27:54,1650.8311521191276,2,22,0.5501165986061096,4.114339351654053,12.02124452180144,11.70128241258813,49.27852619823028,40.64760447324111,6.47544875391759e-05,0.1127511709928512,0,0,0
3847,171224.23174594107,2011-01-26 10:28:24,1680.84632195279,2,22,0.5501165986061096,4.117738723754883,12.025831006682564,11.70128241258813,49.29740395468943,40.64760447324111,6.47544875391759e-05,0.1127511709928512,0,0,0
3848,171254.24682890825,2011-01-26 10:28:54,1710.861404934992,2,22,0.5497553944587708,4.120814800262451,12.030417552932544,11.70128241258813,49.31629742708652,40.64760447324111,6.47544875391759e-05,0.1127511709928512,0,0,0
3849,171284.26192053698,2011-01-26 10:29:24,1740.8764965386813,2,22,0.5499359965324402,4.124537944793701,12.035004098683387,11.70128241258813,49.33520638476783,40.64760447324111,0.0001295089750783,0.1127511709928512,0,0,0
3850,171314.27716567833,2011-01-26 10:29:54,1770.891741710108,2,22,0.5501165986061096,4.1277756690979,12.039590644488392,11.70128241258813,49.354130949079575,40.64760447324111,6.47544875391759e-05,0.1127511709928512,0,0,0
3851,171344.29216451582,2011-01-26 10:30:24,1800.9067405175206,2,22,0.5501165986061096,4.131175518035889,12.04417710066476,11.70128241258813,49.37307076379789,40.64760447324111,6.47544875391759e-05,0.1127511709928512,0,0,0
3852,171374.3072680242,2011-01-26 10:30:54,1830.92184402588,2,22,0.5499359965324402,4.134574890136719,12.048763637234469,11.70128241258813,49.39202660557699,40.64760447324111,9.70840483205393e-05,0.1127511709928512,0,0,0
3853,171404.3223981639,2011-01-26 10:31:24,1860.9369741756373,2,22,0.550297200679779,4.138136386871338,12.053350097528517,11.70128241258813,49.41099792060838,40.64760447324111,9.70840483205393e-05,0.1127511709928512,0,0,0
3854,171434.33750177253,2011-01-26 10:31:54,1890.952077774222,2,22,0.5499359965324402,4.141536235809326,12.057936587715067,11.70128241258813,49.42998537480485,40.64760447324111,6.47544875391759e-05,0.1127511709928512,0,0,0
3855,171464.3529962102,2011-01-26 10:32:24,1920.9675722570096,2,22,0.5499359965324402,4.145097732543945,12.062523233705605,11.70128241258813,49.44898962232227,40.64760447324111,6.47544875391759e-05,0.1127511709928512,0,0,0
3856,171494.36787090328,2011-01-26 10:32:54,1950.9824469300413,2,22,0.5501165986061096,4.1486592292785645,12.06710969344492,11.70128241258813,49.46800956276278,40.64760447324111,6.47544875391759e-05,0.1127511709928512,0,0,0
3857,171524.3829668227,2011-01-26 10:33:24,1980.997542824424,2,22,0.5499359965324402,4.152220726013184,12.071696158092434,11.70128241258813,49.48704567835961,40.64760447324111,9.71794142969884e-05,0.1127511709928512,0,0,0
3858,171554.3979640061,2011-01-26 10:33:54,2011.0125400077889,2,22,0.5501165986061096,4.155943870544434,12.076282542179982,11.70128241258813,49.50609786645536,40.64760447324111,9.70840483205393e-05,0.1127511709928512,0,0,0
3859,171584.41310229115,2011-01-26 10:34:24,2041.0276782928224,2,22,0.5499359965324402,4.159343719482422,12.080868949263916,11.70128241258813,49.52516662864832,40.64760447324111,0.0001295089750783,0.1127511709928512,0,0,0
3860,171614.4281997494,2011-01-26 10:34:54,2071.0427757661405,2,22,0.550297200679779,4.162905216217041,12.085455362145764,11.70128241258813,49.5442519548221,40.64760447324111,6.47544875391759e-05,0.1127511709928512,0,0,0
3861,171644.44358561147,2011-01-26 10:35:24,2101.058161633224,2,22,0.5499359965324402,4.16679048538208,12.090041859282628,11.70128241258813,49.56335426394338,40.64760447324111,0.0001295089750783,0.1127511709928512,0,0,0
3862,171674.45844961292,2011-01-26 10:35:54,2131.0730256146085,2,22,0.5501165986061096,4.17018985748291,12.094628271900804,11.70128241258813,49.582472922172094,40.64760447324111,6.47544875391759e-05,0.1127511709928512,0,0,0
3863,171704.4736815614,2011-01-26 10:36:24,2161.088257573105,2,22,0.5499359965324402,4.174075126647949,12.099214761152528,11.70128241258813,49.6016088010674,40.64760447324111,6.47544875391759e-05,0.1127511709928512,0,0,0
3864,171734.48875553114,2011-01-26 10:36:54,2191.103331542846,2,22,0.5501165986061096,4.177636623382568,12.103801241017935,11.70128241258813,49.62076154339027,40.64760447324111,6.47544875391759e-05,0.1127511709928512,0,0,0
3865,171764.50393116425,2011-01-26 10:37:24,2221.118507196012,2,22,0.5501165986061096,4.181360244750977,12.108387750058013,11.70128241258813,49.63993150591156,40.64760447324111,9.71794142969884e-05,0.1127511709928512,0,0,0
3866,171794.51891368607,2011-01-26 10:37:54,2251.13348968776,2,22,0.550297200679779,4.185245513916016,12.112974288184654,11.70128241258813,49.65911877464967,40.64760447324111,0.0001295089750783,0.1127511709928512,0,0,0
3867,171824.53424061625,2011-01-26 10:38:24,2281.14881680843,2,22,0.5501165986061096,4.188968658447266,12.117560773637134,11.70128241258813,49.67832315632046,40.64760447324111,6.47544875391759e-05,0.1127511709928512,0,0,0
3868,171854.54912222156,2011-01-26 10:38:54,2311.163698223264,2,22,0.5501165986061096,4.192692279815674,12.122147232973884,11.70128241258813,49.69754490357526,40.64760447324111,6.47544875391759e-05,0.1127511709928512,0,0,0
3869,171884.56438981887,2011-01-26 10:39:24,2341.178965835621,2,22,0.5499359965324402,4.196577072143555,12.126733759835574,11.70128241258813,49.71678442077691,40.64760447324111,9.70840483205393e-05,0.1127511709928512,0,0,0
3870,171909.04826377126,2011-01-26 10:39:49,2365.6628397829977,2,22,0.5501165986061096,4.200138568878174,12.130474994648932,11.70128241258813,49.73249131108958,40.64760447324111,0.0001295089750783,0.1127511709928512,0,0,0
3871,171939.0566271941,2011-01-26 10:40:19,30.015056441053087,3,22,0.0,4.090218544006348,12.130474994648932,11.70128241258813,49.73249131108958,40.64760447324111,-0.0004856109735555,0.1127511709928512,0,0,0
3872,171969.07173258215,2011-01-26 10:40:49,60.03016183912212,3,22,0.0,4.076296329498291,12.130474994648932,11.70128241258813,49.73249131108958,40.64760447324111,-0.0003561019839253,0.1127511709928512,0,0,0
3873,171999.08687292231,2011-01-26 10:41:19,90.0453021642401,3,22,0.0,4.067878246307373,12.130474994648932,11.70128241258813,49.73249131108958,40.64760447324111,-0.0002265930233988,0.1127511709928512,0,0,0
3874,172029.0553030412,2011-01-26 10:41:49,120.01373233327678,3,22,0.0,4.061888217926025,12.130474994648932,11.70128241258813,49.73249131108958,40.64760447324111,-0.0001942634553415,0.1127511709928512,0,0,0
3875,172029.06618130216,2011-01-26 10:41:49,0.015687493059626,4,22,1.003084659576416,4.199814796447754,12.13047939996952,11.70128241258813,49.73250981262018,40.64760447324111,0.0,0.1127511709928512,0,0,0
3876,172029.94098765377,2011-01-26 10:41:50,0.890493724359172,4,22,0.952875316143036,4.199653148651123,12.13071563435466,11.70128241258813,49.733501959159966,40.64760447324111,-3.23295607813634e-05,0.1127511709928512,0,0,0
3877,172032.05033124203,2011-01-26 10:41:52,2.999837322634874,4,22,0.9028465151786804,4.199814796447754,12.13125820878098,11.70128241258813,49.73578068322794,40.64760447324111,0.0,0.1127511709928512,0,0,0
3878,172035.28478773282,2011-01-26 10:41:55,6.234293818439803,4,22,0.8524565696716309,4.199814796447754,12.132045622443924,11.70128241258813,49.739087696417656,40.64760447324111,-3.24249267578125e-05,0.1127511709928512,0,0,0
3879,172039.76914200844,2011-01-26 10:42:00,10.718648089083564,4,22,0.8020665645599365,4.199814796447754,12.133074729997134,11.70128241258813,49.74340979934031,40.64760447324111,0.0,0.1127511709928512,0,0,0
3880,172045.69085341034,2011-01-26 10:42:06,16.640359500987078,4,22,0.752037763595581,4.199814796447754,12.134351313021892,11.70128241258813,49.74877125487035,40.64760447324111,-3.24249267578125e-05,0.1127511709928512,0,0,0
3881,172053.62808827686,2011-01-26 10:42:14,24.57759435246306,4,22,0.7018284201622009,4.199976921081543,12.13595153786785,11.70128241258813,49.755491994460016,40.64760447324111,3.24249267578125e-05,0.1127511709928512,0,0,0
3882,172064.2060959267,2011-01-26 10:42:24,35.155602092522905,4,22,0.6517996191978455,4.199814796447754,12.137936652892792,11.70128241258813,49.76382921537659,40.64760447324111,0.0,0.1127511709928512,0,0,0
3883,172079.643300345,2011-01-26 10:42:40,50.59280643565501,4,22,0.6017708778381348,4.199814796447754,12.140617994485456,11.70128241258813,49.77509050914496,40.64760447324111,0.0,0.1127511709928512,0,0,0
3884,172104.23688694005,2011-01-26 10:43:04,75.1863930407323,4,22,0.5517420768737793,4.199814796447754,12.144543949419829,11.70128241258813,49.79157904867698,40.64760447324111,-3.24249267578125e-05,0.1127511709928512,0,0,0
3885,172150.18904962862,2011-01-26 10:43:50,121.13855572927912,4,22,0.5015327334403992,4.199653148651123,12.151235565376792,11.70128241258813,49.81968302216071,40.64760447324111,-3.23295607813634e-05,0.1127511709928512,0,0,0
3886,172239.0939138456,2011-01-26 10:45:19,210.04341994123817,4,22,0.4515039622783661,4.199976921081543,12.162958590035586,11.70128241258813,49.86891831576301,40.64760447324111,0.0,0.1127511709928512,0,0,0
3887,172369.27901626276,2011-01-26 10:47:29,340.22852234337887,4,22,0.4012945592403412,4.199814796447754,12.178348962442838,11.70128241258813,49.93355559986713,40.64760447324111,-3.24249267578125e-05,0.1127511709928512,0,0,0
3888,172530.29191101893,2011-01-26 10:50:10,501.2414170995404,4,22,0.3512657880783081,4.199976921081543,12.195163547336112,11.70128241258813,50.004174936818245,40.64760447324111,3.24249267578125e-05,0.1127511709928512,0,0,0
3889,172723.9606363027,2011-01-26 10:53:24,694.910142388337,4,22,0.301237016916275,4.199653148651123,12.212699476905698,11.70128241258813,50.07782378966865,40.64760447324111,-6.47544875391759e-05,0.1127511709928512,0,0,0
3890,172961.8158535002,2011-01-26 10:57:22,932.7653595757888,4,22,0.2512082755565643,4.199814796447754,12.230921385841237,11.70128241258813,50.15435372488325,40.64760447324111,-3.24249267578125e-05,0.1127511709928512,0,0,0
3891,173260.09215156228,2011-01-26 11:02:20,1231.0416576529196,4,22,0.20117948949337,4.199814796447754,12.249610265675818,11.70128241258813,50.23284491218066,40.64760447324111,-3.24249267578125e-05,0.1127511709928512,0,0,0
3892,173651.36682193307,2011-01-26 11:08:51,1622.3163280236895,4,22,0.1511507183313369,4.199653148651123,12.268644739866652,11.70128241258813,50.3127874653283,40.64760447324111,-6.47544875391759e-05,0.1127511709928512,0,0,0
3893,174220.70104228493,2011-01-26 11:18:21,2191.650548470804,4,22,0.1011219546198844,4.199653148651123,12.288329179940783,11.70128241258813,50.39545931418001,40.64760447324111,-3.23295607813634e-05,0.1127511709928512,0,0,0
3894,175301.90127898677,2011-01-26 11:36:22,3272.850785062386,4,22,0.0510931834578514,4.199653148651123,12.310243628567104,11.70128241258813,50.4874972629531,40.64760447324111,-3.23295607813634e-05,0.1127511709928512,0,0,0
3895,175355.6973768904,2011-01-26 11:37:16,3326.646882981045,4,22,0.0498289167881011,4.199814796447754,12.311006260784248,11.70128241258813,50.49070025003645,40.64760447324111,-3.24249267578125e-05,0.1127511709928512,0,0,0
3896,175385.7171664974,2011-01-26 11:37:46,30.01512609966377,5,22,0.0,4.1896162033081055,12.311006260784248,11.70128241258813,50.49070025003645,40.64760447324111,-6.47544875391759e-05,0.1127511709928512,0,0,0
3897,175415.7166353544,2011-01-26 11:38:16,60.01459495666122,5,22,0.0,4.187835693359375,12.311006260784248,11.70128241258813,50.49070025003645,40.64760447324111,-3.23295607813634e-05,0.1127511709928512,0,0,0
3898,175415.9100567542,2011-01-26 11:38:16,0.187602899148647,6,22,-1.9243103452026844e-05,4.187835693359375,12.311006260784248,11.701282413590926,50.49070025003645,40.64760447744066,0.0,0.1150804981589317,0,0,0
3899,175420.73795616505,2011-01-26 11:38:21,5.015502299962985,6,22,0.0008838032954372,4.187673568725586,12.31100742027814,11.70128241367394,50.49070510597872,40.64760447778831,-6.47544875391759e-05,0.1150804981589317,0,0,0
3900,175433.24353329328,2011-01-26 11:38:34,12.499660454902989,7,22,-1.0993878841400146,3.987582921981812,12.31100742027814,11.705100030880992,50.49070510597872,40.662893201066986,-0.0019425868522375,0.1150804981589317,0,0,0
3901,175463.25866100195,2011-01-26 11:39:04,42.51478813350196,7,22,-1.099568486213684,3.925904273986816,12.31100742027814,11.71426743324372,50.49070510597872,40.699158620333925,-0.0015541076427325,0.1150804981589317,0,0,0
3902,175493.27382971786,2011-01-26 11:39:34,72.52995694461582,7,22,-1.099568486213684,3.8719964027404794,12.31100742027814,11.72343483419538,50.49070510597872,40.73489647576454,-0.0013598442310467,0.1150804981589317,0,0,0
3903,175523.28888332684,2011-01-26 11:40:04,102.54501045837316,7,22,-1.099568486213684,3.826182842254639,12.31100742027814,11.732602233262652,50.49070510597872,40.77017425324682,-0.0011008263099938,0.1150804981589317,0,0,0
3904,175553.3040071408,2011-01-26 11:40:34,132.56013429740275,7,22,-1.099568486213684,3.7902441024780273,12.31100742027814,11.741769659235697,50.49070510597872,40.80507867474147,-0.0008418083307333,0.1150804981589317,0,0,0
3905,175583.31914033816,2011-01-26 11:41:04,162.57526748974368,7,22,-1.0993878841400146,3.762075901031494,12.31100742027814,11.750937052322485,50.49070510597872,40.83969091684034,-0.0006475448608398,0.1150804981589317,0,0,0
3906,175613.33426956562,2011-01-26 11:41:34,192.59039673224035,7,22,-1.0993878841400146,3.738602638244629,12.31100742027814,11.760104492765446,50.49070510597872,40.87406817444723,-0.0005504131549969,0.1150804981589317,0,0,0
3907,175643.34935752023,2011-01-26 11:42:04,222.6054846768099,7,22,-1.099568486213684,3.7185287475585938,12.31100742027814,11.76927191537817,50.49070510597872,40.908247434827246,-0.0004856586456298,0.1150804981589317,0,0,0
3908,175673.36460806002,2011-01-26 11:42:34,252.6207352116043,7,22,-1.0997490882873535,3.700721263885498,12.31100742027814,11.778439355558636,50.49070510597872,40.94225460052685,-0.0004856586456298,0.1150804981589317,0,0,0
3909,175703.3795954991,2011-01-26 11:43:04,282.63572263063327,7,22,-1.0997490882873535,3.684694528579712,12.31100742027814,11.787606765403872,50.49070510597872,40.976107567466265,-0.0004532813909463,0.1150804981589317,0,0,0
3910,175733.39492865984,2011-01-26 11:43:34,312.65105582143184,7,22,-1.099568486213684,3.669963121414185,12.31100742027814,11.796774324474088,50.49070510597872,41.00981967542384,-0.0004209041653666,0.1150804981589317,0,0,0
3911,175763.40988684096,2011-01-26 11:44:04,342.6660139825412,7,22,-1.0993878841400146,3.655879020690918,12.31100742027814,11.8059417787906,50.49070510597872,41.0433992297523,-0.0003885269106831,0.1150804981589317,0,0,0
3912,175793.42509371694,2011-01-26 11:44:34,372.6812208735618,7,22,-1.099568486213684,3.642928123474121,12.31100742027814,11.815109235136765,50.49070510597872,41.07685485317934,-0.0003237724304199,0.1150804981589317,0,0,0
3913,175823.44021143572,2011-01-26 11:45:04,402.6963385873254,7,22,-1.099568486213684,3.630139112472534,12.31100742027814,11.824276641087302,50.49070510597872,41.11019329677824,-0.0003885269106831,0.1150804981589317,0,0,0
3914,175853.45520975694,2011-01-26 11:45:34,432.71133689850086,7,22,-1.0997490882873535,3.618321418762207,12.31100742027814,11.83344408362592,50.49070510597872,41.14342011835381,-0.0003237724304199,0.1150804981589317,0,0,0
3915,175883.4703096914,2011-01-26 11:46:04,462.7264368229279,7,22,-1.0993878841400146,3.6069893836975098,12.31100742027814,11.842611499616885,50.49070510597872,41.17653858660445,-0.0002590179501567,0.1150804981589317,0,0,0
3916,175913.48542255806,2011-01-26 11:46:34,492.741549689611,7,22,-1.0997490882873535,3.5958192348480225,12.31100742027814,11.851778879310784,50.49070510597872,41.20955348005483,-0.0002590179501567,0.1150804981589317,0,0,0
3917,175943.50054865776,2011-01-26 11:47:04,522.7566757892748,7,22,-1.099568486213684,3.585458755493164,12.31100742027814,11.860946312578836,50.49070510597872,41.24247063151854,-0.0002913951757363,0.1150804981589317,0,0,0
3918,175973.51566882263,2011-01-26 11:47:34,552.7717959792097,7,22,-1.099568486213684,3.5754218101501465,12.31100742027814,11.870113766632167,50.49070510597872,41.275293979498535,-0.0002590179501567,0.1150804981589317,0,0,0
3919,176003.53080780437,2011-01-26 11:48:04,582.7869349609796,7,22,-1.099568486213684,3.565708637237549,12.31100742027814,11.879281261611387,50.49070510597872,41.30802704609573,-0.0002266406954731,0.1150804981589317,0,0,0
3920,176033.54589450586,2011-01-26 11:48:34,612.8020216373886,7,22,-1.0997490882873535,3.556481122970581,12.31100742027814,11.888448694474484,50.49070510597872,41.34067363992207,-0.0002590179501567,0.1150804981589317,0,0,0
3921,176063.5610836376,2011-01-26 11:49:04,642.8172107942102,7,22,-1.099568486213684,3.547577381134033,12.31100742027814,11.897616178131052,50.49070510597872,41.37323698233386,-0.0002266406954731,0.1150804981589317,0,0,0
3922,176093.5761460736,2011-01-26 11:49:34,672.832273205142,7,22,-1.099568486213684,3.5386736392974854,12.31100742027814,11.906783633854811,50.49070510597872,41.40571962108755,-0.0002590179501567,0.1150804981589317,0,0,0
3923,176123.5913768642,2011-01-26 11:50:04,702.8475040057529,7,22,-1.099568486213684,3.5302555561065674,12.31100742027814,11.915951153321291,50.49070510597872,41.43812246213663,-0.0002266406954731,0.1150804981589317,0,0,0
3924,176153.60639715515,2011-01-26 11:50:34,732.8625243067338,7,22,-1.099568486213684,3.5218374729156494,12.31100742027814,11.925118623523195,50.49070510597872,41.470448092112505,-0.0002266406954731,0.1150804981589317,0,0,0
3925,176183.62148764104,2011-01-26 11:51:04,762.8776147725871,7,22,-1.099568486213684,3.513743162155152,12.31100742027814,11.934286088942969,50.49070510597872,41.502698229649305,-0.0001942634553415,0.1150804981589317,0,0,0
3926,176213.636766336,2011-01-26 11:51:34,792.8928934876153,7,22,-1.099568486213684,3.5061347484588623,12.31100742027814,11.943453640186029,50.49070510597872,41.53487445869819,-0.0001618862152099,0.1150804981589317,0,0,0
3927,176243.6517187127,2011-01-26 11:52:04,822.907845844258,7,22,-1.0993878841400146,3.498526096343994,12.31100742027814,11.952621093776385,50.49070510597872,41.56698041432445,-0.0001942634553415,0.1150804981589317,0,0,0
3928,176273.6669712926,2011-01-26 11:52:34,852.9230984341744,7,22,-1.099568486213684,3.491079330444336,12.31100742027814,11.961788642803953,50.49070510597872,41.59901927280465,-0.0001942634553415,0.1150804981589317,0,0,0
3929,176303.6819649572,2011-01-26 11:53:04,882.9380920887443,7,22,-1.099568486213684,3.4839563369750977,12.31100742027814,11.970956076256543,50.49070510597872,41.630990296392326,-0.0001618862152099,0.1150804981589317,0,0,0
3930,176333.69719376785,2011-01-26 11:53:34,912.9533209344828,7,22,-1.099568486213684,3.4765095710754395,12.31100742027814,11.980123587342169,50.49070510597872,41.6628949009118,-0.0001942634553415,0.1150804981589317,0,0,0
3931,176363.71221322674,2011-01-26 11:54:04,942.9683403883524,7,22,-1.099568486213684,3.469872236251831,12.31100742027814,11.989291025661965,50.49070510597872,41.69473563491894,-0.0001942634553415,0.1150804981589317,0,0,0
3932,176393.7274446539,2011-01-26 11:54:34,972.98357178545,7,22,-1.0993878841400146,3.4633967876434326,12.31100742027814,11.998458519233122,50.49070510597872,41.7265154817763,-0.0001618862152099,0.1150804981589317,0,0,0
3933,176423.7424520427,2011-01-26 11:55:04,1002.9985791942996,7,22,-1.0997490882873535,3.4564356803894043,12.31100742027814,12.007625928139609,50.49070510597872,41.75823362976616,-0.0001942634553415,0.1150804981589317,0,0,0
3934,176453.7575768291,2011-01-26 11:55:34,1033.0137039857027,7,22,-1.099568486213684,3.450122117996216,12.31100742027814,12.016793490565608,50.49070510597872,41.78989219030936,-0.0001618862152099,0.1150804981589317,0,0,0
3935,176483.7726945128,2011-01-26 11:56:04,1063.028821654354,7,22,-1.099568486213684,3.4436466693878174,12.31100742027814,12.025960974734543,50.49070510597872,41.82149090864935,-0.0001618862152099,0.1150804981589317,0,0,0
3936,176513.78806176345,2011-01-26 11:56:34,1093.0441889100528,7,22,-1.0997490882873535,3.436523675918579,12.31100742027814,12.035128549194695,50.49070510597872,41.85302787935149,-0.0001942634553415,0.1150804981589317,0,0,0
3937,176543.80293158442,2011-01-26 11:57:04,1123.0590587259785,7,22,-1.0993878841400146,3.42972469329834,12.31100742027814,12.044295922591932,50.49070510597872,41.88450044016064,-0.0001942634553415,0.1150804981589317,0,0,0
3938,176573.81804647617,2011-01-26 11:57:34,1153.0741736076836,7,22,-1.099568486213684,3.4227635860443115,12.31100742027814,12.053463463603332,50.49070510597872,41.915909988684575,-0.0001618862152099,0.1150804981589317,0,0,0
3939,176603.83327387826,2011-01-26 11:58:04,1183.089401024862,7,22,-1.0997490882873535,3.4153168201446533,12.31100742027814,12.062630996916464,50.49070510597872,41.94725466501989,-0.0001942634553415,0.1150804981589317,0,0,0
3940,176633.84841699034,2011-01-26 11:58:34,1213.104544156976,7,22,-1.0997490882873535,3.407384395599365,12.31100742027814,12.071798591469449,50.49070510597872,41.97853052529754,-0.0002590179501567,0.1150804981589317,0,0,0
3941,176663.86344543664,2011-01-26 11:59:04,1243.1195725781947,7,22,-1.0997490882873535,3.399290084838867,12.31100742027814,12.080966069425912,50.49070510597872,42.00973133480597,-0.0001942634553415,0.1150804981589317,0,0,0
3942,176693.8785232359,2011-01-26 11:59:34,1273.1346503674542,7,22,-1.0993878841400146,3.3907101154327397,12.31100742027814,12.090133574878138,50.49070510597872,42.04085410152164,-0.0002266406954731,0.1150804981589317,0,0,0
3943,176723.89362758136,2011-01-26 12:00:04,1303.1497547129,7,22,-1.099568486213684,3.381320714950561,12.31100742027814,12.099301052327885,50.49070510597872,42.07189484256734,-0.0002913951757363,0.1150804981589317,0,0,0
3944,176753.90874306456,2011-01-26 12:00:34,1333.164870221167,7,22,-1.0993878841400146,3.371769428253174,12.31100742027814,12.108468616919303,50.49070510597872,42.10284952325348,-0.0002266406954731,0.1150804981589317,0,0,0
3945,176783.92386432717,2011-01-26 12:01:04,1363.1799914587125,7,22,-1.099568486213684,3.3612468242645264,12.31100742027814,12.117636098310683,50.49070510597872,42.133712318878025,-0.0002913951757363,0.1150804981589317,0,0,0
3946,176813.93899432156,2011-01-26 12:01:34,1393.1951214530832,7,22,-1.099568486213684,3.3495912551879883,12.31100742027814,12.126803560617644,50.49070510597872,42.16447424849491,-0.0003561019839253,0.1150804981589317,0,0,0
3947,176843.95636932115,2011-01-26 12:02:04,1423.2124964927975,7,22,-1.0993878841400146,3.337611675262451,12.31100742027814,12.135971814434107,50.49070510597872,42.195130266644426,-0.0003237724304199,0.1150804981589317,0,0,0
3948,176873.96922664132,2011-01-26 12:02:34,1453.2253537828897,7,22,-1.099568486213684,3.3240132331848145,12.31100742027814,12.145138645981485,50.49070510597872,42.2256628275373,-0.0003237724304199,0.1150804981589317,0,0,0
3949,176903.98433943783,2011-01-26 12:03:04,1483.2404666044602,7,22,-1.099568486213684,3.309119701385498,12.31100742027814,12.154306137548517,50.49070510597872,42.25606863090916,-0.0004209041653666,0.1150804981589317,0,0,0
3950,176933.9995144043,2011-01-26 12:03:34,1513.2556415709153,7,22,-1.099568486213684,3.292283535003662,12.31100742027814,12.163473682806211,50.49070510597872,42.28632951483459,-0.0004532813909463,0.1150804981589317,0,0,0
3951,176964.0145431864,2011-01-26 12:04:04,1543.2706703379963,7,22,-1.0993878841400146,3.2730190753936768,12.31100742027814,12.172641206416849,50.49070510597872,42.31642499835549,-0.0005504131549969,0.1150804981589317,0,0,0
3952,176994.02981279875,2011-01-26 12:04:34,1573.2859400505874,7,22,-1.099568486213684,3.2503552436828613,12.31100742027814,12.18180875500924,50.49070510597872,42.3463295954547,-0.0006799221155233,0.1150804981589317,0,0,0
3953,177024.04495246222,2011-01-26 12:05:04,1603.3010797240815,7,22,-1.099568486213684,3.2236440181732178,12.31100742027814,12.190976266608798,50.49070510597872,42.376008557273565,-0.0007770538213662,0.1150804981589317,0,0,0
3954,177054.05994446768,2011-01-26 12:05:34,1633.3160716092414,7,22,-1.099568486213684,3.190133810043335,12.31100742027814,12.200143793357226,50.49070510597872,42.40541221725672,-0.0009712696191854,0.1150804981589317,0,0,0
3955,177084.07511902312,2011-01-26 12:06:04,1663.331246164672,7,22,-1.099568486213684,3.148367166519165,12.31100742027814,12.20931137522331,50.49070510597872,42.4344753667928,-0.0012627125252038,0.1150804981589317,0,0,0
3956,177114.09011788064,2011-01-26 12:06:34,1693.3462450372467,7,22,-1.099568486213684,3.0934879779815674,12.31100742027814,12.218478890589695,50.49070510597872,42.463099464685314,-0.0016836166614666,0.1150804981589317,0,0,0
3957,177144.1074967599,2011-01-26 12:07:04,1723.3636239967304,7,22,-1.099568486213684,3.0180492401123047,12.31100742027814,12.227647057153789,50.49070510597872,42.49113718476757,-0.0024282454978674,0.1150804981589317,0,0,0
3958,177174.1204507861,2011-01-26 12:07:34,1753.3765779176565,7,22,-1.099568486213684,2.90861439704895,12.31100742027814,12.236813924770273,50.49070510597872,42.51833344732698,-0.003431987715885,0.1150804981589317,0,0,0
3959,177204.13552520197,2011-01-26 12:08:04,1783.391652333508,7,22,-1.099568486213684,2.7502901554107666,12.31100742027814,12.245981424053598,50.49070510597872,42.54431121237641,-0.0047918320633471,0.1150804981589317,0,0,0
3960,177212.19789418118,2011-01-26 12:08:13,1791.454021402958,7,22,-1.099568486213684,2.699781894683838,12.31100742027814,12.248443909785538,50.49070510597872,42.55102217773874,-0.0050508021377027,0.1150804981589317,0,0,0
3961,177272.21744752812,2011-01-26 12:09:13,60.01466155263888,8,22,0.0,3.6489179134368896,12.31100742027814,12.248443909785538,50.49070510597872,42.55102217773874,0.0012627125252038,0.1150804981589317,0,0,0
3962,177272.41072378523,2011-01-26 12:09:13,0.187417161232611,9,22,-1.9243103452026844e-05,3.6492416858673096,12.31100742027814,12.24844391078734,50.49070510597872,42.55102218139455,0.0,0.11173777282238,0,0,0
3963,177277.2387556612,2011-01-26 12:09:18,5.015449042228322,9,22,0.0010644125286489,3.656526565551758,12.311008322225096,12.248443910871076,50.490708401091815,42.55102218170012,0.0010684489971026,0.11173777282238,0,0,0
