Data_Point,Test_Time(s),Date_Time,Step_Time(s),Step_Index,Cycle_Index,Current(A),Voltage(V),Charge_Capacity(Ah),Discharge_Capacity(Ah),Charge_Energy(Wh),Discharge_Energy(Wh),dV/dt(V/s),Internal_Resistance(Ohm),Is_FC_Data,AC_Impedance(Ohm),ACI_Phase_Angle(Deg)
771,33808.506495772825,2011-01-24 20:17:47,30.01507697222308,1,5,0.0,3.674981355667114,2.39142881146405,2.358884017090211,9.789918740955317,8.243651048122693,0.0006474971887655,0.110118381679058,0,0,0
772,33838.52165013293,2011-01-24 20:18:18,60.030231357383016,1,5,0.0,3.6947314739227295,2.39142881146405,2.358884017090211,9.789918740955317,8.243651048122693,0.0004532813909463,0.110118381679058,0,0,0
773,33868.53676076403,2011-01-24 20:18:48,90.04534196343194,1,5,0.0,3.707844257354736,2.39142881146405,2.358884017090211,9.789918740955317,8.243651048122693,0.0002913951757363,0.110118381679058,0,0,0
774,33898.50508835241,2011-01-24 20:19:17,120.01366963200591,1,5,0.0,3.717719316482544,2.39142881146405,2.358884017090211,9.789918740955317,8.243651048122693,0.0002590179501567,0.110118381679058,0,0,0
775,33928.51930720488,2011-01-24 20:19:48,30.01505863652488,2,5,0.5501165986061096,3.836219549179077,2.39601506544349,2.358884017090211,9.807432145593166,8.243651048122693,0.0007122516399249,0.110118381679058,0,0,0
776,33958.53453694786,2011-01-24 20:20:18,60.0302882942873,2,5,0.5499359965324402,3.8558077812194815,2.400601305024136,2.358884017090211,9.825074335529532,8.243651048122693,0.0004532813909463,0.110118381679058,0,0,0
777,33988.54944309433,2011-01-24 20:20:48,90.04519445078505,2,5,0.5501165986061096,3.869568109512329,2.405187581780041,2.358884017090211,9.842790989598868,8.243651048122693,0.0003237724304199,0.110118381679058,0,0,0
778,34018.56454016665,2011-01-24 20:21:18,120.06029159829112,2,5,0.5501165986061096,3.880738258361816,2.409773996500607,2.358884017090211,9.860564652139653,8.243651048122693,0.0002590179501567,0.110118381679058,0,0,0
779,34048.57969035635,2011-01-24 20:21:48,150.0754417178198,2,5,0.5499359965324402,3.890127658843994,2.414360276357995,2.358884017090211,9.878385100869805,8.243651048122693,0.0001942634553415,0.110118381679058,0,0,0
780,34078.5948781197,2011-01-24 20:22:18,180.09062947114347,2,5,0.5501165986061096,3.898869514465332,2.41894650800779,2.358884017090211,9.8962470470357,8.243651048122693,0.0002266406954731,0.110118381679058,0,0,0
781,34108.60991642556,2011-01-24 20:22:48,210.10566778201053,2,5,0.550297200679779,3.90696382522583,2.423532727994832,2.358884017090211,9.914146744420703,8.243651048122693,0.0002266406954731,0.110118381679058,0,0,0
782,34138.62502215947,2011-01-24 20:23:18,240.1207735109041,2,5,0.5497553944587708,3.914086580276489,2.428118861661454,2.358884017090211,9.932081229278609,8.243651048122693,0.0001942157687153,0.110118381679058,0,0,0
783,34168.64011161279,2011-01-24 20:23:48,270.135862964234,2,5,0.550297200679779,3.921209573745728,2.432704969458908,2.358884017090211,9.950048376267176,8.243651048122693,0.0001942634553415,0.110118381679058,0,0,0
784,34198.65525120107,2011-01-24 20:24:18,300.151002557528,2,5,0.5501165986061096,3.927685022354126,2.437291126543158,2.358884017090211,9.968046689139747,8.243651048122693,0.0001618862152099,0.110118381679058,0,0,0
785,34228.6703277723,2011-01-24 20:24:48,330.16607911872666,2,5,0.5499359965324402,3.9339985847473145,2.441877268119833,2.358884017090211,9.986074527831011,8.243651048122693,0.0001295089750783,0.110118381679058,0,0,0
786,34258.68544137581,2011-01-24 20:25:18,360.18119272224624,2,5,0.5499359965324402,3.939988374710083,2.446463385851947,2.358884017090211,10.00413052595908,8.243651048122693,0.0001295089750783,0.110118381679058,0,0,0
787,34288.70055147561,2011-01-24 20:25:48,390.1963028270458,2,5,0.5499359965324402,3.945654392242432,2.451049487267223,2.358884017090211,10.022213305830128,8.243651048122693,0.0001295089750783,0.110118381679058,0,0,0
788,34318.71579139895,2011-01-24 20:26:18,420.21154277044326,2,5,0.5501165986061096,3.9511585235595694,2.455635624309681,2.358884017090211,10.040321763195818,8.243651048122693,0.0001295089750783,0.110118381679058,0,0,0
789,34348.73076589076,2011-01-24 20:26:48,450.22651725222863,2,5,0.5501165986061096,3.956338882446289,2.460221789547708,2.358884017090211,10.05845467348907,8.243651048122693,9.713172767078504e-05,0.110118381679058,0,0,0
790,34378.74600875645,2011-01-24 20:27:18,480.2417601128967,2,5,0.5501165986061096,3.961519241333008,2.46480793689001,2.358884017090211,10.076610861143404,8.243651048122693,0.0001618862152099,0.110118381679058,0,0,0
791,34408.76099777446,2011-01-24 20:27:48,510.2567491258984,2,5,0.5501165986061096,3.966375827789306,2.469394126134612,2.358884017090211,10.094789660928514,8.243651048122693,0.0001618862152099,0.110118381679058,0,0,0
792,34438.77622344728,2011-01-24 20:28:18,540.2719748288041,2,5,0.5499359965324402,3.9705848693847656,2.473980346814283,2.358884017090211,10.112990177385836,8.243651048122693,9.713172767078504e-05,0.110118381679058,0,0,0
793,34468.79121506678,2011-01-24 20:28:48,570.2869664132145,2,5,0.5501165986061096,3.975117683410645,2.478566499602104,2.358884017090211,10.131211062252143,8.243651048122693,9.713172767078504e-05,0.110118381679058,0,0,0
794,34498.806373657426,2011-01-24 20:29:18,600.3021250088683,2,5,0.5497553944587708,3.979326725006104,2.483152675910695,2.358884017090211,10.14945180471234,8.243651048122693,6.47544875391759e-05,0.110118381679058,0,0,0
795,34528.82141302593,2011-01-24 20:29:48,630.3171643723588,2,5,0.5499359965324402,3.983697652816773,2.487738764069018,2.358884017090211,10.167711543630478,8.243651048122693,0.0001295089750783,0.110118381679058,0,0,0
796,34558.836530318644,2011-01-24 20:30:18,660.3322816700854,2,5,0.5501165986061096,3.987582921981812,2.492324820795113,2.358884017090211,10.185989815674192,8.243651048122693,9.713172767078504e-05,0.110118381679058,0,0,0
797,34588.85163158642,2011-01-24 20:30:48,690.3473829328481,2,5,0.5501165986061096,3.991630077362061,2.496910887448559,2.358884017090211,10.204286257480524,8.243651048122693,0.0001295089750783,0.110118381679058,0,0,0
798,34618.86700393481,2011-01-24 20:31:18,720.3627552862519,2,5,0.5499359965324402,3.995353221893311,2.501497002167919,2.358884017090211,10.22260065836472,8.243651048122693,9.713172767078504e-05,0.110118381679058,0,0,0
799,34648.88184363568,2011-01-24 20:31:48,750.3775949921343,2,5,0.5499359965324402,3.99907660484314,2.506083067350193,2.358884017090211,10.240932244802648,8.243651048122693,9.713172767078504e-05,0.110118381679058,0,0,0
800,34678.89705021593,2011-01-24 20:32:18,780.3928015673679,2,5,0.5501165986061096,4.002799987792969,2.510669112045565,2.358884017090211,10.259280723225896,8.243651048122693,0.0001295089750783,0.110118381679058,0,0,0
801,34708.912058311485,2011-01-24 20:32:48,810.4078096579167,2,5,0.5499359965324402,4.006361484527588,2.515255124420033,2.358884017090211,10.277645751106707,8.243651048122693,9.70840483205393e-05,0.110118381679058,0,0,0
802,34738.92738993338,2011-01-24 20:33:18,840.4231412948426,2,5,0.5501165986061096,4.009922981262207,2.519841208346419,2.358884017090211,10.296027434763923,8.243651048122693,9.70840483205393e-05,0.110118381679058,0,0,0
803,34768.94228048097,2011-01-24 20:33:48,870.4380318274004,2,5,0.5501165986061096,4.013322830200195,2.524427283247091,2.358884017090211,10.314425142194253,8.243651048122693,9.71794142969884e-05,0.110118381679058,0,0,0
804,34798.95765692958,2011-01-24 20:34:18,900.4534084965607,2,5,0.5499359965324402,4.016722202301025,2.529013323267914,2.358884017090211,10.332838418991326,8.243651048122693,6.47544875391759e-05,0.110118381679058,0,0,0
805,34828.97250980829,2011-01-24 20:34:48,930.4682611647492,2,5,0.5499359965324402,4.020122051239014,2.533599396248962,2.358884017090211,10.35126737803675,8.243651048122693,9.71794142969884e-05,0.110118381679058,0,0,0
806,34858.9877272857,2011-01-24 20:35:18,960.4834786672168,2,5,0.5501165986061096,4.023683547973633,2.538185458894531,2.358884017090211,10.369711817460344,8.243651048122693,0.0001295089750783,0.110118381679058,0,0,0
807,34889.002707496766,2011-01-24 20:35:48,990.4984588482064,2,5,0.5499359965324402,4.026921272277832,2.542771466782434,2.358884017090211,10.388171402901436,8.243651048122693,9.71794142969884e-05,0.110118381679058,0,0,0
808,34919.01795651778,2011-01-24 20:36:18,1020.5137078842654,2,5,0.5501165986061096,4.029996871948242,2.547357564994907,2.358884017090211,10.406646489607605,8.243651048122693,6.47544875391759e-05,0.110118381679058,0,0,0
809,34949.0329562876,2011-01-24 20:36:48,1050.528707644051,2,5,0.5501165986061096,4.033396720886231,2.551943634299688,2.358884017090211,10.425136376868217,8.243651048122693,9.71794142969884e-05,0.110118381679058,0,0,0
810,34979.048040302376,2011-01-24 20:37:18,1080.543791653814,2,5,0.5499359965324402,4.036472320556641,2.556529673103009,2.358884017090211,10.44364085689562,8.243651048122693,6.47544875391759e-05,0.110118381679058,0,0,0
811,35009.06331967404,2011-01-24 20:37:48,1110.5590710355038,2,5,0.5501165986061096,4.03971004486084,2.561115680031688,2.358884017090211,10.462160028397491,8.243651048122693,6.47544875391759e-05,0.110118381679058,0,0,0
812,35039.078273805106,2011-01-24 20:38:18,1140.5740251615564,2,5,0.5497553944587708,4.042947769165039,2.565701231371126,2.358884017090211,10.4806918112583,8.243651048122693,0.0001295089750783,0.110118381679058,0,0,0
813,35069.095827871,2011-01-24 20:38:48,1170.5915792475091,2,5,0.5497553944587708,4.046023368835449,2.570286858148712,2.358884017090211,10.499238420669624,8.243651048122693,6.47544875391759e-05,0.110118381679058,0,0,0
814,35099.108497398134,2011-01-24 20:39:18,1200.6042487545883,2,5,0.5501165986061096,4.049099445343018,2.574872176203141,2.358884017090211,10.517798335247756,8.243651048122693,3.24249267578125e-05,0.110118381679058,0,0,0
815,35129.123616811135,2011-01-24 20:39:48,1230.6193681926495,2,5,0.5501165986061096,4.052498817443848,2.579458215319149,2.358884017090211,10.536375632986369,8.243651048122693,9.70840483205393e-05,0.110118381679058,0,0,0
816,35159.13872171797,2011-01-24 20:40:18,1260.6344730744318,2,5,0.5501165986061096,4.055574893951416,2.584044310685896,2.358884017090211,10.554967442334023,8.243651048122693,9.71794142969884e-05,0.110118381679058,0,0,0
817,35189.15380989813,2011-01-24 20:40:48,1290.6495612495758,2,5,0.5501165986061096,4.058650493621826,2.58863044053546,2.358884017090211,10.573573535722948,8.243651048122693,9.70840483205393e-05,0.110118381679058,0,0,0
818,35219.168917221,2011-01-24 20:41:18,1320.6646685774544,2,5,0.5501165986061096,4.0615644454956055,2.593216582107124,2.358884017090211,10.592193569232505,8.243651048122693,9.70840483205393e-05,0.110118381679058,0,0,0
819,35249.184053085,2011-01-24 20:41:48,1350.6798044364416,2,5,0.5499359965324402,4.064478397369385,2.597802594743293,2.358884017090211,10.610826934479302,8.243651048122693,3.23295607813634e-05,0.110118381679058,0,0,0
820,35279.19915106458,2011-01-24 20:42:18,1380.694902421034,2,5,0.5501165986061096,4.067716121673584,2.602388662275969,2.358884017090211,10.629474537147438,8.243651048122693,9.70840483205393e-05,0.110118381679058,0,0,0
821,35309.21424157053,2011-01-24 20:42:48,1410.7099929219748,2,5,0.5499359965324402,4.070953845977783,2.606974642980787,2.358884017090211,10.64813582854628,8.243651048122693,0.0001295089750783,0.110118381679058,0,0,0
822,35339.2293569986,2011-01-24 20:43:18,1440.725108355054,2,5,0.5499359965324402,4.073706150054932,2.611560640145286,2.358884017090211,10.66681116182856,8.243651048122693,6.47544875391759e-05,0.110118381679058,0,0,0
823,35369.2466738934,2011-01-24 20:43:48,1470.7424253450909,2,5,0.5501165986061096,4.076943874359131,2.616147005709937,2.358884017090211,10.685502166972237,8.243651048122693,0.0001295089750783,0.110118381679058,0,0,0
824,35399.259590005095,2011-01-24 20:44:18,1500.7553413565347,2,5,0.5501165986061096,4.080019474029541,2.620732665645665,2.358884017090211,10.704204468072644,8.243651048122693,6.47544875391759e-05,0.110118381679058,0,0,0
825,35429.27467224043,2011-01-24 20:44:48,1530.7704235968877,2,5,0.5501165986061096,4.08293342590332,2.625318723191738,2.358884017090211,10.722922385710444,8.243651048122693,6.47544875391759e-05,0.110118381679058,0,0,0
826,35459.28982941254,2011-01-24 20:45:18,1560.785580763981,2,5,0.5499359965324402,4.08617115020752,2.629904771991483,2.358884017090211,10.741654567930471,8.243651048122693,9.70840483205393e-05,0.110118381679058,0,0,0
827,35489.3048881443,2011-01-24 20:45:48,1590.8006395007558,2,5,0.5501165986061096,4.089247226715088,2.634490734574174,2.358884017090211,10.76040059595088,8.243651048122693,6.47544875391759e-05,0.110118381679058,0,0,0
828,35519.320133882145,2011-01-24 20:46:18,1620.815885253632,2,5,0.5501165986061096,4.092484951019287,2.639076825037264,2.358884017090211,10.779161330104284,8.243651048122693,0.0001295089750783,0.110118381679058,0,0,0
829,35549.335107496765,2011-01-24 20:46:49,1650.8308588482062,2,5,0.5499359965324402,4.095398902893066,2.643662847991454,2.358884017090211,10.797935919313328,8.243651048122693,9.71794142969884e-05,0.110118381679058,0,0,0
830,35579.35022002761,2011-01-24 20:47:19,1680.845971384065,2,5,0.550297200679779,4.098636627197266,2.648248911501715,2.358884017090211,10.816724925448565,8.243651048122693,0.0001295089750783,0.110118381679058,0,0,0
831,35609.36539360561,2011-01-24 20:47:49,1710.8611449620594,2,5,0.5499359965324402,4.101550579071045,2.652835010451313,2.358884017090211,10.835528523850195,8.243651048122693,6.47544875391759e-05,0.110118381679058,0,0,0
832,35639.380448467724,2011-01-24 20:48:19,1740.8761998191646,2,5,0.5499359965324402,4.104788303375244,2.657421000938596,2.358884017090211,10.854346050849944,8.243651048122693,6.47544875391759e-05,0.110118381679058,0,0,0
833,35669.39564770968,2011-01-24 20:48:49,1770.891399166384,2,5,0.5499359965324402,4.108026027679443,2.662007029667576,2.358884017090211,10.873178330485867,8.243651048122693,9.71794142969884e-05,0.110118381679058,0,0,0
834,35699.41064896319,2011-01-24 20:49:19,1800.9064003246551,2,5,0.5499359965324402,4.111263751983643,2.666592932533712,2.358884017090211,10.89202476642858,8.243651048122693,9.71794142969884e-05,0.110118381679058,0,0,0
835,35729.42575487754,2011-01-24 20:49:49,1830.921506228986,2,5,0.5501165986061096,4.114501476287842,2.671178962193594,2.358884017090211,10.91088654721812,8.243651048122693,6.47544875391759e-05,0.110118381679058,0,0,0
836,35759.44087996969,2011-01-24 20:50:19,1860.936631351214,2,5,0.5501165986061096,4.117738723754883,2.675764906500562,2.358884017090211,10.929762930015098,8.243651048122693,9.70840483205393e-05,0.110118381679058,0,0,0
837,35789.455998305006,2011-01-24 20:50:49,1890.951749676501,2,5,0.5499359965324402,4.120976448059082,2.680350939706305,2.358884017090211,10.94865472985632,8.243651048122693,6.47544875391759e-05,0.110118381679058,0,0,0
838,35819.47121362203,2011-01-24 20:51:19,1920.96696498851,2,5,0.5501165986061096,4.12437629699707,2.684936963985752,2.358884017090211,10.967561541691998,8.243651048122693,6.47544875391759e-05,0.110118381679058,0,0,0
839,35849.4861909459,2011-01-24 20:51:49,1950.9819423023537,2,5,0.5499359965324402,4.1277756690979,2.689522921828728,2.358884017090211,10.986483357617384,8.243651048122693,9.70840483205393e-05,0.110118381679058,0,0,0
840,35879.50164304305,2011-01-24 20:52:19,1980.997394509778,2,5,0.5501165986061096,4.1310133934021,2.694108926471038,2.358884017090211,11.005420577426348,8.243651048122693,9.70840483205393e-05,0.110118381679058,0,0,0
841,35909.51641539106,2011-01-24 20:52:49,2011.0121667525216,2,5,0.5499359965324402,4.134251117706299,2.698694874173678,2.358884017090211,11.024372908814106,8.243651048122693,6.47544875391759e-05,0.110118381679058,0,0,0
842,35939.53151513504,2011-01-24 20:53:19,2041.0272664964991,2,5,0.5501165986061096,4.137812614440918,2.703280909053767,2.358884017090211,11.043341058295974,8.243651048122693,9.70840483205393e-05,0.110118381679058,0,0,0
843,35969.54664926471,2011-01-24 20:53:49,2071.042400716401,2,5,0.5501165986061096,4.141212463378906,2.707866946051299,2.358884017090211,11.062324724137175,8.243651048122693,9.71794142969884e-05,0.110118381679058,0,0,0
844,35999.561889939934,2011-01-24 20:54:19,2101.0576413064096,2,5,0.5499359965324402,4.144611835479736,2.712452989813571,2.358884017090211,11.08132409300254,8.243651048122693,0.0001295089750783,0.110118381679058,0,0,0
845,36029.57683380541,2011-01-24 20:54:49,2131.0725851568523,2,5,0.5499359965324402,4.148173332214356,2.717038918349505,2.358884017090211,11.100339062980144,8.243651048122693,9.70840483205393e-05,0.110118381679058,0,0,0
846,36059.59206188424,2011-01-24 20:55:19,2161.08781323568,2,5,0.5499359965324402,4.151573181152344,2.721624891250656,2.358884017090211,11.119370073206747,8.243651048122693,9.71794142969884e-05,0.110118381679058,0,0,0
847,36089.60706580439,2011-01-24 20:55:49,2191.102817150822,2,5,0.5501165986061096,4.154972553253174,2.726210822578696,2.358884017090211,11.13841691182492,8.243651048122693,9.70840483205393e-05,0.110118381679058,0,0,0
848,36119.622253357215,2011-01-24 20:56:19,2221.118004713671,2,5,0.5501165986061096,4.158534049987793,2.730796767929612,2.358884017090211,11.157479908390805,8.243651048122693,6.47544875391759e-05,0.110118381679058,0,0,0
849,36149.63729675075,2011-01-24 20:56:49,2251.133048207455,2,5,0.5501165986061096,4.162257671356201,2.735382740094352,2.358884017090211,11.176559263891807,8.243651048122693,9.71794142969884e-05,0.110118381679058,0,0,0
850,36179.65237642471,2011-01-24 20:57:19,2281.1481277611124,2,5,0.5499359965324402,4.165657043457031,2.739968658770287,2.358884017090211,11.195654716942354,8.243651048122693,6.47544875391759e-05,0.110118381679058,0,0,0
851,36209.66757133086,2011-01-24 20:57:49,2311.1633226823005,2,5,0.5501165986061096,4.16938066482544,2.744554630757426,2.358884017090211,11.214766871835351,8.243651048122693,6.47544875391759e-05,0.110118381679058,0,0,0
852,36239.68261152642,2011-01-24 20:58:19,2341.1783628878898,2,5,0.5501165986061096,4.1731038093566895,2.749140569364597,2.358884017090211,11.233895376353388,8.243651048122693,0.0001618385285837,0.110118381679058,0,0,0
853,36269.697829344674,2011-01-24 20:58:49,2371.1935807061445,2,5,0.5499359965324402,4.176503658294678,2.753726587014451,2.358884017090211,11.253040840681972,8.243651048122693,9.71794142969884e-05,0.110118381679058,0,0,0
854,36299.7128216158,2011-01-24 20:59:19,2401.2085729672417,2,5,0.5499359965324402,4.180065155029297,2.758312562236031,2.358884017090211,11.272202892815168,8.243651048122693,3.24249267578125e-05,0.110118381679058,0,0,0
855,36329.72792032219,2011-01-24 20:59:49,2431.22367166862,2,5,0.5501165986061096,4.183950424194336,2.762898576803367,2.358884017090211,11.29138211284632,8.243651048122693,9.71794142969884e-05,0.110118381679058,0,0,0
856,36359.7431162559,2011-01-24 21:00:19,2461.2388677176195,2,5,0.5499359965324402,4.187673568725586,2.767484558884922,2.358884017090211,11.310578142286834,8.243651048122693,9.70840483205393e-05,0.110118381679058,0,0,0
857,36389.75813273236,2011-01-24 21:00:49,2491.253884078781,2,5,0.5499359965324402,4.191235065460205,2.772070485397129,2.358884017090211,11.329791061952925,8.243651048122693,6.47544875391759e-05,0.110118381679058,0,0,0
858,36419.77324354392,2011-01-24 21:01:19,2521.2689949855794,2,5,0.5499359965324402,4.195120334625244,2.776656490042651,2.358884017090211,11.349021682070576,8.243651048122693,6.47544875391759e-05,0.110118381679058,0,0,0
859,36449.78849625914,2011-01-24 21:01:49,2551.284247615596,2,5,0.5499359965324402,4.199005603790283,2.781242478992817,2.358884017090211,11.368269695176336,8.243651048122693,9.71794142969884e-05,0.110118381679058,0,0,0
860,36456.6632476449,2011-01-24 21:01:56,2558.158999001357,2,5,0.5501165986061096,4.200138568878174,2.782292880491178,2.358884017090211,11.372680869233308,8.243651048122693,0.0001295089750783,0.110118381679058,0,0,0
861,36486.678609714254,2011-01-24 21:02:26,30.015079042382556,3,5,0.0,4.089247226715088,2.782292880491178,2.358884017090211,11.372680869233308,8.243651048122693,-0.0005180359003134,0.110118381679058,0,0,0
862,36516.69372023008,2011-01-24 21:02:56,60.03018955319411,3,5,0.0,4.075486660003662,2.782292880491178,2.358884017090211,11.372680869233308,8.243651048122693,-0.0002914428769145,0.110118381679058,0,0,0
863,36546.70882953789,2011-01-24 21:03:26,90.04529885599494,3,5,0.0,4.066583156585693,2.782292880491178,2.358884017090211,11.372680869233308,8.243651048122693,-0.0001618385285837,0.110118381679058,0,0,0
864,36576.677058946574,2011-01-24 21:03:56,120.01352827470002,3,5,0.0,4.060593128204346,2.782292880491178,2.358884017090211,11.372680869233308,8.243651048122693,-9.71794142969884e-05,0.110118381679058,0,0,0
865,36576.67943074374,2011-01-24 21:03:56,2.651608625e-06,4,5,1.0269250869750977,4.200138568878174,2.782292881247567,2.358884017090211,11.37268087241025,8.243651048122693,0.0,0.110118381679058,0,0,0
866,36577.08555958176,2011-01-24 21:03:57,0.406131509685678,4,5,0.9754514694213868,4.199814796447754,2.782404514701045,2.358884017090211,11.37314971860676,8.243651048122693,-6.47544875391759e-05,0.110118381679058,0,0,0
867,36578.77305521511,2011-01-24 21:03:58,2.093627138020914,4,5,0.9247002601623536,4.199814796447754,2.782848717586918,2.358884017090211,11.375015294410748,8.243651048122693,-6.47544875391759e-05,0.110118381679058,0,0,0
868,36581.6010893714,2011-01-24 21:04:01,4.921661294302724,4,5,0.874671459197998,4.199653148651123,2.783554522468466,2.358884017090211,11.377979558991756,8.243651048122693,-3.23295607813634e-05,0.110118381679058,0,0,0
869,36585.56977455601,2011-01-24 21:04:05,8.890346473904192,4,5,0.8244621157646179,4.199814796447754,2.784489735073734,2.358884017090211,11.381907296009992,8.243651048122693,0.0,0.110118381679058,0,0,0
870,36590.88218098742,2011-01-24 21:04:10,14.202752905317867,4,5,0.774252712726593,4.199814796447754,2.785667752178493,2.358884017090211,11.386854798345777,8.243651048122693,0.0,0.110118381679058,0,0,0
871,36597.882126119526,2011-01-24 21:04:17,21.20269805245381,4,5,0.7240433692932129,4.199814796447754,2.78712251340632,2.358884017090211,11.39296458805036,8.243651048122693,0.0,0.110118381679058,0,0,0
872,36607.225652532274,2011-01-24 21:04:27,30.54622445016811,4,5,0.6740145683288574,4.199814796447754,2.788933923751966,2.358884017090211,11.400572275709438,8.243651048122693,0.0,0.110118381679058,0,0,0
873,36620.19418679498,2011-01-24 21:04:40,43.51475871286899,4,5,0.6239858269691467,4.199814796447754,2.791267042006449,2.358884017090211,11.410371051083237,8.243651048122693,0.0,0.110118381679058,0,0,0
874,36640.022002622885,2011-01-24 21:04:59,63.34257455581603,4,5,0.5739570260047913,4.199814796447754,2.794556188674088,2.358884017090211,11.42418502368324,8.243651048122693,0.0,0.110118381679058,0,0,0
875,36674.69323454089,2011-01-24 21:05:34,98.0138064587896,4,5,0.5239282846450806,4.199653148651123,2.799819675998208,2.358884017090211,11.446290960064466,8.243651048122693,-6.47544875391759e-05,0.110118381679058,0,0,0
876,36743.91075119008,2011-01-24 21:06:43,167.2313231079768,4,5,0.4738995134830475,4.199653148651123,2.809364690899373,2.358884017090211,11.486378731326193,8.243651048122693,-6.47544875391759e-05,0.110118381679058,0,0,0
877,36860.26834948738,2011-01-24 21:08:40,283.588921510534,4,5,0.4238707423210144,4.199814796447754,2.823833030926598,2.358884017090211,11.547143928136803,8.243651048122693,-3.24249267578125e-05,0.110118381679058,0,0,0
878,37010.95307474726,2011-01-24 21:11:10,434.2736468455998,4,5,0.3738419711589813,4.199814796447754,2.840498023572319,2.358884017090211,11.617134689045455,8.243651048122693,3.23295607813634e-05,0.110118381679058,0,0,0
879,37191.21552251747,2011-01-24 21:14:11,614.5360944303495,4,5,0.3236325681209564,4.199653148651123,2.857937700090869,2.358884017090211,11.690378365957846,8.243651048122693,-6.47544875391759e-05,0.110118381679058,0,0,0
880,37415.69625299882,2011-01-24 21:17:55,839.0168249367655,4,5,0.2736037969589233,4.199976921081543,2.876533563663918,2.358884017090211,11.768478436672034,8.243651048122693,3.24249267578125e-05,0.110118381679058,0,0,0
881,37689.3007713295,2011-01-24 21:22:29,1112.6213432474012,4,5,0.2235750406980514,4.199976921081543,2.895378127300024,2.358884017090211,11.847623213446692,8.243651048122693,0.0,0.110118381679058,0,0,0
882,38043.24775800707,2011-01-24 21:28:23,1466.5683299299792,4,5,0.1735462695360183,4.199653148651123,2.914833278645866,2.358884017090211,11.929332432172265,8.243651048122693,-3.23295607813634e-05,0.110118381679058,0,0,0
883,38534.77053865924,2011-01-24 21:36:34,1958.0911105771304,4,5,0.1235175058245658,4.199814796447754,2.934957667364272,2.358884017090211,12.013851970938282,8.243651048122693,0.0,0.110118381679058,0,0,0
884,39326.22567306383,2011-01-24 21:49:46,2749.5462449867364,4,5,0.0734887346625328,4.199653148651123,2.956148103023121,2.358884017090211,12.10284909021297,8.243651048122693,-3.23295607813634e-05,0.110118381679058,0,0,0
885,39988.43296434479,2011-01-24 22:00:48,3411.753536257673,4,5,0.0498289167881011,4.199814796447754,2.967379067106885,2.358884017090211,12.150017679613612,8.243651048122693,-3.24249267578125e-05,0.110118381679058,0,0,0
886,40018.447083888816,2011-01-24 22:01:18,30.01540983181159,5,5,0.0,4.1892924308776855,2.967379067106885,2.358884017090211,12.150017679613612,8.243651048122693,-0.0001295089750783,0.110118381679058,0,0,0
887,40048.44652734752,2011-01-24 22:01:48,60.014853275471175,5,5,0.0,4.187673568725586,2.967379067106885,2.358884017090211,12.150017679613612,8.243651048122693,-3.24249267578125e-05,0.110118381679058,0,0,0
888,40048.635608274926,2011-01-24 22:01:48,0.189590863768161,6,5,-1.9243103452026844e-05,4.187673568725586,2.967379067106885,2.358884018103632,12.150017679613612,8.243651052366571,0.0,0.1164906993508338,0,0,0
889,40053.46162733435,2011-01-24 22:01:53,5.015609742743453,6,5,0.0008838032954372,4.187673568725586,2.967379972667291,2.358884018259069,12.15002147190054,8.24365105301749,0.0,0.1164906993508338,0,0,0
890,40064.96114061429,2011-01-24 22:02:05,11.499873563342485,7,5,-1.0997490882873535,3.987582921981812,2.967379972667291,2.362396274939822,12.15002147190054,8.25771399763467,-0.0020720958709716,0.1164906993508338,0,0,0
891,40094.97617100041,2011-01-24 22:02:35,41.51490392439619,7,5,-1.099568486213684,3.926551818847656,2.967379972667291,2.37156330727651,12.15002147190054,8.29397989797484,-0.0014893531333655,0.1164906993508338,0,0,0
892,40124.99128802746,2011-01-24 22:03:05,71.53002095144822,7,5,-1.0997490882873535,3.874100923538208,2.967379972667291,2.380730330082852,12.15002147190054,8.329728792823225,-0.0013274669181555,0.1164906993508338,0,0,0
893,40155.00640205203,2011-01-24 22:03:35,101.54513497601714,7,5,-1.0993878841400146,3.831201314926148,2.967379972667291,2.389897362477485,12.15002147190054,8.36503923513042,-0.001003646873869,0.1164906993508338,0,0,0
894,40185.02151875828,2011-01-24 22:04:05,131.56025170733213,7,5,-1.099568486213684,3.796881437301636,2.967379972667291,2.399064309478026,12.15002147190054,8.399995598518663,-0.0008094310760498,0.1164906993508338,0,0,0
895,40215.03662135938,2011-01-24 22:04:35,161.57535430843026,7,5,-1.0993878841400146,3.770170211791992,2.967379972667291,2.408231341903819,12.15002147190054,8.434674630846574,-0.0005827903514727,0.1164906993508338,0,0,0
896,40245.05171266232,2011-01-24 22:05:05,191.59044558630745,7,5,-1.099568486213684,3.747992038726807,2.967379972667291,2.417398383149352,12.15002147190054,8.469130472613271,-0.0005504131549969,0.1164906993508338,0,0,0
897,40275.06685899741,2011-01-24 22:05:35,221.6055919214041,7,5,-1.099568486213684,3.7288894653320312,2.967379972667291,2.426565426013125,12.15002147190054,8.503397595923829,-0.0004532813909463,0.1164906993508338,0,0,0
898,40305.08192708249,2011-01-24 22:06:05,251.6206600064777,7,5,-1.099568486213684,3.711729526519776,2.967379972667291,2.435732464835344,12.15002147190054,8.53750063742764,-0.0004856586456298,0.1164906993508338,0,0,0
899,40335.097100830906,2011-01-24 22:06:35,281.6358337599093,7,5,-1.099568486213684,3.696350336074829,2.967379972667291,2.444899485141546,12.15002147190054,8.571455821685353,-0.0004209041653666,0.1164906993508338,0,0,0
900,40365.112206264064,2011-01-24 22:07:05,311.6509391830408,7,5,-1.0993878841400146,3.6822662353515625,2.967379972667291,2.454066533263292,12.15002147190054,8.605275393816616,-0.0003885269106831,0.1164906993508338,0,0,0
901,40395.12727872003,2011-01-24 22:07:35,341.666011639008,7,5,-1.0993878841400146,3.668991804122925,2.967379972667291,2.463233564743254,12.15002147190054,8.638968163065828,-0.0003237724304199,0.1164906993508338,0,0,0
902,40425.142357446624,2011-01-24 22:08:05,371.681090370616,7,5,-1.0993878841400146,3.656040906906128,2.967379972667291,2.472400664872117,12.15002147190054,8.672541321882768,-0.0003237724304199,0.1164906993508338,0,0,0
903,40455.1575937309,2011-01-24 22:08:35,401.6963266448688,7,5,-1.099568486213684,3.643899440765381,2.967379972667291,2.48156769508119,12.15002147190054,8.705999808315918,-0.0003237724304199,0.1164906993508338,0,0,0
904,40485.17257952088,2011-01-24 22:09:05,431.7113124448626,7,5,-1.099568486213684,3.632243633270264,2.967379972667291,2.490734720573316,12.15002147190054,8.739348962952466,-0.0002913951757363,0.1164906993508338,0,0,0
905,40515.187705655626,2011-01-24 22:09:35,461.7264385796138,7,5,-1.0997490882873535,3.620749711990357,2.967379972667291,2.49990175069598,12.15002147190054,8.772593300257945,-0.0003561496851034,0.1164906993508338,0,0,0
906,40545.20281146973,2011-01-24 22:10:05,491.7415444037448,7,5,-1.0993878841400146,3.609903335571289,2.967379972667291,2.509068742009359,12.15002147190054,8.805735590046767,-0.0002913951757363,0.1164906993508338,0,0,0
907,40575.21812369328,2011-01-24 22:10:35,521.7568566473365,7,5,-1.0992072820663452,3.5993807315826416,2.967379972667291,2.518235866943394,12.15002147190054,8.838778934312769,-0.0002266406954731,0.1164906993508338,0,0,0
908,40605.23303902264,2011-01-24 22:11:05,551.7717719516332,7,5,-1.0993878841400146,3.588858366012573,2.967379972667291,2.52740290860838,12.15002147190054,8.871724469943938,-0.0002590179501567,0.1164906993508338,0,0,0
909,40635.24812878172,2011-01-24 22:11:35,581.7868617157377,7,5,-1.0993878841400146,3.5786595344543457,2.967379972667291,2.536569976088831,12.15002147190054,8.90457602117183,-0.0002590179501567,0.1164906993508338,0,0,0
910,40665.26322216986,2011-01-24 22:12:05,611.8019551189118,7,5,-1.0992072820663452,3.569108247756958,2.967379972667291,2.54573700598946,12.15002147190054,8.937336959473363,-0.0002590179501567,0.1164906993508338,0,0,0
911,40695.27848454416,2011-01-24 22:12:35,641.8172174932138,7,5,-1.0992072820663452,3.5597188472747803,2.967379972667291,2.55490416030619,12.15002147190054,8.970010471942388,-0.0001618862152099,0.1164906993508338,0,0,0
912,40725.293563546446,2011-01-24 22:13:05,671.8322964904839,7,5,-1.099568486213684,3.5503294467926025,2.967379972667291,2.56407126189999,12.15002147190054,9.0025996587015,-0.0002590179501567,0.1164906993508338,0,0,0
913,40755.3085536622,2011-01-24 22:13:35,701.847286586184,7,5,-1.099568486213684,3.5414257049560547,2.967379972667291,2.573238294954881,12.15002147190054,9.03510599963182,-0.0002590179501567,0.1164906993508338,0,0,0
914,40785.32442305939,2011-01-24 22:14:05,731.8631560936489,7,5,-1.0997490882873535,3.5333313941955566,2.967379972667291,2.582405661816206,12.15002147190054,9.067534769362766,-0.0001942634553415,0.1164906993508338,0,0,0
915,40815.325001857695,2011-01-24 22:14:35,761.8637348819367,7,5,-1.0993878841400146,3.525398969650269,2.967379972667291,2.59156837682439,12.15002147190054,9.099872700770623,-0.0001618862152099,0.1164906993508338,0,0,0
916,40845.33824821747,2011-01-24 22:15:05,791.8769811464728,7,5,-1.0993878841400146,3.5174665451049805,2.967379972667291,2.600734873553095,12.15002147190054,9.132151398896292,-0.0001942634553415,0.1164906993508338,0,0,0
917,40875.35335881851,2011-01-24 22:15:35,821.8920917475092,7,5,-1.099568486213684,3.5098581314086914,2.967379972667291,2.60990195878804,12.15002147190054,9.164361913380397,-0.0002266406954731,0.1164906993508338,0,0,0
918,40905.36846969523,2011-01-24 22:16:05,851.9072026142078,7,5,-1.0993878841400146,3.502411365509033,2.967379972667291,2.619069050303313,12.15002147190054,9.196503135404322,-0.0002266406954731,0.1164906993508338,0,0,0
919,40935.385838168586,2011-01-24 22:16:35,881.9245711076068,7,5,-1.099568486213684,3.495288372039795,2.967379972667291,2.628236819265754,12.15002147190054,9.228579990075591,-0.0001942634553415,0.1164906993508338,0,0,0
920,40965.39883319696,2011-01-24 22:17:05,911.9375661409975,7,5,-1.0997490882873535,3.4880034923553467,2.967379972667291,2.63740331073538,12.15002147190054,9.260586812662208,-0.0002266406954731,0.1164906993508338,0,0,0
921,40995.413782064905,2011-01-24 22:17:35,941.952514993908,7,5,-1.0997490882873535,3.4808804988861084,2.967379972667291,2.646570386807011,12.15002147190054,9.292530834468764,-0.0002266406954731,0.1164906993508338,0,0,0
922,41025.42903757711,2011-01-24 22:18:05,971.9677705010948,7,5,-1.0993878841400146,3.47391939163208,2.967379972667291,2.655737498949435,12.15002147190054,9.324408733061071,-0.0001618862152099,0.1164906993508338,0,0,0
923,41055.44400659026,2011-01-24 22:18:35,1001.9827395142509,7,5,-1.099568486213684,3.466634511947632,2.967379972667291,2.664904514788663,12.15002147190054,9.356220829549054,-0.0001618862152099,0.1164906993508338,0,0,0
924,41085.45910762245,2011-01-24 22:19:05,1031.9978405514514,7,5,-1.099568486213684,3.4596734046936035,2.967379972667291,2.674071598663406,12.15002147190054,9.387967865288498,-0.0001942634553415,0.1164906993508338,0,0,0
925,41115.47425069942,2011-01-24 22:19:35,1062.0129836234153,7,5,-1.099568486213684,3.452874183654785,2.967379972667291,2.683238702240311,12.15002147190054,9.419650874680762,-0.0001618862152099,0.1164906993508338,0,0,0
926,41145.48937577655,2011-01-24 22:20:05,1092.028108735618,7,5,-1.099568486213684,3.446074962615967,2.967379972667291,2.692405808136471,12.15002147190054,9.451272769216802,-0.0001942634553415,0.1164906993508338,0,0,0
927,41175.50445507958,2011-01-24 22:20:35,1122.0431880135875,7,5,-1.0992072820663452,3.4392757415771484,2.967379972667291,2.701572919893906,12.15002147190054,9.48283184222366,-0.0001618862152099,0.1164906993508338,0,0,0
928,41205.519608016126,2011-01-24 22:21:05,1152.0583409601622,7,5,-1.0997490882873535,3.43231463432312,2.967379972667291,2.710740065543618,12.15002147190054,9.514327926786676,-0.0001942634553415,0.1164906993508338,0,0,0
929,41235.53527107405,2011-01-24 22:21:35,1182.0740039930288,7,5,-1.0993878841400146,3.425353765487671,2.967379972667291,2.719907347185933,12.15002147190054,9.545760837410787,-0.0001618862152099,0.1164906993508338,0,0,0
930,41265.53640009369,2011-01-24 22:22:05,1212.0751331078998,7,5,-1.0993878841400146,3.4179069995880127,2.967379972667291,2.729070210557337,12.15002147190054,9.577112163031344,-0.0001942634553415,0.1164906993508338,0,0,0
931,41295.54928449134,2011-01-24 22:22:35,1242.0880175055524,7,5,-1.099568486213684,3.4102983474731445,2.967379972667291,2.738236735543874,12.15002147190054,9.6084079799481,-0.0001942634553415,0.1164906993508338,0,0,0
932,41325.564371994806,2011-01-24 22:23:05,1272.103104913785,7,5,-1.0993878841400146,3.4026896953582764,2.967379972667291,2.74740390055972,12.15002147190054,9.639635786800216,-0.0001942634553415,0.1164906993508338,0,0,0
933,41355.57946592429,2011-01-24 22:23:35,1302.118198853296,7,5,-1.0993878841400146,3.3944334983825684,2.967379972667291,2.756570994343767,12.15002147190054,9.670789853996784,-0.0001942634553415,0.1164906993508338,0,0,0
934,41385.594570199566,2011-01-24 22:24:05,1332.1333031185416,7,5,-1.0993878841400146,3.3856916427612305,2.967379972667291,2.765738147259764,12.15002147190054,9.701867558077602,-0.0002590179501567,0.1164906993508338,0,0,0
935,41415.60969018399,2011-01-24 22:24:35,1362.148423107977,7,5,-1.0993878841400146,3.3766260147094727,2.967379972667291,2.774905232825723,12.15002147190054,9.732863377926003,-0.0002590179501567,0.1164906993508338,0,0,0
936,41445.62477877016,2011-01-24 22:25:06,1392.163511689133,7,5,-1.099568486213684,3.367074728012085,2.967379972667291,2.784072412583681,12.15002147190054,9.763773535827124,-0.0002590179501567,0.1164906993508338,0,0,0
937,41475.64001595669,2011-01-24 22:25:36,1422.1787488906969,7,5,-1.0992072820663452,3.3568758964538574,2.967379972667291,2.793239633420135,12.15002147190054,9.794593466658506,-0.0002590179501567,0.1164906993508338,0,0,0
938,41505.6550098719,2011-01-24 22:26:06,1452.1937427908788,7,5,-1.0993878841400146,3.346029758453369,2.967379972667291,2.802406852297244,12.15002147190054,9.825317010259967,-0.0002913951757363,0.1164906993508338,0,0,0
939,41535.67033794996,2011-01-24 22:26:36,1482.2090710644222,7,5,-1.0997490882873535,3.334373950958252,2.967379972667291,2.811574111537995,12.15002147190054,9.855938916360143,-0.0003237724304199,0.1164906993508338,0,0,0
940,41565.68521460794,2011-01-24 22:27:06,1512.2239475269132,7,5,-1.0997490882873535,3.321746826171875,2.967379972667291,2.820741172614258,12.15002147190054,9.886449671249418,-0.0003561496851034,0.1164906993508338,0,0,0
941,41595.70032028671,2011-01-24 22:27:36,1542.239053205682,7,5,-1.099568486213684,3.3078246116638184,2.967379972667291,2.829908286176546,12.15002147190054,9.916837121614408,-0.0003561496851034,0.1164906993508338,0,0,0
942,41625.71543334387,2011-01-24 22:28:06,1572.2541662628396,7,5,-1.0993878841400146,3.292283535003662,2.967379972667291,2.839075447886941,12.15002147190054,9.947090819340737,-0.0004209041653666,0.1164906993508338,0,0,0
943,41655.730545769446,2011-01-24 22:28:36,1602.269278693436,7,5,-1.099568486213684,3.2741522789001465,2.967379972667291,2.848242949705384,12.15002147190054,9.97719091610868,-0.0005180359003134,0.1164906993508338,0,0,0
944,41685.745660515815,2011-01-24 22:29:06,1632.2843934548414,7,5,-1.099568486213684,3.2539167404174805,2.967379972667291,2.85741083729312,12.15002147190054,10.007116977061044,-0.0005827903514727,0.1164906993508338,0,0,0
945,41715.76091014836,2011-01-24 22:29:36,1662.2996430974122,7,5,-1.0993878841400146,3.2299575805664062,2.967379972667291,2.866578481662981,12.15002147190054,10.036839621487816,-0.0006475448608398,0.1164906993508338,0,0,0
946,41745.77590987306,2011-01-24 22:30:06,1692.3146428020607,7,5,-1.0993878841400146,3.2009799480438232,2.967379972667291,2.875745608593723,12.15002147190054,10.06631941966764,-0.0008418083307333,0.1164906993508338,0,0,0
947,41775.79121686857,2011-01-24 22:30:36,1722.3299498176225,7,5,-1.0993878841400146,3.165041446685791,2.967379972667291,2.884912816772724,12.15002147190054,10.095503617450056,-0.0010360718006268,0.1164906993508338,0,0,0
948,41805.80616403729,2011-01-24 22:31:06,1752.34489705651,7,5,-1.0993878841400146,3.119227647781372,2.967379972667291,2.894079890146613,12.15002147190054,10.124318301227715,-0.0013598442310467,0.1164906993508338,0,0,0
949,41835.82135621664,2011-01-24 22:31:36,1782.3600891606773,7,5,-1.0993878841400146,3.057711124420166,2.967379972667291,2.903247051457252,12.15002147190054,10.152643451925885,-0.0018131255637854,0.1164906993508338,0,0,0
950,41865.836342086805,2011-01-24 22:32:06,1812.3750750158088,7,5,-1.0993878841400146,2.972721099853516,2.967379972667291,2.912414125375197,12.15002147190054,10.180307440472223,-0.0026225566398352,0.1164906993508338,0,0,0
951,41895.85145326929,2011-01-24 22:32:36,1842.390186288519,7,5,-1.0997490882873535,2.848231077194214,2.967379972667291,2.921581280948507,12.15002147190054,10.2070237781685,-0.003885269165039,0.1164906993508338,0,0,0
952,41921.944724695386,2011-01-24 22:33:02,1868.4834576193743,7,5,-1.0993878841400146,2.699943780899048,2.967379972667291,2.929550625627515,12.15002147190054,10.22915522194203,-0.0049860477447509,0.1164906993508338,0,0,0
953,41981.96003685704,2011-01-24 22:34:02,60.01459869598075,8,5,0.0,3.638557195663452,2.967379972667291,2.929550625627515,12.15002147190054,10.22915522194203,0.0012627125252038,0.1164906993508338,0,0,0
954,41982.14940924272,2011-01-24 22:34:02,0.187628177149203,9,5,-1.9243103452026844e-05,3.638880968093872,2.967379972667291,2.929550626630445,12.15002147190054,10.229155225591574,0.0,0.1119400113821029,0,0,0
955,41986.97734107938,2011-01-24 22:34:07,5.015560003778648,9,5,0.0008838032954372,3.6463277339935294,2.967380833319857,2.929550626713585,12.150024607405973,10.229155225894113,0.0011008263099938,0.1119400113821029,0,0,0
