Data_Point,Test_Time(s),Date_Time,Step_Time(s),Step_Index,Cycle_Index,Current(A),Voltage(V),Charge_Capacity(Ah),Discharge_Capacity(Ah),Charge_Energy(Wh),Discharge_Energy(Wh),dV/dt(V/s),Internal_Resistance(Ohm),Is_FC_Data,AC_Impedance(Ohm),ACI_Phase_Angle(Deg)
4491,200699.6713400097,2011-01-26 18:39:44,30.01509985425214,1,26,0.0,3.6940839290618896,13.939562407617856,13.863701915486091,57.17026569259634,48.1597764334902,0.0005827903514727,0.1134596467018127,0,0,0
4492,200729.6864004357,2011-01-26 18:40:14,60.030160245149446,1,26,0.0,3.7112438678741455,13.939562407617856,13.863701915486091,57.17026569259634,48.1597764334902,0.0003561496851034,0.1134596467018127,0,0,0
4493,200759.7016935516,2011-01-26 18:40:44,90.04545338111909,1,26,0.0,3.7233853340148926,13.939562407617856,13.863701915486091,57.17026569259634,48.1597764334902,0.0002913951757363,0.1134596467018127,0,0,0
4494,200789.6697659239,2011-01-26 18:41:14,120.01352573837872,1,26,0.0,3.7324509620666495,13.939562407617856,13.863701915486091,57.17026569259634,48.1597764334902,0.0002266406954731,0.1134596467018127,0,0,0
4495,200819.68159832308,2011-01-26 18:41:44,30.01522291595978,2,26,0.5501165986061096,3.849332332611084,13.94414899150486,13.863701915486091,57.18784238795868,48.1597764334902,0.0006799221155233,0.1134596467018127,0,0,0
4496,200849.69657899023,2011-01-26 18:42:14,60.03020356812363,2,26,0.550297200679779,3.869082450866699,13.948735451236631,13.863701915486091,57.20554586792034,48.1597764334902,0.0004209041653666,0.1134596467018127,0,0,0
4497,200879.7118287431,2011-01-26 18:42:44,90.04545334603165,2,26,0.5499359965324402,3.882842779159546,13.953321882170163,13.863701915486091,57.22332430320033,48.1597764334902,0.0002913951757363,0.1134596467018127,0,0,0
4498,200909.72682499417,2011-01-26 18:43:14,120.06044956699776,2,26,0.5501165986061096,3.894336700439453,13.957908457792795,13.863701915486091,57.24116065427312,48.1597764334902,0.0002590179501567,0.1134596467018127,0,0,0
4499,200939.7420782357,2011-01-26 18:43:44,150.0757028135507,2,26,0.5501165986061096,3.9042117595672607,13.962494968782236,13.863701915486091,57.25904492705608,48.1597764334902,0.0002590179501567,0.1134596467018127,0,0,0
4500,200969.75708159443,2011-01-26 18:44:14,180.09070617731885,2,26,0.5501165986061096,3.9131155014038086,13.967081509218138,13.863701915486091,57.27697246633914,48.1597764334902,0.0002266406954731,0.1134596467018127,0,0,0
4501,200999.7721786417,2011-01-26 18:44:44,210.1058032095376,2,26,0.5501165986061096,3.9213714599609375,13.971667986014133,13.863701915486091,57.29493898321794,48.1597764334902,0.0001942634553415,0.1134596467018127,0,0,0
4502,201029.78739863035,2011-01-26 18:45:14,240.12102325333908,2,26,0.5499359965324402,3.929141998291016,13.976253719855665,13.863701915486091,57.31293900465563,48.1597764334902,0.0001942634553415,0.1134596467018127,0,0,0
4503,201059.8023974328,2011-01-26 18:45:44,270.1360220457139,2,26,0.5499359965324402,3.936264991760254,13.980839349004238,13.863701915486091,57.33097301392307,48.1597764334902,0.0001295089750783,0.1134596467018127,0,0,0
4504,201089.8196825584,2011-01-26 18:46:14,300.1533072415096,2,26,0.5499359965324402,3.943226099014282,13.985425296189558,13.863701915486091,57.34904070121068,48.1597764334902,0.0001618862152099,0.1134596467018127,0,0,0
4505,201119.8326315721,2011-01-26 18:46:44,330.1662561499429,2,26,0.5501165986061096,3.94986343383789,13.99001056662692,13.863701915486091,57.367136709298464,48.1597764334902,0.0001618862152099,0.1134596467018127,0,0,0
4506,201149.84774478964,2011-01-26 18:47:14,360.181369372513,2,26,0.5501165986061096,3.956015110015869,13.994596903536864,13.863701915486091,57.38526641900231,48.1597764334902,0.0001618862152099,0.1134596467018127,0,0,0
4507,201179.8628790948,2011-01-26 18:47:44,390.19650370268977,2,26,0.5501165986061096,3.961843013763428,13.999183402725915,13.863701915486091,57.40342445036404,48.1597764334902,0.0001295089750783,0.1134596467018127,0,0,0
4508,201209.87799119955,2011-01-26 18:48:14,420.2116157824115,2,26,0.5499359965324402,3.967509031295776,14.00376989569886,13.863701915486091,57.42160876785488,48.1597764334902,0.0001295089750783,0.1134596467018127,0,0,0
4509,201239.8930977956,2011-01-26 18:48:44,450.22672236844136,2,26,0.5499359965324402,3.972851276397705,14.008356398011212,13.863701915486091,57.4398180982603,48.1597764334902,0.0001295089750783,0.1134596467018127,0,0,0
4510,201269.90828139355,2011-01-26 18:49:14,480.241905991471,2,26,0.5501165986061096,3.977707862854004,14.012942854996332,13.863701915486091,57.45805100534888,48.1597764334902,9.713172767078504e-05,0.1134596467018127,0,0,0
4511,201299.9233386266,2011-01-26 18:49:44,510.2569631994355,2,26,0.5499359965324402,3.9827263355255127,14.01752924325964,13.863701915486091,57.4763062891531,48.1597764334902,9.713172767078504e-05,0.1134596467018127,0,0,0
4512,201329.9385663746,2011-01-26 18:50:14,540.2721909775132,2,26,0.5501165986061096,3.987582921981812,14.022115656396393,13.863701915486091,57.49458375098671,48.1597764334902,0.0001942634553415,0.1134596467018127,0,0,0
4513,201359.95357114688,2011-01-26 18:50:44,570.2871957247294,2,26,0.5501165986061096,3.991953849792481,14.026702017536778,13.863701915486091,57.51288212790565,48.1597764334902,9.713172767078504e-05,0.1134596467018127,0,0,0
4514,201389.9708501472,2011-01-26 18:51:14,600.3044747300966,2,26,0.5501165986061096,3.9963245391845694,14.031288757755496,13.863701915486091,57.53120245549319,48.1597764334902,9.713172767078504e-05,0.1134596467018127,0,0,0
4515,201419.98396821224,2011-01-26 18:51:44,630.3175928151701,2,26,0.5501165986061096,4.000695705413818,14.035874900951947,13.863701915486091,57.54954019373729,48.1597764334902,0.0001295089750783,0.1134596467018127,0,0,0
4516,201449.99891197245,2011-01-26 18:52:14,660.3325365503255,2,26,0.5499359965324402,4.004742622375488,14.040461198495214,13.863701915486091,57.56789772166701,48.1597764334902,9.70840483205393e-05,0.1134596467018127,0,0,0
4517,201480.0140338516,2011-01-26 18:52:44,690.3476584294704,2,26,0.5501165986061096,4.008790016174316,14.04504752846194,13.863701915486091,57.58627414171252,48.1597764334902,9.71794142969884e-05,0.1134596467018127,0,0,0
4518,201510.02918617663,2011-01-26 18:53:14,720.3628108397082,2,26,0.5499359965324402,4.012675285339356,14.049633982848432,13.863701915486091,57.6046693634528,48.1597764334902,9.71794142969884e-05,0.1134596467018127,0,0,0
4519,201540.04427400592,2011-01-26 18:53:44,750.3778985787656,2,26,0.550297200679779,4.016722202301025,14.05422036065055,13.863701915486091,57.6230822629782,48.1597764334902,0.0001295089750783,0.1134596467018127,0,0,0
4520,201570.05938960443,2011-01-26 18:54:15,780.3930141772573,2,26,0.550297200679779,4.020445823669434,14.058806862525095,13.863701915486091,57.64151321901334,48.1597764334902,9.71794142969884e-05,0.1134596467018127,0,0,0
4521,201600.0745816284,2011-01-26 18:54:45,810.4082062112496,2,26,0.5501165986061096,4.024007320404053,14.063393262904224,13.863701915486091,57.659961213982285,48.1597764334902,3.24249267578125e-05,0.1134596467018127,0,0,0
4522,201630.0896543901,2011-01-26 18:55:15,840.4232789930288,2,26,0.5501165986061096,4.027730464935303,14.067979732914004,13.863701915486091,57.67842655042318,48.1597764334902,6.47544875391759e-05,0.1134596467018127,0,0,0
4523,201660.1047547256,2011-01-26 18:55:45,870.4383792984053,2,26,0.5499359965324402,4.031454086303711,14.072566223669142,13.863701915486091,57.69690889773637,48.1597764334902,9.71794142969884e-05,0.1134596467018127,0,0,0
4524,201690.1198499433,2011-01-26 18:56:15,900.4534745110891,2,26,0.5499359965324402,4.035015106201172,14.077152631629671,13.863701915486091,57.71540748842256,48.1597764334902,3.23295607813634e-05,0.1134596467018127,0,0,0
4525,201720.13497083497,2011-01-26 18:56:45,930.4685954077856,2,26,0.5501165986061096,4.03873872756958,14.081739010196854,13.863701915486091,57.7339223613286,48.1597764334902,9.71794142969884e-05,0.1134596467018127,0,0,0
4526,201750.1500833908,2011-01-26 18:57:15,960.4837079687068,2,26,0.5501165986061096,4.042300224304199,14.086325474202413,13.863701915486091,57.752453750934734,48.1597764334902,9.71794142969884e-05,0.1134596467018127,0,0,0
4527,201780.1655051524,2011-01-26 18:57:45,990.499129845538,2,26,0.5501165986061096,4.045861721038818,14.090911920599016,13.863701915486091,57.7710010738308,48.1597764334902,0.0001295089750783,0.1134596467018127,0,0,0
4528,201810.1803564973,2011-01-26 18:58:15,1020.5139810701286,2,26,0.5501165986061096,4.049099445343018,14.095498273589236,13.863701915486091,57.78956396234831,48.1597764334902,9.71794142969884e-05,0.1134596467018127,0,0,0
4529,201840.19558076665,2011-01-26 18:58:45,1050.5292053595113,2,26,0.550297200679779,4.052660942077637,14.100084760337564,13.863701915486091,57.80814305836271,48.1597764334902,0.0001295089750783,0.1134596467018127,0,0,0
4530,201870.2106490121,2011-01-26 18:59:15,1080.5442736801722,2,26,0.5501165986061096,4.056060314178467,14.104671216197088,13.863701915486091,57.82673763157536,48.1597764334902,9.70840483205393e-05,0.1134596467018127,0,0,0
4531,201900.2259017674,2011-01-26 18:59:45,1110.5595263703383,2,26,0.5501165986061096,4.059460163116455,14.109257655946973,13.863701915486091,57.84534767805234,48.1597764334902,9.71794142969884e-05,0.1134596467018127,0,0,0
4532,201930.24079151303,2011-01-26 19:00:15,1140.5744160858603,2,26,0.550297200679779,4.062535762786865,14.113844106148107,13.863701915486091,57.863973001129,48.1597764334902,6.47544875391759e-05,0.1134596467018127,0,0,0
4533,201960.2559244397,2011-01-26 19:00:45,1170.589549012539,2,26,0.5499359965324402,4.0657734870910645,14.118430520891607,13.863701915486091,57.88261347715871,48.1597764334902,6.47544875391759e-05,0.1134596467018127,0,0,0
4534,201990.27102550693,2011-01-26 19:01:15,1200.6046500898392,2,26,0.5499359965324402,4.069334983825684,14.123016968100703,13.863701915486091,57.90126935965186,48.1597764334902,9.70840483205393e-05,0.1134596467018127,0,0,0
4535,202020.28614778208,2011-01-26 19:01:45,1230.6197723549462,2,26,0.5501165986061096,4.072572708129883,14.127603354857222,13.863701915486091,57.9199402262461,48.1597764334902,6.47544875391759e-05,0.1134596467018127,0,0,0
4536,202050.3012708392,2011-01-26 19:02:15,1260.6348954170394,2,26,0.5501165986061096,4.075810432434082,14.132189751037451,13.863701915486091,57.93862639495865,48.1597764334902,9.70840483205393e-05,0.1134596467018127,0,0,0
4537,202080.31636780623,2011-01-26 19:02:45,1290.6499923891083,2,26,0.5501165986061096,4.079371929168701,14.136776111057925,13.863701915486091,57.957327660222425,48.1597764334902,0.0001295089750783,0.1134596467018127,0,0,0
4538,202110.33148827183,2011-01-26 19:03:15,1320.6651128447054,2,26,0.550297200679779,4.0824480056762695,14.141362574381912,13.863701915486091,57.97604455873578,48.1597764334902,3.24249267578125e-05,0.1134596467018127,0,0,0
4539,202140.34661778004,2011-01-26 19:03:45,1350.680242352864,2,26,0.5501165986061096,4.0858473777771,14.145948961791564,13.863701915486091,57.99477634632016,48.1597764334902,6.47544875391759e-05,0.1134596467018127,0,0,0
4540,202170.36187883603,2011-01-26 19:04:15,1380.695503433943,2,26,0.5501165986061096,4.089247226715088,14.150535392467395,13.863701915486091,58.01352356768366,48.1597764334902,9.71794142969884e-05,0.1134596467018127,0,0,0
4541,202200.3768334383,2011-01-26 19:04:45,1410.71045803117,2,26,0.5499359965324402,4.092484951019287,14.155121882320614,13.863701915486091,58.03228626701723,48.1597764334902,0.0001295089750783,0.1134596467018127,0,0,0
4542,202230.39195548283,2011-01-26 19:05:15,1440.7255800556773,2,26,0.5501165986061096,4.096046447753906,14.15970822456317,13.863701915486091,58.05106358954102,48.1597764334902,0.0001295089750783,0.1134596467018127,0,0,0
4543,202260.40708802856,2011-01-26 19:05:45,1470.7407126314815,2,26,0.5501165986061096,4.099122047424316,14.164294655543536,13.863701915486091,58.06985652642294,48.1597764334902,9.70840483205393e-05,0.1134596467018127,0,0,0
4544,202290.4221921033,2011-01-26 19:06:15,1500.7558166761776,2,26,0.5501165986061096,4.102359771728516,14.168881125467,13.863701915486091,58.08866486411769,48.1597764334902,6.47544875391759e-05,0.1134596467018127,0,0,0
4545,202320.437298153,2011-01-26 19:06:45,1530.7709227308833,2,26,0.550297200679779,4.105921268463135,14.173467517826449,13.863701915486091,58.10748815016703,48.1597764334902,0.0001295089750783,0.1134596467018127,0,0,0
4546,202350.452555179,2011-01-26 19:07:15,1560.786179781918,2,26,0.5499359965324402,4.109321117401123,14.178053907806571,13.863701915486091,58.12632681657141,48.1597764334902,0.0001295089750783,0.1134596467018127,0,0,0
4547,202380.46754156044,2011-01-26 19:07:45,1590.8011661382986,2,26,0.5501165986061096,4.112396717071533,14.182640308949582,13.863701915486091,58.14518097802521,48.1597764334902,6.47544875391759e-05,0.1134596467018127,0,0,0
4548,202410.48265016152,2011-01-26 19:08:15,1620.816274734338,2,26,0.5499359965324402,4.115796089172363,14.187226710910156,13.863701915486091,58.16405048922174,48.1597764334902,6.47544875391759e-05,0.1134596467018127,0,0,0
4549,202440.4977646873,2011-01-26 19:08:45,1650.831389260156,2,26,0.550297200679779,4.119357585906982,14.191813094898796,13.863701915486091,58.18293544484289,48.1597764334902,6.47544875391759e-05,0.1134596467018127,0,0,0
4550,202470.5129090024,2011-01-26 19:09:15,1680.8465335752182,2,26,0.5501165986061096,4.122757434844971,14.196399533372064,13.863701915486091,58.201836242944914,48.1597764334902,9.71794142969884e-05,0.1134596467018127,0,0,0
4551,202500.5281798127,2011-01-26 19:09:45,1710.8618044055954,2,26,0.5501165986061096,4.126156806945801,14.200985904344789,13.863701915486091,58.22075216229664,48.1597764334902,9.70840483205393e-05,0.1134596467018127,0,0,0
4552,202530.54312405916,2011-01-26 19:10:15,1740.8767486369877,2,26,0.5501165986061096,4.129556655883789,14.20557229483762,13.863701915486091,58.23968400788695,48.1597764334902,9.71794142969884e-05,0.1134596467018127,0,0,0
4553,202560.55838722532,2011-01-26 19:10:45,1770.8920118132885,2,26,0.5499359965324402,4.133118152618408,14.210158682709295,13.863701915486091,58.25863177033738,48.1597764334902,0.0001295089750783,0.1134596467018127,0,0,0
4554,202590.57337830856,2011-01-26 19:11:15,1800.907002971637,2,26,0.5499359965324402,4.136517524719238,14.214745076323018,13.863701915486091,58.27759552650308,48.1597764334902,6.47544875391759e-05,0.1134596467018127,0,0,0
4555,202620.5886428934,2011-01-26 19:11:45,1830.9222674862733,2,26,0.5499359965324402,4.139917373657227,14.219331529955436,13.863701915486091,58.296575618898,48.1597764334902,6.47544875391759e-05,0.1134596467018127,0,0,0
4556,202650.60359333025,2011-01-26 19:12:15,1860.937217903081,2,26,0.5499359965324402,4.143478870391846,14.223918038855723,13.863701915486091,58.31557212953214,48.1597764334902,3.24249267578125e-05,0.1134596467018127,0,0,0
4557,202680.61912923623,2011-01-26 19:12:45,1890.9527538341715,2,26,0.550297200679779,4.147202014923096,14.228504479957206,13.863701915486091,58.334584806307,48.1597764334902,9.70840483205393e-05,0.1134596467018127,0,0,0
4558,202710.6338392289,2011-01-26 19:13:15,1920.967463821756,2,26,0.5499359965324402,4.150763511657715,14.233090793922988,13.863701915486091,58.35361351704742,48.1597764334902,9.70840483205393e-05,0.1134596467018127,0,0,0
4559,202740.6490821748,2011-01-26 19:13:45,1950.9827067676365,2,26,0.5504778623580933,4.154487133026123,14.23767724344084,13.863701915486091,58.3726592595314,48.1597764334902,0.0001295089750783,0.1134596467018127,0,0,0
4560,202770.66406185448,2011-01-26 19:14:15,1980.9976864323387,2,26,0.5501165986061096,4.158210277557373,14.242263574502353,13.863701915486091,58.3917211534238,48.1597764334902,0.0001295089750783,0.1134596467018127,0,0,0
4561,202800.67938914057,2011-01-26 19:14:45,2011.0130137334584,2,26,0.5501165986061096,4.161771774291992,14.2468500890299,13.863701915486091,58.41080054364667,48.1597764334902,9.70840483205393e-05,0.1134596467018127,0,0,0
4562,202830.69427355783,2011-01-26 19:15:15,2041.0278981608008,2,26,0.550297200679779,4.165333271026611,14.251436596016116,13.863701915486091,58.42989665138979,48.1597764334902,6.47544875391759e-05,0.1134596467018127,0,0,0
4563,202860.7097036953,2011-01-26 19:15:45,2071.043328373408,2,26,0.5499359965324402,4.16905689239502,14.256023080412492,13.863701915486091,58.44900957728922,48.1597764334902,9.71794142969884e-05,0.1134596467018127,0,0,0
4564,202890.72452177727,2011-01-26 19:16:15,2101.0581463551466,2,26,0.5501165986061096,4.172942161560059,14.26060952800599,13.863701915486091,58.46813940809006,48.1597764334902,0.0001295089750783,0.1134596467018127,0,0,0
4565,202920.73961782205,2011-01-26 19:16:45,2131.073242394892,2,26,0.5499359965324402,4.176665306091309,14.265196034726904,13.863701915486091,58.487286604423765,48.1597764334902,9.70840483205393e-05,0.1134596467018127,0,0,0
4566,202950.75476082385,2011-01-26 19:17:15,2161.088385401694,2,26,0.5501165986061096,4.180388927459717,14.269782534434295,13.863701915486091,58.50645085818636,48.1597764334902,9.71794142969884e-05,0.1134596467018127,0,0,0
4567,202980.7698823772,2011-01-26 19:17:45,2191.103506960039,2,26,0.5501165986061096,4.184274196624756,14.274369049469378,13.863701915486091,58.525632513782746,48.1597764334902,0.0001619339018361,0.1134596467018127,0,0,0
4568,203010.7871519039,2011-01-26 19:18:15,2221.1207765920444,2,26,0.5499359965324402,4.187673568725586,14.27895589317534,13.863701915486091,58.54483293857429,48.1597764334902,3.23295607813634e-05,0.1134596467018127,0,0,0
4569,203040.800091038,2011-01-26 19:18:45,2251.1337156158424,2,26,0.5499359965324402,4.191720962524414,14.283542046211185,13.863701915486091,58.564048044404565,48.1597764334902,9.71794142969884e-05,0.1134596467018127,0,0,0
4570,203070.8156403324,2011-01-26 19:19:15,2281.149265010488,2,26,0.5501165986061096,4.195605754852295,14.288128492240585,13.863701915486091,58.5832820665507,48.1597764334902,9.70840483205393e-05,0.1134596467018127,0,0,0
4571,203100.83037085112,2011-01-26 19:19:45,2311.1639954540547,2,26,0.550297200679779,4.199653148651123,14.29271490707584,13.863701915486091,58.60253380465988,48.1597764334902,0.0001295089750783,0.1134596467018127,0,0,0
4572,203103.627150672,2011-01-26 19:19:48,2313.960775249853,2,26,0.5501165986061096,4.200138568878174,14.293142274231284,13.863701915486091,58.604328630221005,48.1597764334902,0.0001295089750783,0.1134596467018127,0,0,0
4573,203133.6469484852,2011-01-26 19:20:18,30.015236143927943,3,26,0.0,4.090056419372559,14.293142274231284,13.863701915486091,58.604328630221005,48.1597764334902,-0.0004532813909463,0.1134596467018127,0,0,0
4574,203163.6620584697,2011-01-26 19:20:48,60.03034613845277,3,26,0.0,4.076134204864502,14.293142274231284,13.863701915486091,58.604328630221005,48.1597764334902,-0.0003237724304199,0.1134596467018127,0,0,0
4575,203193.67705810416,2011-01-26 19:21:18,90.0453457528764,3,26,0.0,4.067878246307373,14.293142274231284,13.863701915486091,58.604328630221005,48.1597764334902,-0.0001618385285837,0.1134596467018127,0,0,0
4576,203223.64540920613,2011-01-26 19:21:48,120.01369686487864,3,26,0.0,4.0617265701293945,14.293142274231284,13.863701915486091,58.604328630221005,48.1597764334902,-0.0001618385285837,0.1134596467018127,0,0,0
4577,203223.6518889848,2011-01-26 19:21:48,2.596471205e-06,4,26,1.0209649801254272,4.199976921081543,14.293142274967646,13.863701915486091,58.60432863331371,48.1597764334902,0.0,0.1134596467018127,0,0,0
4578,203224.0268738775,2011-01-26 19:21:49,0.37498750424134,4,26,0.9703943729400636,4.199814796447754,14.293244726802014,13.863701915486091,58.60475891585686,48.1597764334902,-3.24249267578125e-05,0.1134596467018127,0,0,0
4579,203225.6837879071,2011-01-26 19:21:50,2.031901543847744,4,26,0.9201850295066832,4.199653148651123,14.293678540169818,13.863701915486091,58.60658084739196,48.1597764334902,-6.47544875391759e-05,0.1134596467018127,0,0,0
4580,203228.49555781783,2011-01-26 19:21:53,4.843671454625374,4,26,0.8696144223213196,4.199814796447754,14.294376517702098,13.863701915486091,58.60951225002366,48.1597764334902,0.0,0.1134596467018127,0,0,0
4581,203232.52900248804,2011-01-26 19:21:57,8.877116235078194,4,26,0.8194050192832947,4.199814796447754,14.295321469538395,13.863701915486091,58.61348090479438,48.1597764334902,0.0,0.1134596467018127,0,0,0
4582,203237.91750932005,2011-01-26 19:22:03,14.265622951818376,4,26,0.769376277923584,4.199814796447754,14.29650875863284,13.863701915486091,58.618467339000446,48.1597764334902,-3.24249267578125e-05,0.1134596467018127,0,0,0
4583,203245.0110526226,2011-01-26 19:22:10,21.359166269394493,4,26,0.7189862728118896,4.199976921081543,14.297973118836705,13.863701915486091,58.6246174356727,48.1597764334902,3.24249267578125e-05,0.1134596467018127,0,0,0
4584,203254.60448658688,2011-01-26 19:22:19,30.952600213609305,4,26,0.668957531452179,4.199814796447754,14.299819538514551,13.863701915486091,58.63237215630284,48.1597764334902,0.0,0.1134596467018127,0,0,0
4585,203267.99489358623,2011-01-26 19:22:33,44.34300721297696,4,26,0.618748128414154,4.199814796447754,14.302209106433391,13.863701915486091,58.64240803867361,48.1597764334902,0.0,0.1134596467018127,0,0,0
4586,203288.6040342711,2011-01-26 19:22:53,64.95214791788766,4,26,0.5687193870544434,4.199814796447754,14.305597258538876,13.863701915486091,58.6566378191911,48.1597764334902,0.0,0.1134596467018127,0,0,0
4587,203325.27516381937,2011-01-26 19:23:30,101.62327744609642,4,26,0.5186905860900879,4.199814796447754,14.31111032569168,13.863701915486091,58.679792044636855,48.1597764334902,0.0,0.1134596467018127,0,0,0
4588,203397.27394404812,2011-01-26 19:24:42,173.62205768492242,4,26,0.4686618447303772,4.199814796447754,14.320934753893136,13.863701915486091,58.72105366240607,48.1597764334902,-3.24249267578125e-05,0.1134596467018127,0,0,0
4589,203513.75642427464,2011-01-26 19:26:38,290.1045380216848,4,26,0.4186330735683441,4.199814796447754,14.335251000975893,13.863701915486091,58.781180223367926,48.1597764334902,-3.24249267578125e-05,0.1134596467018127,0,0,0
4590,203664.22247329605,2011-01-26 19:29:09,440.5705869227922,4,26,0.3684236705303192,4.199814796447754,14.351678277761891,13.863701915486091,58.85017272441794,48.1597764334902,-3.24249267578125e-05,0.1134596467018127,0,0,0
4591,203846.7196275725,2011-01-26 19:32:11,623.067741234307,4,26,0.3183948993682861,4.199814796447754,14.369061536446765,13.863701915486091,58.92318002135083,48.1597764334902,-3.24249267578125e-05,0.1134596467018127,0,0,0
4592,204067.76263211804,2011-01-26 19:35:53,844.1107457598166,4,26,0.268366128206253,4.199814796447754,14.387043015087327,13.863701915486091,58.9987000447904,48.1597764334902,-3.24249267578125e-05,0.1134596467018127,0,0,0
4593,204340.99246796468,2011-01-26 19:40:26,1117.3405816816528,4,26,0.2183373719453811,4.199814796447754,14.405462739464651,13.863701915486091,59.07606054570714,48.1597764334902,0.0,0.1134596467018127,0,0,0
4594,204692.1582810469,2011-01-26 19:46:17,1468.5063946836733,4,26,0.168308600783348,4.199814796447754,14.42424791433568,13.863701915486091,59.15495583037062,48.1597764334902,0.0,0.1134596467018127,0,0,0
4595,205184.08745294108,2011-01-26 19:54:29,1960.4355665728435,4,26,0.118279829621315,4.199814796447754,14.443687218554556,13.863701915486091,59.23659838607014,48.1597764334902,-6.47544875391759e-05,0.1134596467018127,0,0,0
4596,205999.71424685363,2011-01-26 20:08:04,2776.0623605054134,4,26,0.0682510659098625,4.199653148651123,14.464326715921096,13.863701915486091,59.32328137214706,48.1597764334902,-3.23295607813634e-05,0.1134596467018127,0,0,0
4597,206530.70538671105,2011-01-26 20:16:55,3307.0535003477894,4,26,0.0498289167881011,4.199653148651123,14.473028542553456,13.863701915486091,59.35982786994252,48.1597764334902,-3.23295607813634e-05,0.1134596467018127,0,0,0
4598,206560.72047901596,2011-01-26 20:17:26,30.015115132329807,5,26,0.0,4.189454555511475,14.473028542553456,13.863701915486091,59.35982786994252,48.1597764334902,-6.47544875391759e-05,0.1134596467018127,0,0,0
4599,206590.7199766496,2011-01-26 20:17:56,60.01461279111015,5,26,0.0,4.187673568725586,14.473028542553456,13.863701915486091,59.35982786994252,48.1597764334902,-6.47544875391759e-05,0.1134596467018127,0,0,0
4600,206590.9085209856,2011-01-26 20:17:56,0.187415973271847,6,26,0.0001613661734154,4.187997341156006,14.473028550954178,13.863701915486091,59.359827905124725,48.1597764334902,0.0,0.117299661040306,0,0,0
4601,206595.73665649488,2011-01-26 20:18:01,5.015551462491132,6,26,0.0007031940040178,4.187511920928955,14.473029520132428,13.863701915486091,59.35983196385863,48.1597764334902,-3.23295607813634e-05,0.117299661040306,0,0,0
4602,206607.393988754,2011-01-26 20:18:12,11.656212803834173,7,26,-1.0993878841400146,3.9874210357666016,14.473029520132428,13.867262015275756,59.35983196385863,48.17403032833486,-0.0019749640487134,0.117299661040306,0,0,0
4603,206637.40895153163,2011-01-26 20:18:43,41.67117560149912,7,26,-1.0993878841400146,3.924123525619507,14.473029520132428,13.876429287049428,59.35983196385863,48.21028697992202,-0.0016188621520996,0.117299661040306,0,0,0
4604,206667.42419350508,2011-01-26 20:19:13,71.68641755991857,7,26,-1.099568486213684,3.8684349060058594,14.473029520132428,13.885596609724494,59.35983196385863,48.24600030704496,-0.0013922214275225,0.117299661040306,0,0,0
4605,206697.43919899417,2011-01-26 20:19:43,101.70142303394614,7,26,-1.099568486213684,3.81986927986145,14.473029520132428,13.894763886263654,59.35983196385863,48.28123237852801,-0.0011655807029455,0.117299661040306,0,0,0
4606,206727.45444950383,2011-01-26 20:20:13,131.71667355871557,7,26,-1.099568486213684,3.78134036064148,14.473029520132428,13.903931192381949,59.35983196385863,48.316068072569735,-0.0009713172912597,0.117299661040306,0,0,0
4607,206757.46944993536,2011-01-26 20:20:43,161.731674005213,7,26,-1.099568486213684,3.750905990600586,14.473029520132428,13.913098460036526,59.35983196385863,48.3505873471067,-0.0007446288946084,0.117299661040306,0,0,0
4608,206787.48453268697,2011-01-26 20:21:13,191.7467567267652,7,26,-1.099568486213684,3.726299285888672,14.473029520132428,13.922265776775946,59.35983196385863,48.38485548313674,-0.0005504131549969,0.117299661040306,0,0,0
4609,206817.49966017008,2011-01-26 20:21:43,221.76188432516423,7,26,-1.099568486213684,3.705092191696167,14.473029520132428,13.93143303786776,59.35983196385863,48.4189153844896,-0.0005504131549969,0.117299661040306,0,0,0
4610,206847.5147684303,2011-01-26 20:22:13,251.77699248010427,7,26,-1.099568486213684,3.686637163162232,14.473029520132428,13.940600285854996,59.35983196385863,48.45279522892974,-0.0004532813909463,0.117299661040306,0,0,0
4611,206877.52987277068,2011-01-26 20:22:43,281.79209681552487,7,26,-1.0993878841400146,3.6701250076293945,14.473029520132428,13.949767583558652,59.35983196385863,48.48651452001284,-0.0003885269106831,0.117299661040306,0,0,0
4612,206907.5452313498,2011-01-26 20:23:13,311.8074554196613,7,26,-1.099568486213684,3.654745817184448,14.473029520132428,13.958934905809704,59.35983196385863,48.52008750472616,-0.0003561496851034,0.117299661040306,0,0,0
4613,206937.56010731604,2011-01-26 20:23:43,341.8223313658657,7,26,-1.099568486213684,3.640499830245972,14.473029520132428,13.968102092940386,59.35983196385863,48.55352461074615,-0.0003237724304199,0.117299661040306,0,0,0
4614,206967.57542662724,2011-01-26 20:24:13,371.8376506720596,7,26,-1.0993878841400146,3.627063274383545,14.473029520132428,13.977269387504627,59.35983196385863,48.58683575752632,-0.0003561496851034,0.117299661040306,0,0,0
4615,206997.59034349545,2011-01-26 20:24:43,401.85256754526665,7,26,-1.0993878841400146,3.614436149597168,14.473029520132428,13.986436572832435,59.35983196385863,48.62002689240397,-0.0002913951757363,0.117299661040306,0,0,0
4616,207027.6054532694,2011-01-26 20:25:13,431.8676773292668,7,26,-1.099568486213684,3.602294683456421,14.473029520132428,13.995603895137071,59.35983196385863,48.65310544604175,-0.0003237724304199,0.117299661040306,0,0,0
4617,207057.6205791636,2011-01-26 20:25:43,461.8828032434684,7,26,-1.0993878841400146,3.5909628868103027,14.473029520132428,14.00477120634176,59.35983196385863,48.686076700494944,-0.0002913475036621,0.117299661040306,0,0,0
4618,207087.63572584456,2011-01-26 20:26:13,491.897949914402,7,26,-1.099568486213684,3.579630851745605,14.473029520132428,14.013938547972788,59.35983196385863,48.7189437844816,-0.0002913951757363,0.117299661040306,0,0,0
4619,207117.6508688162,2011-01-26 20:26:43,521.9130928861161,7,26,-1.099568486213684,3.568946361541748,14.473029520132428,14.023105847744448,59.35983196385863,48.75171024391175,-0.0002913951757363,0.117299661040306,0,0,0
4620,207147.66592177865,2011-01-26 20:27:13,551.9281458535119,7,26,-1.0997490882873535,3.5587475299835205,14.473029520132428,14.032273077548195,59.35983196385863,48.784380873602935,-0.0002913951757363,0.117299661040306,0,0,0
4621,207177.6811001235,2011-01-26 20:27:43,581.9433241983868,7,26,-1.099568486213684,3.548872470855713,14.473029520132428,14.041440361193857,59.35983196385863,48.8169601359229,-0.0002913951757363,0.117299661040306,0,0,0
4622,207207.6961651008,2011-01-26 20:28:13,611.9583891406274,7,26,-1.099568486213684,3.539483070373535,14.473029520132428,14.05060766796878,59.35983196385863,48.849450273991685,-0.0002590179501567,0.117299661040306,0,0,0
4623,207237.7112668097,2011-01-26 20:28:43,641.9734908495018,7,26,-1.0993878841400146,3.5304174423217773,14.473029520132428,14.059775000687193,59.35983196385863,48.881854801724586,-0.0002266406954731,0.117299661040306,0,0,0
4624,207267.72638798712,2011-01-26 20:29:13,671.9886120369229,7,26,-1.0993878841400146,3.5213518142700195,14.473029520132428,14.068942374611058,59.35983196385863,48.91417624384322,-0.0001942634553415,0.117299661040306,0,0,0
4625,207297.74150050792,2011-01-26 20:29:43,702.0037245477189,7,26,-1.099568486213684,3.512771844863892,14.473029520132428,14.078109744110892,59.35983196385863,48.94641795745673,-0.0002266406954731,0.117299661040306,0,0,0
4626,207327.75677232572,2011-01-26 20:30:13,732.0189964006446,7,26,-1.0993878841400146,3.5045158863067627,14.473029520132428,14.087277116752468,59.35983196385863,48.97858178277818,-0.0001942634553415,0.117299661040306,0,0,0
4627,207357.7717328528,2011-01-26 20:30:43,762.0339568925631,7,26,-1.099568486213684,3.4960978031158447,14.473029520132428,14.096444492826668,59.35983196385863,49.01067011771018,-0.0002913951757363,0.117299661040306,0,0,0
4628,207387.7869754628,2011-01-26 20:31:13,792.0491995226565,7,26,-1.099568486213684,3.488489151000977,14.473029520132428,14.105611923506704,59.35983196385863,49.04268527051156,-0.0001618862152099,0.117299661040306,0,0,0
4629,207417.8019644357,2011-01-26 20:31:43,822.0641884755081,7,26,-1.0993878841400146,3.4805567264556885,14.473029520132428,14.1147792356226,59.35983196385863,49.07462862211658,-0.0001942634553415,0.117299661040306,0,0,0
4630,207447.81715636945,2011-01-26 20:32:13,852.0793804142633,7,26,-1.099568486213684,3.4731099605560303,14.473029520132428,14.123945946518212,59.35983196385863,49.106499557795445,-0.0001942634553415,0.117299661040306,0,0,0
4631,207477.83221876537,2011-01-26 20:32:43,882.0944428151703,7,26,-1.0993878841400146,3.465825080871582,14.473029520132428,14.133112523937877,59.35983196385863,49.13830267831428,-0.0001618862152099,0.117299661040306,0,0,0
4632,207507.84736238368,2011-01-26 20:33:13,912.1095864334958,7,26,-1.099568486213684,3.458702087402344,14.473029520132428,14.142279724564547,59.35983196385863,49.17004150550806,-0.0001942634553415,0.117299661040306,0,0,0
4633,207537.86250023264,2011-01-26 20:33:43,942.1247242924674,7,26,-1.0993878841400146,3.451579093933105,14.473029520132428,14.151447046983312,59.35983196385863,49.20171473236714,-0.0001295089750783,0.117299661040306,0,0,0
4634,207567.87760000667,2011-01-26 20:34:13,972.139824051482,7,26,-1.099568486213684,3.444294214248657,14.473029520132428,14.160614428544024,59.35983196385863,49.23332219255309,-0.0001942634553415,0.117299661040306,0,0,0
4635,207597.8926819112,2011-01-26 20:34:43,1002.154905966023,7,26,-1.0993878841400146,3.437171220779419,14.473029520132428,14.169781764597314,59.35983196385863,49.26486396633138,-0.0001942634553415,0.117299661040306,0,0,0
4636,207627.9079718592,2011-01-26 20:35:13,1032.1701958990095,7,26,-1.099568486213684,3.42972469329834,14.473029520132428,14.178949269934392,59.35983196385863,49.2963398494999,-0.0002266406954731,0.117299661040306,0,0,0
4637,207657.92296382456,2011-01-26 20:35:43,1062.1851878743946,7,26,-1.099568486213684,3.4222779273986816,14.473029520132428,14.188116628489512,59.35983196385863,49.32774737571199,-0.0001942634553415,0.117299661040306,0,0,0
4638,207687.93822935177,2011-01-26 20:36:13,1092.2004534015546,7,26,-1.0997490882873535,3.4145073890686035,14.473029520132428,14.197284089880988,59.35983196385863,49.35908536415568,-0.0001942634553415,0.117299661040306,0,0,0
4639,207717.95329987787,2011-01-26 20:36:43,1122.2155239327246,7,26,-1.0993878841400146,3.406413078308105,14.473029520132428,14.206451532413077,59.35983196385863,49.390350244164765,-0.0002266406954731,0.117299661040306,0,0,0
4640,207747.9685901016,2011-01-26 20:37:13,1152.2308141514236,7,26,-1.0993878841400146,3.3979949951171875,14.473029520132428,14.215618960577872,59.35983196385863,49.42153875751448,-0.0001942634553415,0.117299661040306,0,0,0
4641,207777.9834659576,2011-01-26 20:37:43,1182.2456900023906,7,26,-1.0997490882873535,3.38941502571106,14.473029520132428,14.224786284943056,59.35983196385863,49.45265022895925,-0.0002913951757363,0.117299661040306,0,0,0
4642,207807.99860969625,2011-01-26 20:38:13,1212.2608338262285,7,26,-1.0993878841400146,3.380511283874512,14.473029520132428,14.23395378517304,59.35983196385863,49.48368254031758,-0.0002266406954731,0.117299661040306,0,0,0
4643,207838.01368491404,2011-01-26 20:38:43,1242.2759089638791,7,26,-1.0997490882873535,3.370798110961914,14.473029520132428,14.243121208935202,59.35983196385863,49.514628664636014,-0.0002590179501567,0.117299661040306,0,0,0
4644,207868.0289291782,2011-01-26 20:39:13,1272.2911532631329,7,26,-1.099568486213684,3.3609230518341064,14.473029520132428,14.252288677648146,59.35983196385863,49.54548607296404,-0.0002590179501567,0.117299661040306,0,0,0
4645,207898.0439464717,2011-01-26 20:39:43,1302.3061705215305,7,26,-1.099568486213684,3.350238800048828,14.473029520132428,14.261456051964895,59.35983196385863,49.57624855773962,-0.0002913475036621,0.117299661040306,0,0,0
4646,207928.05905501763,2011-01-26 20:40:13,1332.3212790674452,7,26,-1.099568486213684,3.338906764984131,14.473029520132428,14.27062344264651,59.35983196385863,49.606910555759306,-0.0003237724304199,0.117299661040306,0,0,0
4647,207958.07417359852,2011-01-26 20:40:43,1362.3363976383448,7,26,-1.0993878841400146,3.326603412628174,14.473029520132428,14.279790928235148,59.35983196385863,49.63746403522824,-0.0002913951757363,0.117299661040306,0,0,0
4648,207988.08926516213,2011-01-26 20:41:13,1392.351489201934,7,26,-1.099568486213684,3.312843084335327,14.473029520132428,14.288958343641635,59.35983196385863,49.66789808286091,-0.0003561496851034,0.117299661040306,0,0,0
4649,208018.10438294103,2011-01-26 20:41:43,1422.36660698086,7,26,-1.0993878841400146,3.2979495525360107,14.473029520132428,14.2981257466035,59.35983196385863,49.698201056170944,-0.0003885269106831,0.117299661040306,0,0,0
4650,208048.1195887444,2011-01-26 20:42:13,1452.3818127941947,7,26,-1.099568486213684,3.2812752723693848,14.473029520132428,14.307293156386653,59.35983196385863,49.728359218389336,-0.0004532813909463,0.117299661040306,0,0,0
4651,208078.13681045693,2011-01-26 20:42:43,1482.3990345017585,7,26,-1.0993878841400146,3.2626585960388184,14.473029520132428,14.316461193446289,59.35983196385863,49.75835851939911,-0.0005504131549969,0.117299661040306,0,0,0
4652,208108.14986605127,2011-01-26 20:43:13,1512.4120901061106,7,26,-1.099568486213684,3.240965843200684,14.473029520132428,14.325627998853834,59.35983196385863,49.78816977691152,-0.0006151676061563,0.117299661040306,0,0,0
4653,208138.1648552748,2011-01-26 20:43:43,1542.4270793145995,7,26,-1.099568486213684,3.21587347984314,14.473029520132428,14.334795348303956,59.35983196385863,49.81776883821024,-0.0007122993702068,0.117299661040306,0,0,0
4654,208168.1801345512,2011-01-26 20:44:13,1572.4423586311268,7,26,-1.099568486213684,3.184953451156616,14.473029520132428,14.343962829449657,59.35983196385863,49.847113365783805,-0.0009065627818927,0.117299661040306,0,0,0
4655,208198.19510515337,2011-01-26 20:44:43,1602.4573292984053,7,26,-1.0997490882873535,3.146424531936645,14.473029520132428,14.353130196557093,59.35983196385863,49.8761432521759,-0.0011979580158367,0.117299661040306,0,0,0
4656,208228.21016883745,2011-01-26 20:45:13,1632.4723928772478,7,26,-1.099568486213684,3.0970494747161865,14.473029520132428,14.362297639800104,59.35983196385863,49.9047713788604,-0.0014245987404137,0.117299661040306,0,0,0
4657,208258.22546803352,2011-01-26 20:45:43,1662.4876921284583,7,26,-1.099568486213684,3.0301904678344727,14.473029520132428,14.371465182390038,59.35983196385863,49.93287366153015,-0.0020397664047777,0.117299661040306,0,0,0
4658,208288.2405493265,2011-01-26 20:46:13,1692.5027735668127,7,26,-1.099568486213684,2.934678077697754,14.473029520132428,14.380632578382588,59.35983196385863,49.96024291016958,-0.0029786587692797,0.117299661040306,0,0,0
4659,208318.25556840445,2011-01-26 20:46:43,1722.517792449258,7,26,-1.099568486213684,2.794322967529297,14.473029520132428,14.389799978934244,59.35983196385863,49.98654251204923,-0.0043385503813624,0.117299661040306,0,0,0
4660,208334.28877915395,2011-01-26 20:46:59,1738.5510032889665,7,26,-1.0993878841400146,2.699620008468628,14.473029520132428,14.394696978914096,59.35983196385863,49.999998994653865,-0.0049212933517992,0.117299661040306,0,0,0
4661,208394.30054607007,2011-01-26 20:48:00,60.01466636463185,8,26,0.0,3.659764289855957,14.473029520132428,14.394696978914096,59.35983196385863,49.999998994653865,0.0011979580158367,0.117299661040306,0,0,0
4662,208394.4883418131,2011-01-26 20:48:00,0.187509105385731,9,26,-1.9243103452026844e-05,3.659926176071167,14.473029520132428,14.394696979916391,59.35983196385863,49.99999899832218,0.0,0.1134596467018127,0,0,0
4663,208399.31671914004,2011-01-26 20:48:05,5.015886452389031,9,26,0.0007031940040178,3.6668872833251953,14.473030412477158,14.394696980083342,59.35983523332827,49.999998998933215,0.0010036944877356,0.1134596467018127,0,0,0
