Data_Point,Test_Time(s),Date_Time,Step_Time(s),Step_Index,Cycle_Index,Current(A),Voltage(V),Charge_Capacity(Ah),Discharge_Capacity(Ah),Charge_Energy(Wh),Discharge_Energy(Wh),dV/dt(V/s),Internal_Resistance(Ohm),Is_FC_Data,AC_Impedance(Ohm),ACI_Phase_Angle(Deg)
1500,66384.89450702888,2011-01-25 05:20:49,30.015089538542213,1,9,0.0,3.684694528579712,4.664164428269335,4.614862227740221,19.107743783793207,16.08183351173496,0.0006475448608398,0.1110283657908439,0,0,0
1501,66414.90961172519,2011-01-25 05:21:19,60.03019423486227,1,9,0.0,3.702825784683228,4.664164428269335,4.614862227740221,19.107743783793207,16.08183351173496,0.0004209041653666,0.1110283657908439,0,0,0
1502,66444.92473361436,2011-01-25 05:21:49,90.04531612403221,1,9,0.0,3.7152910232543945,4.664164428269335,4.614862227740221,19.107743783793207,16.08183351173496,0.0003237724304199,0.1110283657908439,0,0,0
1503,66474.89296173984,2011-01-25 05:22:19,120.01354424951418,1,9,0.0,3.724356651306152,4.664164428269335,4.614862227740221,19.107743783793207,16.08183351173496,0.0001942634553415,0.1110283657908439,0,0,0
1504,66504.91024465096,2011-01-25 05:22:49,30.0151188315494,2,9,0.5497553944587708,3.842371225357056,4.668750575190405,4.614862227740221,19.12528626487369,16.08183351173496,0.0007122993702068,0.1110283657908439,0,0,0
1505,66534.92533307672,2011-01-25 05:23:19,60.03020725731824,2,9,0.5501165986061096,3.862283229827881,4.673335897104201,4.614862227740221,19.142953636828945,16.08183351173496,0.0004209041653666,0.1110283657908439,0,0,0
1506,66564.94048891049,2011-01-25 05:23:49,90.04536309610106,2,9,0.550297200679779,3.876367330551148,4.677921467688115,4.614862227740221,19.160697641105696,16.08183351173496,0.0003561496851034,0.1110283657908439,0,0,0
1507,66594.9555859728,2011-01-25 05:24:19,120.06046015839476,2,9,0.5499359965324402,3.8875374794006343,4.682507719899443,4.614862227740221,19.1785017218332,16.08183351173496,0.0002590179501567,0.1110283657908439,0,0,0
1508,66624.97082445756,2011-01-25 05:24:49,150.0756986381443,2,9,0.5501165986061096,3.897250652313232,4.687094024671192,4.614862227740221,19.196354300201115,16.08183351173496,0.0002590179501567,0.1110283657908439,0,0,0
1509,66654.98579431282,2011-01-25 05:25:19,180.09066849841142,2,9,0.550297200679779,3.90615439414978,4.691680270405624,4.614862227740221,19.2142489180086,16.08183351173496,0.0002266406954731,0.1110283657908439,0,0,0
1510,66685.00102692292,2011-01-25 05:25:49,210.10590109850705,2,9,0.5501165986061096,3.914248466491699,4.696266557055293,4.614862227740221,19.232182526354705,16.08183351173496,0.0001942157687153,0.1110283657908439,0,0,0
1511,66715.01605396571,2011-01-25 05:26:19,240.1209281513156,2,9,0.550297200679779,3.921857118606568,4.700852805566478,4.614862227740221,19.250151756866668,16.08183351173496,0.0001942634553415,0.1110283657908439,0,0,0
1512,66745.0311376697,2011-01-25 05:26:49,270.13601184529136,2,9,0.5499359965324402,3.9286563396453857,4.705438974034882,4.614862227740221,19.2681540837018,16.08183351173496,0.0001618862152099,0.1110283657908439,0,0,0
1513,66775.04637724218,2011-01-25 05:27:19,300.1512514277893,2,9,0.5501165986061096,3.935617446899414,4.710025246493833,4.614862227740221,19.28618848829885,16.08183351173496,0.0001942634553415,0.1110283657908439,0,0,0
1514,66805.06150101105,2011-01-25 05:27:49,330.16637519163146,2,9,0.5499359965324402,3.942092895507813,4.714611522585937,4.614862227740221,19.304253164896863,16.08183351173496,0.0001942634553415,0.1110283657908439,0,0,0
1515,66835.07644411463,2011-01-25 05:28:19,360.1813182902002,2,9,0.5501165986061096,3.948244571685791,4.719197775374935,4.614862227740221,19.322346556313622,16.08183351173496,0.0001942634553415,0.1110283657908439,0,0,0
1516,66865.09156225946,2011-01-25 05:28:49,390.1964364350381,2,9,0.5501165986061096,3.9540724754333496,4.72378398997363,4.614862227740221,19.34046699374945,16.08183351173496,0.0001942634553415,0.1110283657908439,0,0,0
1517,66895.10688051303,2011-01-25 05:29:19,420.211754773821,2,9,0.5499359965324402,3.9594147205352783,4.728370254559838,4.614862227740221,19.358613564642003,16.08183351173496,0.0001295089750783,0.1110283657908439,0,0,0
1518,66925.12192370105,2011-01-25 05:29:49,450.22679789166847,2,9,0.5501165986061096,3.964756965637207,4.732956501791079,4.614862227740221,19.376784894396707,16.08183351173496,0.0001618862152099,0.1110283657908439,0,0,0
1519,66955.13689770164,2011-01-25 05:30:19,480.2417719724544,2,9,0.550297200679779,3.969775438308716,4.737542782194733,4.614862227740221,19.394980061202062,16.08183351173496,0.0001295089750783,0.1110283657908439,0,0,0
1520,66985.15232870622,2011-01-25 05:30:49,510.2572028817977,2,9,0.5501165986061096,3.9747939109802246,4.7421290902514,4.614862227740221,19.4131980909106,16.08183351173496,0.0001618862152099,0.1110283657908439,0,0,0
1521,67015.1671047334,2011-01-25 05:31:19,540.2719789991979,2,9,0.5501165986061096,3.979326725006104,4.74671539781468,4.614862227740221,19.431437559470837,16.08183351173496,0.0001618862152099,0.1110283657908439,0,0,0
1522,67045.1823277897,2011-01-25 05:31:49,570.2872019753077,2,9,0.5499359965324402,3.983697652816773,4.751301598467998,4.614862227740221,19.44969768359013,16.08183351173496,9.713172767078504e-05,0.1110283657908439,0,0,0
1523,67075.19730525393,2011-01-25 05:32:19,600.3021794295012,2,9,0.5499359965324402,3.9880685806274414,4.755887747439823,4.614862227740221,19.467977804782592,16.08183351173496,9.713172767078504e-05,0.1110283657908439,0,0,0
1524,67105.21243056662,2011-01-25 05:32:49,630.3173047672661,2,9,0.5501165986061096,3.9924395084381104,4.760473883061266,4.614862227740221,19.486277437201085,16.08183351173496,0.0001295089750783,0.1110283657908439,0,0,0
1525,67135.2297413913,2011-01-25 05:33:19,660.3346156871742,2,9,0.5501165986061096,3.9963245391845694,4.765060432846754,4.614862227740221,19.504597913526567,16.08183351173496,6.47544875391759e-05,0.1110283657908439,0,0,0
1526,67165.24263862093,2011-01-25 05:33:49,690.3475128065332,2,9,0.5501165986061096,4.000533580780029,4.769646281547989,4.614862227740221,19.52293419462382,16.08183351173496,0.0001295089750783,0.1110283657908439,0,0,0
1527,67195.25774872572,2011-01-25 05:34:19,720.3626229063203,2,9,0.550297200679779,4.004418849945068,4.774232436755311,4.614862227740221,19.541289855621567,16.08183351173496,0.0001295089750783,0.1110283657908439,0,0,0
1528,67225.2729361382,2011-01-25 05:34:49,750.3778103137821,2,9,0.5499359965324402,4.007980346679688,4.778818631187043,4.614862227740221,19.559663550992905,16.08183351173496,3.23295607813634e-05,0.1110283657908439,0,0,0
1529,67255.28796270481,2011-01-25 05:35:19,780.3928368803789,2,9,0.550297200679779,4.012027740478516,4.783404832240596,4.614862227740221,19.578054614644923,16.08183351173496,9.71794142969884e-05,0.1110283657908439,0,0,0
1530,67285.30307021814,2011-01-25 05:35:49,810.4079443887072,2,9,0.5499359965324402,4.015589237213135,4.787991012967678,4.614862227740221,19.596462645289247,16.08183351173496,9.71794142969884e-05,0.1110283657908439,0,0,0
1531,67315.31829959521,2011-01-25 05:36:19,840.4231737808075,2,9,0.550297200679779,4.019312381744385,4.792577303089837,4.614862227740221,19.614887908034525,16.08183351173496,9.70840483205393e-05,0.1110283657908439,0,0,0
1532,67345.3333146481,2011-01-25 05:36:49,870.4381888236837,2,9,0.5501165986061096,4.022873878479004,4.797163485018437,4.614862227740221,19.63332915629521,16.08183351173496,9.70840483205393e-05,0.1110283657908439,0,0,0
1533,67375.34839077322,2011-01-25 05:37:19,900.4532649688455,2,9,0.5499359965324402,4.026435375213623,4.801749660302267,4.614862227740221,19.65178674834164,16.08183351173496,9.70840483205393e-05,0.1110283657908439,0,0,0
1534,67405.3636220049,2011-01-25 05:37:49,930.4684961804804,2,9,0.5501165986061096,4.029673099517822,4.80633590152097,4.614862227740221,19.670260753782166,16.08183351173496,3.23295607813634e-05,0.1110283657908439,0,0,0
1535,67435.3808164044,2011-01-25 05:38:19,960.485690579984,2,9,0.5499359965324402,4.033234596252441,4.810922466311124,4.614862227740221,19.688751853070404,16.08183351173496,9.70840483205393e-05,0.1110283657908439,0,0,0
1536,67465.39379474119,2011-01-25 05:38:49,990.4986690069868,2,9,0.5501165986061096,4.0367960929870605,4.815508350170203,4.614862227740221,19.70725591907037,16.08183351173496,9.71794142969884e-05,0.1110283657908439,0,0,0
1537,67495.40883261095,2011-01-25 05:39:19,1020.513706801567,2,9,0.5501165986061096,4.039871692657471,4.820094636533445,4.614862227740221,19.72577715316317,16.08183351173496,6.47544875391759e-05,0.1110283657908439,0,0,0
1538,67525.42393907167,2011-01-25 05:39:49,1050.5288132472467,2,9,0.5499359965324402,4.04343318939209,4.824680909486901,4.614862227740221,19.74431353247283,16.08183351173496,9.70840483205393e-05,0.1110283657908439,0,0,0
1539,67555.43914053416,2011-01-25 05:40:19,1080.5440147047257,2,9,0.5499359965324402,4.046670913696289,4.829267155382174,4.614862227740221,19.76286496600556,16.08183351173496,9.70840483205393e-05,0.1110283657908439,0,0,0
1540,67585.45416378249,2011-01-25 05:40:49,1110.5590379781147,2,9,0.5497553944587708,4.049746990203857,4.833853432832848,4.614862227740221,19.78143157828893,16.08183351173496,6.47544875391759e-05,0.1110283657908439,0,0,0
1541,67615.46926223324,2011-01-25 05:41:20,1140.574136408819,2,9,0.550297200679779,4.053146362304688,4.83843966819771,4.614862227740221,19.800012847812077,16.08183351173496,6.47544875391759e-05,0.1110283657908439,0,0,0
1542,67645.48440896432,2011-01-25 05:41:50,1170.58928323514,2,9,0.5501165986061096,4.056384086608887,4.843025995045101,4.614862227740221,19.81860936684748,16.08183351173496,6.47544875391759e-05,0.1110283657908439,0,0,0
1543,67675.49948668842,2011-01-25 05:42:20,1200.6043609742744,2,9,0.5499359965324402,4.059621810913086,4.847612271399067,4.614862227740221,19.837220383758165,16.08183351173496,9.70840483205393e-05,0.1110283657908439,0,0,0
1544,67705.51460466284,2011-01-25 05:42:50,1230.61947885345,2,9,0.5501165986061096,4.062697887420654,4.852198609236647,4.614862227740221,19.855846040229405,16.08183351173496,6.47544875391759e-05,0.1110283657908439,0,0,0
1545,67735.52969281793,2011-01-25 05:43:20,1260.6345670085443,2,9,0.5499359965324402,4.0657734870910645,4.856784811874428,4.614862227740221,19.874485743280484,16.08183351173496,9.70840483205393e-05,0.1110283657908439,0,0,0
1546,67765.54484573944,2011-01-25 05:43:50,1290.649719915019,2,9,0.5501165986061096,4.069173336029053,4.861371022221939,4.614862227740221,19.893140000472336,16.08183351173496,9.71794142969884e-05,0.1110283657908439,0,0,0
1547,67795.55991141351,2011-01-25 05:44:20,1320.6647856041209,2,9,0.5501165986061096,4.072248935699463,4.865957196621404,4.614862227740221,19.911808735858624,16.08183351173496,6.47544875391759e-05,0.1110283657908439,0,0,0
1548,67825.57502695685,2011-01-25 05:44:50,1350.679901122413,2,9,0.5501165986061096,4.075648784637451,4.870543377218019,4.614862227740221,19.9304921151898,16.08183351173496,0.0001295089750783,0.1110283657908439,0,0,0
1549,67855.59025324624,2011-01-25 05:45:20,1380.69512745188,2,9,0.5497553944587708,4.078562736511231,4.875129664794165,4.614862227740221,19.94919066833165,16.08183351173496,6.47544875391759e-05,0.1110283657908439,0,0,0
1550,67885.60543476402,2011-01-25 05:45:50,1410.7103089646505,2,9,0.5501165986061096,4.0819621086120605,4.879715907648995,4.614862227740221,19.967903683682827,16.08183351173496,0.0001295089750783,0.1110283657908439,0,0,0
1551,67915.62047251349,2011-01-25 05:46:20,1440.7253467141184,2,9,0.5501165986061096,4.085038185119629,4.884302056608481,4.614862227740221,19.98663100586322,16.08183351173496,6.47544875391759e-05,0.1110283657908439,0,0,0
1552,67945.63567799097,2011-01-25 05:46:50,1470.7405521765784,2,9,0.5501165986061096,4.088275909423828,4.888888256747273,4.614862227740221,20.005373344985937,16.08183351173496,9.71794142969884e-05,0.1110283657908439,0,0,0
1553,67975.6505830748,2011-01-25 05:47:20,1500.755457250378,2,9,0.5499359965324402,4.091513633728027,4.893474418818489,4.614862227740221,20.02413033498361,16.08183351173496,6.47544875391759e-05,0.1110283657908439,0,0,0
1554,68005.665676483,2011-01-25 05:47:50,1530.7705506485393,2,9,0.5499359965324402,4.094751358032227,4.898060637452759,4.614862227740221,20.042902131162688,16.08183351173496,9.71794142969884e-05,0.1110283657908439,0,0,0
1555,68035.68082163011,2011-01-25 05:48:20,1560.7856958257505,2,9,0.5501165986061096,4.098150730133057,4.902646856586165,4.614862227740221,20.06168871243372,16.08183351173496,0.0001295089750783,0.1110283657908439,0,0,0
1556,68065.6960328319,2011-01-25 05:48:50,1590.8009070124772,2,9,0.5501165986061096,4.101064682006836,4.907233132142696,4.614862227740221,20.0804904122824,16.08183351173496,6.47544875391759e-05,0.1110283657908439,0,0,0
1557,68095.71099318344,2011-01-25 05:49:20,1620.8158673490084,2,9,0.5501165986061096,4.104464530944824,4.911819376012881,4.614862227740221,20.099306896638776,16.08183351173496,9.71794142969884e-05,0.1110283657908439,0,0,0
1558,68125.72622753291,2011-01-25 05:49:50,1650.8311017135013,2,9,0.5501165986061096,4.107540130615234,4.916405666583977,4.614862227740221,20.118138610124227,16.08183351173496,3.23295607813634e-05,0.1110283657908439,0,0,0
1559,68155.74121326274,2011-01-25 05:50:20,1680.8460874282828,2,9,0.5501165986061096,4.1111016273498535,4.920991889036571,4.614862227740221,20.13698500802093,16.08183351173496,9.70840483205393e-05,0.1110283657908439,0,0,0
1560,68185.7563453022,2011-01-25 05:50:50,1710.861219472763,2,9,0.5501165986061096,4.114015579223633,4.925578118277008,4.614862227740221,20.15584640039078,16.08183351173496,6.47544875391759e-05,0.1110283657908439,0,0,0
1561,68215.7715552408,2011-01-25 05:51:20,1740.8764294314292,2,9,0.5501165986061096,4.117738723754883,4.930164350264182,4.614862227740221,20.17472295705468,16.08183351173496,9.70840483205393e-05,0.1110283657908439,0,0,0
1562,68245.7865361436,2011-01-25 05:51:50,1770.8914103141676,2,9,0.5501165986061096,4.120976448059082,4.934750548317228,4.614862227740221,20.19361452451508,16.08183351173496,0.0001295089750783,0.1110283657908439,0,0,0
1563,68275.80157614368,2011-01-25 05:52:20,1800.9064503192574,2,9,0.5499359965324402,4.124214172363281,4.939336751393505,4.614862227740221,20.212521464333022,16.08183351173496,6.47544875391759e-05,0.1110283657908439,0,0,0
1564,68305.81672654893,2011-01-25 05:52:50,1830.9216007094603,2,9,0.5497553944587708,4.1274518966674805,4.943922133052527,4.614862227740221,20.23144034126054,16.08183351173496,6.47544875391759e-05,0.1110283657908439,0,0,0
1565,68335.83178086467,2011-01-25 05:53:20,1860.936655060304,2,9,0.5501165986061096,4.1310133934021,4.948507536195936,4.614862227740221,20.2503746939722,16.08183351173496,9.70840483205393e-05,0.1110283657908439,0,0,0
1566,68365.84694765075,2011-01-25 05:53:50,1890.951821816296,2,9,0.5499359965324402,4.134413242340088,4.953092968800635,4.614862227740221,20.26932471327937,16.08183351173496,9.71794142969884e-05,0.1110283657908439,0,0,0
1567,68395.86207337948,2011-01-25 05:54:20,1920.9669475450355,2,9,0.5499359965324402,4.137650966644287,4.957678343023729,4.614862227740221,20.28829001142784,16.08183351173496,6.47544875391759e-05,0.1110283657908439,0,0,0
1568,68425.877185379,2011-01-25 05:54:50,1950.9820595545823,2,9,0.5499359965324402,4.141212463378906,4.962263708642684,4.614862227740221,20.30727092178544,16.08183351173496,9.71794142969884e-05,0.1110283657908439,0,0,0
1569,68455.89239776372,2011-01-25 05:55:20,1980.99727194932,2,9,0.550297200679779,4.144773960113525,4.966849091694571,4.614862227740221,20.32626782040851,16.08183351173496,9.71794142969884e-05,0.1110283657908439,0,0,0
1570,68485.90746049043,2011-01-25 05:55:50,2011.0123346810512,2,9,0.5501165986061096,4.148173332214356,4.971435342929223,4.614862227740221,20.34528462572804,16.08183351173496,9.70840483205393e-05,0.1110283657908439,0,0,0
1571,68515.92261932167,2011-01-25 05:56:20,2041.0274935022671,2,9,0.5501165986061096,4.151734828948975,4.976021606768858,4.614862227740221,20.36431741321235,16.08183351173496,0.0001295089750783,0.1110283657908439,0,0,0
1572,68545.93773852415,2011-01-25 05:56:50,2071.042612709753,2,9,0.5501165986061096,4.155296325683594,4.980607877342177,4.614862227740221,20.38336627052249,16.08183351173496,9.70840483205393e-05,0.1110283657908439,0,0,0
1573,68575.95271645955,2011-01-25 05:57:20,2101.0575906250965,2,9,0.5501165986061096,4.158857822418213,4.985194162083138,4.614862227740221,20.40243141936253,16.08183351173496,6.47544875391759e-05,0.1110283657908439,0,0,0
1574,68605.96795867862,2011-01-25 05:57:50,2131.072832849178,2,9,0.550297200679779,4.162581443786621,4.989780493954895,4.614862227740221,20.421513260468632,16.08183351173496,0.0001295089750783,0.1110283657908439,0,0,0
1575,68635.98296927541,2011-01-25 05:58:20,2161.0878434810606,2,9,0.5501165986061096,4.165980815887451,4.994366744560434,4.614862227740221,20.440611308374432,16.08183351173496,9.70840483205393e-05,0.1110283657908439,0,0,0
1576,68665.99806676376,2011-01-25 05:58:50,2191.1029409443536,2,9,0.5501165986061096,4.169704437255859,4.998953040563412,4.614862227740221,20.45972618769814,16.08183351173496,9.71794142969884e-05,0.1110283657908439,0,0,0
1577,68696.01331896271,2011-01-25 05:59:20,2221.118193238533,2,9,0.5501165986061096,4.173427581787109,5.003539333470021,4.614862227740221,20.478857754008363,16.08183351173496,0.0001295089750783,0.1110283657908439,0,0,0
1578,68726.02842081194,2011-01-25 05:59:50,2251.1332950175824,2,9,0.550297200679779,4.1769890785217285,5.00812569643508,4.614862227740221,20.49800635529536,16.08183351173496,9.70840483205393e-05,0.1110283657908439,0,0,0
1579,68756.04351715243,2011-01-25 06:00:20,2281.148391338027,2,9,0.5501165986061096,4.180550575256348,5.012711940486888,4.614862227740221,20.517171250866653,16.08183351173496,9.70840483205393e-05,0.1110283657908439,0,0,0
1580,68786.05861277613,2011-01-25 06:00:50,2311.163486966748,2,9,0.5499359965324402,4.184274196624756,5.017298366711564,4.614862227740221,20.53635384146287,16.08183351173496,9.71794142969884e-05,0.1110283657908439,0,0,0
1581,68816.07362827515,2011-01-25 06:01:20,2341.1785024707733,2,9,0.5499359965324402,4.188159465789795,5.021884654979264,4.614862227740221,20.555552747992184,16.08183351173496,0.0001295089750783,0.1110283657908439,0,0,0
1582,68846.08892338103,2011-01-25 06:01:50,2371.19379755159,2,9,0.550297200679779,4.191882610321045,5.02647096785989,4.614862227740221,20.57476914468552,16.08183351173496,0.0001295089750783,0.1110283657908439,0,0,0
1583,68876.10379567814,2011-01-25 06:02:20,2401.2086698537123,2,9,0.550297200679779,4.195605754852295,5.031057254783168,4.614862227740221,20.59400281212406,16.08183351173496,9.70840483205393e-05,0.1110283657908439,0,0,0
1584,68906.1191057864,2011-01-25 06:02:50,2431.223979961982,2,9,0.550297200679779,4.199491024017334,5.035643580231714,4.614862227740221,20.61325408004701,16.08183351173496,9.70840483205393e-05,0.1110283657908439,0,0,0
1585,68909.46265314019,2011-01-25 06:02:54,2434.5675273959714,2,9,0.550297200679779,4.200138568878174,5.036154496225195,4.614862227740221,20.61539976770681,16.08183351173496,0.0001295089750783,0.1110283657908439,0,0,0
1586,68939.47492745458,2011-01-25 06:03:24,30.015137227397517,3,9,0.0,4.088599681854248,5.036154496225195,4.614862227740221,20.61539976770681,16.08183351173496,-0.0005180359003134,0.1110283657908439,0,0,0
1587,68969.49013168397,2011-01-25 06:03:54,60.03034134149727,3,9,0.0,4.074677467346191,5.036154496225195,4.614862227740221,20.61539976770681,16.08183351173496,-0.0002913475036621,0.1110283657908439,0,0,0
1588,68999.50513624572,2011-01-25 06:04:24,90.04534589823866,3,9,0.0,4.0657734870910645,5.036154496225195,4.614862227740221,20.61539976770681,16.08183351173496,-0.0001942634553415,0.1110283657908439,0,0,0
1589,69029.47338204524,2011-01-25 06:04:54,120.01359172784478,3,9,0.0,4.059783935546875,5.036154496225195,4.614862227740221,20.61539976770681,16.08183351173496,-0.0001295089750783,0.1110283657908439,0,0,0
1590,69029.48834264901,2011-01-25 06:04:54,0.015747101622505,4,9,1.0094059705734253,4.199653148651123,5.036158955417029,4.614862227740221,20.615418495125244,16.08183351173496,-3.23295607813634e-05,0.1110283657908439,0,0,0
1591,69030.33210185658,2011-01-25 06:04:55,0.859506284123508,4,9,0.9586548209190368,4.199814796447754,5.036387959487494,4.614862227740221,20.616380271572563,16.08183351173496,0.0,0.1110283657908439,0,0,0
1592,69032.41004049905,2011-01-25 06:04:57,2.937444916561276,4,9,0.9082648158073424,4.199814796447754,5.036925508903759,4.614862227740221,20.618637897379905,16.08183351173496,0.0,0.1110283657908439,0,0,0
1593,69035.61324280479,2011-01-25 06:05:00,6.140647232332891,4,9,0.8580554127693176,4.199814796447754,5.037710002428799,4.614862227740221,20.621932649553752,16.08183351173496,0.0,0.1110283657908439,0,0,0
1594,69039.98825098132,2011-01-25 06:05:04,10.515655504102533,4,9,0.8078460693359375,4.199653148651123,5.038720779138092,4.614862227740221,20.62617777091839,16.08183351173496,-3.23295607813634e-05,0.1110283657908439,0,0,0
1595,69045.81606363363,2011-01-25 06:05:10,16.34346805615534,4,9,0.757817268371582,4.199814796447754,5.039986421546835,4.614862227740221,20.631493280462863,16.08183351173496,0.0,0.1110283657908439,0,0,0
1596,69053.51932980816,2011-01-25 06:05:18,24.046734235710545,4,9,0.7077885270118713,4.199814796447754,5.041552320139419,4.614862227740221,20.63806987617221,16.08183351173496,-3.24249267578125e-05,0.1110283657908439,0,0,0
1597,69063.95655226798,2011-01-25 06:05:28,34.483956700545974,4,9,0.6575791239738464,4.199976921081543,5.043528348733897,4.614862227740221,20.64636896476168,16.08183351173496,0.0,0.1110283657908439,0,0,0
1598,69078.86249734958,2011-01-25 06:05:43,49.389901777121445,4,9,0.6075503826141357,4.199814796447754,5.046141719468469,4.614862227740221,20.65734482273329,16.08183351173496,-3.24249267578125e-05,0.1110283657908439,0,0,0
1599,69102.33106512156,2011-01-25 06:06:07,72.85846954910699,4,9,0.5575215816497803,4.199814796447754,5.04992766078068,4.614862227740221,20.673245330977085,16.08183351173496,-3.24249267578125e-05,0.1110283657908439,0,0,0
1600,69146.33017482112,2011-01-25 06:06:51,116.8575792486659,4,9,0.5074928402900696,4.199653148651123,5.056405822229996,4.614862227740221,20.7004528414833,16.08183351173496,-3.23295607813634e-05,0.1110283657908439,0,0,0
1601,69231.76608403986,2011-01-25 06:08:16,202.2934884724236,4,9,0.4574640691280365,4.199653148651123,5.067803706839038,4.614862227740221,20.748322169364528,16.08183351173496,-3.23295607813634e-05,0.1110283657908439,0,0,0
1602,69361.74840805588,2011-01-25 06:10:26,332.2758125886826,4,9,0.4074352979660034,4.199814796447754,5.083379374978539,4.614862227740221,20.8137371657554,16.08183351173496,0.0,0.1110283657908439,0,0,0
1603,69524.85488145419,2011-01-25 06:13:09,495.382285891761,4,9,0.3574065268039703,4.199814796447754,5.100680870398255,4.614862227740221,20.88640123554977,16.08183351173496,0.0,0.1110283657908439,0,0,0
1604,69719.80461261376,2011-01-25 06:16:24,690.3320170463309,4,9,0.3073777556419372,4.199814796447754,5.11865264988772,4.614862227740221,20.96188043157654,16.08183351173496,-3.24249267578125e-05,0.1110283657908439,0,0,0
1605,69958.58163244204,2011-01-25 06:20:23,929.1090368645704,4,9,0.2573489844799042,4.199814796447754,5.137346956291304,4.614862227740221,21.04039422734201,16.08183351173496,-3.24249267578125e-05,0.1110283657908439,0,0,0
1606,70256.21725736954,2011-01-25 06:25:21,1226.7446617920818,4,9,0.2073202133178711,4.199814796447754,5.156507914469913,4.614862227740221,21.12086781667029,16.08183351173496,0.0,0.1110283657908439,0,0,0
1607,70646.66356350176,2011-01-25 06:31:51,1617.1909679343132,4,9,0.157291442155838,4.199653148651123,5.176197134848809,4.614862227740221,21.203559741655184,16.08183351173496,-3.23295607813634e-05,0.1110283657908439,0,0,0
1608,71212.56007930114,2011-01-25 06:41:17,2183.087483743715,4,9,0.1072626709938049,4.199814796447754,5.196785950993752,4.614862227740221,21.29003016753261,16.08183351173496,-3.24249267578125e-05,0.1110283657908439,0,0,0
1609,72222.44889813769,2011-01-25 06:58:07,3192.976302560227,4,9,0.0572338961064815,4.199814796447754,5.219058721658682,4.614862227740221,21.38357324807394,16.08183351173496,0.0,0.1110283657908439,0,0,0
1610,72469.80401358465,2011-01-25 07:02:14,3440.3314180172124,4,9,0.0498289167881011,4.199814796447754,5.222755287288478,4.614862227740221,21.39909842045699,16.08183351173496,0.0,0.1110283657908439,0,0,0
1611,72499.82294707802,2011-01-25 07:02:44,30.01514964835436,5,9,0.0,4.189454555511475,5.222755287288478,4.614862227740221,21.39909842045699,16.08183351173496,-3.23295607813634e-05,0.1110283657908439,0,0,0
1612,72529.82238625604,2011-01-25 07:03:14,60.01458882137018,5,9,0.0,4.187511920928955,5.222755287288478,4.614862227740221,21.39909842045699,16.08183351173496,-3.23295607813634e-05,0.1110283657908439,0,0,0
1613,72530.00714286932,2011-01-25 07:03:15,0.187748246398717,6,9,-1.9243103452026844e-05,4.187673568725586,5.222755287288478,4.614862228743793,21.39909842045699,16.081833515937593,0.0,0.1164906993508338,0,0,0
1614,72534.83493070205,2011-01-25 07:03:19,5.015536084163608,6,9,0.0003419754502829,4.187511920928955,5.222756269389072,4.614862228826224,21.399102533184465,16.081833516282785,-6.47544875391759e-05,0.1164906993508338,0,0,0
1615,72545.53714827364,2011-01-25 07:03:30,10.70512839885561,7,9,-1.0993878841400146,3.9874210357666016,5.222756269389072,4.618131701998853,21.399102533184465,16.09492176366763,-0.0021044730674475,0.1164906993508338,0,0,0
1616,72575.55005873123,2011-01-25 07:04:00,40.718038766232766,7,9,-1.0993878841400146,3.923475980758667,5.222756269389072,4.62729791352156,21.399102533184465,16.131170036314863,-0.0016512393485754,0.1164906993508338,0,0,0
1617,72605.56531103041,2011-01-25 07:04:30,70.73329116066196,7,9,-1.0993878841400146,3.868596792221069,5.222756269389072,4.636464876624029,21.399102533184465,16.16687981162283,-0.0013922214275225,0.1164906993508338,0,0,0
1618,72635.580419436,2011-01-25 07:05:00,100.74839947600172,7,9,-1.099568486213684,3.8221356868743896,5.222756269389072,4.645631753794163,21.399102533184465,16.202122516886245,-0.0011332035064697,0.1164906993508338,0,0,0
1619,72665.59540234879,2011-01-25 07:05:30,130.7633823837873,7,9,-1.0993878841400146,3.786035060882568,5.222756269389072,4.654798590772577,21.399102533184465,16.236986741589348,-0.0008741855854168,0.1164906993508338,0,0,0
1620,72695.61056227276,2011-01-25 07:06:00,160.7785423278016,7,9,-1.0993878841400146,3.757866859436035,5.222756269389072,4.663965506201429,21.399102533184465,16.271559097831535,-0.0006799221155233,0.1164906993508338,0,0,0
1621,72725.62559335059,2011-01-25 07:06:30,190.7935733805793,7,9,-1.0993878841400146,3.73471736907959,5.222756269389072,4.673132372536849,21.399102533184465,16.305898041774714,-0.0005180359003134,0.1164906993508338,0,0,0
1622,72755.64073602157,2011-01-25 07:07:00,220.8087160615688,7,9,-1.0993878841400146,3.715129137039185,5.222756269389072,4.682299327755422,21.399102533184465,16.340043019650793,-0.0004856586456298,0.1164906993508338,0,0,0
1623,72785.65593948905,2011-01-25 07:07:30,250.8239195992319,7,9,-1.099568486213684,3.697645425796509,5.222756269389072,4.69146632379605,21.399102533184465,16.374018704447753,-0.0004532813909463,0.1164906993508338,0,0,0
1624,72815.67092175022,2011-01-25 07:08:00,280.8389017802061,7,9,-1.0993878841400146,3.682104349136353,5.222756269389072,4.700633159700971,21.399102533184465,16.407842747347726,-0.0003885269106831,0.1164906993508338,0,0,0
1625,72845.68708634312,2011-01-25 07:08:30,310.8550664733644,7,9,-1.0993878841400146,3.667696714401245,5.222756269389072,4.709800415706146,21.399102533184465,16.441531185828307,-0.0003561496851034,0.1164906993508338,0,0,0
1626,72875.70119114239,2011-01-25 07:09:00,340.8691712525834,7,9,-1.099568486213684,3.654098272323608,5.222756269389072,4.718966991187108,21.399102533184465,16.475088771196077,-0.0003561496851034,0.1164906993508338,0,0,0
1627,72905.71625968862,2011-01-25 07:09:30,370.88423972361886,7,9,-1.0993878841400146,3.641471147537232,5.222756269389072,4.728133801691281,21.399102533184465,16.50852699435907,-0.0003561496851034,0.1164906993508338,0,0,0
1628,72935.73148680002,2011-01-25 07:10:00,400.899466835035,7,9,-1.0993878841400146,3.6291677951812735,5.222756269389072,4.737300665371611,21.399102533184465,16.541850790942863,-0.0003237724304199,0.1164906993508338,0,0,0
1629,72965.74648705104,2011-01-25 07:10:30,430.9144670810328,7,9,-1.099568486213684,3.617511987686157,5.222756269389072,4.746467468671548,21.399102533184465,16.57506512095247,-0.0002913951757363,0.1164906993508338,0,0,0
1630,72995.7615874266,2011-01-25 07:11:00,460.92956744655913,7,9,-1.099568486213684,3.60617995262146,5.222756269389072,4.755634354174378,21.399102533184465,16.60817467682095,-0.0002913951757363,0.1164906993508338,0,0,0
1631,73025.77677371126,2011-01-25 07:11:31,490.94475376129736,7,9,-1.099568486213684,3.5951716899871826,5.222756269389072,4.764801324923499,21.399102533184465,16.641182597179032,-0.0002913951757363,0.1164906993508338,0,0,0
1632,73055.7917930348,2011-01-25 07:12:01,520.9597730597798,7,9,-1.099568486213684,3.5844874382019043,5.222756269389072,4.773968212041624,21.399102533184465,16.674090001973333,-0.0002590179501567,0.1164906993508338,0,0,0
1633,73085.80690046794,2011-01-25 07:12:31,550.9748804979333,7,9,-1.099568486213684,3.573964834213257,5.222756269389072,4.783135132286769,21.399102533184465,16.706900177807075,-0.0002590179501567,0.1164906993508338,0,0,0
1634,73115.82214725339,2011-01-25 07:13:01,580.9901272934081,7,9,-1.0993878841400146,3.564413547515869,5.222756269389072,4.792302072818346,21.399102533184465,16.739617378900554,-0.0002266406954731,0.1164906993508338,0,0,0
1635,73145.83711385053,2011-01-25 07:13:31,611.0050938755052,7,9,-1.0993878841400146,3.5547003746032715,5.222756269389072,4.801468884878298,21.399102533184465,16.772245682968165,-0.0002590179501567,0.1164906993508338,0,0,0
1636,73175.85236395424,2011-01-25 07:14:01,641.0203439992752,7,9,-1.0993878841400146,3.5453109741210938,5.222756269389072,4.810635749701194,21.399102533184465,16.804787099646408,-0.0002266406954731,0.1164906993508338,0,0,0
1637,73205.86733019048,2011-01-25 07:14:31,671.0353102154601,7,9,-1.0993878841400146,3.536407232284546,5.222756269389072,4.819802589263879,21.399102533184465,16.837245512754937,-0.0002266406954731,0.1164906993508338,0,0,0
1638,73235.88252578337,2011-01-25 07:15:01,701.0505058033098,7,9,-1.099568486213684,3.527503490447998,5.222756269389072,4.828969560013031,21.399102533184465,16.869622952415554,-0.0002590179501567,0.1164906993508338,0,0,0
1639,73265.89754966325,2011-01-25 07:15:31,731.0655296882229,7,9,-1.0993878841400146,3.5194091796875,5.222756269389072,4.838136467261185,21.399102533184465,16.901922377051733,-0.0001942634553415,0.1164906993508338,0,0,0
1640,73295.91280314539,2011-01-25 07:16:01,761.0807831753755,7,9,-1.0992072820663452,3.511476993560791,5.222756269389072,4.847303450033652,21.399102533184465,16.934147756490642,-0.0001618385285837,0.1164906993508338,0,0,0
1641,73325.92789733552,2011-01-25 07:16:31,791.0958773805484,7,9,-1.0993878841400146,3.503544569015503,5.222756269389072,4.856470350096528,21.399102533184465,16.966300393089767,-0.0002266406954731,0.1164906993508338,0,0,0
1642,73355.94331480637,2011-01-25 07:17:01,821.1112948463864,7,9,-1.0993878841400146,3.4960978031158447,5.222756269389072,4.865637420216258,21.399102533184465,16.998383457283516,-0.0001942634553415,0.1164906993508338,0,0,0
1643,73385.95800640312,2011-01-25 07:17:31,851.1259864331103,7,9,-1.0993878841400146,3.4886510372161865,5.222756269389072,4.874804221423099,21.399102533184465,17.030396504774625,-0.0001295089750783,0.1164906993508338,0,0,0
1644,73415.97309181138,2011-01-25 07:18:01,881.1410718463709,7,9,-1.099568486213684,3.4810423851013184,5.222756269389072,4.883971151143394,21.399102533184465,17.062340411981125,-0.0001618862152099,0.1164906993508338,0,0,0
1645,73445.98821071812,2011-01-25 07:18:31,911.1561907480952,7,9,-1.099568486213684,3.47408127784729,5.222756269389072,4.893138056754674,21.399102533184465,17.09421928789667,-0.0001942634553415,0.1164906993508338,0,0,0
1646,73476.00332669253,2011-01-25 07:19:01,941.1713067225238,7,9,-1.099568486213684,3.467282056808472,5.222756269389072,4.902304963907639,21.399102533184465,17.126034672200806,-0.0001942634553415,0.1164906993508338,0,0,0
1647,73506.01841739398,2011-01-25 07:19:31,971.1863974139394,7,9,-1.0993878841400146,3.4601590633392334,5.222756269389072,4.911471916312112,21.399102533184465,17.15778598729462,-0.0001618862152099,0.1164906993508338,0,0,0
1648,73536.03353229073,2011-01-25 07:20:01,1001.201512320707,7,9,-1.0993878841400146,3.453197956085205,5.222756269389072,4.920638807953854,21.399102533184465,17.189473225781704,-0.0001618862152099,0.1164906993508338,0,0,0
1649,73566.04863543317,2011-01-25 07:20:31,1031.216615458142,7,9,-1.0997490882873535,3.445913076400757,5.222756269389072,4.929805708966849,21.399102533184465,17.221095134792844,-0.0002266406954731,0.1164906993508338,0,0,0
1650,73596.06389018848,2011-01-25 07:21:01,1061.23187022348,7,9,-1.0993878841400146,3.4391138553619385,5.222756269389072,4.938972662808957,21.399102533184465,17.252653148712465,-0.0001942634553415,0.1164906993508338,0,0,0
1651,73626.07884737216,2011-01-25 07:21:31,1091.2468274121657,7,9,-1.0993878841400146,3.4319908618927,5.222756269389072,4.948139574546211,21.399102533184465,17.284146968691626,-0.0002266406954731,0.1164906993508338,0,0,0
1652,73656.09395671004,2011-01-25 07:22:01,1121.2619367350164,7,9,-1.0993878841400146,3.424706220626831,5.222756269389072,4.957306518753938,21.399102533184465,17.31557375527016,-0.0001618862152099,0.1164906993508338,0,0,0
1653,73686.10912160139,2011-01-25 07:22:31,1151.2771016263607,7,9,-1.0993878841400146,3.416935682296753,5.222756269389072,4.966473569855123,21.399102533184465,17.346931736914634,-0.0002266406954731,0.1164906993508338,0,0,0
1654,73716.1241976463,2011-01-25 07:23:01,1181.2921776712733,7,9,-1.099568486213684,3.409165143966675,5.222756269389072,4.975640539216212,21.399102533184465,17.378220226432664,-0.0002266406954731,0.1164906993508338,0,0,0
1655,73746.1392847137,2011-01-25 07:23:31,1211.3072647386564,7,9,-1.099568486213684,3.4012327194213867,5.222756269389072,4.984807538965918,21.399102533184465,17.40943592674798,-0.0001618862152099,0.1164906993508338,0,0,0
1656,73776.15439467313,2011-01-25 07:24:01,1241.3223746930812,7,9,-1.0993878841400146,3.392490863800049,5.222756269389072,4.993974534143356,21.399102533184465,17.440575183042625,-0.0002913951757363,0.1164906993508338,0,0,0
1657,73806.16951789061,2011-01-25 07:24:31,1271.3374979306118,7,9,-1.0993878841400146,3.383587121963501,5.222756269389072,5.003141512020066,21.399102533184465,17.471633315164425,-0.0001942634553415,0.1164906993508338,0,0,0
1658,73836.18463548907,2011-01-25 07:25:01,1301.3526156042751,7,9,-1.099568486213684,3.3740358352661133,5.222756269389072,5.012308485165924,21.399102533184465,17.502606901185406,-0.0002590179501567,0.1164906993508338,0,0,0
1659,73866.1997146317,2011-01-25 07:25:31,1331.3676946667078,7,9,-1.0993878841400146,3.3638370037078857,5.222756269389072,5.02147549537991,21.399102533184465,17.533490514135945,-0.0002590179501567,0.1164906993508338,0,0,0
1660,73896.21496740208,2011-01-25 07:26:01,1361.3829474320614,7,9,-1.0992072820663452,3.3528287410736084,5.222756269389072,5.030642483784405,21.399102533184465,17.56427675547535,-0.0003237724304199,0.1164906993508338,0,0,0
1661,73926.22997445504,2011-01-25 07:26:31,1391.3979544950494,7,9,-1.0993878841400146,3.3411731719970703,5.222756269389072,5.039809429960404,21.399102533184465,17.594959293395533,-0.0002913951757363,0.1164906993508338,0,0,0
1662,73956.24512228886,2011-01-25 07:27:01,1421.413102313844,7,9,-1.0993878841400146,3.3290317058563232,5.222756269389072,5.048976411926758,21.399102533184465,17.625532097355272,-0.0003237724304199,0.1164906993508338,0,0,0
1663,73986.26015147699,2011-01-25 07:27:31,1451.4281314969617,7,9,-1.0992072820663452,3.3155951499938965,5.222756269389072,5.058143367451071,21.399102533184465,17.6559873215181,-0.0003561496851034,0.1164906993508338,0,0,0
1664,74016.27555138909,2011-01-25 07:28:01,1481.4435314291004,7,9,-1.099568486213684,3.30118727684021,5.222756269389072,5.067310371176457,21.399102533184465,17.686316831562124,-0.0004209041653666,0.1164906993508338,0,0,0
1665,74046.29040050843,2011-01-25 07:28:31,1511.4583805334062,7,9,-1.0993878841400146,3.2856462001800537,5.222756269389072,5.076477192861976,21.399102533184465,17.716509546397408,-0.0004209041653666,0.1164906993508338,0,0,0
1666,74076.30564170997,2011-01-25 07:29:01,1541.473621729927,7,9,-1.0997490882873535,3.267677068710327,5.222756269389072,5.085644120952936,21.399102533184465,17.746548159419987,-0.0005180359003134,0.1164906993508338,0,0,0
1667,74106.3206413745,2011-01-25 07:29:31,1571.4886214897128,7,9,-1.099568486213684,3.248250722885132,5.222756269389072,5.094811065144167,21.399102533184465,17.776415729985576,-0.0005504131549969,0.1164906993508338,0,0,0
1668,74136.33586588946,2011-01-25 07:30:01,1601.5038459244577,7,9,-1.0993878841400146,3.225424766540528,5.222756269389072,5.103978036152285,21.399102533184465,17.80609043100189,-0.0006475448608398,0.1164906993508338,0,0,0
1669,74166.3508047224,2011-01-25 07:30:31,1631.5187847573952,7,9,-1.0993878841400146,3.198227882385254,5.222756269389072,5.113144953848254,21.399102533184465,17.835537455502735,-0.0007770538213662,0.1164906993508338,0,0,0
1670,74196.36592173943,2011-01-25 07:31:01,1661.5339017694098,7,9,-1.099568486213684,3.164717674255371,5.222756269389072,5.122311964352789,21.399102533184465,17.864707047094313,-0.0010036944877356,0.1164906993508338,0,0,0
1671,74226.38103440059,2011-01-25 07:31:31,1691.549014435593,7,9,-1.0993878841400146,3.1224653720855717,5.222756269389072,5.131478945232424,21.399102533184465,17.893532373829398,-0.0011979580158367,0.1164906993508338,0,0,0
1672,74256.39626927636,2011-01-25 07:32:01,1721.5642493213854,7,9,-1.099568486213684,3.065967321395874,5.222756269389072,5.140646036431376,21.399102533184465,17.921910156197928,-0.0017159938579425,0.1164906993508338,0,0,0
1673,74286.41131084535,2011-01-25 07:32:31,1751.5792908753351,7,9,-1.099568486213684,2.989719152450561,5.222756269389072,5.149813014920826,21.399102533184465,17.949686195877817,-0.0023311614058911,0.1164906993508338,0,0,0
1674,74316.4266991084,2011-01-25 07:33:01,1781.5946791434037,7,9,-1.099568486213684,2.8827126026153564,5.222756269389072,5.158980066528903,21.399102533184465,17.976628259138476,-0.0032377243041992,0.1164906993508338,0,0,0
1675,74346.44145666454,2011-01-25 07:33:31,1811.609436694531,7,9,-1.099568486213684,2.7345871925354004,5.222756269389072,5.168146959906133,21.399102533184465,18.00241053715074,-0.0044356822036206,0.1164906993508338,0,0,0
1676,74352.37886914835,2011-01-25 07:33:37,1817.5468491783367,7,9,-1.0993878841400146,2.699943780899048,5.222756269389072,5.169960311972861,21.399102533184465,18.007338340704454,-0.0046946527436375,0.1164906993508338,0,0,0
1677,74412.39069779582,2011-01-25 07:34:37,60.01472398824764,8,9,0.0,3.6495654582977295,5.222756269389072,5.169960311972861,21.399102533184465,18.007338340704454,0.0012627125252038,0.1164906993508338,0,0,0
1678,74412.5761407169,2011-01-25 07:34:38,0.187425978207224,9,9,-1.9243103452026844e-05,3.64972734451294,5.222756269389072,5.169960312974711,21.399102533184465,18.00733834436093,0.0,0.1124458834528923,0,0,0
1679,74417.40417516931,2011-01-25 07:34:42,5.015460425599185,9,9,0.0008838032954372,3.6568503379821777,5.222757233263748,5.169960313141758,21.399106054993588,18.007338344970606,0.0010360718006268,0.1124458834528923,0,0,0
