Data_Point,Test_Time(s),Date_Time,Step_Time(s),Step_Index,Cycle_Index,Current(A),Voltage(V),Charge_Capacity(Ah),Discharge_Capacity(Ah),Charge_Energy(Wh),Discharge_Energy(Wh),dV/dt(V/s),Internal_Resistance(Ohm),Is_FC_Data,AC_Impedance(Ohm),ACI_Phase_Angle(Deg)
5006,223792.9140645935,2011-01-27 01:04:41,30.015208775717944,1,29,0.0,3.702178239822388,15.531786721789617,15.443150394984007,63.70653272348944,53.628483706676576,0.0005827903514727,0.1149765476584434,0,0,0
5007,223822.9291046036,2011-01-27 01:05:11,60.030248695595176,1,29,0.0,3.718690633773804,15.531786721789617,15.443150394984007,63.70653272348944,53.628483706676576,0.0003561496851034,0.1149765476584434,0,0,0
5008,223852.94425471307,2011-01-27 01:05:41,90.04539890033622,1,29,0.0,3.730184555053711,15.531786721789617,15.443150394984007,63.70653272348944,53.628483706676576,0.0002590179501567,0.1149765476584434,0,0,0
5009,223882.91243940537,2011-01-27 01:06:11,120.01358349231931,1,29,0.0,3.738602638244629,15.531786721789617,15.443150394984007,63.70653272348944,53.628483706676576,0.0001618862152099,0.1149765476584434,0,0,0
5010,223912.925118734,2011-01-27 01:06:41,30.01511406968136,2,29,0.5501165986061096,3.857264757156372,15.536372989281409,15.443150394984007,63.72414326178492,53.628483706676576,0.0007446765666827,0.1149765476584434,0,0,0
5011,223942.94026492376,2011-01-27 01:07:11,60.03026025440329,2,29,0.5499359965324402,3.877176761627197,15.54095925696762,15.443150394984007,63.741882781911805,53.628483706676576,0.0004209041653666,0.1149765476584434,0,0,0
5012,223972.94056005008,2011-01-27 01:07:41,90.03055549099294,2,29,0.5499359965324402,3.891422748565674,15.5455432734191,15.443150394984007,63.75969020636762,53.628483706676576,0.0003561496851034,0.1149765476584434,0,0,0
5013,224002.94061583487,2011-01-27 01:08:11,120.03061128582004,2,29,0.5501165986061096,3.902916669845581,15.550127284261366,15.443150394984007,63.77755545360487,53.628483706676576,0.0002913951757363,0.1149765476584434,0,0,0
5014,224032.9547046393,2011-01-27 01:08:41,150.04469998997502,2,29,0.5499359965324402,3.9127917289733887,15.554713319376386,15.443150394984007,63.79547770596864,53.628483706676576,0.0002266406954731,0.1149765476584434,0,0,0
5015,224062.9695633876,2011-01-27 01:09:11,180.05955872327957,2,29,0.5499359965324402,3.921857118606568,15.559299553152266,15.443150394984007,63.81344449841439,53.628483706676576,0.0002266406954731,0.1149765476584434,0,0,0
5016,224092.98457500697,2011-01-27 01:09:41,210.0745703676856,2,29,0.5499359965324402,3.9304370880126953,15.563885763859505,15.443150394984007,63.83145114520829,53.628483706676576,0.0001942634553415,0.1149765476584434,0,0,0
5017,224122.9997711061,2011-01-27 01:10:11,240.08976644174712,2,29,0.5501165986061096,3.938369512557984,15.568472037213056,15.443150394984007,63.849495482347535,53.628483706676576,0.0001942634553415,0.1149765476584434,0,0,0
5018,224153.01477603376,2011-01-27 01:10:41,270.1047713644005,2,29,0.5501165986061096,3.9458162784576416,15.573058269195466,15.443150394984007,63.86757496238161,53.628483706676576,0.0001942634553415,0.1149765476584434,0,0,0
5019,224183.030159956,2011-01-27 01:11:11,300.12015529164995,2,29,0.5501165986061096,3.95277738571167,15.577644536130292,15.443150394984007,63.885687699969104,53.628483706676576,0.0001942634553415,0.1149765476584434,0,0,0
5020,224213.0450048999,2011-01-27 01:11:41,330.1350002305747,2,29,0.5501165986061096,3.959576606750488,15.582230675241552,15.443150394984007,63.90383124625381,53.628483706676576,0.0002266406954731,0.1149765476584434,0,0,0
5021,224243.06012665376,2011-01-27 01:12:11,360.1501219894198,2,29,0.5501165986061096,3.9658901691436768,15.586816971874503,15.443150394984007,63.9220049979987,53.628483706676576,0.0001618862152099,0.1149765476584434,0,0,0
5022,224273.07522673853,2011-01-27 01:12:41,390.16522207424657,2,29,0.5501165986061096,3.9717180728912354,15.591403197116138,15.443150394984007,63.94020650868234,53.628483706676576,0.0001618862152099,0.1149765476584434,0,0,0
5023,224303.09048057665,2011-01-27 01:13:11,420.1804759273112,2,29,0.5499359965324402,3.977384090423584,15.595989527090094,15.443150394984007,63.95843493525596,53.628483706676576,0.0001618862152099,0.1149765476584434,0,0,0
5024,224333.1054525672,2011-01-27 01:13:41,450.19544790285016,2,29,0.5501165986061096,3.9827263355255127,15.600575662590876,15.443150394984007,63.97668782562552,53.628483706676576,0.0001295089750783,0.1149765476584434,0,0,0
5025,224363.12077319165,2011-01-27 01:14:11,480.2107685473797,2,29,0.5501165986061096,3.987906694412232,15.605161892385004,15.443150394984007,63.994965487405295,53.628483706676576,0.0001295089750783,0.1149765476584434,0,0,0
5026,224393.13582117663,2011-01-27 01:14:41,510.2258165273451,2,29,0.5501165986061096,3.99292516708374,15.609748067423858,15.443150394984007,64.0132660149547,53.628483706676576,0.0001618862152099,0.1149765476584434,0,0,0
5027,224423.1507882199,2011-01-27 01:15:11,540.2407835455289,2,29,0.5499359965324402,3.99778151512146,15.614334226762546,15.443150394984007,64.03158872095743,53.628483706676576,0.0001618862152099,0.1149765476584434,0,0,0
5028,224453.1659419835,2011-01-27 01:15:41,570.2559373191647,2,29,0.5497553944587708,4.001990795135498,15.618919646870188,15.443150394984007,64.04992980481812,53.628483706676576,6.47544875391759e-05,0.1149765476584434,0,0,0
5029,224483.1809846051,2011-01-27 01:16:11,600.270979935763,2,29,0.5497553944587708,4.006523609161377,15.623504998518172,15.443150394984007,64.06829137639271,53.628483706676576,9.71794142969884e-05,0.1149765476584434,0,0,0
5030,224513.198305134,2011-01-27 01:16:41,630.2883004696321,2,29,0.5499359965324402,4.010894298553467,15.628090884713496,15.443150394984007,64.08667529343515,53.628483706676576,9.70840483205393e-05,0.1149765476584434,0,0,0
5031,224543.21122560152,2011-01-27 01:17:11,660.3012209472068,2,29,0.5499359965324402,4.015103340148926,15.632675907462875,15.443150394984007,64.10507531929387,53.628483706676576,6.47544875391759e-05,0.1149765476584434,0,0,0
5032,224573.2263366336,2011-01-27 01:17:41,690.3163319642803,2,29,0.5499359965324402,4.019312381744385,15.637261309816246,15.443150394984007,64.12349602273125,53.628483706676576,0.0001295089750783,0.1149765476584434,0,0,0
5033,224603.2414821316,2011-01-27 01:18:11,720.3314774622906,2,29,0.5499359965324402,4.023359775543213,15.641846657390888,15.443150394984007,64.14193514055246,53.628483706676576,9.71794142969884e-05,0.1149765476584434,0,0,0
5034,224633.2565653695,2011-01-27 01:18:41,750.3465607051421,2,29,0.5501165986061096,4.027406692504883,15.646432614437972,15.443150394984007,64.16039523320065,53.628483706676576,9.70840483205393e-05,0.1149765476584434,0,0,0
5035,224663.27168103316,2011-01-27 01:19:11,780.361676368796,2,29,0.5501165986061096,4.031291961669922,15.651018857459004,15.443150394984007,64.17887457401572,53.628483706676576,9.70840483205393e-05,0.1149765476584434,0,0,0
5036,224693.28679103768,2011-01-27 01:19:41,810.3767863683332,2,29,0.5497553944587708,4.034853458404541,15.655605077555707,15.443150394984007,64.19737147489674,53.628483706676576,3.24249267578125e-05,0.1149765476584434,0,0,0
5037,224723.30206997824,2011-01-27 01:20:11,840.3920654242111,2,29,0.5501165986061096,4.038900375366211,15.660191309045665,15.443150394984007,64.21588583968662,53.628483706676576,9.70840483205393e-05,0.1149765476584434,0,0,0
5038,224753.31701046036,2011-01-27 01:20:41,870.4070057909713,2,29,0.5499359965324402,4.04246187210083,15.664777515420512,15.443150394984007,64.23441730168882,53.628483706676576,9.70840483205393e-05,0.1149765476584434,0,0,0
5039,224783.3321189812,2011-01-27 01:21:11,900.4221143118234,2,29,0.5501165986061096,4.046185493469238,15.669363802630066,15.443150394984007,64.25296615534678,53.628483706676576,0.0001295089750783,0.1149765476584434,0,0,0
5040,224813.3494195202,2011-01-27 01:21:41,930.4394150764213,2,29,0.5499359965324402,4.049746990203857,15.673950343913264,15.443150394984007,64.27153282433997,53.628483706676576,9.71794142969884e-05,0.1149765476584434,0,0,0
5041,224843.36238468412,2011-01-27 01:22:11,960.4523800248312,2,29,0.5501165986061096,4.053470134735107,15.678536269066164,15.443150394984007,64.29011337161124,53.628483706676576,0.0001295089750783,0.1149765476584434,0,0,0
5042,224873.37746658368,2011-01-27 01:22:41,990.4674619243344,2,29,0.5499359965324402,4.056869983673096,15.683122481516673,15.443150394984007,64.30871139670803,53.628483706676576,6.47544875391759e-05,0.1149765476584434,0,0,0
5043,224903.39257452305,2011-01-27 01:23:11,1020.4825698537124,2,29,0.5501165986061096,4.060431480407715,15.68770878670968,15.443150394984007,64.3273259670659,53.628483706676576,9.71794142969884e-05,0.1149765476584434,0,0,0
5044,224933.4077408179,2011-01-27 01:23:41,1050.4977362738673,2,29,0.5501165986061096,4.063992977142334,15.692295090744176,15.443150394984007,64.34595616778624,53.628483706676576,0.0001295089750783,0.1149765476584434,0,0,0
5045,224963.4228119556,2011-01-27 01:24:11,1080.5128072912491,2,29,0.5501165986061096,4.067392349243164,15.696881383403383,15.443150394984007,64.36460238097288,53.628483706676576,6.47544875391759e-05,0.1149765476584434,0,0,0
5046,224993.4380722046,2011-01-27 01:24:42,1110.5280676304792,2,29,0.5501165986061096,4.070792198181152,15.7014676863555,15.443150394984007,64.38326451960518,53.628483706676576,6.47544875391759e-05,0.1149765476584434,0,0,0
5047,225023.4530234284,2011-01-27 01:25:12,1140.5430187540485,2,29,0.5501165986061096,4.074191570281982,15.706053891573438,15.443150394984007,64.40194191035393,53.628483706676576,6.47544875391759e-05,0.1149765476584434,0,0,0
5048,225053.46814058576,2011-01-27 01:25:42,1170.558135916438,2,29,0.5501165986061096,4.077753067016602,15.710640162160926,15.443150394984007,64.4206352641868,53.628483706676576,9.70840483205393e-05,0.1149765476584434,0,0,0
5049,225083.48328266028,2011-01-27 01:26:12,1200.5732779859034,2,29,0.5501165986061096,4.080990791320801,15.715226455549308,15.443150394984007,64.43934438105583,53.628483706676576,6.47544875391759e-05,0.1149765476584434,0,0,0
5050,225113.498399567,2011-01-27 01:26:42,1230.588394897668,2,29,0.5497553944587708,4.084228515625,15.719812242227787,15.443150394984007,64.45806678596168,53.628483706676576,6.47544875391759e-05,0.1149765476584434,0,0,0
5051,225143.51351329585,2011-01-27 01:27:12,1260.6035086365248,2,29,0.5497553944587708,4.087790012359619,15.72439759893274,15.443150394984007,64.47680295254096,53.628483706676576,9.70840483205393e-05,0.1149765476584434,0,0,0
5052,225173.5285919924,2011-01-27 01:27:42,1290.6185873280333,2,29,0.5499359965324402,4.091189861297607,15.728982966536856,15.443150394984007,64.49555474874752,53.628483706676576,6.47544875391759e-05,0.1149765476584434,0,0,0
5053,225203.54374365573,2011-01-27 01:28:12,1320.6337390014344,2,29,0.5501165986061096,4.094427585601807,15.733568382477,15.443150394984007,64.51432208969409,53.628483706676576,6.47544875391759e-05,0.1149765476584434,0,0,0
5054,225233.55879854792,2011-01-27 01:28:42,1350.6487938886148,2,29,0.5501165986061096,4.097989082336426,15.738154068805306,15.443150394984007,64.53310609059692,53.628483706676576,9.71794142969884e-05,0.1149765476584434,0,0,0
5055,225263.5740404913,2011-01-27 01:29:12,1380.6640358420218,2,29,0.550297200679779,4.101388454437256,15.742740430359438,15.443150394984007,64.55190857071456,53.628483706676576,0.0001295089750783,0.1149765476584434,0,0,0
5056,225293.5891494332,2011-01-27 01:29:42,1410.679144783923,2,29,0.5499359965324402,4.104788303375244,15.747326785333035,15.443150394984007,64.5707266133208,53.628483706676576,6.47544875391759e-05,0.1149765476584434,0,0,0
5057,225323.60436936177,2011-01-27 01:30:12,1440.6943646923871,2,29,0.5501165986061096,4.108187675476074,15.751913168787436,15.443150394984007,64.58956043802432,53.628483706676576,9.70840483205393e-05,0.1149765476584434,0,0,0
5058,225353.61941003348,2011-01-27 01:30:42,1470.7094053841884,2,29,0.5501165986061096,4.111587524414063,15.756499443597786,15.443150394984007,64.60840936091316,53.628483706676576,9.71794142969884e-05,0.1149765476584434,0,0,0
5059,225383.63427376925,2011-01-27 01:31:12,1500.7242691049232,2,29,0.550297200679779,4.114986896514893,15.761085720608923,15.443150394984007,64.62727389710462,53.628483706676576,0.0001295089750783,0.1149765476584434,0,0,0
5060,225413.64954917604,2011-01-27 01:31:42,1530.739544511706,2,29,0.5501165986061096,4.118548393249512,15.765672013679175,15.443150394984007,64.64615422512826,53.628483706676576,9.71794142969884e-05,0.1149765476584434,0,0,0
5061,225443.6646681981,2011-01-27 01:32:12,1560.7546635237052,2,29,0.5499359965324402,4.121786117553711,15.770258278154635,15.443150394984007,64.66505021115088,53.628483706676576,6.47544875391759e-05,0.1149765476584434,0,0,0
5062,225473.6797515061,2011-01-27 01:32:42,1590.7697468668064,2,29,0.5501165986061096,4.12534761428833,15.774844538635824,15.443150394984007,64.68396198288346,53.628483706676576,0.0001295089750783,0.1149765476584434,0,0,0
5063,225503.6946656876,2011-01-27 01:33:12,1620.78466101823,2,29,0.5501165986061096,4.12874698638916,15.779430823294096,15.443150394984007,64.70288979840299,53.628483706676576,9.70840483205393e-05,0.1149765476584434,0,0,0
5064,225533.709922894,2011-01-27 01:33:42,1650.7999182246524,2,29,0.5501165986061096,4.132470607757568,15.784017163909327,15.443150394984007,64.72183388817513,53.628483706676576,0.0001619339018361,0.1149765476584434,0,0,0
5065,225563.7250890736,2011-01-27 01:34:12,1680.8150844342822,2,29,0.5499359965324402,4.135708332061768,15.788603530691477,15.443150394984007,64.74079416362123,53.628483706676576,6.47544875391759e-05,0.1149765476584434,0,0,0
5066,225593.7401581712,2011-01-27 01:34:42,1710.8301535018045,2,29,0.5501165986061096,4.139269828796387,15.793189882866818,15.443150394984007,64.75977053319707,53.628483706676576,9.71794142969884e-05,0.1149765476584434,0,0,0
5067,225623.7553845608,2011-01-27 01:35:12,1740.8453799064594,2,29,0.5501165986061096,4.142831325531006,15.79777631841621,15.443150394984007,64.77876349505969,53.628483706676576,6.47544875391759e-05,0.1149765476584434,0,0,0
5068,225653.77037005,2011-01-27 01:35:42,1770.8603653756284,2,29,0.5501165986061096,4.146392822265625,15.802362628947993,15.443150394984007,64.79777222455449,53.628483706676576,9.71794142969884e-05,0.1149765476584434,0,0,0
5069,225683.78549216472,2011-01-27 01:36:12,1800.875487490361,2,29,0.5501165986061096,4.150115966796875,15.806948892779031,15.443150394984007,64.81679736491643,53.628483706676576,9.70840483205393e-05,0.1149765476584434,0,0,0
5070,225713.8005960089,2011-01-27 01:36:42,1830.8905913395693,2,29,0.5499359965324402,4.153677463531494,15.811535252544632,15.443150394984007,64.83583941207152,53.628483706676576,9.70840483205393e-05,0.1149765476584434,0,0,0
5071,225743.8157104495,2011-01-27 01:37:12,1860.9057057801751,2,29,0.5499359965324402,4.157401084899902,15.816121572046477,15.443150394984007,64.85489790007153,53.628483706676576,9.71794142969884e-05,0.1149765476584434,0,0,0
5072,225773.83084089504,2011-01-27 01:37:42,1890.92083624572,2,29,0.5501165986061096,4.1609625816345215,15.820707915016673,15.443150394984007,64.87397331280454,53.628483706676576,9.71794142969884e-05,0.1149765476584434,0,0,0
5073,225803.84596754605,2011-01-27 01:38:12,1920.935962876708,2,29,0.5501165986061096,4.164685726165772,15.825294237284528,15.443150394984007,64.89306554368262,53.628483706676576,9.70840483205393e-05,0.1149765476584434,0,0,0
5074,225833.86105326508,2011-01-27 01:38:42,1950.951048595731,2,29,0.5499359965324402,4.168247222900391,15.829880494819797,15.443150394984007,64.91217437868694,53.628483706676576,6.47544875391759e-05,0.1149765476584434,0,0,0
5075,225863.87628762456,2011-01-27 01:39:12,1980.966282960224,2,29,0.5501165986061096,4.171970844268799,15.834466781145924,15.443150394984007,64.93130040506628,53.628483706676576,3.24249267578125e-05,0.1149765476584434,0,0,0
5076,225893.89127270773,2011-01-27 01:39:42,2010.9812680384189,2,29,0.5501165986061096,4.175856113433838,15.839053042595848,15.443150394984007,64.95044356735227,53.628483706676576,6.47544875391759e-05,0.1149765476584434,0,0,0
5077,225923.90644765412,2011-01-27 01:40:12,2040.9964429948488,2,29,0.5501165986061096,4.179579257965088,15.84363936364133,15.443150394984007,64.96960427650271,53.628483706676576,6.47544875391759e-05,0.1149765476584434,0,0,0
5078,225953.92150385963,2011-01-27 01:40:42,2071.0114991902897,2,29,0.5501165986061096,4.183626651763916,15.848225577834642,15.443150394984007,64.98878199243585,53.628483706676576,0.0001295089750783,0.1149765476584434,0,0,0
5079,225983.93674903607,2011-01-27 01:41:12,2101.026744371742,2,29,0.5499359965324402,4.187188148498535,15.852811968022616,15.443150394984007,65.0079778969487,53.628483706676576,9.71794142969884e-05,0.1149765476584434,0,0,0
5080,226013.95172251036,2011-01-27 01:41:42,2131.041717841003,2,29,0.5499359965324402,4.191073417663574,15.857398268436958,15.443150394984007,65.02719107528067,53.628483706676576,9.71794142969884e-05,0.1149765476584434,0,0,0
5081,226043.96685861,2011-01-27 01:42:12,2161.0568539405904,2,29,0.5501165986061096,4.195120334625244,15.861984589886616,15.443150394984007,65.04642214354482,53.628483706676576,9.70840483205393e-05,0.1149765476584434,0,0,0
5082,226073.9819514768,2011-01-27 01:42:42,2191.071946807428,2,29,0.5499359965324402,4.199005603790283,15.866570885706963,15.443150394984007,65.06567076661386,53.628483706676576,9.71794142969884e-05,0.1149765476584434,0,0,0
5083,226081.4662143076,2011-01-27 01:42:50,2198.5562096382523,2,29,0.5501165986061096,4.200138568878174,15.86771445626103,15.443150394984007,65.07047312008996,53.628483706676576,0.0001295089750783,0.1149765476584434,0,0,0
5084,226111.485071023,2011-01-27 01:43:20,30.014996200916126,3,29,0.0,4.087790012359619,15.86771445626103,15.443150394984007,65.07047312008996,53.628483706676576,-0.0005504608270712,0.1149765476584434,0,0,0
5085,226141.5003411115,2011-01-27 01:43:50,60.03026630448194,3,29,0.0,4.074191570281982,15.86771445626103,15.443150394984007,65.07047312008996,53.628483706676576,-0.0002914428769145,0.1149765476584434,0,0,0
5086,226171.51527437053,2011-01-27 01:44:20,90.04519954849009,3,29,0.0,4.065611839294434,15.86771445626103,15.443150394984007,65.07047312008996,53.628483706676576,-0.0001295089750783,0.1149765476584434,0,0,0
5087,226201.4835216187,2011-01-27 01:44:50,120.01344680164408,3,29,0.0,4.059298038482666,15.86771445626103,15.443150394984007,65.07047312008996,53.628483706676576,-0.0001619339018361,0.1149765476584434,0,0,0
5088,226201.4894503281,2011-01-27 01:44:50,2.606496191e-06,4,29,1.0020010471343994,4.199814796447754,15.867714456986503,15.443150394984007,65.07047312313682,53.628483706676576,0.0,0.1149765476584434,0,0,0
5089,226202.2394337275,2011-01-27 01:44:51,0.749986020929085,4,29,0.951972246170044,4.199976921081543,15.867916399226722,15.443150394984007,65.0713212462311,53.628483706676576,3.24249267578125e-05,0.1149765476584434,0,0,0
5090,226204.28628851945,2011-01-27 01:44:53,2.796840832922052,4,29,0.9017629027366638,4.199814796447754,15.868442045293436,15.443150394984007,65.07352887578709,53.628483706676576,0.0,0.1149765476584434,0,0,0
5091,226207.50497084617,2011-01-27 01:44:56,6.015523139594065,4,29,0.8513728976249695,4.199814796447754,15.86922466059796,15.443150394984007,65.07681575327044,53.628483706676576,0.0,0.1149765476584434,0,0,0
5092,226212.02053042004,2011-01-27 01:45:00,10.53108270844258,4,29,0.801344096660614,4.199814796447754,15.870259893873705,15.443150394984007,65.08116359961677,53.628483706676576,3.23295607813634e-05,0.1149765476584434,0,0,0
5093,226217.97355824205,2011-01-27 01:45:06,16.484110530475956,4,29,0.7513153553009033,4.199814796447754,15.871542212574935,15.443150394984007,65.08654915965487,53.628483706676576,0.0,0.1149765476584434,0,0,0
5094,226226.00466055013,2011-01-27 01:45:14,24.515212843548536,4,29,0.7012865543365479,4.199976921081543,15.873160419868803,15.443150394984007,65.09334543789949,53.628483706676576,6.47544875391759e-05,0.1149765476584434,0,0,0
5095,226236.8482210393,2011-01-27 01:45:25,35.35877332775533,4,29,0.6512578129768372,4.199814796447754,15.87519368368228,15.443150394984007,65.10188491424678,53.628483706676576,-3.24249267578125e-05,0.1149765476584434,0,0,0
5096,226252.44172000172,2011-01-27 01:45:41,50.95227229518184,4,29,0.6010484099388123,4.199814796447754,15.877899801835117,15.443150394984007,65.1132502792035,53.628483706676576,-3.24249267578125e-05,0.1149765476584434,0,0,0
5097,226277.9412696304,2011-01-27 01:46:06,76.4518219288843,4,29,0.5510196685791016,4.199814796447754,15.881965465858714,15.443150394984007,65.13032556170285,53.628483706676576,-3.24249267578125e-05,0.1149765476584434,0,0,0
5098,226325.69047478176,2011-01-27 01:46:54,124.20102709522196,4,29,0.5009908676147461,4.199814796447754,15.888905728591723,15.443150394984007,65.1594737783682,53.628483706676576,-3.24249267578125e-05,0.1149765476584434,0,0,0
5099,226415.3298946825,2011-01-27 01:48:24,213.8404469809371,4,29,0.4509621262550354,4.199653148651123,15.900705621913064,15.443150394984007,65.20903189818483,53.628483706676576,-3.23295607813634e-05,0.1149765476584434,0,0,0
5100,226548.12428592023,2011-01-27 01:50:36,346.6348382187143,4,29,0.4009333550930023,4.199814796447754,15.916391018600384,15.443150394984007,65.27490866551392,53.628483706676576,0.0,0.1149765476584434,0,0,0
5101,226712.7623673972,2011-01-27 01:53:21,511.272919685601,4,29,0.3509045839309692,4.199814796447754,15.93356347396764,15.443150394984007,65.34703101943342,53.628483706676576,0.0,0.1149765476584434,0,0,0
5102,226912.46168529327,2011-01-27 01:56:41,710.9722375967797,4,29,0.3008758127689361,4.199814796447754,15.951612216067288,15.443150394984007,65.4228337055603,53.628483706676576,-3.24249267578125e-05,0.1149765476584434,0,0,0
5103,227155.64514449937,2011-01-27 02:00:44,954.1556968078132,4,29,0.2508470416069031,4.199814796447754,15.970213692610416,15.443150394984007,65.50095817839338,53.628483706676576,0.0,0.1149765476584434,0,0,0
5104,227461.4991692179,2011-01-27 02:05:50,1260.0097215062926,4,29,0.2006376683712005,4.199814796447754,15.989344002080156,15.443150394984007,65.58130349538472,53.628483706676576,0.0,0.1149765476584434,0,0,0
5105,227864.63292247217,2011-01-27 02:12:33,1663.143474770582,4,29,0.1506088972091674,4.199814796447754,16.008923047202316,15.443150394984007,65.66353330194848,53.628483706676576,0.0,0.1149765476584434,0,0,0
5106,228445.12302708012,2011-01-27 02:22:14,2243.6335793986555,4,29,0.1005801260471344,4.199653148651123,16.02897803388653,15.443150394984007,65.74776210872983,53.628483706676576,-3.23295607813634e-05,0.1149765476584434,0,0,0
5107,229553.7134262296,2011-01-27 02:40:42,3352.2239785230117,4,29,0.0503707453608512,4.199814796447754,16.051290241396465,15.443150394984007,65.84147091253693,53.628483706676576,0.0,0.1149765476584434,0,0,0
5108,229563.33828208185,2011-01-27 02:40:52,3361.848834380301,4,29,0.0498289167881011,4.199814796447754,16.05142560120033,15.443150394984007,65.84203940589846,53.628483706676576,0.0,0.1149765476584434,0,0,0
5109,229593.35432084592,2011-01-27 02:41:22,30.01518979842068,5,29,0.0,4.189130783081055,16.05142560120033,15.443150394984007,65.84203940589846,53.628483706676576,-6.47544875391759e-05,0.1149765476584434,0,0,0
5110,229623.3537322146,2011-01-27 02:41:52,60.01460113706468,5,29,0.0,4.187511920928955,16.05142560120033,15.443150394984007,65.84203940589846,53.628483706676576,0.0,0.1149765476584434,0,0,0
5111,229623.54311234687,2011-01-27 02:41:52,0.18748331109843,6,29,-1.9243103452026844e-05,4.187188148498535,16.05142560120033,15.443150395986166,65.84203940589846,53.62848371087279,0.0,0.1195108294486999,0,0,0
5112,229628.35573581536,2011-01-27 02:41:57,5.00010677958913,6,29,0.0005225847125984,4.187349796295166,16.05142629012836,15.443150396153133,65.84204229077743,53.6284837115719,-3.24249267578125e-05,0.1195108294486999,0,0,0
5113,229638.24786478325,2011-01-27 02:42:07,9.890373649326014,7,29,-1.099568486213684,3.9870972633361816,16.05142629012836,15.446171357204223,65.84204229077743,53.64057390964901,-0.0022016048897057,0.1195108294486999,0,0,0
5114,229668.26305132857,2011-01-27 02:42:37,39.90556019965144,7,29,-1.0997490882873535,3.921857118606568,16.05142629012836,15.455339184254436,65.84204229077743,53.676821031624016,-0.0016836166614666,0.1195108294486999,0,0,0
5115,229698.27811813547,2011-01-27 02:43:07,69.92062697646442,7,29,-1.0993878841400146,3.86309266090393,16.05142629012836,15.46450640342751,65.84204229077743,53.71249993540005,-0.0015217304462566,0.1195108294486999,0,0,0
5116,229728.29319936328,2011-01-27 02:43:37,99.9357082042938,7,29,-1.099568486213684,3.8103179931640634,16.05142629012836,15.473673432266056,65.84204229077743,53.747663134355534,-0.0013274669181555,0.1195108294486999,0,0,0
5117,229758.30846714607,2011-01-27 02:44:07,129.95097599710047,7,29,-1.099568486213684,3.7679038047790527,16.05142629012836,15.48284047007439,65.84204229077743,53.78238972983318,-0.0010036944877356,0.1195108294486999,0,0,0
5118,229788.3234252821,2011-01-27 02:44:37,159.96593412312225,7,29,-1.0993878841400146,3.7353649139404297,16.05142629012836,15.492007484324986,65.84204229077743,53.81677530995247,-0.0007770538213662,0.1195108294486999,0,0,0
5119,229818.338559487,2011-01-27 02:45:07,189.98106832798663,7,29,-1.0993878841400146,3.708977460861206,16.05142629012836,15.501174484597517,65.84204229077743,53.85089303329877,-0.0006475448608398,0.1195108294486999,0,0,0
5120,229848.35365070976,2011-01-27 02:45:37,219.9961595507264,7,29,-1.0993878841400146,3.6867990493774414,16.05142629012836,15.510341500085826,65.84204229077743,53.884788713162585,-0.0005504131549969,0.1195108294486999,0,0,0
5121,229878.36909693223,2011-01-27 02:46:07,250.0116057782473,7,29,-1.099568486213684,3.667534828186035,16.05142629012836,15.51950865073359,65.84204229077743,53.91849510011127,-0.0004532813909463,0.1195108294486999,0,0,0
5122,229908.38387676893,2011-01-27 02:46:37,280.0263856099047,7,29,-1.099568486213684,3.650213003158569,16.05142629012836,15.528675555993267,65.84204229077743,53.95203402067698,-0.0004209041653666,0.1195108294486999,0,0,0
5123,229938.3989954952,2011-01-27 02:47:07,310.04150434120425,7,29,-1.099568486213684,3.634186267852783,16.05142629012836,15.537842493430633,65.84204229077743,53.985421840718566,-0.0004532813909463,0.1195108294486999,0,0,0
5124,229968.41416625617,2011-01-27 02:47:37,340.0566750971652,7,29,-1.099568486213684,3.6197783946990967,16.05142629012836,15.547009534334688,65.84204229077743,54.018670901254886,-0.0003561496851034,0.1195108294486999,0,0,0
5125,229998.42945337715,2011-01-27 02:48:07,370.07196222315616,7,29,-1.099568486213684,3.60617995262146,16.05142629012836,15.55617662137236,65.84204229077743,54.051790262437805,-0.0003561496851034,0.1195108294486999,0,0,0
5126,230028.44431699265,2011-01-27 02:48:37,400.0868258336161,7,29,-1.0993878841400146,3.592905282974243,16.05142629012836,15.565343636732814,65.84204229077743,54.08478678089176,-0.0003561496851034,0.1195108294486999,0,0,0
5127,230058.45978702948,2011-01-27 02:49:07,430.1022958805021,7,29,-1.099568486213684,3.5804402828216557,16.05142629012836,15.574510773216558,65.84204229077743,54.11766666499543,-0.0003561496851034,0.1195108294486999,0,0,0
5128,230088.4745590216,2011-01-27 02:49:37,460.117067862596,7,29,-1.0993878841400146,3.568622589111328,16.05142629012836,15.58367773871822,65.84204229077743,54.15043337791634,-0.0002913951757363,0.1195108294486999,0,0,0
5129,230118.48965582828,2011-01-27 02:50:07,490.13216467426514,7,29,-1.0993878841400146,3.557128667831421,16.05142629012836,15.592844777306489,65.84204229077743,54.18309344105372,-0.0002913951757363,0.1195108294486999,0,0,0
5130,230148.50476693056,2011-01-27 02:50:37,520.1472757715384,7,29,-1.099568486213684,3.546120405197144,16.05142629012836,15.602011832788678,65.84204229077743,54.215651279928245,-0.0003237724304199,0.1195108294486999,0,0,0
5131,230178.5199262079,2011-01-27 02:51:07,550.1624350589161,7,29,-1.0993878841400146,3.535597801208496,16.05142629012836,15.611178874335982,65.84204229077743,54.248110723333205,-0.0002266406954731,0.1195108294486999,0,0,0
5132,230208.53512628196,2011-01-27 02:51:37,580.1776351329468,7,29,-1.099568486213684,3.5255608558654785,16.05142629012836,15.62034601049568,65.84204229077743,54.280476348808754,-0.0002590179501567,0.1195108294486999,0,0,0
5133,230238.5367813777,2011-01-27 02:52:07,610.1792903139363,7,29,-1.099568486213684,3.516171455383301,16.05142629012836,15.629508921513938,65.84204229077743,54.31273736700867,-0.0002266406954731,0.1195108294486999,0,0,0
5134,230268.5495957909,2011-01-27 02:52:37,640.1921046419538,7,29,-1.099568486213684,3.507106065750122,16.05142629012836,15.638675293413788,65.84204229077743,54.34492525332425,-0.0001942634553415,0.1195108294486999,0,0,0
5135,230298.5647687524,2011-01-27 02:53:07,670.207277718699,7,29,-1.099568486213684,3.4978785514831543,16.05142629012836,15.647842315054044,65.84204229077743,54.37703156831112,-0.0001942634553415,0.1195108294486999,0,0,0
5136,230328.57985128343,2011-01-27 02:53:37,700.222360124464,7,29,-1.099568486213684,3.4889748096466064,16.05142629012836,15.657009366026752,65.84204229077743,54.40905663181383,-0.0002590179501567,0.1195108294486999,0,0,0
5137,230358.59492209533,2011-01-27 02:54:07,730.2374309363336,7,29,-1.099568486213684,3.4805567264556885,16.05142629012836,15.666176376579973,65.84204229077743,54.44100233559603,-0.0002590179501567,0.1195108294486999,0,0,0
5138,230388.6101623896,2011-01-27 02:54:37,760.2526712456429,7,29,-1.0993878841400146,3.4723005294799805,16.05142629012836,15.675343389886509,65.84204229077743,54.47287011449312,-0.0001942634553415,0.1195108294486999,0,0,0
5139,230418.6251460994,2011-01-27 02:55:07,790.2676549403899,7,29,-1.099568486213684,3.4642062187194824,16.05142629012836,15.684510391042345,65.84204229077743,54.504662974657776,-0.0001942634553415,0.1195108294486999,0,0,0
5140,230448.6402886801,2011-01-27 02:55:37,820.2827975411795,7,29,-1.099568486213684,3.4561119079589844,16.05142629012836,15.69367747725255,65.84204229077743,54.5363824532532,-0.0001942634553415,0.1195108294486999,0,0,0
5141,230478.655367888,2011-01-27 02:56:07,850.2978767289243,7,29,-1.099568486213684,3.4481794834136963,16.05142629012836,15.702844506669964,65.84204229077743,54.5680283285912,-0.0001942634553415,0.1195108294486999,0,0,0
5142,230508.6706261871,2011-01-27 02:56:37,880.3131350531324,7,29,-1.0993878841400146,3.440408945083618,16.05142629012836,15.71201155017216,65.84204229077743,54.5996023731032,-0.0001618862152099,0.1195108294486999,0,0,0
5143,230538.68787433053,2011-01-27 02:57:07,910.3303832667572,7,29,-1.0993878841400146,3.43263840675354,16.05142629012836,15.721179193335235,65.84204229077743,54.63110575411038,-0.0001618862152099,0.1195108294486999,0,0,0
5144,230568.70073344017,2011-01-27 02:57:37,940.3432422811468,7,29,-1.099568486213684,3.424544334411621,16.05142629012836,15.730345572561673,65.84204229077743,54.66253318358369,-0.0001942634553415,0.1195108294486999,0,0,0
5145,230598.715816282,2011-01-27 02:58:07,970.3583251229992,7,29,-1.0993878841400146,3.416773796081543,16.05142629012836,15.739512657630735,65.84204229077743,54.69389062663482,-0.0001942634553415,0.1195108294486999,0,0,0
5146,230628.73093163487,2011-01-27 02:58:37,1000.3734404758784,7,29,-1.099568486213684,3.408355712890625,16.05142629012836,15.748679766724775,65.84204229077743,54.72517398909017,-0.0002266406954731,0.1195108294486999,0,0,0
5147,230658.7461913626,2011-01-27 02:59:07,1030.3887002286467,7,29,-1.099568486213684,3.399613857269287,16.05142629012836,15.7578468945045,65.84204229077743,54.75637888506703,-0.0002266406954731,0.1195108294486999,0,0,0
5148,230688.7611705461,2011-01-27 02:59:37,1060.403679387088,7,29,-1.099568486213684,3.391033887863159,16.05142629012836,15.767013905521312,65.84204229077743,54.787505023542174,-0.0002590179501567,0.1195108294486999,0,0,0
5149,230718.77628575865,2011-01-27 03:00:08,1090.41879460463,7,29,-1.0993878841400146,3.3822920322418213,16.05142629012836,15.776181015833776,65.84204229077743,54.81855138849652,-0.0002266406954731,0.1195108294486999,0,0,0
5150,230748.79138202887,2011-01-27 03:00:38,1120.4338908699374,7,29,-1.099568486213684,3.373064517974853,16.05142629012836,15.785348058765218,65.84204229077743,54.8495152230728,-0.0002590179501567,0.1195108294486999,0,0,0
5151,230778.80648751723,2011-01-27 03:01:08,1150.4489963732688,7,29,-1.0993878841400146,3.363513231277466,16.05142629012836,15.794515132468362,65.84204229077743,54.880393234907885,-0.0002590179501567,0.1195108294486999,0,0,0
5152,230808.82162274965,2011-01-27 03:01:38,1180.4641315906567,7,29,-1.099568486213684,3.3531525135040283,16.05142629012836,15.803682202133508,65.84204229077743,54.911180140201466,-0.0002913951757363,0.1195108294486999,0,0,0
5153,230838.83678176635,2011-01-27 03:02:08,1210.479290617385,7,29,-1.0993878841400146,3.34230637550354,16.05142629012836,15.812849295668933,65.84204229077743,54.94186941845082,-0.0002913951757363,0.1195108294486999,0,0,0
5154,230868.85184234276,2011-01-27 03:02:38,1240.4943512238194,7,29,-1.099568486213684,3.3309743404388428,16.05142629012836,15.822016379805907,65.84204229077743,54.97245741373754,-0.0003237724304199,0.1195108294486999,0,0,0
5155,230898.8669530941,2011-01-27 03:03:08,1270.5094619351307,7,29,-1.0993878841400146,3.3186709880828857,16.05142629012836,15.831183423603829,65.84204229077743,55.00293673418073,-0.0003561496851034,0.1195108294486999,0,0,0
5156,230928.88207703343,2011-01-27 03:03:38,1300.5245858894475,7,29,-1.099568486213684,3.305396318435669,16.05142629012836,15.840350457283249,65.84204229077743,55.03329821760575,-0.0003237724304199,0.1195108294486999,0,0,0
5157,230958.89714608088,2011-01-27 03:04:08,1330.5396549268946,7,29,-1.099568486213684,3.2909884452819824,16.05142629012836,15.84951735178666,65.84204229077743,55.06353377809434,-0.0004209041653666,0.1195108294486999,0,0,0
5158,230988.91237594417,2011-01-27 03:04:38,1360.5548847951818,7,29,-1.099568486213684,3.2751235961914062,16.05142629012836,15.85868441244908,65.84204229077743,55.09363308477165,-0.0004856586456298,0.1195108294486999,0,0,0
5159,231018.92740796937,2011-01-27 03:05:08,1390.5699168153706,7,29,-1.099568486213684,3.2573163509368896,16.05142629012836,15.867851483697928,65.84204229077743,55.123576982541024,-0.0004856586456298,0.1195108294486999,0,0,0
5160,231048.94252997884,2011-01-27 03:05:38,1420.5850388198278,7,29,-1.099568486213684,3.2378900051116943,16.05142629012836,15.877018543393726,65.84204229077743,55.15335016774608,-0.0005504131549969,0.1195108294486999,0,0,0
5161,231078.95764842944,2011-01-27 03:06:08,1450.600157270428,7,29,-1.099568486213684,3.21474027633667,16.05142629012836,15.886185588550736,65.84204229077743,55.182929261364826,-0.0006475448608398,0.1195108294486999,0,0,0
5162,231108.97275172223,2011-01-27 03:06:38,1480.615260573275,7,29,-1.099568486213684,3.187705516815185,16.05142629012836,15.895352582725897,65.84204229077743,55.212277879105166,-0.0007770061492919,0.1195108294486999,0,0,0
5163,231138.98789226796,2011-01-27 03:07:08,1510.6304011189425,7,29,-1.0993878841400146,3.1554901599884038,16.05142629012836,15.904519676247071,65.84204229077743,55.24135714032119,-0.0009065627818927,0.1195108294486999,0,0,0
5164,231169.00298485407,2011-01-27 03:07:38,1540.6454937151054,7,29,-1.0993878841400146,3.115828037261963,16.05142629012836,15.913686733969714,65.84204229077743,55.27010745194204,-0.0011655807029455,0.1195108294486999,0,0,0
5165,231199.018078152,2011-01-27 03:08:08,1570.660587002992,7,29,-1.0993878841400146,3.065481662750244,16.05142629012836,15.922853764700704,65.84204229077743,55.2984487223621,-0.0014569759368896,0.1195108294486999,0,0,0
5166,231229.0333398496,2011-01-27 03:08:38,1600.6758487056202,7,29,-1.099568486213684,2.997975349426269,16.05142629012836,15.932020946814673,65.84204229077743,55.326256596902354,-0.0020397664047777,0.1195108294486999,0,0,0
5167,231259.0482991786,2011-01-27 03:09:08,1630.6908080246153,7,29,-1.0993878841400146,2.902786493301392,16.05142629012836,15.94118774116028,65.84204229077743,55.353327457909664,-0.0029463290702551,0.1195108294486999,0,0,0
5168,231289.06356175343,2011-01-27 03:09:38,1660.706070609442,7,29,-1.0993878841400146,2.7680976390838623,16.05142629012836,15.950354186172552,65.84204229077743,55.37935395285473,-0.0041442392393946,0.1195108294486999,0,0,0
5169,231301.4385659516,2011-01-27 03:09:50,1673.08107481261,7,29,-1.099568486213684,2.699781894683838,16.05142629012836,15.954133416836,65.84204229077743,55.38968786000572,-0.004500389099121,0.1195108294486999,0,0,0
5170,231361.45216190576,2011-01-27 03:10:50,60.01463813928561,8,29,0.0,3.674819469451904,16.05142629012836,15.954133416836,65.84204229077743,55.38968786000572,0.0011331557761877,0.1195108294486999,0,0,0
5171,231361.64010553932,2011-01-27 03:10:51,0.18763516456399,9,29,0.002509286860004,3.675952672958374,16.051426420914595,15.954133416836,65.84204277154144,55.38968786000572,0.0,0.1151846498250961,0,0,0
5172,231366.46801712053,2011-01-27 03:10:55,5.01554673571054,9,29,0.0008838032954372,3.6814568042755127,16.051427568472267,15.954133416836,65.84204699300388,55.38968786000572,0.0009389400365762,0.1151846498250961,0,0,0
