Data_Point,Test_Time(s),Date_Time,Step_Time(s),Step_Index,Cycle_Index,Current(A),Voltage(V),Charge_Capacity(Ah),Discharge_Capacity(Ah),Charge_Energy(Wh),Discharge_Energy(Wh),dV/dt(V/s),Internal_Resistance(Ohm),Is_FC_Data,AC_Impedance(Ohm),ACI_Phase_Angle(Deg)
583,25551.359475897752,2011-01-24 18:00:09,30.01521964781455,1,4,0.0,3.670934438705444,1.808411223699577,1.782646510344924,7.402029971307048,6.236829707174582,0.0006799221155233,0.1109280735254287,0,0,0
584,25581.374463687705,2011-01-24 18:00:39,60.0302074127055,1,4,0.0,3.6911699771881104,1.808411223699577,1.782646510344924,7.402029971307048,6.236829707174582,0.0004532813909463,0.1109280735254287,0,0,0
585,25611.38990861197,2011-01-24 18:01:09,90.04565232695333,1,4,0.0,3.704930305480957,1.808411223699577,1.782646510344924,7.402029971307048,6.236829707174582,0.0003561496851034,0.1109280735254287,0,0,0
586,25641.3579188444,2011-01-24 18:01:39,120.01366258945372,1,4,0.0,3.715129137039185,1.808411223699577,1.782646510344924,7.402029971307048,6.236829707174582,0.0002913951757363,0.1109280735254287,0,0,0
587,25671.374341566552,2011-01-24 18:02:09,30.01520501634844,2,4,0.5499359965324402,3.834115028381348,1.812997598417207,1.782646510344924,7.419534069746838,6.236829707174582,0.000679874443449,0.1109280735254287,0,0,0
588,25701.38942465401,2011-01-24 18:02:39,60.03028810882507,2,4,0.5499359965324402,3.853541374206543,1.817583933174234,1.782646510344924,7.437167330987987,6.236829707174582,0.0004209041653666,0.1109280735254287,0,0,0
589,25731.404470002424,2011-01-24 18:03:09,90.04533345723188,2,4,0.5499359965324402,3.8674635887146,1.822170279813842,1.782646510344924,7.454874551218921,6.236829707174582,0.0003237724304199,0.1109280735254287,0,0,0
590,25761.419574403008,2011-01-24 18:03:39,120.06043788788982,2,4,0.5501165986061096,3.878471851348877,1.826756658564557,1.782646510344924,7.472637744601125,6.236829707174582,0.0002913951757363,0.1109280735254287,0,0,0
591,25791.43468097901,2011-01-24 18:04:09,150.07554443883217,2,4,0.5499359965324402,3.887861251831055,1.83134307636619,1.782646510344924,7.49044774735362,6.236829707174582,0.0002590179501567,0.1109280735254287,0,0,0
592,25821.44982665747,2011-01-24 18:04:39,180.09069011729233,2,4,0.5501165986061096,3.8962793350219727,1.835929430605703,1.782646510344924,7.508298533628471,6.236829707174582,0.0002590179501567,0.1109280735254287,0,0,0
593,25851.464897945527,2011-01-24 18:05:09,210.10576140534872,2,4,0.5501165986061096,3.904049873352051,1.840515809682111,1.782646510344924,7.526186484363667,6.236829707174582,0.0001942634553415,0.1109280735254287,0,0,0
594,25881.480123598307,2011-01-24 18:05:39,240.1209871784293,2,4,0.550297200679779,3.911658525466919,1.845102180968911,1.782646510344924,7.544108863837931,6.236829707174582,0.0002913951757363,0.1109280735254287,0,0,0
595,25911.49731063446,2011-01-24 18:06:09,270.1381740842561,2,4,0.550297200679779,3.9181337356567374,1.849688854566139,1.782646510344924,7.562064701959157,6.236829707174582,0.0001942634553415,0.1109280735254287,0,0,0
596,25941.510251728418,2011-01-24 18:06:39,300.1511151832259,2,4,0.550297200679779,3.9246091842651367,1.854274841581615,1.782646510344924,7.580048319010202,6.236829707174582,0.0001618862152099,0.1109280735254287,0,0,0
597,25971.525482273388,2011-01-24 18:07:09,330.1663457281996,2,4,0.5501165986061096,3.930922746658325,1.858861175501368,1.782646510344924,7.598062626627994,6.236829707174582,0.0001618862152099,0.1109280735254287,0,0,0
598,26001.540440203924,2011-01-24 18:07:39,360.18130365873407,2,4,0.5499359965324402,3.9369125366210938,1.863447508762245,1.782646510344924,7.616105120368163,6.236829707174582,0.0001618862152099,0.1109280735254287,0,0,0
599,26031.555551451573,2011-01-24 18:08:09,390.1964149113946,2,4,0.5499359965324402,3.9425785541534415,1.868033859554577,1.782646510344924,7.634174624259413,6.236829707174582,0.0001295089750783,0.1109280735254287,0,0,0
600,26061.57080633721,2011-01-24 18:08:39,420.21166981708257,2,4,0.5501165986061096,3.948082685470581,1.872620228110621,1.782646510344924,7.652269730292989,6.236829707174582,0.0001295089750783,0.1109280735254287,0,0,0
601,26091.585788838984,2011-01-24 18:09:10,450.22665231384366,2,4,0.550297200679779,3.9534249305725098,1.877206585298433,1.782646510344924,7.670389218804251,6.236829707174582,0.0001618862152099,0.1109280735254287,0,0,0
602,26121.600881510338,2011-01-24 18:09:40,480.2417449701564,2,4,0.550297200679779,3.9584434032440186,1.881793004729697,1.782646510344924,7.688532291332989,6.236829707174582,0.0001618862152099,0.1109280735254287,0,0,0
603,26151.61598610139,2011-01-24 18:10:10,510.2568495612141,2,4,0.5501165986061096,3.9629762172698975,1.886379373560382,1.782646510344924,7.706697327632624,6.236829707174582,0.0001295089750783,0.1109280735254287,0,0,0
604,26181.63111661706,2011-01-24 18:10:40,540.271980066859,2,4,0.5501165986061096,3.9676709175109854,1.890965752512182,1.782646510344924,7.724883798255225,6.236829707174582,0.0001618862152099,0.1109280735254287,0,0,0
605,26211.646270761623,2011-01-24 18:11:10,570.2871342164318,2,4,0.5501165986061096,3.9720418453216553,1.895552131994491,1.782646510344924,7.743090729371601,6.236829707174582,0.0001295089750783,0.1109280735254287,0,0,0
606,26241.661313092507,2011-01-24 18:11:40,600.3021765523304,2,4,0.5501165986061096,3.976089000701904,1.90013853566541,1.782646510344924,7.761317383802229,6.236829707174582,6.47544875391759e-05,0.1109280735254287,0,0,0
607,26271.67645452539,2011-01-24 18:12:10,630.3173189576329,2,4,0.550297200679779,3.9802980422973633,1.904724867789064,1.782646510344924,7.779562458725442,6.236829707174582,0.0001295089750783,0.1109280735254287,0,0,0
608,26301.691564585075,2011-01-24 18:12:40,660.3324280649464,2,4,0.5501165986061096,3.9841833114624015,1.909311158362158,1.782646510344924,7.797825889456912,6.236829707174582,9.713172767078504e-05,0.1109280735254287,0,0,0
609,26331.706667527025,2011-01-24 18:13:10,690.3475309818316,2,4,0.5499359965324402,3.9877448081970215,1.913897509068713,1.782646510344924,7.816107436432561,6.236829707174582,6.47544875391759e-05,0.1109280735254287,0,0,0
610,26361.721882267604,2011-01-24 18:13:40,720.3627457524908,2,4,0.5499359965324402,3.991630077362061,1.918483857592131,1.782646510344924,7.834406053887404,6.236829707174582,9.713172767078504e-05,0.1109280735254287,0,0,0
611,26391.73686521048,2011-01-24 18:14:10,750.3777286602764,2,4,0.5499359965324402,3.9951913356781006,1.923070136447766,1.782646510344924,7.852721373854521,6.236829707174582,6.47544875391759e-05,0.1109280735254287,0,0,0
612,26421.752420785528,2011-01-24 18:14:40,780.3932843606373,2,4,0.5501165986061096,3.99875283241272,1.927656488804316,1.782646510344924,7.871053443205961,6.236829707174582,6.47544875391759e-05,0.1109280735254287,0,0,0
613,26451.767082222108,2011-01-24 18:15:10,810.4079456719054,2,4,0.5501165986061096,4.002476215362549,1.932242717338438,1.782646510344924,7.889401290034879,6.236829707174582,9.70840483205393e-05,0.1109280735254287,0,0,0
614,26481.78231938357,2011-01-24 18:15:40,840.4231828333693,2,4,0.5501165986061096,4.005876064300537,1.936828961226034,1.782646510344924,7.907765230456527,6.236829707174582,9.71794142969884e-05,0.1109280735254287,0,0,0
615,26511.797328667093,2011-01-24 18:16:10,870.4381921469662,2,4,0.5501165986061096,4.009275436401367,1.941415213000668,1.782646510344924,7.926145028598043,6.236829707174582,6.47544875391759e-05,0.1109280735254287,0,0,0
616,26541.81263901095,2011-01-24 18:16:40,900.4535024757857,2,4,0.5499359965324402,4.012675285339356,1.946001523006995,1.782646510344924,7.944540693372655,6.236829707174582,9.71794142969884e-05,0.1109280735254287,0,0,0
617,26571.82750683692,2011-01-24 18:17:10,930.4683702967396,2,4,0.550297200679779,4.0160746574401855,1.950587804227662,1.782646510344924,7.962951505976769,6.236829707174582,9.70840483205393e-05,0.1109280735254287,0,0,0
618,26601.84262563839,2011-01-24 18:17:40,960.4834890932016,2,4,0.550297200679779,4.019312381744385,1.955174160071024,1.782646510344924,7.981377878652324,6.236829707174582,9.70840483205393e-05,0.1109280735254287,0,0,0
619,26631.857727297145,2011-01-24 18:18:10,990.4985907469386,2,4,0.5499359965324402,4.022550106048584,1.959760484478013,1.782646510344924,7.999819148693688,6.236829707174582,6.47544875391759e-05,0.1109280735254287,0,0,0
620,26661.872845592352,2011-01-24 18:18:40,1020.5137090521762,2,4,0.5501165986061096,4.025949954986572,1.964346759608566,1.782646510344924,8.01827515897077,6.236829707174582,0.0001295089750783,0.1109280735254287,0,0,0
621,26691.887951937784,2011-01-24 18:19:10,1050.5288153976062,2,4,0.5501165986061096,4.029025554656982,1.968933055623757,1.782646510344924,8.036745957128808,6.236829707174582,9.70840483205393e-05,0.1109280735254287,0,0,0
622,26721.903082919616,2011-01-24 18:19:40,1080.5439463944754,2,4,0.550297200679779,4.032101631164551,1.973519322815382,1.782646510344924,8.055231083994181,6.236829707174582,6.47544875391759e-05,0.1109280735254287,0,0,0
623,26751.91817153586,2011-01-24 18:20:10,1110.559034990669,2,4,0.5499359965324402,4.035338878631592,1.978105610384998,1.782646510344924,8.073730548982867,6.236829707174582,9.70840483205393e-05,0.1109280735254287,0,0,0
624,26781.93328609677,2011-01-24 18:20:40,1140.5741495515747,2,4,0.5501165986061096,4.038252830505371,1.982691900446611,1.782646510344924,8.092244247951289,6.236829707174582,6.47544875391759e-05,0.1109280735254287,0,0,0
625,26811.948468531835,2011-01-24 18:21:10,1170.5893319816312,2,4,0.5501165986061096,4.04132890701294,1.987278200854054,1.782646510344924,8.110772120273746,6.236829707174582,6.47544875391759e-05,0.1109280735254287,0,0,0
626,26841.96362270647,2011-01-24 18:21:40,1200.6044861562664,2,4,0.5501165986061096,4.044566631317139,1.991864495655432,1.782646510344924,8.12931411203562,6.236829707174582,9.71794142969884e-05,0.1109280735254287,0,0,0
627,26871.9786077997,2011-01-24 18:22:10,1230.6194712545114,2,4,0.5499359965324402,4.047480583190918,1.996450779159572,1.782646510344924,8.14786998453169,6.236829707174582,6.47544875391759e-05,0.1109280735254287,0,0,0
628,26901.99373085177,2011-01-24 18:22:40,1260.6345943065796,2,4,0.5501165986061096,4.050394535064697,2.001037083533611,1.782646510344924,8.16643985733589,6.236829707174582,3.24249267578125e-05,0.1109280735254287,0,0,0
629,26932.008842119467,2011-01-24 18:23:10,1290.649705594327,2,4,0.5501165986061096,4.0536322593688965,2.005623360989511,1.782646510344924,8.185023521441925,6.236829707174582,9.71794142969884e-05,0.1109280735254287,0,0,0
630,26962.0239817278,2011-01-24 18:23:40,1320.664845262809,2,4,0.5501165986061096,4.056546211242676,2.01020965857267,1.782646510344924,8.203621241035842,6.236829707174582,3.24249267578125e-05,0.1109280735254287,0,0,0
631,26992.03916158645,2011-01-24 18:24:10,1350.6800250462693,2,4,0.5501165986061096,4.059621810913086,2.014796005800207,1.782646510344924,8.222232985871994,6.236829707174582,9.70840483205393e-05,0.1109280735254287,0,0,0
632,27022.054288844,2011-01-24 18:24:40,1380.695152293794,2,4,0.5499359965324402,4.062535762786865,2.019382414164497,1.782646510344924,8.240858524925635,6.236829707174582,9.70840483205393e-05,0.1109280735254287,0,0,0
633,27052.0692519374,2011-01-24 18:25:10,1410.7101153871956,2,4,0.550297200679779,4.065611839294434,2.023968661109721,1.782646510344924,8.259497197966647,6.236829707174582,9.71794142969884e-05,0.1109280735254287,0,0,0
634,27082.084826138867,2011-01-24 18:25:40,1440.7256896839044,2,4,0.5501165986061096,4.068525791168213,2.028554985168929,1.782646510344924,8.278150002152717,6.236829707174582,6.47544875391759e-05,0.1109280735254287,0,0,0
635,27112.099472743485,2011-01-24 18:26:10,1470.7403361932818,2,4,0.5501165986061096,4.071601390838623,2.033141195230978,1.782646510344924,8.29681619481334,6.236829707174582,9.70840483205393e-05,0.1109280735254287,0,0,0
636,27142.11460694333,2011-01-24 18:26:40,1500.7554704181962,2,4,0.5501165986061096,4.074677467346191,2.037727487467706,1.782646510344924,8.315496578525973,6.236829707174582,0.0001295089750783,0.1109280735254287,0,0,0
637,27172.12969669742,2011-01-24 18:27:10,1530.7705601572382,2,4,0.5501165986061096,4.077753067016602,2.042313752518034,1.782646510344924,8.33419078275873,6.236829707174582,9.70840483205393e-05,0.1109280735254287,0,0,0
638,27202.14505733161,2011-01-24 18:27:40,1560.7859208215093,2,4,0.5499359965324402,4.080667018890381,2.046900038172777,1.782646510344924,8.352898996407006,6.236829707174582,6.47544875391759e-05,0.1109280735254287,0,0,0
639,27232.159909012345,2011-01-24 18:28:10,1590.800772467149,2,4,0.5499359965324402,4.083743095397949,2.051486304153857,1.782646510344924,8.371621106082928,6.236829707174582,6.47544875391759e-05,0.1109280735254287,0,0,0
640,27262.175024199805,2011-01-24 18:28:40,1620.815887654616,2,4,0.5499359965324402,4.086818695068359,2.056072630461859,1.782646510344924,8.390357537450248,6.236829707174582,6.47544875391759e-05,0.1109280735254287,0,0,0
641,27292.190116991456,2011-01-24 18:29:10,1650.8309804412536,2,4,0.5501165986061096,4.090056419372559,2.060658932903983,1.782646510344924,8.409108051116911,6.236829707174582,0.0001295089750783,0.1109280735254287,0,0,0
642,27322.20536090475,2011-01-24 18:29:40,1680.8462243846202,2,4,0.5501165986061096,4.092970371246338,2.065245234939234,1.782646510344924,8.427872710016747,6.236829707174582,6.47544875391759e-05,0.1109280735254287,0,0,0
643,27352.22035438388,2011-01-24 18:30:10,1710.86121785874,2,4,0.5501165986061096,4.096208095550537,2.069831479379621,1.782646510344924,8.446651317072646,6.236829707174582,0.0001295089750783,0.1109280735254287,0,0,0
644,27382.23567027155,2011-01-24 18:30:40,1740.876533751427,2,4,0.5501165986061096,4.0992841720581055,2.074417873960693,1.782646510344924,8.465444883316914,6.236829707174582,6.47544875391759e-05,0.1109280735254287,0,0,0
645,27412.250636978966,2011-01-24 18:31:10,1770.8915004337734,2,4,0.5501165986061096,4.102521896362305,2.079004112483613,1.782646510344924,8.484252209244634,6.236829707174582,9.71794142969884e-05,0.1109280735254287,0,0,0
646,27442.26566675857,2011-01-24 18:31:40,1800.9065302183906,2,4,0.550297200679779,4.105597496032715,2.083590394562014,1.782646510344924,8.503074225365783,6.236829707174582,0.0001295089750783,0.1109280735254287,0,0,0
647,27472.2807841766,2011-01-24 18:32:10,1830.92164766148,2,4,0.5501165986061096,4.108673572540283,2.088176667093012,1.782646510344924,8.521910848127012,6.236829707174582,6.47544875391759e-05,0.1109280735254287,0,0,0
648,27502.296020551097,2011-01-24 18:32:40,1860.936884005907,2,4,0.5501165986061096,4.112072944641113,2.092762989066202,1.782646510344924,8.540762359815762,6.236829707174582,9.70840483205393e-05,0.1109280735254287,0,0,0
649,27532.313180399487,2011-01-24 18:33:10,1890.954043869336,2,4,0.5501165986061096,4.114986896514893,2.09734965584727,1.782646510344924,8.559629950578422,6.236829707174582,3.24249267578125e-05,0.1109280735254287,0,0,0
650,27562.326132871804,2011-01-24 18:33:40,1920.966996331627,2,4,0.5501165986061096,4.118386268615723,2.101935673450118,1.782646510344924,8.578509714219797,6.236829707174582,6.47544875391759e-05,0.1109280735254287,0,0,0
651,27592.341209097165,2011-01-24 18:34:10,1950.982072556988,2,4,0.5499359965324402,4.121623992919922,2.106522026277011,1.782646510344924,8.597405771359465,6.236829707174582,6.47544875391759e-05,0.1109280735254287,0,0,0
652,27622.35632632472,2011-01-24 18:34:40,1980.9971897795272,2,4,0.550297200679779,4.125185489654541,2.111108380124881,1.782646510344924,8.616316745756503,6.236829707174582,0.0001295089750783,0.1109280735254287,0,0,0
653,27652.37142325669,2011-01-24 18:35:10,2011.0122867165087,2,4,0.5499359965324402,4.12809944152832,2.115694671543444,1.782646510344924,8.6352425285373,6.236829707174582,9.70840483205393e-05,0.1109280735254287,0,0,0
654,27682.386540960422,2011-01-24 18:35:40,2041.027404415235,2,4,0.5501165986061096,4.13166093826294,2.120280971000561,1.782646510344924,8.654183551324701,6.236829707174582,9.70840483205393e-05,0.1109280735254287,0,0,0
655,27712.401671656546,2011-01-24 18:36:10,2071.042535116367,2,4,0.5501165986061096,4.134898662567139,2.124867259762827,1.782646510344924,8.673139788001544,6.236829707174582,6.47544875391759e-05,0.1109280735254287,0,0,0
656,27742.4168879911,2011-01-24 18:36:40,2101.057751450924,2,4,0.5501165986061096,4.138298511505127,2.129453658427953,1.782646510344924,8.692111917130854,6.236829707174582,9.71794142969884e-05,0.1109280735254287,0,0,0
657,27772.431872563036,2011-01-24 18:37:10,2131.0727360278693,2,4,0.5501165986061096,4.141697883605957,2.134040031561686,1.782646510344924,8.711099442856131,6.236829707174582,9.70840483205393e-05,0.1109280735254287,0,0,0
658,27802.447115102903,2011-01-24 18:37:40,2161.0879785627258,2,4,0.5499359965324402,4.145097732543945,2.138626418173736,1.782646510344924,8.730102732881653,6.236829707174582,6.47544875391759e-05,0.1109280735254287,0,0,0
659,27832.46319613756,2011-01-24 18:38:10,2191.1040596825937,2,4,0.5501165986061096,4.1486592292785645,2.143212940953306,1.782646510344924,8.749122674940734,6.236829707174582,9.71794142969884e-05,0.1109280735254287,0,0,0
660,27862.477238501226,2011-01-24 18:38:40,2221.1181020362287,2,4,0.5499359965324402,4.1520586013793945,2.147799084754298,1.782646510344924,8.768156845934092,6.236829707174582,9.70840483205393e-05,0.1109280735254287,0,0,0
661,27892.492300265538,2011-01-24 18:39:10,2251.133163710324,2,4,0.5499359965324402,4.155782222747803,2.152385359672663,1.782646510344924,8.787207536678919,6.236829707174582,9.71794142969884e-05,0.1109280735254287,0,0,0
662,27922.50740564356,2011-01-24 18:39:40,2281.148269088343,2,4,0.550297200679779,4.159019947052002,2.156971635006832,1.782646510344924,8.806274304852687,6.236829707174582,6.47544875391759e-05,0.1109280735254287,0,0,0
663,27952.522510069204,2011-01-24 18:40:10,2311.1633735139885,2,4,0.5499359965324402,4.162581443786621,2.161557960958424,1.782646510344924,8.825357491109006,6.236829707174582,6.47544875391759e-05,0.1109280735254287,0,0,0
664,27982.537652294057,2011-01-24 18:40:40,2341.178515763904,2,4,0.5501165986061096,4.16614294052124,2.166144240717906,1.782646510344924,8.844456888439,6.236829707174582,6.47544875391759e-05,0.1109280735254287,0,0,0
665,28012.55280098001,2011-01-24 18:41:11,2371.1936644197845,2,4,0.550297200679779,4.170028209686279,2.170730552784019,1.782646510344924,8.86357296248789,6.236829707174582,0.0001619339018361,0.1109280735254287,0,0,0
666,28042.567909260262,2011-01-24 18:41:41,2401.20877270505,2,4,0.5499359965324402,4.173427581787109,2.175316857920139,1.782646510344924,8.882705613277189,6.236829707174582,3.23295607813634e-05,0.1109280735254287,0,0,0
667,28072.582945826784,2011-01-24 18:42:11,2431.2238092715693,2,4,0.5501165986061096,4.177151203155518,2.179903166986563,1.782646510344924,8.901855028276147,6.236829707174582,0.0001295089750783,0.1109280735254287,0,0,0
668,28102.59806821219,2011-01-24 18:42:41,2461.238931656976,2,4,0.5499359965324402,4.180874347686768,2.18448949692084,1.782646510344924,8.921021428500673,6.236829707174582,9.70840483205393e-05,0.1109280735254287,0,0,0
669,28132.613142071656,2011-01-24 18:43:11,2491.254005516441,2,4,0.5497553944587708,4.184435844421387,2.189075831697299,1.782646510344924,8.94020493760608,6.236829707174582,3.23295607813634e-05,0.1109280735254287,0,0,0
670,28162.62825140453,2011-01-24 18:43:41,2521.269114854329,2,4,0.5499359965324402,4.188321113586426,2.19366210191244,1.782646510344924,8.959405154246603,6.236829707174582,9.70840483205393e-05,0.1109280735254287,0,0,0
671,28192.643419017662,2011-01-24 18:44:11,2551.2842824875074,2,4,0.5499359965324402,4.192044734954834,2.198248456410614,1.782646510344924,8.978622982623229,6.236829707174582,9.71794142969884e-05,0.1109280735254287,0,0,0
672,28222.658646244367,2011-01-24 18:44:41,2581.2995097041858,2,4,0.5501165986061096,4.195929527282715,2.202834781911999,1.782646510344924,8.997858074879334,6.236829707174582,0.0001295089750783,0.1109280735254287,0,0,0
673,28252.67361782893,2011-01-24 18:45:11,2611.314481273713,2,4,0.5501165986061096,4.199653148651123,2.207421092536854,1.782646510344924,9.017110702587953,6.236829707174582,9.71794142969884e-05,0.1109280735254287,0,0,0
674,28253.970568388788,2011-01-24 18:45:12,2612.61143183357,2,4,0.550297200679779,4.200138568878174,2.207619272322429,1.782646510344924,9.017943028150496,6.236829707174582,0.0001618385285837,0.1109280735254287,0,0,0
675,28283.986876295658,2011-01-24 18:45:42,30.01506295729356,3,4,0.0,4.089894771575928,2.207619272322429,1.782646510344924,9.017943028150496,6.236829707174582,-0.0004532813909463,0.1109280735254287,0,0,0
676,28314.00184084769,2011-01-24 18:46:12,60.03002750431845,3,4,0.0,4.075972557067871,2.207619272322429,1.782646510344924,9.017943028150496,6.236829707174582,-0.0003237724304199,0.1109280735254287,0,0,0
677,28344.017198008227,2011-01-24 18:46:42,90.04538465483205,3,4,0.0,4.067230701446533,2.207619272322429,1.782646510344924,9.017943028150496,6.236829707174582,-0.0001942634553415,0.1109280735254287,0,0,0
678,28373.985254851825,2011-01-24 18:47:12,120.0134415184768,3,4,0.0,4.060916900634766,2.207619272322429,1.782646510344924,9.017943028150496,6.236829707174582,-0.0001619339018361,0.1109280735254287,0,0,0
679,28373.98663676141,2011-01-24 18:47:12,2.646596132e-06,4,4,1.024757742881775,4.199653148651123,2.207619273075796,1.782646510344924,9.017943031314374,6.236829707174582,0.0,0.1109280735254287,0,0,0
680,28374.42419110647,2011-01-24 18:47:13,0.437557096918474,4,4,0.9743677973747252,4.199814796447754,2.207739497358488,1.782646510344924,9.018447954879289,6.236829707174582,3.23295607813634e-05,0.1109280735254287,0,0,0
681,28376.15844029907,2011-01-24 18:47:14,2.171806194284216,4,4,0.9243390560150146,4.199814796447754,2.208195561913747,1.782646510344924,9.02036334623456,6.236829707174582,3.23295607813634e-05,0.1109280735254287,0,0,0
682,28378.970924715624,2011-01-24 18:47:17,4.984290615842562,4,4,0.8741296529769897,4.199814796447754,2.208896896126559,1.782646510344924,9.023308846543312,6.236829707174582,3.23295607813634e-05,0.1109280735254287,0,0,0
683,28382.93981962794,2011-01-24 18:47:21,8.953185523150005,4,4,0.8239202499389648,4.199814796447754,2.209831719500115,1.782646510344924,9.027234972633345,6.236829707174582,0.0,0.1109280735254287,0,0,0
684,28388.25202328397,2011-01-24 18:47:26,14.265389199235017,4,4,0.7738915085792542,4.199814796447754,2.211009131148434,1.782646510344924,9.032179924634251,6.236829707174582,0.0,0.1109280735254287,0,0,0
685,28395.25189732389,2011-01-24 18:47:33,21.26526323914988,4,4,0.7236821055412292,4.199976921081543,2.21246310665177,1.782646510344924,9.038286408342186,6.236829707174582,3.24249267578125e-05,0.1109280735254287,0,0,0
686,28404.53295274471,2011-01-24 18:47:43,30.54631863991795,4,4,0.6736533641815186,4.199653148651123,2.214261570779739,1.782646510344924,9.045839689706137,6.236829707174582,-3.23295607813634e-05,0.1109280735254287,0,0,0
687,28417.53272760359,2011-01-24 18:47:56,43.546093498797006,4,4,0.6236245632171631,4.199976921081543,2.216598916203227,1.782646510344924,9.0556562244276,6.236829707174582,3.24249267578125e-05,0.1109280735254287,0,0,0
688,28437.298017277084,2011-01-24 18:48:16,63.31138317229094,4,4,0.5735958218574524,4.199814796447754,2.219874794229256,1.782646510344924,9.069414455739324,6.236829707174582,0.0,0.1109280735254287,0,0,0
689,28471.85992495545,2011-01-24 18:48:50,97.87329085567106,4,4,0.5233864188194275,4.199814796447754,2.225117257629801,1.782646510344924,9.091432102793084,6.236829707174582,0.0,0.1109280735254287,0,0,0
690,28540.49952404626,2011-01-24 18:49:59,166.51288996151948,4,4,0.4733576774597168,4.199653148651123,2.234573770109247,1.782646510344924,9.131148128622566,6.236829707174582,-3.23295607813634e-05,0.1109280735254287,0,0,0
691,28657.04436762641,2011-01-24 18:51:55,283.05773353666063,4,4,0.4229676723480224,4.199976921081543,2.249045369508664,1.782646510344924,9.19192683069038,6.236829707174582,3.24249267578125e-05,0.1109280735254287,0,0,0
692,28808.213488734797,2011-01-24 18:54:26,434.22685463000096,4,4,0.3727582991123199,4.199814796447754,2.26573433524749,1.782646510344924,9.262018567627562,6.236829707174582,0.0,0.1109280735254287,0,0,0
693,28989.241773220743,2011-01-24 18:57:27,615.2551391560505,4,4,0.3225489258766174,4.199814796447754,2.283199158785081,1.782646510344924,9.335368866245444,6.236829707174582,0.0,0.1109280735254287,0,0,0
694,29211.45670563615,2011-01-24 19:01:10,837.4700715463924,4,4,0.2725201547145843,4.199976921081543,2.301539071528506,1.782646510344924,9.4123941292244,6.236829707174582,3.24249267578125e-05,0.1109280735254287,0,0,0
695,29485.311209332285,2011-01-24 19:05:44,1111.324575237515,4,4,0.2224913835525512,4.199976921081543,2.32031906114907,1.782646510344924,9.491267684016035,6.236829707174582,0.0,0.1109280735254287,0,0,0
696,29838.85206278088,2011-01-24 19:11:37,1464.86542868611,4,4,0.1722820103168487,4.199814796447754,2.339636322774497,1.782646510344924,9.5723977682191,6.236829707174582,0.0,0.1109280735254287,0,0,0
697,30332.90624505477,2011-01-24 19:19:51,1958.9196109900831,4,4,0.1222532391548156,4.199976921081543,2.359708313688463,1.782646510344924,9.656697526576648,6.236829707174582,3.24249267578125e-05,0.1109280735254287,0,0,0
698,31135.548297922305,2011-01-24 19:33:14,2761.561663922777,4,4,0.0722244679927825,4.199653148651123,2.380899603167471,1.782646510344924,9.745698006187054,6.236829707174582,-3.23295607813634e-05,0.1109280735254287,0,0,0
699,31761.662505031945,2011-01-24 19:43:40,3387.675870937182,4,4,0.0498289167881011,4.199814796447754,2.391426967005258,1.782646510344924,9.789911510356308,6.236829707174582,3.23295607813634e-05,0.1109280735254287,0,0,0
700,31791.67932380249,2011-01-24 19:44:10,30.01550071832876,5,4,0.0,4.189454555511475,2.391426967005258,1.782646510344924,9.789911510356308,6.236829707174582,-6.47544875391759e-05,0.1109280735254287,0,0,0
701,31821.678627217152,2011-01-24 19:44:40,60.014804138005495,5,4,0.0,4.187511920928955,2.391426967005258,1.782646510344924,9.789911510356308,6.236829707174582,-9.70840483205393e-05,0.1109280735254287,0,0,0
702,31821.867456463773,2011-01-24 19:44:40,0.188603001711959,6,4,-1.9243103452026844e-05,4.187673568725586,2.391426967005258,1.782646511353065,9.789911510356308,6.236829711396347,0.0,0.1127511709928512,0,0,0
703,31826.69454443726,2011-01-24 19:44:45,5.015690894999846,6,4,0.0008838032954372,4.187673568725586,2.391427911376347,1.782646511432108,9.789915465244732,6.236829711727355,-9.71794142969884e-05,0.1127511709928512,0,0,0
704,31838.8822119243,2011-01-24 19:44:58,12.187288327446868,7,4,-1.099568486213684,3.987582921981812,2.39142791143601,1.786368703820882,9.789915465494582,6.25173455054546,-0.0019425868522375,0.1127511709928512,0,0,0
705,31868.897571831683,2011-01-24 19:45:28,42.20264833508128,7,4,-1.0993878841400146,3.927685022354126,2.39142791143601,1.795535790440813,9.789915465494582,6.288004830506019,-0.0014569759368896,0.1127511709928512,0,0,0
706,31898.912453487115,2011-01-24 19:45:58,72.21752989026497,7,4,-1.099568486213684,3.876691102981568,2.39142791143601,1.804702755970779,9.789915465494582,6.323768896436851,-0.0012627125252038,0.1127511709928512,0,0,0
707,31928.927555241105,2011-01-24 19:46:28,102.23263164926432,7,4,-1.099568486213684,3.8346006870269775,2.39142791143601,1.81386986161357,9.789915465494582,6.359107774029381,-0.0010036944877356,0.1127511709928512,0,0,0
708,31958.942653987597,2011-01-24 19:46:58,132.2477303907431,7,4,-1.0993878841400146,3.8015761375427246,2.39142791143601,1.823036859743694,9.789915465494582,6.394102047670902,-0.0007770538213662,0.1127511709928512,0,0,0
709,31988.95776085933,2011-01-24 19:47:28,162.26283726248496,7,4,-1.0993878841400146,3.775026798248291,2.39142791143601,1.832203900227807,9.789915465494582,6.42882477436885,-0.0006475448608398,0.1127511709928512,0,0,0
710,32018.972864447896,2011-01-24 19:47:58,192.27794085104412,7,4,-1.099568486213684,3.7531721591949454,2.39142791143601,1.841370998838453,9.789915465494582,6.4633278261837,-0.0005504131549969,0.1127511709928512,0,0,0
711,32048.98811971949,2011-01-24 19:48:28,222.29319612264413,7,4,-1.0993878841400146,3.73439359664917,2.39142791143601,1.850538120840654,9.789915465494582,6.497645686958535,-0.0004856586456298,0.1127511709928512,0,0,0
712,32079.003092792773,2011-01-24 19:48:58,252.30816919591908,7,4,-1.099568486213684,3.717719316482544,2.39142791143601,1.859705077065658,9.789915465494582,6.531801077856658,-0.0004532813909463,0.1127511709928512,0,0,0
713,32109.01833825492,2011-01-24 19:49:28,282.3234146731084,7,4,-1.0993878841400146,3.702502012252808,2.39142791143601,1.868872207428359,9.789915465494582,6.565810997271697,-0.0003885269106831,0.1127511709928512,0,0,0
714,32139.03331070163,2011-01-24 19:49:58,312.33838710478426,7,4,-1.0997490882873535,3.687932252883911,2.39142791143601,1.878039210223544,9.789915465494582,6.599685892381864,-0.0004209041653666,0.1127511709928512,0,0,0
715,32169.04862286503,2011-01-24 19:50:28,342.353699298251,7,4,-1.099568486213684,3.674819469451904,2.39142791143601,1.887206338028785,9.789915465494582,6.63343401716199,-0.0003561496851034,0.1127511709928512,0,0,0
716,32199.063594955853,2011-01-24 19:50:58,372.36867136401486,7,4,-1.0992072820663452,3.6621925830841056,2.39142791143601,1.896373426860168,9.789915465494582,6.667061696038724,-0.0002913951757363,0.1127511709928512,0,0,0
717,32229.07863553237,2011-01-24 19:51:28,402.3837120207286,7,4,-1.099568486213684,3.64972734451294,2.39142791143601,1.905540493808577,9.789915465494582,6.700575179896388,-0.0003237724304199,0.1127511709928512,0,0,0
718,32259.093757175928,2011-01-24 19:51:58,432.398833589099,7,4,-1.0992072820663452,3.6380715370178223,2.39142791143601,1.914707545460206,9.789915465494582,6.733978113137739,-0.0002913951757363,0.1127511709928512,0,0,0
719,32289.10884971695,2011-01-24 19:52:28,462.41392612009935,7,4,-1.099568486213684,3.626577615737915,2.39142791143601,1.923874586444031,9.789915465494582,6.767274377862425,-0.0002590179501567,0.1127511709928512,0,0,0
720,32319.12380901088,2011-01-24 19:52:58,492.4288854190444,7,4,-1.099568486213684,3.6152455806732178,2.39142791143601,1.933041512138296,9.789915465494582,6.800466437709488,-0.0003237724304199,0.1127511709928512,0,0,0
721,32349.13895713544,2011-01-24 19:53:28,522.4440336238008,7,4,-1.099568486213684,3.60456109046936,2.39142791143601,1.942208577812957,9.789915465494582,6.833558907945946,-0.0003237724304199,0.1127511709928512,0,0,0
722,32379.153990744588,2011-01-24 19:53:58,552.4590671477375,7,4,-1.099568486213684,3.594038486480713,2.39142791143601,1.951375618388127,9.789915465494582,6.866553892878009,-0.0002913951757363,0.1127511709928512,0,0,0
723,32409.169107756603,2011-01-24 19:54:28,582.474184159752,7,4,-1.0993878841400146,3.5840017795562744,2.39142791143601,1.960542725899088,9.789915465494582,6.899454682045389,-0.0002266406954731,0.1127511709928512,0,0,0
724,32439.18420426251,2011-01-24 19:54:58,612.489280665659,7,4,-1.0993878841400146,3.5742886066436768,2.39142791143601,1.969709729440643,9.789915465494582,6.932264090690683,-0.0002266406954731,0.1127511709928512,0,0,0
725,32469.19933148497,2011-01-24 19:55:28,642.5044078881212,7,4,-1.0993878841400146,3.564737319946289,2.39142791143601,1.978876762913395,9.789915465494582,6.964984790086549,-0.0001618862152099,0.1127511709928512,0,0,0
726,32499.214551127778,2011-01-24 19:55:58,672.5196275459607,7,4,-1.0993878841400146,3.5553479194641118,2.39142791143601,1.988043821653192,9.789915465494582,6.997619356775664,-0.0002590179501567,0.1127511709928512,0,0,0
727,32529.22964173397,2011-01-24 19:56:28,702.5347181421389,7,4,-1.099568486213684,3.5464441776275635,2.39142791143601,1.997210882081504,9.789915465494582,7.030171272971869,-0.0002266406954731,0.1127511709928512,0,0,0
728,32559.24463413041,2011-01-24 19:56:58,732.5497105435855,7,4,-1.0993878841400146,3.538026094436645,2.39142791143601,2.006377857264783,9.789915465494582,7.062642923642634,-0.0001942634553415,0.1127511709928512,0,0,0
729,32589.259750064743,2011-01-24 19:57:28,762.5648264779143,7,4,-1.0993878841400146,3.5296080112457275,2.39142791143601,2.01554489834191,9.789915465494582,7.095037944212145,-0.0002590179501567,0.1127511709928512,0,0,0
730,32619.274853222225,2011-01-24 19:57:58,792.5799296253741,7,4,-1.0997490882873535,3.5218374729156494,2.39142791143601,2.024711953229692,9.789915465494582,7.127358930903632,-0.0001618862152099,0.1127511709928512,0,0,0
731,32649.289974269297,2011-01-24 19:58:28,822.5950506724453,7,4,-1.0993878841400146,3.5139050483703613,2.39142791143601,2.033879077545129,9.789915465494582,7.159606865026164,-0.0002266406954731,0.1127511709928512,0,0,0
732,32679.30506824389,2011-01-24 19:58:58,852.6101446470434,7,4,-1.0993878841400146,3.5061347484588623,2.39142791143601,2.043046144037655,9.789915465494582,7.191782917667435,-0.0001942634553415,0.1127511709928512,0,0,0
733,32709.320182067964,2011-01-24 19:59:28,882.6252584711126,7,4,-1.0992072820663452,3.498687982559204,2.39142791143601,2.052213190458459,9.789915465494582,7.223888947998204,-0.0001295089750783,0.1127511709928512,0,0,0
734,32739.33530858868,2011-01-24 19:59:58,912.6403849968384,7,4,-1.0993878841400146,3.491403102874756,2.39142791143601,2.061380281073411,9.789915465494582,7.255926829982464,-0.0001618862152099,0.1127511709928512,0,0,0
735,32769.350404352735,2011-01-24 20:00:28,942.6554807659088,7,4,-1.099568486213684,3.4839563369750977,2.39142791143601,2.070547359122011,9.789915465494582,7.287898788107966,-0.0002266406954731,0.1127511709928512,0,0,0
736,32799.36556964508,2011-01-24 20:00:58,972.6706460482278,7,4,-1.0993878841400146,3.4771571159362797,2.39142791143601,2.079714415116516,9.789915465494582,7.319805067945246,-0.0001618862152099,0.1127511709928512,0,0,0
737,32829.38086410434,2011-01-24 20:01:28,1002.6859405125082,7,4,-1.099568486213684,3.470357894897461,2.39142791143601,2.088881510524373,9.789915465494582,7.351649259430983,-0.0001942634553415,0.1127511709928512,0,0,0
738,32859.39572262212,2011-01-24 20:01:58,1032.700799025263,7,4,-1.0993878841400146,3.4640443325042725,2.39142791143601,2.098048454481146,9.789915465494582,7.383432023192458,-0.0001295089750783,0.1127511709928512,0,0,0
739,32889.410853488655,2011-01-24 20:02:28,1062.7159298918073,7,4,-1.0997490882873535,3.457083225250244,2.39142791143601,2.107215516080109,9.789915465494582,7.415154336551798,-0.0001942634553415,0.1127511709928512,0,0,0
740,32919.425936485895,2011-01-24 20:02:58,1092.7310128890465,7,4,-1.099568486213684,3.450284004211426,2.39142791143601,2.116382556326523,9.789915465494582,7.446815966660584,-0.0002266406954731,0.1127511709928512,0,0,0
741,32949.44141161545,2011-01-24 20:03:28,1122.7464880386503,7,4,-1.0993878841400146,3.4436466693878174,2.39142791143601,2.125549670993248,9.789915465494582,7.478415763462246,-0.0001618862152099,0.1127511709928512,0,0,0
742,32979.45621681032,2011-01-24 20:03:58,1152.7612933287578,7,4,-1.099568486213684,3.436523675918579,2.39142791143601,2.134716632934343,9.789915465494582,7.509950695893182,-0.0001942634553415,0.1127511709928512,0,0,0
743,33009.47140123034,2011-01-24 20:04:28,1182.776477638499,7,4,-1.099568486213684,3.42940092086792,2.39142791143601,2.143883781208852,9.789915465494582,7.541421586922461,-0.0002266406954731,0.1127511709928512,0,0,0
744,33039.48637654921,2011-01-24 20:04:58,1212.7914529523582,7,4,-1.099568486213684,3.422439813613892,2.39142791143601,2.153050784348414,9.789915465494582,7.572827713682866,-0.0001942634553415,0.1127511709928512,0,0,0
745,33069.50160355536,2011-01-24 20:05:28,1242.806679978562,7,4,-1.099568486213684,3.4154787063598637,2.39142791143601,2.162217932721062,9.789915465494582,7.604170144695556,-0.0001942634553415,0.1127511709928512,0,0,0
746,33099.516587455626,2011-01-24 20:05:58,1272.821663858771,7,4,-1.099568486213684,3.407870054244995,2.39142791143601,2.171384995476469,9.789915465494582,7.635444818906971,-0.0001942634553415,0.1127511709928512,0,0,0
747,33129.532019447666,2011-01-24 20:06:28,1302.8370959009376,7,4,-1.0993878841400146,3.400261402130127,2.39142791143601,2.18055215853481,9.789915465494582,7.666650322593862,-0.0001942634553415,0.1127511709928512,0,0,0
748,33159.546937433646,2011-01-24 20:06:58,1332.852013957093,7,4,-1.099568486213684,3.392005205154419,2.39142791143601,2.18971913267298,9.789915465494582,7.697782852395772,-0.0002266406954731,0.1127511709928512,0,0,0
749,33189.561923464214,2011-01-24 20:07:28,1362.8669998673618,7,4,-1.0997490882873535,3.383101463317871,2.39142791143601,2.198886145926449,9.789915465494582,7.728837230950992,-0.0002266406954731,0.1127511709928512,0,0,0
750,33219.5770926663,2011-01-24 20:07:58,1392.8821691697,7,4,-1.099568486213684,3.3741977214813232,2.39142791143601,2.208053215755383,9.789915465494582,7.759810267968527,-0.0002266406954731,0.1127511709928512,0,0,0
751,33249.59206142382,2011-01-24 20:08:28,1422.8971378620563,7,4,-1.099568486213684,3.3646464347839355,2.39142791143601,2.217220251617426,9.789915465494582,7.790698539708319,-0.0002913951757363,0.1127511709928512,0,0,0
752,33279.60963761988,2011-01-24 20:08:58,1452.9147150155002,7,4,-1.0993878841400146,3.354447603225708,2.39142791143601,2.22638731920452,9.789915465494582,7.821496554900023,-0.0002913951757363,0.1127511709928512,0,0,0
753,33309.62239204861,2011-01-24 20:09:28,1482.927468557019,7,4,-1.099568486213684,3.34360146522522,2.39142791143601,2.235552887212546,9.789915465494582,7.852192690208962,-0.0003237724304199,0.1127511709928512,0,0,0
754,33339.63746420383,2011-01-24 20:09:58,1512.9425406169994,7,4,-1.099568486213684,3.3312981128692627,2.39142791143601,2.244719242426021,9.789915465494582,7.882786457910333,-0.0003561496851034,0.1127511709928512,0,0,0
755,33369.65251767748,2011-01-24 20:10:28,1542.9575941157193,7,4,-1.0993878841400146,3.317861557006836,2.39142791143601,2.253885578195196,9.789915465494582,7.913262781726116,-0.0003561496851034,0.1127511709928512,0,0,0
756,33399.66780237743,2011-01-24 20:10:58,1572.972878780576,7,4,-1.099568486213684,3.3029680252075195,2.39142791143601,2.263052594482219,9.789915465494582,7.943610858886847,-0.0004209041653666,0.1127511709928512,0,0,0
757,33429.68277506474,2011-01-24 20:11:28,1602.9878515029766,7,4,-1.0993878841400146,3.2869412899017334,2.39142791143601,2.272219621506902,9.789915465494582,7.973817130749223,-0.0004209041653666,0.1127511709928512,0,0,0
758,33459.69798472266,2011-01-24 20:11:58,1633.0030611258055,7,4,-1.0993878841400146,3.268324613571167,2.39142791143601,2.281386660525364,9.789915465494582,8.00386505201105,-0.0005179882282391,0.1127511709928512,0,0,0
759,33489.7130086978,2011-01-24 20:12:28,1663.0180851009438,7,4,-1.0993878841400146,3.246955633163452,2.39142791143601,2.290553634222102,9.789915465494582,8.033729625539484,-0.0005504131549969,0.1127511709928512,0,0,0
760,33519.728100712506,2011-01-24 20:12:58,1693.03317712067,7,4,-1.0993878841400146,3.2215394973754883,2.39142791143601,2.299720631752058,9.789915465494582,8.063381485233487,-0.0007446765666827,0.1127511709928512,0,0,0
761,33549.7432112935,2011-01-24 20:13:28,1723.048287696644,7,4,-1.099568486213684,3.190781116485596,2.39142791143601,2.308887607901947,9.789915465494582,8.092777083765816,-0.0008741855854168,0.1127511709928512,0,0,0
762,33579.7604922387,2011-01-24 20:13:58,1753.0655686368332,7,4,-1.0993878841400146,3.151928663253784,2.39142791143601,2.318055303602054,9.789915465494582,8.121858903162448,-0.0011979580158367,0.1127511709928512,0,0,0
763,33609.77346475598,2011-01-24 20:14:28,1783.0785412543569,7,4,-1.0993878841400146,3.101258516311645,2.39142791143601,2.327221616947326,9.789915465494582,8.150529713204428,-0.0014893531333655,0.1127511709928512,0,0,0
764,33639.78853561796,2011-01-24 20:14:58,1813.0936120211145,7,4,-1.0997490882873535,3.0308380126953125,2.39142791143601,2.336388626541694,9.789915465494582,8.178654042533005,-0.0021368979942053,0.1127511709928512,0,0,0
765,33669.80364716135,2011-01-24 20:15:28,1843.1087235895616,7,4,-1.0993878841400146,2.930307149887085,2.39142791143601,2.345555656569094,9.789915465494582,8.206004143339188,-0.0031082152854651,0.1127511709928512,0,0,0
766,33699.818751351406,2011-01-24 20:15:58,1873.12382775957,7,4,-1.099568486213684,2.7839624881744385,2.39142791143601,2.354722774137573,9.789915465494582,8.232237629761839,-0.004500389099121,0.1127511709928512,0,0,0
767,33713.44352057355,2011-01-24 20:16:12,1886.7485969867207,7,4,-1.099568486213684,2.699943780899048,2.39142791143601,2.358884015920943,9.789915465494582,8.243651043872788,-0.0051479339599609,0.1127511709928512,0,0,0
768,33773.45810764637,2011-01-24 20:17:12,60.01459830500632,8,4,0.0,3.634510040283203,2.39142791143601,2.358884015920943,9.789915465494582,8.243651043872788,0.0013598442310467,0.1127511709928512,0,0,0
769,33773.64662746951,2011-01-24 20:17:13,0.18750621818995,9,4,-1.9243103452026844e-05,3.634671926498413,2.39142791143601,2.358884016923221,9.789915465494582,8.24365104751574,0.0,0.110118381679058,0,0,0
770,33778.47482102846,2011-01-24 20:17:17,5.015699757086893,9,4,0.0007031940040178,3.642604351043701,2.39142881146405,2.358884017090211,9.789918740955317,8.243651048122693,0.0011332035064697,0.110118381679058,0,0,0
