Data_Point,Test_Time(s),Date_Time,Step_Time(s),Step_Index,Cycle_Index,Current(A),Voltage(V),Charge_Capacity(Ah),Discharge_Capacity(Ah),Charge_Energy(Wh),Discharge_Energy(Wh),dV/dt(V/s),Internal_Resistance(Ohm),Is_FC_Data,AC_Impedance(Ohm),ACI_Phase_Angle(Deg)
1859,82497.56937229773,2011-01-25 09:49:24,30.015235306841667,1,11,0.0,3.684532642364502,5.778386623777176,5.72719126855004,23.678766621725284,19.94291477581108,0.0006475448608398,0.1095065325498581,0,0,0
1860,82527.58435531078,2011-01-25 09:49:54,60.03021832490206,1,11,0.0,3.7026638984680176,5.778386623777176,5.72719126855004,23.678766621725284,19.94291477581108,0.0003885269106831,0.1095065325498581,0,0,0
1861,82557.59961599087,2011-01-25 09:50:24,90.04547900498166,1,11,0.0,3.715129137039185,5.778386623777176,5.72719126855004,23.678766621725284,19.94291477581108,0.0003237724304199,0.1095065325498581,0,0,0
1862,82587.56784666269,2011-01-25 09:50:54,120.0137096717974,1,11,0.0,3.724356651306152,5.778386623777176,5.72719126855004,23.678766621725284,19.94291477581108,0.0001942634553415,0.1095065325498581,0,0,0
1863,82617.58084942315,2011-01-25 09:51:24,30.0151156185416,2,11,0.550297200679779,3.842047452926636,5.78297293573807,5.72719126855004,23.69630739410263,19.94291477581108,0.0007446765666827,0.1095065325498581,0,0,0
1864,82647.5959534979,2011-01-25 09:51:54,60.03021966323761,2,11,0.550297200679779,3.861635684967041,5.787559211908775,5.72719126855004,23.713975770380102,19.94291477581108,0.0004532813909463,0.1095065325498581,0,0,0
1865,82677.61124484942,2011-01-25 09:52:24,90.04551101475987,2,11,0.5501165986061096,3.8755578994750977,5.792145527406182,5.72719126855004,23.73171956867156,19.94291477581108,0.0003237724304199,0.1095065325498581,0,0,0
1866,82707.62618380267,2011-01-25 09:52:54,120.06044999807212,2,11,0.5501165986061096,3.887051820755005,5.796731691550107,5.72719126855004,23.74952021188707,19.94291477581108,0.0002913951757363,0.1095065325498581,0,0,0
1867,82737.64142684378,2011-01-25 09:53:24,150.075693029165,2,11,0.5501165986061096,3.8966031074523926,5.801317980094777,5.72719126855004,23.76736934583668,19.94291477581108,0.0002913951757363,0.1095065325498581,0,0,0
1868,82767.65639103492,2011-01-25 09:53:54,180.09065720526542,2,11,0.5499359965324402,3.905183076858521,5.805904233625119,5.72719126855004,23.785260591532943,19.94291477581108,0.0001942634553415,0.1095065325498581,0,0,0
1869,82797.67167321859,2011-01-25 09:54:24,210.1059393989636,2,11,0.5501165986061096,3.913439273834229,5.810490518378389,5.72719126855004,23.80319046852475,19.94291477581108,0.0001942634553415,0.1095065325498581,0,0,0
1870,82827.68661860286,2011-01-25 09:54:54,240.120884773204,2,11,0.550297200679779,3.920885801315308,5.815076768171846,5.72719126855004,23.82115584017933,19.94291477581108,0.0001295089750783,0.1095065325498581,0,0,0
1871,82857.70172791067,2011-01-25 09:55:24,270.1359940860298,2,11,0.5499359965324402,3.928170680999756,5.819662998318962,5.72719126855004,23.839154900045624,19.94291477581108,0.0001942634553415,0.1095065325498581,0,0,0
1872,82887.71683275237,2011-01-25 09:55:54,300.1510989477621,2,11,0.5499359965324402,3.934969902038574,5.824249230765759,5.72719126855004,23.857186082279597,19.94291477581108,0.0001618862152099,0.1095065325498581,0,0,0
1873,82917.73210145743,2011-01-25 09:56:24,330.1663676528425,2,11,0.5499359965324402,3.9414453506469727,5.828835520523135,5.72719126855004,23.875247894140745,19.94291477581108,0.0001942634553415,0.1095065325498581,0,0,0
1874,82947.74705162362,2011-01-25 09:56:54,360.1813178190259,2,11,0.5499359965324402,3.9472732543945312,5.833421819299785,5.72719126855004,23.893338235786977,19.94291477581108,0.0001295089750783,0.1095065325498581,0,0,0
1875,82977.76237161152,2011-01-25 09:57:24,390.19663778185634,2,11,0.5501165986061096,3.9532630443573,5.838008139194051,5.72719126855004,23.91145586826493,19.94291477581108,0.0001295089750783,0.1095065325498581,0,0,0
1876,83007.77735289025,2011-01-25 09:57:54,420.2116190655942,2,11,0.550297200679779,3.9587671756744394,5.842594416117557,5.72719126855004,23.929599363589624,19.94291477581108,0.0001295089750783,0.1095065325498581,0,0,0
1877,83037.79238586279,2011-01-25 09:58:24,450.2266520582066,2,11,0.5501165986061096,3.964109420776367,5.847180675253629,5.72719126855004,23.947767595032623,19.94291477581108,0.0001295089750783,0.1095065325498581,0,0,0
1878,83067.80749112052,2011-01-25 09:58:54,480.24175729086335,2,11,0.5501165986061096,3.968966007232666,5.851766994076178,5.72719126855004,23.96595967122061,19.94291477581108,0.0001295089750783,0.1095065325498581,0,0,0
1879,83097.8226148593,2011-01-25 09:59:24,510.2568810296431,2,11,0.5501165986061096,3.973984479904175,5.85635328807652,5.72719126855004,23.984174108772407,19.94291477581108,0.0001295089750783,0.1095065325498581,0,0,0
1880,83127.83990473676,2011-01-25 09:59:54,540.2741709421944,2,11,0.5499359965324402,3.978193521499634,5.860940016028974,5.72719126855004,24.00241172646204,19.94291477581108,6.47544875391759e-05,0.1095065325498581,0,0,0
1881,83157.85283569046,2011-01-25 10:00:24,570.2871018658041,2,11,0.5499359965324402,3.9830501079559326,5.86552596374689,5.72719126855004,24.02066730698956,19.94291477581108,0.0001295089750783,0.1095065325498581,0,0,0
1882,83187.86793892313,2011-01-25 10:00:54,600.3022050984762,2,11,0.5499359965324402,3.987259149551392,5.870112231008639,5.72719126855004,24.038944344673208,19.94291477581108,6.47544875391759e-05,0.1095065325498581,0,0,0
1883,83217.88306367444,2011-01-25 10:01:24,630.3173298397545,2,11,0.5499359965324402,3.9914681911468506,5.874698455012378,5.72719126855004,24.057240724694296,19.94291477581108,0.0001295089750783,0.1095065325498581,0,0,0
1884,83247.89817534313,2011-01-25 10:01:54,660.3324415084518,2,11,0.5497553944587708,3.995353221893311,5.879284686741012,5.72719126855004,24.07555611505258,19.94291477581108,3.237724376958795e-05,0.1095065325498581,0,0,0
1885,83277.91326599945,2011-01-25 10:02:24,690.347532174805,2,11,0.5499359965324402,3.9995622634887695,5.883870886335159,5.72719126855004,24.093889716976005,19.94291477581108,9.713172767078504e-05,0.1095065325498581,0,0,0
1886,83307.92838508161,2011-01-25 10:02:54,720.362651246954,2,11,0.5501165986061096,4.003447532653809,5.888457064988167,5.72719126855004,24.11224152522024,19.94291477581108,9.70840483205393e-05,0.1095065325498581,0,0,0
1887,83337.94374192637,2011-01-25 10:03:24,750.3780081067431,2,11,0.5499359965324402,4.007171154022217,5.893043328698871,5.72719126855004,24.130611222780843,19.94291477581108,6.47544875391759e-05,0.1095065325498581,0,0,0
1888,83367.95859116102,2011-01-25 10:03:54,780.3928573363614,2,11,0.5499359965324402,4.010894298553467,5.89762954263897,5.72719126855004,24.14899790492017,19.94291477581108,6.47544875391759e-05,0.1095065325498581,0,0,0
1889,83397.9737071254,2011-01-25 10:04:24,810.40797329074,2,11,0.550297200679779,4.014617919921875,5.902215712997798,5.72719126855004,24.16740135808699,19.94291477581108,6.47544875391759e-05,0.1095065325498581,0,0,0
1890,83427.99120284591,2011-01-25 10:04:54,840.4254691265152,2,11,0.5501165986061096,4.018341064453125,5.906802313708576,5.72719126855004,24.18582322715436,19.94291477581108,0.0001295089750783,0.1095065325498581,0,0,0
1891,83458.00395114934,2011-01-25 10:05:24,870.4382173297295,2,11,0.5501165986061096,4.021740913391113,5.911388180347569,5.72719126855004,24.204258447032423,19.94291477581108,0.0001295089750783,0.1095065325498581,0,0,0
1892,83488.01128407104,2011-01-25 10:05:54,900.4455503466332,2,11,0.550297200679779,4.025464057922363,5.915973245109459,5.72719126855004,24.22270658549019,19.94291477581108,0.0001295089750783,0.1095065325498581,0,0,0
1893,83518.01854804085,2011-01-25 10:06:24,930.4528142262252,2,11,0.5501165986061096,4.028863906860352,5.920558286271766,5.72719126855004,24.241170566335548,19.94291477581108,0.0001295089750783,0.1095065325498581,0,0,0
1894,83548.03363872725,2011-01-25 10:06:54,960.4679049226536,2,11,0.5499359965324402,4.032101631164551,5.925144531972366,5.72719126855004,24.259655152578965,19.94291477581108,6.47544875391759e-05,0.1095065325498581,0,0,0
1895,83578.04875039094,2011-01-25 10:07:24,990.4830165863384,2,11,0.5501165986061096,4.035662651062012,5.929730815081402,5.72719126855004,24.278155451278085,19.94291477581108,0.0001295089750783,0.1095065325498581,0,0,0
1896,83608.06399310123,2011-01-25 10:07:54,1020.4982592916192,2,11,0.5501165986061096,4.03873872756958,5.934317014570036,5.72719126855004,24.296670758433315,19.94291477581108,6.47544875391759e-05,0.1095065325498581,0,0,0
1897,83638.07896653039,2011-01-25 10:08:25,1050.5132327057436,2,11,0.550297200679779,4.042300224304199,5.938903247048802,5.72719126855004,24.31520141759984,19.94291477581108,0.0001619339018361,0.1095065325498581,0,0,0
1898,83668.09408329679,2011-01-25 10:08:55,1080.528349492196,2,11,0.550297200679779,4.045699596405029,5.943489522249528,5.72719126855004,24.333747459216447,19.94291477581108,0.0001295089750783,0.1095065325498581,0,0,0
1899,83698.1092127448,2011-01-25 10:09:25,1110.5434789151425,2,11,0.5501165986061096,4.048775672912598,5.948075719039744,5.72719126855004,24.35230827784758,19.94291477581108,6.47544875391759e-05,0.1095065325498581,0,0,0
1900,83728.12431991729,2011-01-25 10:09:55,1140.5585861076838,2,11,0.550297200679779,4.052175045013428,5.952662009160273,5.72719126855004,24.370884377606544,19.94291477581108,0.0001295089750783,0.1095065325498581,0,0,0
1901,83758.139410724,2011-01-25 10:10:25,1170.573676899349,2,11,0.5501165986061096,4.055251121520996,5.957248239819447,5.72719126855004,24.38947509288589,19.94291477581108,9.71794142969884e-05,0.1095065325498581,0,0,0
1902,83788.15452223229,2011-01-25 10:10:55,1200.5887884076467,2,11,0.5501165986061096,4.058326721191406,5.961834451336951,5.72719126855004,24.40808036891132,19.94291477581108,6.47544875391759e-05,0.1095065325498581,0,0,0
1903,83818.16966056745,2011-01-25 10:11:25,1230.6039267377926,2,11,0.5499359965324402,4.061402797698975,5.966420753178101,5.72719126855004,24.426700743113766,19.94291477581108,3.24249267578125e-05,0.1095065325498581,0,0,0
1904,83848.18475494304,2011-01-25 10:11:55,1260.6190211184028,2,11,0.5501165986061096,4.064802169799805,5.971006943808114,5.72719126855004,24.44533521479977,19.94291477581108,9.70840483205393e-05,0.1095065325498581,0,0,0
1905,83878.19997580389,2011-01-25 10:12:25,1290.634241984253,2,11,0.5501165986061096,4.068039894104004,5.97559319333841,5.72719126855004,24.46398460472612,19.94291477581108,0.0001295089750783,0.1095065325498581,0,0,0
1906,83908.2152247046,2011-01-25 10:12:55,1320.6494908849747,2,11,0.5501165986061096,4.071115970611572,5.980179459940924,5.72719126855004,24.48264869887636,19.94291477581108,9.71794142969884e-05,0.1095065325498581,0,0,0
1907,83938.23007415478,2011-01-25 10:13:25,1350.664340325118,2,11,0.5501165986061096,4.074353694915772,5.984765694522421,5.72719126855004,24.50132718908593,19.94291477581108,6.47544875391759e-05,0.1095065325498581,0,0,0
1908,83968.2453391907,2011-01-25 10:13:55,1380.6796053811038,2,11,0.5501165986061096,4.077591419219971,5.989351937197442,5.72719126855004,24.520020337662416,19.94291477581108,0.0001295089750783,0.1095065325498581,0,0,0
1909,83998.26037012319,2011-01-25 10:14:25,1410.694636288519,2,11,0.5501165986061096,4.080667018890381,5.99393815330737,5.72719126855004,24.5387279405932,19.94291477581108,9.70840483205393e-05,0.1095065325498581,0,0,0
1910,84028.2754084892,2011-01-25 10:14:55,1440.7096746645486,2,11,0.5501165986061096,4.08390474319458,5.998524339998498,5.72719126855004,24.557449826816782,19.94291477581108,9.70840483205393e-05,0.1095065325498581,0,0,0
1911,84058.29053235831,2011-01-25 10:15:25,1470.724798533653,2,11,0.5501165986061096,4.086980819702148,6.003110533793146,5.72719126855004,24.576186365809956,19.94291477581108,6.47544875391759e-05,0.1095065325498581,0,0,0
1912,84088.30566825237,2011-01-25 10:15:55,1500.7399344227151,2,11,0.5501165986061096,4.090056419372559,6.007696752001623,5.72719126855004,24.59493763418102,19.94291477581108,3.23295607813634e-05,0.1095065325498581,0,0,0
1913,84118.32077277325,2011-01-25 10:16:25,1530.7550389385854,2,11,0.5501165986061096,4.093456268310547,6.012282972959861,5.72719126855004,24.613703542645005,19.94291477581108,9.71794142969884e-05,0.1095065325498581,0,0,0
1914,84148.33586261755,2011-01-25 10:16:55,1560.7701287879022,2,11,0.5501165986061096,4.096531867980957,6.016869143528104,5.72719126855004,24.632483857638256,19.94291477581108,6.47544875391759e-05,0.1095065325498581,0,0,0
1915,84178.35096716351,2011-01-25 10:17:25,1590.7852333438725,2,11,0.5501165986061096,4.099769592285156,6.021455400297314,5.72719126855004,24.65127925518937,19.94291477581108,6.47544875391759e-05,0.1095065325498581,0,0,0
1916,84208.36609640099,2011-01-25 10:17:55,1620.800362596394,2,11,0.5499359965324402,4.103007316589356,6.026041720992793,5.72719126855004,24.670089704427024,19.94291477581108,6.47544875391759e-05,0.1095065325498581,0,0,0
1917,84238.38118790444,2011-01-25 10:18:25,1650.815454074771,2,11,0.5499359965324402,4.106245040893555,6.03062794733543,5.72719126855004,24.68891460098193,19.94291477581108,9.70840483205393e-05,0.1095065325498581,0,0,0
1918,84268.39629958315,2011-01-25 10:18:55,1680.8305657484807,2,11,0.5499359965324402,4.109644889831543,6.035214218980425,5.72719126855004,24.70775454602646,19.94291477581108,9.71794142969884e-05,0.1095065325498581,0,0,0
1919,84298.41141830443,2011-01-25 10:19:25,1710.845684474768,2,11,0.5499359965324402,4.112720489501953,6.039800505007286,5.72719126855004,24.726609484881813,19.94291477581108,6.47544875391759e-05,0.1095065325498581,0,0,0
1920,84328.42655977239,2011-01-25 10:19:55,1740.860825947747,2,11,0.5501165986061096,4.116119861602783,6.044386746895611,5.72719126855004,24.74547916347437,19.94291477581108,6.47544875391759e-05,0.1095065325498581,0,0,0
1921,84358.44163811805,2011-01-25 10:20:25,1770.8759042933928,2,11,0.5495747923851013,4.119195938110352,6.048972333799985,5.72719126855004,24.764361232941564,19.94291477581108,6.47544875391759e-05,0.1095065325498581,0,0,0
1922,84388.4567504133,2011-01-25 10:20:55,1800.8910165836392,2,11,0.5501165986061096,4.122757434844971,6.053557643180358,5.72719126855004,24.783257423255385,19.94291477581108,9.71794142969884e-05,0.1095065325498581,0,0,0
1923,84418.47188461316,2011-01-25 10:21:25,1830.9061507734664,2,11,0.5499359965324402,4.12599515914917,6.058143567956561,5.72719126855004,24.80217144108399,19.94291477581108,6.47544875391759e-05,0.1095065325498581,0,0,0
1924,84448.4870156,2011-01-25 10:21:55,1860.9212817953976,2,11,0.5501165986061096,4.12939453125,6.062729745215431,5.72719126855004,24.8211019511954,19.94291477581108,9.70840483205393e-05,0.1095065325498581,0,0,0
1925,84478.5021140708,2011-01-25 10:22:25,1890.936380246152,2,11,0.5501165986061096,4.132794380187988,6.067316076312785,5.72719126855004,24.840048592206703,19.94291477581108,9.71794142969884e-05,0.1095065325498581,0,0,0
1926,84508.51721831098,2011-01-25 10:22:55,1920.9514844813225,2,11,0.5501165986061096,4.136193752288818,6.071902375211448,5.72719126855004,24.859010710071665,19.94291477581108,9.70840483205393e-05,0.1095065325498581,0,0,0
1927,84538.53235099706,2011-01-25 10:23:25,1950.9666171724143,2,11,0.550297200679779,4.1397552490234375,6.076488674610298,5.72719126855004,24.877988529480987,19.94291477581108,9.70840483205393e-05,0.1095065325498581,0,0,0
1928,84568.54744766335,2011-01-25 10:23:55,1980.981713828696,2,11,0.550297200679779,4.143155097961426,6.081074969278288,5.72719126855004,24.89698203628868,19.94291477581108,0.0001295089750783,0.1095065325498581,0,0,0
1929,84598.56268623334,2011-01-25 10:24:25,2010.9969524187209,2,11,0.5501165986061096,4.146554470062256,6.085661156736116,5.72719126855004,24.91599116347676,19.94291477581108,6.47544875391759e-05,0.1095065325498581,0,0,0
1930,84628.57808656647,2011-01-25 10:24:55,2041.0123528320585,2,11,0.5501165986061096,4.150115966796875,6.090247382020079,5.72719126855004,24.935016659642013,19.94291477581108,9.70840483205393e-05,0.1095065325498581,0,0,0
1931,84658.59285492955,2011-01-25 10:25:25,2071.0271211249574,2,11,0.5501165986061096,4.153677463531494,6.094833511404419,5.72719126855004,24.95405799574038,19.94291477581108,9.70840483205393e-05,0.1095065325498581,0,0,0
1932,84688.60803447742,2011-01-25 10:25:55,2101.042300657793,2,11,0.5499359965324402,4.157238960266113,6.099419693821823,5.72719126855004,24.97311572733837,19.94291477581108,0.0001295089750783,0.1095065325498581,0,0,0
1933,84718.62302643778,2011-01-25 10:26:25,2131.057292623153,2,11,0.5501165986061096,4.1609625816345215,6.104005878995952,5.72719126855004,24.992189890560397,19.94291477581108,0.0001295089750783,0.1095065325498581,0,0,0
1934,84748.63828891232,2011-01-25 10:26:55,2161.072555117755,2,11,0.5501165986061096,4.164361953735352,6.108592130284192,5.72719126855004,25.01128094076317,19.94291477581108,6.47544875391759e-05,0.1095065325498581,0,0,0
1935,84778.65322626157,2011-01-25 10:27:25,2191.08749243692,2,11,0.5499359965324402,4.16808557510376,6.113178328482364,5.72719126855004,25.030388407951115,19.94291477581108,9.71794142969884e-05,0.1095065325498581,0,0,0
1936,84808.66840943847,2011-01-25 10:27:55,2221.1026756038127,2,11,0.5501165986061096,4.171647071838379,6.117764576546499,5.72719126855004,25.049512796270903,19.94291477581108,6.47544875391759e-05,0.1095065325498581,0,0,0
1937,84838.68362072545,2011-01-25 10:28:25,2251.117887001064,2,11,0.5501165986061096,4.175370216369629,6.122350860132536,5.72719126855004,25.06865413355496,19.94291477581108,9.70840483205393e-05,0.1095065325498581,0,0,0
1938,84868.69867594347,2011-01-25 10:28:55,2281.1329421188198,2,11,0.5499359965324402,4.179093837738037,6.126937036234354,5.72719126855004,25.08781177739129,19.94291477581108,9.71794142969884e-05,0.1095065325498581,0,0,0
1939,84898.71366221964,2011-01-25 10:29:25,2311.147928400012,2,11,0.5501165986061096,4.182655334472656,6.131523259657776,5.72719126855004,25.10698657565849,19.94291477581108,3.24249267578125e-05,0.1095065325498581,0,0,0
1940,84928.72911887315,2011-01-25 10:29:55,2341.163385043493,2,11,0.5499359965324402,4.186378479003906,6.136109548108469,5.72719126855004,25.12617865892614,19.94291477581108,6.47544875391759e-05,0.1095065325498581,0,0,0
1941,84958.74391078492,2011-01-25 10:30:25,2371.1781769753075,2,11,0.5501165986061096,4.190263748168945,6.140695642477025,5.72719126855004,25.14538727631899,19.94291477581108,9.70840483205393e-05,0.1095065325498581,0,0,0
1942,84988.75899537612,2011-01-25 10:30:55,2401.193261551482,2,11,0.5501165986061096,4.194149017333984,6.145281824779088,5.72719126855004,25.16461372632,19.94291477581108,6.47544875391759e-05,0.1095065325498581,0,0,0
1943,85018.77423899868,2011-01-25 10:31:25,2431.2085051890867,2,11,0.5499359965324402,4.197872161865234,6.149868023436983,5.72719126855004,25.18385781934467,19.94291477581108,6.47544875391759e-05,0.1095065325498581,0,0,0
1944,85033.22728792872,2011-01-25 10:31:40,2445.6615542043246,2,11,0.5501165986061096,4.200138568878174,6.152076384262658,5.72719126855004,25.193130638797676,19.94291477581108,0.0001942634553415,0.1095065325498581,0,0,0
1945,85063.24294679242,2011-01-25 10:32:10,30.015118335312625,3,11,0.0,4.089732646942139,6.152076384262658,5.72719126855004,25.193130638797676,19.94291477581108,-0.0004532813909463,0.1095065325498581,0,0,0
1946,85093.25800950908,2011-01-25 10:32:40,60.030181046994045,3,11,0.0,4.075810432434082,6.152076384262658,5.72719126855004,25.193130638797676,19.94291477581108,-0.0003237724304199,0.1095065325498581,0,0,0
1947,85123.27313210003,2011-01-25 10:33:10,90.04530366798791,3,11,0.0,4.067068576812744,6.152076384262658,5.72719126855004,25.193130638797676,19.94291477581108,-0.0002266883820993,0.1095065325498581,0,0,0
1948,85153.24139856103,2011-01-25 10:33:40,120.01357011397636,3,11,0.0,4.060755252838135,6.152076384262658,5.72719126855004,25.193130638797676,19.94291477581108,-0.0002265930233988,0.1095065325498581,0,0,0
1949,85153.24426144149,2011-01-25 10:33:40,2.937320707e-06,4,11,1.0197007656097412,4.199814796447754,6.152076385094655,5.72719126855004,25.193130642291905,19.94291477581108,0.0,0.1095065325498581,0,0,0
1950,85153.82224973616,2011-01-25 10:33:41,0.577991231993584,4,11,0.9693107604980468,4.199814796447754,6.152234600844848,5.72719126855004,25.19379512050607,19.94291477581108,0.0,0.1095065325498581,0,0,0
1951,85155.63483542742,2011-01-25 10:33:42,2.390576923254881,4,11,0.919101357460022,4.199653148651123,6.152708850502486,5.72719126855004,25.19578688455632,19.94291477581108,-3.23295607813634e-05,0.1095065325498581,0,0,0
1952,85158.5565255582,2011-01-25 10:33:45,5.31226704902989,4,11,0.8690726161003113,4.199814796447754,6.153433463986058,5.72719126855004,25.198830148606618,19.94291477581108,-3.24249267578125e-05,0.1095065325498581,0,0,0
1953,85162.65023301178,2011-01-25 10:33:49,9.405974502606496,4,11,0.8186826109886169,4.199814796447754,6.154391824480205,5.72719126855004,25.202855105663595,19.94291477581108,0.0,0.1095065325498581,0,0,0
1954,85168.1188725241,2011-01-25 10:33:55,14.874614014929517,4,11,0.7686538100242615,4.199814796447754,6.155595985959036,5.72719126855004,25.20791240309488,19.94291477581108,0.0,0.1095065325498581,0,0,0
1955,85175.32188775939,2011-01-25 10:34:02,22.07762925020821,4,11,0.7186250686645508,4.199976921081543,6.157081790917235,5.72719126855004,25.214152587446577,19.94291477581108,0.0,0.1095065325498581,0,0,0
1956,85185.00928733988,2011-01-25 10:34:12,31.76502882568864,4,11,0.6685963273048401,4.199976921081543,6.158944704561145,5.72719126855004,25.221976595450272,19.94291477581108,3.24249267578125e-05,0.1095065325498581,0,0,0
1957,85198.5267958052,2011-01-25 10:34:25,45.28253740129245,4,11,0.6183869242668152,4.199814796447754,6.161355312928309,5.72719126855004,25.232100840799298,19.94291477581108,-3.24249267578125e-05,0.1095065325498581,0,0,0
1958,85219.54000958454,2011-01-25 10:34:46,66.29575108539746,4,11,0.5683581233024597,4.199814796447754,6.164807876593203,5.72719126855004,25.24660117187449,19.94291477581108,-3.24249267578125e-05,0.1095065325498581,0,0,0
1959,85256.94594239364,2011-01-25 10:35:24,103.70168388946296,4,11,0.518329381942749,4.199814796447754,6.170427488387338,5.72719126855004,25.270202829846475,19.94291477581108,0.0,0.1095065325498581,0,0,0
1960,85331.10058741082,2011-01-25 10:36:38,177.85632891167216,4,11,0.4683006107807159,4.199814796447754,6.180540013744651,5.72719126855004,25.31267407348997,19.94291477581108,-3.24249267578125e-05,0.1095065325498581,0,0,0
1961,85450.83277533881,2011-01-25 10:38:38,297.5885168597119,4,11,0.4180912375450134,4.199814796447754,6.195250647907983,5.72719126855004,25.374456813147848,19.94291477581108,0.0,0.1095065325498581,0,0,0
1962,85604.79889113856,2011-01-25 10:41:12,451.5546326544619,4,11,0.3680624663829803,4.199814796447754,6.212045460267361,5.72719126855004,25.44499291742903,19.94291477581108,0.0,0.1095065325498581,0,0,0
1963,85789.592615384,2011-01-25 10:44:16,636.348356869814,4,11,0.3178530931472778,4.199653148651123,6.229629363771988,5.72719126855004,25.518843092451498,19.94291477581108,-6.47544875391759e-05,0.1095065325498581,0,0,0
1964,86015.99502633438,2011-01-25 10:48:03,862.7507678452452,4,11,0.2676437199115753,4.199814796447754,6.24801701806483,5.72719126855004,25.59606879478641,19.94291477581108,0.0,0.1095065325498581,0,0,0
1965,86294.53702487495,2011-01-25 10:52:41,1141.2927663858386,4,11,0.217614933848381,4.199653148651123,6.266760718475113,5.72719126855004,25.674789915899684,19.94291477581108,0.0,0.1095065325498581,0,0,0
1966,86657.21859408476,2011-01-25 10:58:44,1503.9743356006509,4,11,0.1675861626863479,4.199653148651123,6.286097285120254,5.72719126855004,25.756001054020462,19.94291477581108,-3.23295607813634e-05,0.1095065325498581,0,0,0
1967,87160.58475603725,2011-01-25 11:07:07,2007.3404975280696,4,11,0.1175573989748954,4.199653148651123,6.305880632969203,5.72719126855004,25.839088847136207,19.94291477581108,-6.47544875391759e-05,0.1095065325498581,0,0,0
1968,88013.41387306585,2011-01-25 11:21:20,2860.169614551652,4,11,0.0675286278128624,4.199976921081543,6.327257762098949,5.72719126855004,25.928870294302143,19.94291477581108,0.0,0.1095065325498581,0,0,0
1969,88539.46959698314,2011-01-25 11:30:06,3386.2253385942654,4,11,0.0498289167881011,4.199814796447754,6.335810869308448,5.72719126855004,25.96479238552131,19.94291477581108,0.0,0.1095065325498581,0,0,0
1970,88569.4886716813,2011-01-25 11:30:36,30.01509086685277,5,11,0.0,4.1896162033081055,6.335810869308448,5.72719126855004,25.96479238552131,19.94291477581108,-3.24249267578125e-05,0.1095065325498581,0,0,0
1971,88599.48815861836,2011-01-25 11:31:06,60.01457780391129,5,11,0.0,4.187673568725586,6.335810869308448,5.72719126855004,25.96479238552131,19.94291477581108,-6.47544875391759e-05,0.1095065325498581,0,0,0
1972,88599.67500965853,2011-01-25 11:31:07,0.187417426894722,6,11,-1.9243103452026844e-05,4.187673568725586,6.335810869308448,5.727191269551843,25.96479238552131,19.9429147800063,0.0,0.1143734902143478,0,0,0
1973,88604.50324190891,2011-01-25 11:31:12,5.015649672260095,6,11,0.0005225847125984,4.187673568725586,6.33581182404014,5.72719126963583,25.96479638373119,19.94291478035801,-3.24249267578125e-05,0.1143734902143478,0,0,0
1974,88616.08050482666,2011-01-25 11:31:23,11.577930009022486,7,11,-1.099568486213684,3.987582921981812,6.33581182404014,5.730727358681438,25.96479638373119,19.957073935538343,-0.0020397186744958,0.1143734902143478,0,0,0
1975,88646.09561674598,2011-01-25 11:31:53,41.59304191831951,7,11,-1.0993878841400146,3.9249329566955566,6.33581182404014,5.739894423083514,25.96479638373119,19.993333457974337,-0.0015217304462566,0.1143734902143478,0,0,0
1976,88676.1107110564,2011-01-25 11:32:23,71.60813622875474,7,11,-1.0993878841400146,3.8710250854492183,6.33581182404014,5.749061483454141,25.96479638373119,20.029060977203567,-0.0013274669181555,0.1143734902143478,0,0,0
1977,88706.12598212238,2011-01-25 11:32:53,101.62340729471914,7,11,-1.0993878841400146,3.825697183609009,6.33581182404014,5.758228564223984,25.96479638373119,20.064331447204847,-0.0010360718006268,0.1143734902143478,0,0,0
1978,88736.14306773074,2011-01-25 11:33:23,131.64049301335638,7,11,-1.099568486213684,3.7900822162628174,6.33581182404014,5.767396297552754,25.96479638373119,20.099234633041604,-0.0008741855854168,0.1143734902143478,0,0,0
1979,88766.15618058277,2011-01-25 11:33:53,161.65360576513774,7,11,-1.099568486213684,3.762561559677124,6.33581182404014,5.776562745051561,25.96479638373119,20.13384599853471,-0.0006475448608398,0.1143734902143478,0,0,0
1980,88796.17116324995,2011-01-25 11:34:23,191.6685884273112,7,11,-1.0997490882873535,3.7395739555358887,6.33581182404014,5.78572971388434,25.96479638373119,20.16823011538124,-0.0006151676061563,0.1143734902143478,0,0,0
1981,88826.18629074308,2011-01-25 11:34:53,221.6837159154354,7,11,-1.099568486213684,3.720147609710693,6.33581182404014,5.794896803322335,25.96479638373119,20.202421671088697,-0.0005180359003134,0.1143734902143478,0,0,0
1982,88856.2014106423,2011-01-25 11:35:23,251.6988358246707,7,11,-1.099568486213684,3.7029876708984375,6.33581182404014,5.804063943058381,25.96479638373119,20.236445886491328,-0.0004532813909463,0.1143734902143478,0,0,0
1983,88886.21649709818,2011-01-25 11:35:53,281.7139222705049,7,11,-1.0993878841400146,3.687446594238281,6.33581182404014,5.813231079694542,25.96479638373119,20.270319593647177,-0.0003885269106831,0.1143734902143478,0,0,0
1984,88916.23163922275,2011-01-25 11:36:23,311.7290643900953,7,11,-1.0993878841400146,3.6728768348693848,6.33581182404014,5.822398183610095,25.96479638373119,20.30405459974372,-0.0003237724304199,0.1143734902143478,0,0,0
1985,88946.24687958219,2011-01-25 11:36:53,341.74430476456706,7,11,-1.0993878841400146,3.659116744995117,6.33581182404014,5.831565373503866,25.96479638373119,20.33766078104757,-0.0003561496851034,0.1143734902143478,0,0,0
1986,88976.26184421945,2011-01-25 11:37:23,371.7592694820168,7,11,-1.0993878841400146,3.64616584777832,6.33581182404014,5.840732358204773,25.96479638373119,20.371143776908102,-0.0002913951757363,0.1143734902143478,0,0,0
1987,89006.27694847967,2011-01-25 11:37:53,401.7743736570376,7,11,-1.099568486213684,3.633538722991944,6.33581182404014,5.849899406642532,25.96479638373119,20.404510051594887,-0.0003237724304199,0.1143734902143478,0,0,0
1988,89036.29206413332,2011-01-25 11:38:23,431.78948930565406,7,11,-1.099568486213684,3.621721029281616,6.33581182404014,5.859066427455533,25.96479638373119,20.43776401477172,-0.0002913951757363,0.1143734902143478,0,0,0
1989,89066.29405195835,2011-01-25 11:38:53,461.79147722091983,7,11,-1.099568486213684,3.610065221786499,6.33581182404014,5.868229510077276,25.96479638373119,20.47089585305492,-0.0002913951757363,0.1143734902143478,0,0,0
1990,89096.3067283927,2011-01-25 11:39:23,491.80415356503903,7,11,-1.0993878841400146,3.5990569591522217,6.33581182404014,5.877395848320142,25.96479638373119,20.50393618812563,-0.0002913951757363,0.1143734902143478,0,0,0
1991,89126.32177857314,2011-01-25 11:39:53,521.8192037555137,7,11,-1.0997490882873535,3.5880489349365234,6.33581182404014,5.886562888706605,25.96479638373119,20.53687799171233,-0.0002913951757363,0.1143734902143478,0,0,0
1992,89156.33688414164,2011-01-25 11:40:23,551.8343094192448,7,11,-1.099568486213684,3.577850103378296,6.33581182404014,5.895729994230543,25.96479638373119,20.569723120680617,-0.0002590179501567,0.1143734902143478,0,0,0
1993,89186.35199283292,2011-01-25 11:40:53,581.8494180052593,7,11,-1.0993878841400146,3.5678131580352783,6.33581182404014,5.904897088659344,25.96479638373119,20.602474958975957,-0.0002590179501567,0.1143734902143478,0,0,0
1994,89216.36712777462,2011-01-25 11:41:23,611.8645529469601,7,11,-1.0993878841400146,3.5584237575531006,6.33581182404014,5.914064210981827,25.96479638373119,20.63513818031636,-0.0002266406954731,0.1143734902143478,0,0,0
1995,89246.38220502753,2011-01-25 11:41:54,641.8796301998827,7,11,-1.099568486213684,3.549034357070923,6.33581182404014,5.923231304967817,25.96479638373119,20.6677156158546,-0.0002590179501567,0.1143734902143478,0,0,0
1996,89276.39738275588,2011-01-25 11:42:24,671.8948079282211,7,11,-1.0997490882873535,3.539968729019165,6.33581182404014,5.932398502303342,25.96479638373119,20.700209299956885,-0.0002590179501567,0.1143734902143478,0,0,0
1997,89306.41243237993,2011-01-25 11:42:54,701.9098575522842,7,11,-1.0993878841400146,3.531550645828247,6.33581182404014,5.941565590968136,25.96479638373119,20.73262096146449,-0.0001618862152099,0.1143734902143478,0,0,0
1998,89336.42797261676,2011-01-25 11:43:24,731.9253978793299,7,11,-1.099568486213684,3.522808790206909,6.33581182404014,5.95073280712,25.96479638373119,20.7649552196568,-0.0002913951757363,0.1143734902143478,0,0,0
1999,89366.44248482642,2011-01-25 11:43:54,761.939910088991,7,11,-1.099568486213684,3.514876365661621,6.33581182404014,5.959895045788294,25.96479638373119,20.79719542152033,-0.0001942634553415,0.1143734902143478,0,0,0
2000,89396.45789563065,2011-01-25 11:44:24,791.9553209433512,7,11,-1.0993878841400146,3.507106065750122,6.33581182404014,5.969066955392052,25.96479638373119,20.82939719679676,-0.0002266406954731,0.1143734902143478,0,0,0
2001,89426.47265648,2011-01-25 11:44:54,821.9700813415744,7,11,-1.099568486213684,3.499335527420044,6.33581182404014,5.97823396288505,25.96479638373119,20.861511341744585,-0.0002266406954731,0.1143734902143478,0,0,0
2002,89456.48776968253,2011-01-25 11:45:24,851.9851946343193,7,11,-1.0993878841400146,3.4918887615203857,6.33581182404014,5.987401099330843,25.96479638373119,20.893556525779218,-0.0002266406954731,0.1143734902143478,0,0,0
2003,89486.50309323931,2011-01-25 11:45:54,882.0005184166693,7,11,-1.099568486213684,3.4844419956207275,6.33581182404014,5.996568278026037,25.96479638373119,20.925533277923787,-0.0002266406954731,0.1143734902143478,0,0,0
2004,89516.51833279675,2011-01-25 11:46:24,912.0157579891422,7,11,-1.0993878841400146,3.4771571159362797,6.33581182404014,6.005735376181188,25.96479638373119,20.957441641575183,-0.0001942634553415,0.1143734902143478,0,0,0
2005,89546.53337041588,2011-01-25 11:46:54,942.03079569851,7,11,-1.099568486213684,3.470034122467041,6.33581182404014,6.014902375767426,25.96479638373119,20.989283662300725,-0.0001942634553415,0.1143734902143478,0,0,0
2006,89576.54886650768,2011-01-25 11:47:24,972.0462914745212,7,11,-1.0993878841400146,3.4632349014282227,6.33581182404014,6.024069616597148,25.96479638373119,21.02106260523364,-0.0001295089750783,0.1143734902143478,0,0,0
2007,89606.54888198203,2011-01-25 11:47:54,1002.0463073348192,7,11,-1.099568486213684,3.4564356803894043,6.33581182404014,6.033232147224309,25.96479638373119,21.05276316139875,-0.0001942634553415,0.1143734902143478,0,0,0
2008,89636.56372639464,2011-01-25 11:48:24,1032.0611516471822,7,11,-1.099568486213684,3.449474573135376,6.33581182404014,6.042399225587774,25.96479638373119,21.084416460530647,-0.0001942634553415,0.1143734902143478,0,0,0
2009,89666.57874272572,2011-01-25 11:48:54,1062.0761678880442,7,11,-1.0997490882873535,3.4423515796661377,6.33581182404014,6.051566297920785,25.96479638373119,21.116005829804017,-0.0001942634553415,0.1143734902143478,0,0,0
2010,89696.59385528164,2011-01-25 11:49:24,1092.0912804539776,7,11,-1.099568486213684,3.435066699981689,6.33581182404014,6.060733449467085,25.96479638373119,21.147529410487085,-0.0002266406954731,0.1143734902143478,0,0,0
2011,89726.60899336617,2011-01-25 11:49:54,1122.1064185385112,7,11,-1.0993878841400146,3.4274582862854004,6.33581182404014,6.069900597825799,25.96479638373119,21.178985198645258,-0.0001942634553415,0.1143734902143478,0,0,0
2012,89756.62409002245,2011-01-25 11:50:24,1152.1215151847682,7,11,-1.099568486213684,3.4196877479553223,6.33581182404014,6.079067828385552,25.96479638373119,21.210371124430168,-0.0002266406954731,0.1143734902143478,0,0,0
2013,89786.63946430567,2011-01-25 11:50:54,1182.1368894880316,7,11,-1.0993878841400146,3.411593437194824,6.33581182404014,6.08823508043092,25.96479638373119,21.24168378859201,-0.0002590179501567,0.1143734902143478,0,0,0
2014,89816.65430553534,2011-01-25 11:51:24,1212.1517307026745,7,11,-1.099568486213684,3.403499126434326,6.33581182404014,6.097402206176094,25.96479638373119,21.272921090062898,-0.0002266406954731,0.1143734902143478,0,0,0
2015,89846.66945626138,2011-01-25 11:51:54,1242.1668814186896,7,11,-1.099568486213684,3.395566701889038,6.33581182404014,6.106569374321007,25.96479638373119,21.304084630517323,-0.0002266406954731,0.1143734902143478,0,0,0
2016,89876.68453885762,2011-01-25 11:52:24,1272.1819640149297,7,11,-1.099568486213684,3.3868248462677,6.33581182404014,6.115736541950872,25.96479638373119,21.33517250942896,-0.0002266406954731,0.1143734902143478,0,0,0
2017,89906.6996459048,2011-01-25 11:52:54,1302.1970710671212,7,11,-1.0993878841400146,3.3777592182159424,6.33581182404014,6.124903678919869,25.96479638373119,21.36617814027045,-0.0001942634553415,0.1143734902143478,0,0,0
2018,89936.70525435856,2011-01-25 11:53:24,1332.2026796211326,7,11,-1.099568486213684,3.367560386657715,6.33581182404014,6.134067921206584,25.96479638373119,21.39708570344742,-0.0002913951757363,0.1143734902143478,0,0,0
2019,89966.71424868595,2011-01-25 11:53:54,1362.2116738583084,7,11,-1.0993878841400146,3.3573615550994877,6.33581182404014,6.143233272568293,25.96479638373119,21.427904217556108,-0.0002590179501567,0.1143734902143478,0,0,0
2020,89996.72936733706,2011-01-25 11:54:24,1392.2267924943706,7,11,-1.099568486213684,3.346029758453369,6.33581182404014,6.15240047672676,25.96479638373119,21.45862979650879,-0.0002913951757363,0.1143734902143478,0,0,0
2021,90026.74447384289,2011-01-25 11:54:54,1422.241899005213,7,11,-1.099568486213684,3.334373950958252,6.33581182404014,6.161567723988166,25.96479638373119,21.48925208566785,-0.0003561496851034,0.1143734902143478,0,0,0
2022,90056.7595783337,2011-01-25 11:55:24,1452.2570034960208,7,11,-1.099568486213684,3.321099281311035,6.33581182404014,6.170734913159372,25.96479638373119,21.519760254125657,-0.0003885269106831,0.1143734902143478,0,0,0
2023,90086.77484862272,2011-01-25 11:55:54,1482.2722738050988,7,11,-1.099568486213684,3.307015180587769,6.33581182404014,6.179902090429048,25.96479638373119,21.550142583148123,-0.0004209041653666,0.1143734902143478,0,0,0
2024,90116.78981448805,2011-01-25 11:56:24,1512.2872396503594,7,11,-1.0993878841400146,3.2916359901428223,6.33581182404014,6.189069202781065,25.96479638373119,21.58038912213392,-0.0004532813909463,0.1143734902143478,0,0,0
2025,90146.8049375852,2011-01-25 11:56:54,1542.3023627776147,7,11,-1.0993878841400146,3.2746379375457764,6.33581182404014,6.198236328512699,25.96479638373119,21.61048641112425,-0.0004532813909463,0.1143734902143478,0,0,0
2026,90176.82002752477,2011-01-25 11:57:24,1572.3174526870816,7,11,-1.0993878841400146,3.25521183013916,6.33581182404014,6.207403433165512,25.96479638373119,21.64041886293989,-0.0005180359003134,0.1143734902143478,0,0,0
2027,90206.83514217589,2011-01-25 11:57:54,1602.332567338212,7,11,-1.0993878841400146,3.232709646224976,6.33581182404014,6.216570611954746,25.96479638373119,21.67015884484563,-0.0005827903514727,0.1143734902143478,0,0,0
2028,90236.850391232,2011-01-25 11:58:24,1632.3478164143712,7,11,-1.0997490882873535,3.2045414447784424,6.33581182404014,6.225737869553808,25.96479638373119,21.699669036695127,-0.0008418083307333,0.1143734902143478,0,0,0
2029,90266.8653688466,2011-01-25 11:58:54,1662.362794003902,7,11,-1.099568486213684,3.17038369178772,6.33581182404014,6.234905020546882,25.96479638373119,21.728895093293,-0.0010036944877356,0.1143734902143478,0,0,0
2030,90296.88068063908,2011-01-25 11:59:24,1692.3781058063944,7,11,-1.0993878841400146,3.12732195854187,6.33581182404014,6.244072273962127,25.96479638373119,21.75777100381654,-0.0012627125252038,0.1143734902143478,0,0,0
2031,90326.89561608856,2011-01-25 11:59:54,1722.3930413561493,7,11,-1.099568486213684,3.070176362991333,6.33581182404014,6.253239423029187,25.96479638373119,21.78619079460887,-0.0017159938579425,0.1143734902143478,0,0,0
2032,90356.91074347644,2011-01-25 12:00:24,1752.4081686437737,7,11,-1.099568486213684,2.992147445678711,6.33581182404014,6.262406704364809,25.96479638373119,21.81399858333069,-0.0023959160316735,0.1143734902143478,0,0,0
2033,90386.92614517295,2011-01-25 12:00:54,1782.4235703553472,7,11,-1.0993878841400146,2.8822269439697266,6.33581182404014,6.271573985457541,25.96479638373119,21.84095417454127,-0.0033996105194091,0.1143734902143478,0,0,0
2034,90416.94122101236,2011-01-25 12:01:24,1812.4386461897343,7,11,-1.099568486213684,2.727949857711792,6.33581182404014,6.280741192478035,25.96479638373119,21.866704714174727,-0.0046299458481371,0.1143734902143478,0,0,0
2035,90421.56585159976,2011-01-25 12:01:29,1817.0632767721088,7,11,-1.099568486213684,2.699943780899048,6.33581182404014,6.282153656912898,25.96479638373119,21.87053816528049,-0.0048565389588475,0.1143734902143478,0,0,0
2036,90481.5791496037,2011-01-25 12:02:29,60.01455571385607,8,11,0.0,3.64827036857605,6.33581182404014,6.282153656912898,25.96479638373119,21.87053816528049,0.0012303352123126,0.1143734902143478,0,0,0
2037,90481.76654220252,2011-01-25 12:02:29,0.187612473009655,9,11,-1.9243103452026844e-05,3.6485941410064697,6.33581182404014,6.282153657915744,25.96479638373119,21.870538168939465,0.0,0.1109280735254287,0,0,0
2038,90486.594583106,2011-01-25 12:02:34,5.015653376492181,9,11,0.0003419754502829,3.655879020690918,6.335812444314104,6.282153658082288,25.96479864946046,21.87053816954712,0.0010684489971026,0.1109280735254287,0,0,0
