Data_Point,Test_Time(s),Date_Time,Step_Time(s),Step_Index,Cycle_Index,Current(A),Voltage(V),Charge_Capacity(Ah),Discharge_Capacity(Ah),Charge_Energy(Wh),Discharge_Energy(Wh),dV/dt(V/s),Internal_Resistance(Ohm),Is_FC_Data,AC_Impedance(Ohm),ACI_Phase_Angle(Deg)
4141,185149.07795950543,2011-01-26 14:20:31,30.015183808491933,1,24,0.0,3.688094139099121,12.858432739412509,12.791951815607431,52.73512612188221,44.44052854598258,0.0006151676061563,0.1141668483614921,0,0,0
4142,185179.09293956612,2011-01-26 14:21:01,60.03016385414417,1,24,0.0,3.7062253952026367,12.858432739412509,12.791951815607431,52.73512612188221,44.44052854598258,0.0004209041653666,0.1141668483614921,0,0,0
4143,185209.1080726232,2011-01-26 14:21:31,90.04529691114779,1,24,0.0,3.718690633773804,12.858432739412509,12.791951815607431,52.73512612188221,44.44052854598258,0.0002913951757363,0.1141668483614921,0,0,0
4144,185239.0764763413,2011-01-26 14:22:01,120.01370074454796,1,24,0.0,3.728080034255981,12.858432739412509,12.791951815607431,52.73512612188221,44.44052854598258,0.0002590179501567,0.1141668483614921,0,0,0
4145,185269.0896107074,2011-01-26 14:22:31,30.01365991046917,2,24,0.5501165986061096,3.844799518585205,12.863019026388104,12.791951815607431,52.75268072841247,44.44052854598258,0.0007122993702068,0.1141668483614921,0,0,0
4146,185299.1048395331,2011-01-26 14:23:01,60.028888771245256,2,24,0.5501165986061096,3.8643877506256095,12.867605520711695,12.791951815607431,52.77036316281856,44.44052854598258,0.0004209041653666,0.1141668483614921,0,0,0
4147,185329.11969053213,2011-01-26 14:23:31,90.04373971012367,2,24,0.5499359965324402,3.878148078918457,12.872191961948111,12.791951815607431,52.78812002458217,44.44052854598258,0.0002913951757363,0.1141668483614921,0,0,0
4148,185359.13483288733,2011-01-26 14:24:01,120.0588820653012,2,24,0.5499359965324402,3.8891563415527344,12.876778510180571,12.791951815607431,52.80593391422414,44.44052854598258,0.0002590179501567,0.1141668483614921,0,0,0
4149,185389.1499246213,2011-01-26 14:24:31,150.07397380432772,2,24,0.5501165986061096,3.899193286895752,12.881365023529812,12.791951815607431,52.82379531899896,44.44052854598258,0.0002913951757363,0.1141668483614921,0,0,0
4150,185419.16528630813,2011-01-26 14:25:01,180.0893355111971,2,24,0.550297200679779,3.90793514251709,12.885951596110564,12.791951815607431,52.841699316404046,44.44052854598258,0.0002266406954731,0.1141668483614921,0,0,0
4151,185449.180359506,2011-01-26 14:25:31,210.10440870400072,2,24,0.5501165986061096,3.916029214859009,12.8905381301364,12.791951815607431,52.859641815093184,44.44052854598258,0.0002590179501567,0.1141668483614921,0,0,0
4152,185479.1955503219,2011-01-26 14:26:01,240.1195995249699,2,24,0.5501165986061096,3.923637866973877,12.895124660618748,12.791951815607431,52.87762010712462,44.44052854598258,0.0002266406954731,0.1141668483614921,0,0,0
4153,185509.21044035323,2011-01-26 14:26:31,270.1344895562788,2,24,0.5501165986061096,3.9307608604431152,12.89971053132338,12.791951815607431,52.89562945318927,44.44052854598258,0.0001942634553415,0.1141668483614921,0,0,0
4154,185539.2256715849,2011-01-26 14:27:01,300.14972078295136,2,24,0.5499359965324402,3.937398195266724,12.904296268748752,12.791951815607431,52.9136702063518,44.44052854598258,0.0001942634553415,0.1141668483614921,0,0,0
4155,185569.240657014,2011-01-26 14:27:31,330.1647062170332,2,24,0.5497553944587708,3.943873643875122,12.90888192548779,12.791951815607431,52.93174105198964,44.44052854598258,0.0001942634553415,0.1141668483614921,0,0,0
4156,185599.2560367107,2011-01-26 14:28:01,360.1800859087264,2,24,0.5501165986061096,3.950187206268311,12.913467669774391,12.791951815607431,52.94984106016202,44.44052854598258,0.0001942634553415,0.1141668483614921,0,0,0
4157,185629.27089297285,2011-01-26 14:28:31,390.1949421558345,2,24,0.5501165986061096,3.956015110015869,12.918053999163511,12.791951815607431,52.96797096421161,44.44052854598258,0.0001618862152099,0.1141668483614921,0,0,0
4158,185659.2860138946,2011-01-26 14:29:01,420.2100630775934,2,24,0.5501165986061096,3.961519241333008,12.92264049998575,12.791951815607431,52.98612767838202,44.44052854598258,0.0001618862152099,0.1141668483614921,0,0,0
4159,185689.3011325908,2011-01-26 14:29:31,450.2251817738055,2,24,0.5501165986061096,3.966861486434937,12.927227064763027,12.791951815607431,53.00430939344574,44.44052854598258,0.0001618862152099,0.1141668483614921,0,0,0
4160,185719.3164187594,2011-01-26 14:30:01,480.24046797749776,2,24,0.550297200679779,3.971879959106445,12.931813665181002,12.791951815607431,53.02251494908791,44.44052854598258,0.0001295089750783,0.1141668483614921,0,0,0
4161,185749.33354798149,2011-01-26 14:30:31,510.25759716447146,2,24,0.5501165986061096,3.976574659347534,12.936400512661136,12.791951815607431,53.040744006826806,44.44052854598258,9.713172767078504e-05,0.1141668483614921,0,0,0
4162,185779.34647469452,2011-01-26 14:31:01,540.2705239076621,2,24,0.5501165986061096,3.981107473373413,12.940986618067754,12.791951815607431,53.05899169502823,44.44052854598258,9.713172767078504e-05,0.1141668483614921,0,0,0
4163,185809.3616397062,2011-01-26 14:31:31,570.2856888942441,2,24,0.5501165986061096,3.985802173614502,12.94557303020704,12.791951815607431,53.07726174666579,44.44052854598258,9.713172767078504e-05,0.1141668483614921,0,0,0
4164,185839.3768037705,2011-01-26 14:32:01,600.3008529635399,2,24,0.5499359965324402,3.990011215209961,12.950159525849095,12.791951815607431,53.09555252002389,44.44052854598258,6.47544875391759e-05,0.1141668483614921,0,0,0
4165,185869.39185958,2011-01-26 14:32:31,630.3159087579813,2,24,0.5501165986061096,3.994381904602051,12.95474597544906,12.791951815607431,53.11386276473439,44.44052854598258,0.0001294612884521,0.1141668483614921,0,0,0
4166,185899.4069517952,2011-01-26 14:33:01,660.3310009932447,2,24,0.550297200679779,3.9984290599823,12.959332394535442,12.791951815607431,53.13219197620527,44.44052854598258,9.713172767078504e-05,0.1141668483614921,0,0,0
4167,185929.4221246364,2011-01-26 14:33:31,690.3461738494402,2,24,0.5501165986061096,4.002476215362549,12.96391882811252,12.791951815607431,53.15053983595173,44.44052854598258,0.0001295089750783,0.1141668483614921,0,0,0
4168,185959.43722378885,2011-01-26 14:34:01,720.361272966856,2,24,0.5501165986061096,4.006361484527588,12.968505204004265,12.791951815607431,53.1689057071836,44.44052854598258,6.47544875391759e-05,0.1141668483614921,0,0,0
4169,185989.4523508459,2011-01-26 14:34:31,750.3764000188933,2,24,0.5499359965324402,4.010085105895996,12.973091696372844,12.791951815607431,53.18728988275003,44.44052854598258,6.47544875391759e-05,0.1141668483614921,0,0,0
4170,186019.46752852417,2011-01-26 14:35:01,780.391577832444,2,24,0.5499359965324402,4.013808250427246,12.977678122848207,12.791951815607431,53.205691240167134,44.44052854598258,6.47544875391759e-05,0.1141668483614921,0,0,0
4171,186049.4849550321,2011-01-26 14:35:31,810.4090043103581,2,24,0.550297200679779,4.017855644226074,12.982264925819887,12.791951815607431,53.22411132678402,44.44052854598258,0.0001295089750783,0.1141668483614921,0,0,0
4172,186079.49796214563,2011-01-26 14:36:01,840.4220113436564,2,24,0.5501165986061096,4.021578788757324,12.986851022458945,12.791951815607431,53.242545391200615,44.44052854598258,0.0001295089750783,0.1141668483614921,0,0,0
4173,186109.5128302673,2011-01-26 14:36:31,870.4368794453097,2,24,0.550297200679779,4.025140285491943,12.991437376024672,12.791951815607431,53.26099716459701,44.44052854598258,9.70840483205393e-05,0.1141668483614921,0,0,0
4174,186139.52796351985,2011-01-26 14:37:01,900.4520127178506,2,24,0.550297200679779,4.0287017822265625,12.996023816789528,12.791951815607431,53.27946567858218,44.44052854598258,0.0001618385285837,0.1141668483614921,0,0,0
4175,186169.54318877665,2011-01-26 14:37:31,930.4672379746444,2,24,0.550297200679779,4.032101631164551,13.000610253261137,12.791951815607431,53.297950295537404,44.44052854598258,0.0001295089750783,0.1141668483614921,0,0,0
4176,186199.558195594,2011-01-26 14:38:01,960.48224477197,2,24,0.5499359965324402,4.035338878631592,13.00519667252356,12.791951815607431,53.31645080137307,44.44052854598258,6.47544875391759e-05,0.1141668483614921,0,0,0
4177,186229.57343541709,2011-01-26 14:38:32,990.4974846000802,2,24,0.5501165986061096,4.038900375366211,13.009783126745871,12.791951815607431,53.33496720063008,44.44052854598258,0.0001295089750783,0.1141668483614921,0,0,0
4178,186259.58854575243,2011-01-26 14:39:02,1020.5125949454796,2,24,0.5501165986061096,4.04213809967041,13.0143696096785,12.791951815607431,53.35349913196542,44.44052854598258,6.47544875391759e-05,0.1141668483614921,0,0,0
4179,186289.603536174,2011-01-26 14:39:32,1050.5275853469416,2,24,0.5499359965324402,4.045375823974609,13.018956006904968,12.791951815607431,53.37204605587221,44.44052854598258,3.23295607813634e-05,0.1141668483614921,0,0,0
4180,186319.61876588687,2011-01-26 14:40:02,1080.5428150698665,2,24,0.5501165986061096,4.0489373207092285,13.023542482206873,12.791951815607431,53.39060851962688,44.44052854598258,9.70840483205393e-05,0.1141668483614921,0,0,0
4181,186349.6338184332,2011-01-26 14:40:32,1110.5578676061878,2,24,0.5501165986061096,4.052337169647217,13.028128988545488,12.791951815607431,53.409186281708166,44.44052854598258,0.0001295089750783,0.1141668483614921,0,0,0
4182,186379.6488890897,2011-01-26 14:41:02,1140.57293826267,2,24,0.5499359965324402,4.055412769317627,13.032715475208631,12.791951815607431,53.42777908144325,44.44052854598258,6.47544875391759e-05,0.1141668483614921,0,0,0
4183,186409.66401342,2011-01-26 14:41:32,1170.5880626029489,2,24,0.5501165986061096,4.058812618255615,13.037301952789685,12.791951815607431,53.44638691552843,44.44052854598258,9.71794142969884e-05,0.1141668483614921,0,0,0
4184,186439.6791503967,2011-01-26 14:42:02,1200.6031995797218,2,24,0.5501165986061096,4.062050342559815,13.04188847955306,12.791951815607431,53.465009539844885,44.44052854598258,9.71794142969884e-05,0.1141668483614921,0,0,0
4185,186469.694272737,2011-01-26 14:42:32,1230.618321920016,2,24,0.5501165986061096,4.065125942230225,13.04647492707536,12.791951815607431,53.48364661688253,44.44052854598258,3.23295607813634e-05,0.1141668483614921,0,0,0
4186,186499.70950576817,2011-01-26 14:43:02,1260.6335549561984,2,24,0.550297200679779,4.068363666534424,13.051061363961216,12.791951815607431,53.50229856995645,44.44052854598258,9.70840483205393e-05,0.1141668483614921,0,0,0
4187,186529.7245036332,2011-01-26 14:43:32,1290.6485528212622,2,24,0.5501165986061096,4.071601390838623,13.055647748453328,12.791951815607431,53.5209651950014,44.44052854598258,9.70840483205393e-05,0.1141668483614921,0,0,0
4188,186559.7398708188,2011-01-26 14:44:02,1320.6639200218235,2,24,0.5497553944587708,4.074839115142822,13.06023417661026,12.791951815607431,53.539646796364885,44.44052854598258,6.47544875391759e-05,0.1141668483614921,0,0,0
4189,186589.7547474968,2011-01-26 14:44:32,1350.6787966697773,2,24,0.5499359965324402,4.0780768394470215,13.064820573016426,12.791951815607431,53.558343142043626,44.44052854598258,9.70840483205393e-05,0.1141668483614921,0,0,0
4190,186619.76996803185,2011-01-26 14:45:02,1380.6940172348775,2,24,0.5501165986061096,4.081314563751221,13.069407029226458,12.791951815607431,53.577054735316,44.44052854598258,9.70840483205393e-05,0.1141668483614921,0,0,0
4191,186649.78498939544,2011-01-26 14:45:32,1410.709038588482,2,24,0.5501165986061096,4.08455228805542,13.07399349452003,12.791951815607431,53.595781166898966,44.44052854598258,3.23295607813634e-05,0.1141668483614921,0,0,0
4192,186679.80022187525,2011-01-26 14:46:02,1440.7242710732903,2,24,0.5501165986061096,4.087790012359619,13.078579977518729,12.791951815607431,53.61452253976588,44.44052854598258,6.47544875391759e-05,0.1141668483614921,0,0,0
4193,186709.81521622656,2011-01-26 14:46:32,1470.7392653995344,2,24,0.5501165986061096,4.091027736663818,13.08316642270221,12.791951815607431,53.633278710792055,44.44052854598258,6.47544875391759e-05,0.1141668483614921,0,0,0
4194,186739.83044958857,2011-01-26 14:47:02,1500.7544987916035,2,24,0.5501165986061096,4.094265460968018,13.087752871427474,12.791951815607431,53.65204983484998,44.44052854598258,6.47544875391759e-05,0.1141668483614921,0,0,0
4195,186769.84545740343,2011-01-26 14:47:32,1530.7695066064657,2,24,0.5501165986061096,4.097665309906006,13.09233934332158,12.791951815607431,53.67083615496901,44.44052854598258,9.71794142969884e-05,0.1141668483614921,0,0,0
4196,186799.8605812274,2011-01-26 14:48:02,1560.7846304003824,2,24,0.5501165986061096,4.100903034210205,13.096925755005314,12.791951815607431,53.68963732097065,44.44052854598258,6.47544875391759e-05,0.1141668483614921,0,0,0
4197,186829.8756841744,2011-01-26 14:48:32,1590.799733347343,2,24,0.5501165986061096,4.104464530944824,13.101512260760956,12.791951815607431,53.70845397128882,44.44052854598258,0.0001295089750783,0.1141668483614921,0,0,0
4198,186859.89079767265,2011-01-26 14:49:02,1620.8148468556249,2,24,0.5501165986061096,4.107378482818604,13.106098703053878,12.791951815607431,53.727285568018566,44.44052854598258,3.24249267578125e-05,0.1141668483614921,0,0,0
4199,186889.90592030363,2011-01-26 14:49:32,1650.8299694866434,2,24,0.5501165986061096,4.110939979553223,13.110685184437052,12.791951815607431,53.74613263986572,44.44052854598258,9.71794142969884e-05,0.1141668483614921,0,0,0
4200,186919.9211366081,2011-01-26 14:50:02,1680.8451859014003,2,24,0.5501165986061096,4.114339351654053,13.11527169813044,12.791951815607431,53.7649951169201,44.44052854598258,9.70840483205393e-05,0.1141668483614921,0,0,0
4201,186949.93615745544,2011-01-26 14:50:32,1710.8602066384683,2,24,0.5499359965324402,4.117577075958252,13.119858147257386,12.791951815607431,53.78387260462636,44.44052854598258,9.71794142969884e-05,0.1141668483614921,0,0,0
4202,186979.9513036502,2011-01-26 14:51:02,1740.87535284324,2,24,0.5501165986061096,4.121138572692871,13.12444469101141,12.791951815607431,53.802765831457286,44.44052854598258,0.0001295089750783,0.1141668483614921,0,0,0
4203,187009.96639594564,2011-01-26 14:51:32,1770.890445118603,2,24,0.5499359965324402,4.12437629699707,13.129031235276246,12.791951815607431,53.82167460734463,44.44052854598258,9.71794142969884e-05,0.1141668483614921,0,0,0
4204,187039.98152366432,2011-01-26 14:52:02,1800.905572857352,2,24,0.5501165986061096,4.1276140213012695,13.13361767849897,12.791951815607431,53.84059859328283,44.44052854598258,3.24249267578125e-05,0.1141668483614921,0,0,0
4205,187069.99663153852,2011-01-26 14:52:32,1830.9206807165551,2,24,0.5501165986061096,4.131175518035889,13.138204222224871,12.791951815607431,53.859538749434535,44.44052854598258,9.71794142969884e-05,0.1141668483614921,0,0,0
4206,187100.0117467511,2011-01-26 14:53:02,1860.9357959391093,2,24,0.5499359965324402,4.134574890136719,13.142790655925086,12.791951815607431,53.878494354635,44.44052854598258,6.47544875391759e-05,0.1141668483614921,0,0,0
4207,187130.027000539,2011-01-26 14:53:32,1890.951049722,2,24,0.5501165986061096,4.138136386871338,13.147377243284902,12.791951815607431,53.89746652906,44.44052854598258,6.47544875391759e-05,0.1141668483614921,0,0,0
4208,187160.04207278945,2011-01-26 14:54:02,1920.9661220576668,2,24,0.550297200679779,4.141697883605957,13.151963748393475,12.791951815607431,53.91645434733042,44.44052854598258,6.47544875391759e-05,0.1141668483614921,0,0,0
4209,187190.0572622069,2011-01-26 14:54:32,1950.9813113949383,2,24,0.5501165986061096,4.145421504974365,13.15655030706812,12.791951815607431,53.93545861021236,44.44052854598258,0.0001295089750783,0.1141668483614921,0,0,0
4210,187220.07235359508,2011-01-26 14:55:02,1980.9964027780777,2,24,0.550297200679779,4.148820877075195,13.161136757611056,12.791951815607431,53.95447899741744,44.44052854598258,9.70840483205393e-05,0.1141668483614921,0,0,0
4211,187250.0874164672,2011-01-26 14:55:32,2011.0114656501587,2,24,0.5501165986061096,4.152544498443604,13.165723225983356,12.791951815607431,53.97351576724398,44.44052854598258,0.0001295089750783,0.1141668483614921,0,0,0
4212,187280.10254561945,2011-01-26 14:56:02,2041.0265948024305,2,24,0.5501165986061096,4.156105995178223,13.170309658790895,12.791951815607431,53.9925687002434,44.44052854598258,0.0001295089750783,0.1141668483614921,0,0,0
4213,187310.1175859604,2011-01-26 14:56:32,2071.0416351483696,2,24,0.550297200679779,4.159667491912842,13.17489609672396,12.791951815607431,54.01163805884763,44.44052854598258,9.71794142969884e-05,0.1141668483614921,0,0,0
4214,187340.1329782785,2011-01-26 14:57:02,2101.0570274715446,2,24,0.5501165986061096,4.163228988647461,13.179482649280548,12.791951815607431,54.03072452440381,44.44052854598258,9.71794142969884e-05,0.1141668483614921,0,0,0
4215,187370.14813282408,2011-01-26 14:57:32,2131.072182202566,2,24,0.5501165986061096,4.166952133178711,13.184069138311656,12.791951815607431,54.04982742556992,44.44052854598258,9.70840483205393e-05,0.1141668483614921,0,0,0
4216,187400.16304682512,2011-01-26 14:58:02,2161.087096008128,2,24,0.550297200679779,4.17051362991333,13.188655653288924,12.791951815607431,54.06894722569599,44.44052854598258,9.70840483205393e-05,0.1141668483614921,0,0,0
4217,187430.1784908021,2011-01-26 14:58:32,2191.102540090302,2,24,0.5501165986061096,4.174237251281738,13.19324220666174,12.791951815607431,54.08808412877928,44.44052854598258,6.47544875391759e-05,0.1141668483614921,0,0,0
4218,187460.19353334847,2011-01-26 14:59:02,2221.1175825465007,2,24,0.5499359965324402,4.177798748016357,13.197828586082418,12.791951815607431,54.107237332057046,44.44052854598258,9.71794142969884e-05,0.1141668483614921,0,0,0
4219,187490.2083023632,2011-01-26 14:59:32,2251.132351556186,2,24,0.5499359965324402,4.181845664978027,13.202414977714126,12.791951815607431,54.126407771934026,44.44052854598258,0.0001295089750783,0.1141668483614921,0,0,0
4220,187520.2239232209,2011-01-26 15:00:02,2281.1479724440146,2,24,0.5501165986061096,4.185407161712647,13.207001580320703,12.791951815607431,54.14559636044718,44.44052854598258,9.70840483205393e-05,0.1141668483614921,0,0,0
4221,187550.23860119373,2011-01-26 15:00:32,2311.1626504117958,2,24,0.5501165986061096,4.1892924308776855,13.211588001843609,12.791951815607431,54.164801787241416,44.44052854598258,6.47544875391759e-05,0.1141668483614921,0,0,0
4222,187580.253698652,2011-01-26 15:01:02,2341.1777478400013,2,24,0.5501165986061096,4.193177700042725,13.21617449959362,12.791951815607431,54.1840251654852,44.44052854598258,9.70840483205393e-05,0.1141668483614921,0,0,0
4223,187610.26895053007,2011-01-26 15:01:32,2371.192999753231,2,24,0.5499359965324402,4.197062969207764,13.220761033792916,12.791951815607431,54.20326637303814,44.44052854598258,9.71794142969884e-05,0.1141668483614921,0,0,0
4224,187632.76855295736,2011-01-26 15:01:55,2393.6926021603845,2,24,0.5501165986061096,4.200138568878174,13.224199099844158,12.791951815607431,54.21770120178639,44.44052854598258,0.0001295089750783,0.1141668483614921,0,0,0
4225,187662.7767259769,2011-01-26 15:02:25,30.01524355740461,3,24,0.0,4.091027736663818,13.224199099844158,12.791951815607431,54.21770120178639,44.44052854598258,-0.0004857063177041,0.1141668483614921,0,0,0
4226,187692.7917322429,2011-01-26 15:02:55,60.03024982340602,3,24,0.0,4.077429294586182,13.224199099844158,12.791951815607431,54.21770120178639,44.44052854598258,-0.0003237724304199,0.1141668483614921,0,0,0
4227,187722.80685110457,2011-01-26 15:03:25,90.04536870508035,3,24,0.0,4.069011211395264,13.224199099844158,12.791951815607431,54.21770120178639,44.44052854598258,-0.0001619339018361,0.1141668483614921,0,0,0
4228,187752.7750969993,2011-01-26 15:03:55,120.01361459483635,3,24,0.0,4.063021659851074,13.224199099844158,12.791951815607431,54.21770120178639,44.44052854598258,-0.0001295089750783,0.1141668483614921,0,0,0
4229,187752.78595272164,2011-01-26 15:03:55,0.015766875906104,4,24,1.0036264657974243,4.199814796447754,13.224203536553908,12.791951815607431,54.21771983550535,44.44052854598258,-3.24249267578125e-05,0.1141668483614921,0,0,0
4230,187753.61391262745,2011-01-26 15:03:56,0.843726776735865,4,24,0.9535977244377136,4.199814796447754,13.224427159425684,12.791951815607431,54.21865901423066,44.44052854598258,-3.24249267578125e-05,0.1141668483614921,0,0,0
4231,187755.69212940813,2011-01-26 15:03:58,2.921943557404608,4,24,0.9033883810043336,4.199814796447754,13.2249621551357,12.791951815607431,54.22090590954877,44.44052854598258,-3.24249267578125e-05,0.1141668483614921,0,0,0
4232,187758.8950830792,2011-01-26 15:04:01,6.124897218452142,4,24,0.8531789779663086,4.199814796447754,13.225742407699386,12.791951815607431,54.22418286042031,44.44052854598258,-3.24249267578125e-05,0.1141668483614921,0,0,0
4233,187763.3169062481,2011-01-26 15:04:06,10.54672038735001,4,24,0.8029695749282837,4.199814796447754,13.226758021780071,12.791951815607431,54.22844830509104,44.44052854598258,0.0,0.1141668483614921,0,0,0
4234,187769.1449605226,2011-01-26 15:04:11,16.37477469693698,4,24,0.7527602314949036,4.199814796447754,13.228015924895258,12.791951815607431,54.23373131960074,44.44052854598258,-3.24249267578125e-05,0.1141668483614921,0,0,0
4235,187776.9416492098,2011-01-26 15:04:19,24.171463354051635,4,24,0.7027314305305481,4.199814796447754,13.22959001841895,12.791951815607431,54.24034229648149,44.44052854598258,-3.24249267578125e-05,0.1141668483614921,0,0,0
4236,187787.4414719387,2011-01-26 15:04:30,34.67128607799439,4,24,0.652522087097168,4.199653148651123,13.231562995342358,12.791951815607431,54.24862853035213,44.44052854598258,-6.47544875391759e-05,0.1141668483614921,0,0,0
4237,187802.61308987383,2011-01-26 15:04:45,49.84290401307874,4,24,0.6024932861328125,4.199814796447754,13.234201113802444,12.791951815607431,54.25970826072,44.44052854598258,0.0,0.1141668483614921,0,0,0
4238,187826.6753086468,2011-01-26 15:05:09,73.90512282110798,4,24,0.5524645447731018,4.199814796447754,13.238047250073445,12.791951815607431,54.27586151496233,44.44052854598258,0.0,0.1141668483614921,0,0,0
4239,187871.92442926316,2011-01-26 15:05:54,119.15424341242787,4,24,0.5024357438087463,4.199976921081543,13.244642553459071,12.791951815607431,54.30356086507645,44.44052854598258,0.0,0.1141668483614921,0,0,0
4240,187958.5479666016,2011-01-26 15:07:21,205.77778074585893,4,24,0.4524070024490356,4.199814796447754,13.25607698487001,12.791951815607431,54.35158395568888,44.44052854598258,0.0,0.1141668483614921,0,0,0
4241,188086.06147796183,2011-01-26 15:09:28,333.2912921060952,4,24,0.4023782312870025,4.199976921081543,13.271187580368156,12.791951815607431,54.41504646426801,44.44052854598258,3.24249267578125e-05,0.1141668483614921,0,0,0
4242,188243.7619490841,2011-01-26 15:12:06,490.9917632433912,4,24,0.3523494601249695,4.199976921081543,13.287695625271285,12.791951815607431,54.48437816915382,44.44052854598258,0.0,0.1141668483614921,0,0,0
4243,188433.27434417413,2011-01-26 15:15:16,680.5041583184244,4,24,0.3023206889629364,4.199653148651123,13.304906454745169,12.791951815607431,54.55666130456752,44.44052854598258,-3.23295607813634e-05,0.1141668483614921,0,0,0
4244,188667.50474141,2011-01-26 15:19:10,914.73455555924,4,24,0.2522919178009033,4.199814796447754,13.322921670484114,12.791951815607431,54.63232297477262,44.44052854598258,0.0,0.1141668483614921,0,0,0
4245,188959.43746755892,2011-01-26 15:24:02,1206.667281703245,4,24,0.2022631466388702,4.199814796447754,13.341283507744548,12.791951815607431,54.709440343605415,44.44052854598258,0.0,0.1141668483614921,0,0,0
4246,189339.7906807781,2011-01-26 15:30:22,1587.0204949674574,4,24,0.1522343754768371,4.199814796447754,13.359905778143723,12.791951815607431,54.78765156716443,44.44052854598258,-3.24249267578125e-05,0.1141668483614921,0,0,0
4247,189893.5466283709,2011-01-26 15:39:36,2140.776442515192,4,24,0.102205604314804,4.199814796447754,13.37924456175218,12.791951815607431,54.86887214209007,44.44052854598258,-3.24249267578125e-05,0.1141668483614921,0,0,0
4248,190931.9198736476,2011-01-26 15:56:54,3179.1496878319813,4,24,0.0521768368780612,4.199653148651123,13.400670375029112,12.791951815607431,54.95885764003727,44.44052854598258,-3.23295607813634e-05,0.1141668483614921,0,0,0
4249,191026.35609433183,2011-01-26 15:58:29,3273.5859084911626,4,24,0.0498289167881011,4.199814796447754,13.402021169495905,12.791951815607431,54.96453078130078,44.44052854598258,-3.24249267578125e-05,0.1141668483614921,0,0,0
4250,191056.3741203957,2011-01-26 15:58:59,30.015082004765727,5,24,0.0,4.189454555511475,13.402021169495905,12.791951815607431,54.96453078130078,44.44052854598258,-6.47544875391759e-05,0.1141668483614921,0,0,0
4251,191086.3736001999,2011-01-26 15:59:29,60.01456180403468,5,24,0.0,4.187835693359375,13.402021169495905,12.791951815607431,54.96453078130078,44.44052854598258,-3.23295607813634e-05,0.1141668483614921,0,0,0
4252,191086.5654854206,2011-01-26 15:59:29,0.18749828842654,6,24,-1.9243103452026844e-05,4.187835693359375,13.402021169495905,12.79195181660967,54.96453078130078,44.44052855017978,0.0,0.1157862395048141,0,0,0
4253,191091.3935971857,2011-01-26 15:59:34,5.015610073567969,6,24,0.0008838032954372,4.187673568725586,13.402022070684676,12.791951816695589,54.96453455547229,44.44052855053958,-9.71794142969884e-05,0.1157862395048141,0,0,0
4254,191104.05397175465,2011-01-26 15:59:47,12.65603331418304,7,24,-1.099568486213684,3.987582921981812,13.402022070684676,12.795817377714805,54.96453455547229,44.45600979234551,-0.0019749640487134,0.1157862395048141,0,0,0
4255,191134.06940962636,2011-01-26 16:00:17,42.67147126607853,7,24,-1.099568486213684,3.9260661602020255,13.402022070684676,12.804984947341278,54.96453455547229,44.49227774909203,-0.0015541076427325,0.1157862395048141,0,0,0
4256,191164.08424751268,2011-01-26 16:00:47,72.6863090521762,7,24,-1.099568486213684,3.8719964027404794,13.402022070684676,12.81415237923944,54.96453455547229,44.52801550835708,-0.0013598442310467,0.1157862395048141,0,0,0
4257,191194.09935715632,2011-01-26 16:01:17,102.70141869582652,7,24,-1.099568486213684,3.826182842254639,13.402022070684676,12.823319851815343,54.96453455547229,44.56329320756058,-0.0011332035064697,0.1157862395048141,0,0,0
4258,191224.1145742879,2011-01-26 16:01:47,132.71663584240724,7,24,-1.0993878841400146,3.789596557617188,13.402022070684676,12.832487346603038,54.96453455547229,44.59819309607521,-0.0008741855854168,0.1157862395048141,0,0,0
4259,191254.12956428333,2011-01-26 16:02:17,162.73162580277,7,24,-1.099568486213684,3.7607808113098153,13.402022070684676,12.841654730730609,54.96453455547229,44.632797002371234,-0.0007122993702068,0.1157862395048141,0,0,0
4260,191284.1446995609,2011-01-26 16:02:47,192.7467611053703,7,24,-1.0993878841400146,3.7368218898773193,13.402022070684676,12.8508222671337,54.96453455547229,44.66716107767817,-0.0005180359003134,0.1157862395048141,0,0,0
4261,191314.159814197,2011-01-26 16:03:17,222.76187574146337,7,24,-1.099568486213684,3.7159385681152335,13.402022070684676,12.859989728033366,54.96453455547229,44.70131951496203,-0.0005180359003134,0.1157862395048141,0,0,0
4262,191344.1749137254,2011-01-26 16:03:47,252.7769752749159,7,24,-1.099568486213684,3.697807312011719,13.402022070684676,12.869157215565842,54.96453455547229,44.73530105523486,-0.0004856586456298,0.1157862395048141,0,0,0
4263,191374.1900412787,2011-01-26 16:04:17,282.7921028282026,7,24,-1.099568486213684,3.6814568042755127,13.402022070684676,12.878324733790311,54.96453455547229,44.76912486924487,-0.0004532813909463,0.1157862395048141,0,0,0
4264,191404.2052320445,2011-01-26 16:04:47,312.8072935739844,7,24,-1.099568486213684,3.666401624679565,13.402022070684676,12.887492293439996,54.96453455547229,44.802804549986064,-0.0003885269106831,0.1157862395048141,0,0,0
4265,191434.22032048533,2011-01-26 16:05:17,342.82238213007804,7,24,-1.099568486213684,3.652317523956299,13.402022070684676,12.896659806412964,54.96453455547229,44.83635036743435,-0.0003561496851034,0.1157862395048141,0,0,0
4266,191464.2353979187,2011-01-26 16:05:47,372.8374594632006,7,24,-1.099568486213684,3.639042854309082,13.402022070684676,12.90582732389122,54.96453455547229,44.86977164687215,-0.0003561496851034,0.1157862395048141,0,0,0
4267,191494.25053273008,2011-01-26 16:06:17,402.85259427457663,7,24,-1.0993878841400146,3.626577615737915,13.402022070684676,12.914994865541866,54.96453455547229,44.90307434864671,-0.0002913951757363,0.1157862395048141,0,0,0
4268,191524.2656321884,2011-01-26 16:06:47,432.8676937328418,7,24,-1.0997490882873535,3.614112377166748,13.402022070684676,12.924162315532511,54.96453455547229,44.936262752475045,-0.0003237724304199,0.1157862395048141,0,0,0
4269,191554.28088092868,2011-01-26 16:07:17,462.8829426034888,7,24,-1.099568486213684,3.602456569671631,13.402022070684676,12.933329795755032,54.96453455547229,44.96934272879437,-0.0003561496851034,0.1157862395048141,0,0,0
4270,191584.2958555408,2011-01-26 16:07:47,492.89791709028657,7,24,-1.099568486213684,3.5911247730255127,13.402022070684676,12.942497154285237,54.96453455547229,45.0023164393027,-0.0002913475036621,0.1157862395048141,0,0,0
4271,191614.311097409,2011-01-26 16:08:17,522.9131589634936,7,24,-1.099568486213684,3.5802783966064453,13.402022070684676,12.9516645893626,54.96453455547229,45.0351888692763,-0.0003237724304199,0.1157862395048141,0,0,0
4272,191644.3262228119,2011-01-26 16:08:47,552.9282843563959,7,24,-1.099568486213684,3.569917678833008,13.402022070684676,12.960832058437708,54.96453455547229,45.06796347737694,-0.0002590179501567,0.1157862395048141,0,0,0
4273,191674.341418084,2011-01-26 16:09:17,582.9434797136711,7,24,-1.099568486213684,3.5598807334899902,13.402022070684676,12.969999497206466,54.96453455547229,45.100643649000645,-0.0002590179501567,0.1157862395048141,0,0,0
4274,191704.3563604357,2011-01-26 16:09:47,612.958421960116,7,24,-1.099568486213684,3.5498437881469727,13.402022070684676,12.979166885629184,54.96453455547229,45.13323273166414,-0.0002913951757363,0.1157862395048141,0,0,0
4275,191734.37157753712,2011-01-26 16:10:17,642.9736390565718,7,24,-1.099568486213684,3.540454387664795,13.402022070684676,12.988334309426762,54.96453455547229,45.16573422963607,-0.0002913951757363,0.1157862395048141,0,0,0
4276,191764.38659156748,2011-01-26 16:10:47,672.9886530969493,7,24,-1.099568486213684,3.531388759613037,13.402022070684676,12.997501757183484,54.96453455547229,45.1981502649203,-0.0002590179501567,0.1157862395048141,0,0,0
4277,191794.40173039888,2011-01-26 16:11:17,703.0037919183195,7,24,-1.099568486213684,3.522970676422119,13.402022070684676,13.0066692656634,54.96453455547229,45.2304851538851,-0.0001942634553415,0.1157862395048141,0,0,0
4278,191824.41681485972,2011-01-26 16:11:47,733.0188763792065,7,24,-1.099568486213684,3.514552593231201,13.402022070684676,13.015836652582314,54.96453455547229,45.26274174766202,-0.0002266406954731,0.1157862395048141,0,0,0
4279,191854.43233098148,2011-01-26 16:12:17,763.0343925460378,7,24,-1.099568486213684,3.5064585208892822,13.402022070684676,13.025004170308916,54.96453455547229,45.294923507469015,-0.0001942634553415,0.1157862395048141,0,0,0
4280,191884.44705418704,2011-01-26 16:12:47,793.049115736528,7,24,-1.0993878841400146,3.498364210128784,13.402022070684676,13.034171532274302,54.96453455547229,45.3270316271125,-0.0001942634553415,0.1157862395048141,0,0,0
4281,191914.46220315868,2011-01-26 16:13:17,823.0642646831334,7,24,-1.0993878841400146,3.490917444229126,13.402022070684676,13.043338958053,54.96453455547229,45.35906809962753,-0.0001618862152099,0.1157862395048141,0,0,0
4282,191944.4774164056,2011-01-26 16:13:47,853.0794779400197,7,24,-1.0997490882873535,3.483146905899048,13.402022070684676,13.052506482744704,54.96453455547229,45.39103533138605,-0.0001942634553415,0.1157862395048141,0,0,0
4283,191974.4925355128,2011-01-26 16:14:17,883.094597067306,7,24,-1.0993878841400146,3.4760239124298096,13.402022070684676,13.061673844009904,54.96453455547229,45.42293381881099,-0.0001942634553415,0.1157862395048141,0,0,0
4284,192004.50759784857,2011-01-26 16:14:47,913.1096593679632,7,24,-1.099568486213684,3.4687390327453613,13.402022070684676,13.070841214017957,54.96453455547229,45.45476514187016,-0.0001618862152099,0.1157862395048141,0,0,0
4285,192034.5230307228,2011-01-26 16:15:17,943.1250922923286,7,24,-1.099568486213684,3.461454153060913,13.402022070684676,13.080008738120975,54.96453455547229,45.48653124092998,-0.0001942634553415,0.1157862395048141,0,0,0
4286,192064.53776846456,2011-01-26 16:15:47,973.13982998396,7,24,-1.0993878841400146,3.4544930458068848,13.402022070684676,13.089176078419582,54.96453455547229,45.51823160516438,-0.0002266406954731,0.1157862395048141,0,0,0
4287,192094.55300764603,2011-01-26 16:16:17,1003.155069210571,7,24,-1.099568486213684,3.4472081661224365,13.402022070684676,13.098343502668076,54.96453455547229,45.549867440994326,-0.0002590179501567,0.1157862395048141,0,0,0
4288,192124.5680213155,2011-01-26 16:16:47,1033.1700828599742,7,24,-1.0993878841400146,3.4399232864379883,13.402022070684676,13.107510892536624,54.96453455547229,45.581436528191205,-0.0001942634553415,0.1157862395048141,0,0,0
4289,192154.58313233257,2011-01-26 16:17:17,1063.185193851985,7,24,-1.099568486213684,3.43280029296875,13.402022070684676,13.116678285317,54.96453455547229,45.61293939851914,-0.0002266406954731,0.1157862395048141,0,0,0
4290,192184.60044496672,2011-01-26 16:17:47,1093.2025066916776,7,24,-1.0993878841400146,3.425353765487671,13.402022070684676,13.12584639099817,54.96453455547229,45.644378248182086,-0.0001942634553415,0.1157862395048141,0,0,0
4291,192214.61336979017,2011-01-26 16:18:17,1123.215431334634,7,24,-1.099568486213684,3.4177451133728027,13.402022070684676,13.135013164982343,54.96453455547229,45.67574253638328,-0.0001295089750783,0.1157862395048141,0,0,0
4292,192244.6284768423,2011-01-26 16:18:47,1153.2305383868256,7,24,-1.099568486213684,3.4101364612579346,13.402022070684676,13.14418062476371,54.96453455547229,45.70703906004094,-0.0001942634553415,0.1157862395048141,0,0,0
4293,192274.64363428508,2011-01-26 16:19:17,1183.2456958195812,7,24,-1.0993878841400146,3.4018802642822266,13.402022070684676,13.153348024814717,54.96453455547229,45.738262488352674,-0.0001618862152099,0.1157862395048141,0,0,0
4294,192304.65877350248,2011-01-26 16:19:47,1213.2608350319258,7,24,-1.099568486213684,3.3931384086608887,13.402022070684676,13.162515424368213,54.96453455547229,45.7694080742957,-0.0002266406954731,0.1157862395048141,0,0,0
4295,192334.6738806248,2011-01-26 16:20:17,1243.2759421693297,7,24,-1.099568486213684,3.383910894393921,13.402022070684676,13.17168282639352,54.96453455547229,45.80047213733093,-0.0002590179501567,0.1157862395048141,0,0,0
4296,192364.68898368708,2011-01-26 16:20:47,1273.2910452315773,7,24,-1.0993878841400146,3.374359607696533,13.402022070684676,13.180850227911888,54.96453455547229,45.83144938960864,-0.0002266406954731,0.1157862395048141,0,0,0
4297,192394.70411379676,2011-01-26 16:21:17,1303.3061753161726,7,24,-1.0993878841400146,3.3641607761383057,13.402022070684676,13.190017603252189,54.96453455547229,45.86233660326018,-0.0002913951757363,0.1157862395048141,0,0,0
4298,192424.71922147047,2011-01-26 16:21:47,1333.3212830149755,7,24,-1.099568486213684,3.3529906272888184,13.402022070684676,13.19918500816838,54.96453455547229,45.8931275092726,-0.0003561496851034,0.1157862395048141,0,0,0
4299,192454.73433807143,2011-01-26 16:22:17,1363.336399615966,7,24,-1.0993878841400146,3.3414969444274902,13.402022070684676,13.208352423688469,54.96453455547229,45.9238140400789,-0.0003237724304199,0.1157862395048141,0,0,0
4300,192484.75164396383,2011-01-26 16:22:47,1393.353705498319,7,24,-1.099568486213684,3.3288698196411133,13.402022070684676,13.217520507813337,54.96453455547229,45.95439237181508,-0.0003561496851034,0.1157862395048141,0,0,0
4301,192514.7646182305,2011-01-26 16:23:17,1423.36667975994,7,24,-1.099568486213684,3.3146238327026367,13.402022070684676,13.226687242480596,54.96453455547229,45.98484473898562,-0.0004532813909463,0.1157862395048141,0,0,0
4302,192544.77971251585,2011-01-26 16:23:47,1453.3817740703753,7,24,-1.0997490882873535,3.2994065284729004,13.402022070684676,13.235854504158418,54.96453455547229,46.015164242288414,-0.0004532813909463,0.1157862395048141,0,0,0
4303,192574.79480575863,2011-01-26 16:24:17,1483.3968672830747,7,24,-1.0993878841400146,3.2825703620910645,13.402022070684676,13.245021874022738,54.96453455547229,46.04533526754755,-0.0004532813909463,0.1157862395048141,0,0,0
4304,192604.80999936652,2011-01-26 16:24:47,1513.4120609060274,7,24,-1.099568486213684,3.263306140899658,13.402022070684676,13.254189225629723,54.96453455547229,46.075342280954125,-0.0005827903514727,0.1157862395048141,0,0,0
4305,192634.8251841274,2011-01-26 16:25:17,1543.4272456819303,7,24,-1.0997490882873535,3.240965843200684,13.402022070684676,13.263356615362063,54.96453455547229,46.105159052940806,-0.0006475448608398,0.1157862395048141,0,0,0
4306,192664.8401659124,2011-01-26 16:25:48,1573.4422274468675,7,24,-1.099929690361023,3.21457839012146,13.402022070684676,13.272523916820322,54.96453455547229,46.134753593743504,-0.0007446765666827,0.1157862395048141,0,0,0
4307,192694.85528048835,2011-01-26 16:26:18,1603.457342037848,7,24,-1.099568486213684,3.182363271713257,13.402022070684676,13.28169132781562,54.96453455547229,46.16408164052718,-0.0009389400365762,0.1157862395048141,0,0,0
4308,192724.8704044276,2011-01-26 16:26:48,1633.4724659721153,7,24,-1.0993878841400146,3.1422154903411865,13.402022070684676,13.290858771051218,54.96453455547229,46.19307973081756,-0.0011979580158367,0.1157862395048141,0,0,0
4309,192754.8855652087,2011-01-26 16:27:18,1663.4876267732657,7,24,-1.0993878841400146,3.0891170501708984,13.402022070684676,13.300026149637452,54.96453455547229,46.22165429357748,-0.0016188621520996,0.1157862395048141,0,0,0
4310,192784.900637785,2011-01-26 16:27:48,1693.5026993044205,7,24,-1.099568486213684,3.015944719314575,13.402022070684676,13.30919353686948,54.96453455547229,46.24965693401792,-0.0022340298164635,0.1157862395048141,0,0,0
4311,192814.9157462908,2011-01-26 16:28:18,1723.5178078403098,7,24,-1.0997490882873535,2.909423828125,13.402022070684676,13.3183608718273,54.96453455547229,46.2768479564011,-0.0033024786971509,0.1157862395048141,0,0,0
4312,192844.93094098644,2011-01-26 16:28:48,1753.5330026311733,7,24,-1.0993878841400146,2.7559561729431152,13.402022070684676,13.327528281781358,54.96453455547229,46.30285633039568,-0.0046299458481371,0.1157862395048141,0,0,0
4313,192854.1182251605,2011-01-26 16:28:57,1762.7202867149667,7,24,-1.0997490882873535,2.699943780899048,13.402022070684676,13.330334329390446,54.96453455547229,46.31051232488892,-0.0049536703154444,0.1157862395048141,0,0,0
4314,192914.1358095636,2011-01-26 16:29:57,60.01463039999692,8,24,0.0,3.6542601585388175,13.402022070684676,13.330334329390446,54.96453455547229,46.31051232488892,0.0011979580158367,0.1157862395048141,0,0,0
4315,192914.327343292,2011-01-26 16:29:57,0.187580468243931,9,24,-1.9243103452026844e-05,3.6545839309692383,13.402022070684676,13.33033433039312,54.96453455547229,46.31051232855328,0.0,0.1125474646687507,0,0,0
4316,192919.15530310333,2011-01-26 16:30:02,5.015540244532527,9,24,0.0010644125286489,3.6618688106536874,13.402022938056456,13.33033433048788,54.96453772889839,46.31051232889958,0.0010684489971026,0.1125474646687507,0,0,0
