Data_Point,Test_Time(s),Date_Time,Step_Time(s),Step_Index,Cycle_Index,Current(A),Voltage(V),Charge_Capacity(Ah),Discharge_Capacity(Ah),Charge_Energy(Wh),Discharge_Energy(Wh),dV/dt(V/s),Internal_Resistance(Ohm),Is_FC_Data,AC_Impedance(Ohm),ACI_Phase_Angle(Deg)
5336,238948.77804387017,2011-01-27 05:17:19,30.015131578318268,1,31,0.0,3.709463119506836,16.56230375123488,16.461218731395245,67.94283337589526,57.13584939997557,0.0005180359003134,0.1157862395048141,0,0,0
5337,238978.79312546892,2011-01-27 05:17:49,60.03021316203461,1,31,0.0,3.725327968597412,16.56230375123488,16.461218731395245,67.94283337589526,57.13584939997557,0.0003561496851034,0.1157862395048141,0,0,0
5338,239008.80851547635,2011-01-27 05:18:19,90.04560318447515,1,31,0.0,3.7363362312316895,16.56230375123488,16.461218731395245,67.94283337589526,57.13584939997557,0.0002590179501567,0.1157862395048141,0,0,0
5339,239038.7765071375,2011-01-27 05:18:49,120.01359483057774,1,31,0.0,3.7445924282073975,16.56230375123488,16.461218731395245,67.94283337589526,57.13584939997557,0.0001618862152099,0.1157862395048141,0,0,0
5340,239068.79809966567,2011-01-27 05:19:19,30.014876256978933,2,31,0.5499359965324402,3.863416433334351,16.56689009499923,16.461218731395245,67.96047257865686,57.13584939997557,0.0007122993702068,0.1157862395048141,0,0,0
5341,239098.8132029084,2011-01-27 05:19:49,60.0299795097011,2,31,0.5501165986061096,3.8834903240203857,16.57147648046198,16.461218731395245,67.97824121178637,57.13584939997557,0.0003885269106831,0.1157862395048141,0,0,0
5342,239128.828342226,2011-01-27 05:20:19,90.04511883733305,2,31,0.5499359965324402,3.897898197174072,16.57606288493772,16.461218731395245,67.99608731018232,57.13584939997557,0.0003885269106831,0.1157862395048141,0,0,0
5343,239158.8434341354,2011-01-27 05:20:49,120.06021072172184,2,31,0.5501165986061096,3.9095540046691895,16.58064922648242,16.461218731395245,68.01399199367586,57.13584939997557,0.0002913951757363,0.1157862395048141,0,0,0
5344,239188.8585434332,2011-01-27 05:21:19,150.07532001951017,2,31,0.5501165986061096,3.919752597808838,16.585235578769463,16.461218731395245,68.03194634299219,57.13584939997557,0.0002913951757363,0.1157862395048141,0,0,0
5345,239218.860216594,2011-01-27 05:21:49,180.0769932003609,2,31,0.5501165986061096,3.928818225860596,16.58981993175386,16.461218731395245,68.04993696548695,57.13584939997557,0.0001942634553415,0.1157862395048141,0,0,0
5346,239248.87318204367,2011-01-27 05:22:19,210.0899586349826,2,31,0.5501165986061096,3.937398195266724,16.59440599874427,16.461218731395245,68.06797484965573,57.13584939997557,0.0002266406954731,0.1157862395048141,0,0,0
5347,239278.88831252928,2011-01-27 05:22:49,240.1050891606774,2,31,0.550297200679779,3.9454925060272217,16.59899235732329,16.461218731395245,68.08605169668883,57.13584939997557,0.0002266406954731,0.1157862395048141,0,0,0
5348,239308.90337444897,2011-01-27 05:23:19,270.1201510352725,2,31,0.550297200679779,3.95310115814209,16.60357872530779,16.461218731395245,68.1041639856897,57.13584939997557,0.0002590179501567,0.1157862395048141,0,0,0
5349,239338.91846099004,2011-01-27 05:23:49,300.13523757133163,2,31,0.5499359965324402,3.959900379180908,16.60816509123558,16.461218731395245,68.12230976184435,57.13584939997557,0.0001618862152099,0.1157862395048141,0,0,0
5350,239368.93358031783,2011-01-27 05:24:19,330.1503569041303,2,31,0.5501165986061096,3.966699600219727,16.61275144225103,16.461218731395245,68.14048693372587,57.13584939997557,0.0001618862152099,0.1157862395048141,0,0,0
5351,239398.94870079347,2011-01-27 05:24:49,360.1654773797773,2,31,0.550297200679779,3.972851276397705,16.61733779969875,16.461218731395245,68.1586938406817,57.13584939997557,0.0001295089750783,0.1157862395048141,0,0,0
5352,239428.9639390226,2011-01-27 05:25:19,390.180715719177,2,31,0.550297200679779,3.979002952575684,16.621924261478433,16.461218731395245,68.17692903821971,57.13584939997557,0.0002266406954731,0.1157862395048141,0,0,0
5353,239458.97897700765,2011-01-27 05:25:49,420.1957535989697,2,31,0.5499359965324402,3.984668970108032,16.626510619209082,16.461218731395245,68.19519066662886,57.13584939997557,0.0001618862152099,0.1157862395048141,0,0,0
5354,239488.9940555939,2011-01-27 05:26:19,450.2108321802029,2,31,0.5501165986061096,3.990011215209961,16.631096942224538,16.461218731395245,68.21347763710064,57.13584939997557,0.0001295089750783,0.1157862395048141,0,0,0
5355,239519.0113546693,2011-01-27 05:26:49,480.22813134581565,2,31,0.5499359965324402,3.99502944946289,16.635683500361296,16.461218731395245,68.2317898129451,57.13584939997557,6.47544875391759e-05,0.1157862395048141,0,0,0
5356,239549.02427268072,2011-01-27 05:27:19,510.2410492620068,2,31,0.550297200679779,4.000209808349609,16.64026946314925,16.461218731395245,68.25012298084849,57.13584939997557,0.0001618862152099,0.1157862395048141,0,0,0
5357,239579.03935772303,2011-01-27 05:27:49,540.2561343093556,2,31,0.5501165986061096,4.004904747009277,16.64485576057616,16.461218731395245,68.26847994675435,57.13584939997557,9.71794142969884e-05,0.1157862395048141,0,0,0
5358,239609.0544653868,2011-01-27 05:28:19,570.2712419680589,2,31,0.5499359965324402,4.009599208831787,16.649442040443407,16.461218731395245,68.28685866699989,57.13584939997557,0.0001295089750783,0.1157862395048141,0,0,0
5359,239639.06958771203,2011-01-27 05:28:49,600.2863642933157,2,31,0.5501165986061096,4.014132022857666,16.654028318010173,16.461218731395245,68.30525844209771,57.13584939997557,0.0001295089750783,0.1157862395048141,0,0,0
5360,239669.08470148096,2011-01-27 05:29:19,630.3014780722724,2,31,0.5501165986061096,4.018503189086914,16.658614639932235,16.461218731395245,68.32367879281993,57.13584939997557,9.71794142969884e-05,0.1157862395048141,0,0,0
5361,239699.0998262824,2011-01-27 05:29:50,660.3166028737005,2,31,0.5499359965324402,4.022712230682373,16.663200933071817,16.461218731395245,68.34211879719496,57.13584939997557,0.0001295089750783,0.1157862395048141,0,0,0
5362,239729.1149802114,2011-01-27 05:30:20,690.3317567926988,2,31,0.5499359965324402,4.026921272277832,16.66778721842457,16.461218731395245,68.36057818327058,57.13584939997557,9.71794142969884e-05,0.1157862395048141,0,0,0
5363,239759.13002731412,2011-01-27 05:30:50,720.3468039004904,2,31,0.550297200679779,4.031130313873291,16.672373525980365,16.461218731395245,68.37905659311781,57.13584939997557,9.71794142969884e-05,0.1157862395048141,0,0,0
5364,239789.1451622008,2011-01-27 05:31:20,750.3619387870539,2,31,0.5501165986061096,4.035177230834961,16.676959824758566,16.461218731395245,68.39755356023477,57.13584939997557,0.0001295089750783,0.1157862395048141,0,0,0
5365,239819.1602462256,2011-01-27 05:31:50,780.3770228068416,2,31,0.5499359965324402,4.038900375366211,16.681546120890772,16.461218731395245,68.41606878316709,57.13584939997557,3.23295607813634e-05,0.1157862395048141,0,0,0
5366,239849.17535356843,2011-01-27 05:32:20,810.3921301547704,2,31,0.5501165986061096,4.042947769165039,16.686132457017322,16.461218731395245,68.43460205963765,57.13584939997557,0.0001295089750783,0.1157862395048141,0,0,0
5367,239879.1904678136,2011-01-27 05:32:50,840.4072444049012,2,31,0.5501165986061096,4.046670913696289,16.69071878102972,16.461218731395245,68.45315298733782,57.13584939997557,9.70840483205393e-05,0.1157862395048141,0,0,0
5368,239909.20560165253,2011-01-27 05:33:20,870.4223782739288,2,31,0.5501165986061096,4.050394535064697,16.695305147265305,16.461218731395245,68.47172139158845,57.13584939997557,6.47544875391759e-05,0.1157862395048141,0,0,0
5369,239939.22082186173,2011-01-27 05:33:50,900.43759845808,2,31,0.550297200679779,4.054279804229736,16.69989152336782,16.461218731395245,68.49030688539337,57.13584939997557,0.0001295089750783,0.1157862395048141,0,0,0
5370,239969.2359334904,2011-01-27 05:34:20,930.4527101167524,2,31,0.5501165986061096,4.057841300964356,16.70447790209489,16.461218731395245,68.5089094356115,57.13584939997557,3.24249267578125e-05,0.1157862395048141,0,0,0
5371,239999.25105125929,2011-01-27 05:34:50,960.467827860591,2,31,0.5501165986061096,4.061402797698975,16.709064233932676,16.461218731395245,68.52752846745817,57.13584939997557,0.0001295089750783,0.1157862395048141,0,0,0
5372,240029.26637429476,2011-01-27 05:35:20,990.4831508960796,2,31,0.5499359965324402,4.065125942230225,16.713650529770387,16.461218731395245,68.54616374821897,57.13584939997557,9.70840483205393e-05,0.1157862395048141,0,0,0
5373,240059.28121289285,2011-01-27 05:35:50,1020.4979894992134,2,31,0.5501165986061096,4.068687438964844,16.71823679064497,16.461218731395245,68.56481535440408,57.13584939997557,0.0001295089750783,0.1157862395048141,0,0,0
5374,240089.29640259105,2011-01-27 05:36:20,1050.5131791923716,2,31,0.5499359965324402,4.072087287902832,16.72282305097309,16.461218731395245,68.58348329547165,57.13584939997557,6.47544875391759e-05,0.1157862395048141,0,0,0
5375,240119.31144301212,2011-01-27 05:36:50,1080.5282195934485,2,31,0.5501165986061096,4.075648784637451,16.727409301065723,16.461218731395245,68.6021675060837,57.13584939997557,6.47544875391759e-05,0.1157862395048141,0,0,0
5376,240149.32649671132,2011-01-27 05:37:20,1110.5432732976803,2,31,0.5501165986061096,4.07921028137207,16.731995608633316,16.461218731395245,68.62086809425352,57.13584939997557,9.71794142969884e-05,0.1157862395048141,0,0,0
5377,240179.3415847512,2011-01-27 05:37:50,1140.5583613424997,2,31,0.5499359965324402,4.0826096534729,16.73658188915532,16.461218731395245,68.63958458035268,57.13584939997557,6.47544875391759e-05,0.1157862395048141,0,0,0
5378,240209.356690846,2011-01-27 05:38:20,1170.5734674272803,2,31,0.5501165986061096,4.08617115020752,16.74116814508613,16.461218731395245,68.65831696099028,57.13584939997557,6.47544875391759e-05,0.1157862395048141,0,0,0
5379,240239.37178027927,2011-01-27 05:38:50,1200.5885568906351,2,31,0.5501165986061096,4.089732646942139,16.74575439272771,16.461218731395245,68.67706529138701,57.13584939997557,9.70840483205393e-05,0.1157862395048141,0,0,0
5380,240269.3869065744,2011-01-27 05:39:20,1230.603683185786,2,31,0.5501165986061096,4.093132495880127,16.75034066375707,16.461218731395245,68.69582964303999,57.13584939997557,9.71794142969884e-05,0.1157862395048141,0,0,0
5381,240299.40205207744,2011-01-27 05:39:50,1260.6188286687593,2,31,0.5499359965324402,4.096531867980957,16.754926974646875,16.461218731395245,68.71461005653498,57.13584939997557,9.70840483205393e-05,0.1157862395048141,0,0,0
5382,240329.41718426728,2011-01-27 05:40:20,1290.6339608786514,2,31,0.5499359965324402,4.100093364715576,16.759513307719768,16.461218731395245,68.73340643157157,57.13584939997557,0.0001295089750783,0.1157862395048141,0,0,0
5383,240359.43297725904,2011-01-27 05:40:50,1320.6497539656527,2,31,0.5501165986061096,4.103654861450195,16.764099688614984,16.461218731395245,68.75221890148272,57.13584939997557,0.0001295089750783,0.1157862395048141,0,0,0
5384,240389.4473754796,2011-01-27 05:41:20,1350.664152090981,2,31,0.5499359965324402,4.107054710388184,16.768685832319715,16.461218731395245,68.7710463708818,57.13584939997557,9.71794142969884e-05,0.1157862395048141,0,0,0
5385,240419.46264041527,2011-01-27 05:41:50,1380.679417021654,2,31,0.5501165986061096,4.110616207122803,16.773272121011097,16.461218731395245,68.78989037989838,57.13584939997557,9.71794142969884e-05,0.1157862395048141,0,0,0
5386,240449.4776254083,2011-01-27 05:42:20,1410.6944019945863,2,31,0.5501165986061096,4.114015579223633,16.7778584171936,16.461218731395245,68.80875037814756,57.13584939997557,9.70840483205393e-05,0.1157862395048141,0,0,0
5387,240479.4927468664,2011-01-27 05:42:50,1440.709523462707,2,31,0.5501165986061096,4.117414951324463,16.78244466848437,16.461218731395245,68.82762613416166,57.13584939997557,6.47544875391759e-05,0.1157862395048141,0,0,0
5388,240509.50785950248,2011-01-27 05:43:20,1470.7246360887907,2,31,0.5501165986061096,4.120976448059082,16.78703095170984,16.461218731395245,68.8465181470679,57.13584939997557,6.47544875391759e-05,0.1157862395048141,0,0,0
5389,240539.52298010848,2011-01-27 05:43:50,1500.7397567047872,2,31,0.550297200679779,4.124537944793701,16.79161721026179,16.461218731395245,68.86542614822841,57.13584939997557,0.0001295089750783,0.1157862395048141,0,0,0
5390,240569.538091712,2011-01-27 05:44:20,1530.7548683133348,2,31,0.550297200679779,4.1279377937316895,16.796203489191043,16.461218731395245,68.8843504507549,57.13584939997557,6.47544875391759e-05,0.1157862395048141,0,0,0
5391,240599.5534263564,2011-01-27 05:44:50,1560.7702029778063,2,31,0.5501165986061096,4.13166093826294,16.800789793684455,16.461218731395245,68.90329106634468,57.13584939997557,9.70840483205393e-05,0.1157862395048141,0,0,0
5392,240629.56831035268,2011-01-27 05:45:20,1590.785086943999,2,31,0.5501165986061096,4.135222434997559,16.8053760370196,16.461218731395245,68.92224761715377,57.13584939997557,0.0001295089750783,0.1157862395048141,0,0,0
5393,240659.5834730987,2011-01-27 05:45:50,1620.8002497100467,2,31,0.550297200679779,4.138783931732178,16.809962275349644,16.461218731395245,68.94122049824972,57.13584939997557,9.70840483205393e-05,0.1157862395048141,0,0,0
5394,240689.59863677705,2011-01-27 05:46:20,1650.815413358293,2,31,0.5499359965324402,4.142345428466797,16.814548582555336,16.461218731395245,68.96021018101551,57.13584939997557,6.47544875391759e-05,0.1157862395048141,0,0,0
5395,240719.6136267875,2011-01-27 05:46:50,1680.8304033988557,2,31,0.5499359965324402,4.145906925201416,16.81913396402994,16.461218731395245,68.97921247035583,57.13584939997557,6.47544875391759e-05,0.1157862395048141,0,0,0
5396,240749.6287725261,2011-01-27 05:47:20,1710.8455491374657,2,31,0.5499359965324402,4.149468421936035,16.823719421431285,16.461218731395245,68.99823190897862,57.13584939997557,6.47544875391759e-05,0.1157862395048141,0,0,0
5397,240779.64388465096,2011-01-27 05:47:50,1740.8606612372375,2,31,0.5501165986061096,4.153353691101074,16.828305617665578,16.461218731395245,69.01727118512312,57.13584939997557,0.0001618385285837,0.1157862395048141,0,0,0
5398,240809.65926960576,2011-01-27 05:48:20,1770.8760462171103,2,31,0.5501165986061096,4.156915187835693,16.83289188564994,16.461218731395245,69.03632739404098,57.13584939997557,0.0001295089750783,0.1157862395048141,0,0,0
5399,240839.67409694585,2011-01-27 05:48:50,1800.8908735321108,2,31,0.550297200679779,4.160638809204102,16.837478060615442,16.461218731395245,69.05540000861323,57.13584939997557,9.71794142969884e-05,0.1157862395048141,0,0,0
5400,240869.6892145643,2011-01-27 05:49:20,1830.9059911456245,2,31,0.5501165986061096,4.164200305938721,16.84206426277174,16.461218731395245,69.07448965944198,57.13584939997557,9.71794142969884e-05,0.1157862395048141,0,0,0
5401,240899.70431300503,2011-01-27 05:49:50,1860.921089591366,2,31,0.5499359965324402,4.167923450469971,16.846650392566705,16.461218731395245,69.09359596777972,57.13584939997557,9.70840483205393e-05,0.1157862395048141,0,0,0
5402,240929.71955689328,2011-01-27 05:50:20,1890.936333494633,2,31,0.5501165986061096,4.171647071838379,16.85123658390404,16.461218731395245,69.11271969002091,57.13584939997557,9.71794142969884e-05,0.1157862395048141,0,0,0
5403,240959.73456698385,2011-01-27 05:50:50,1920.9513435951912,2,31,0.5499359965324402,4.175370216369629,16.855822742912377,16.461218731395245,69.1318603794221,57.13584939997557,9.70840483205393e-05,0.1157862395048141,0,0,0
5404,240989.75002516617,2011-01-27 05:51:20,1950.9668017524448,2,31,0.5499359965324402,4.179093837738037,16.860408928177325,16.461218731395245,69.15101832902252,57.13584939997557,9.71794142969884e-05,0.1157862395048141,0,0,0
5405,241019.76485371424,2011-01-27 05:51:50,1980.981630315556,2,31,0.5501165986061096,4.182979106903076,16.864995792121686,16.461218731395245,69.17019658286745,57.13584939997557,9.71794142969884e-05,0.1157862395048141,0,0,0
5406,241049.77983073733,2011-01-27 05:52:20,2010.996607318625,2,31,0.550297200679779,4.187026023864746,16.86958292329929,16.461218731395245,69.18939347619144,57.13584939997557,0.0001295089750783,0.1157862395048141,0,0,0
5407,241079.79495709765,2011-01-27 05:52:50,2041.0117336889632,2,31,0.550297200679779,4.190911293029785,16.87416986933485,16.461218731395245,69.20860729304088,57.13584939997557,0.0001295089750783,0.1157862395048141,0,0,0
5408,241109.8102328152,2011-01-27 05:53:20,2071.027009406521,2,31,0.5501165986061096,4.194796562194824,16.87875698912703,16.461218731395245,69.22783973387772,57.13584939997557,0.0001618385285837,0.1157862395048141,0,0,0
5409,241139.8273713705,2011-01-27 05:53:50,2101.0441479718684,2,31,0.5501165986061096,4.198519706726074,16.883344395287068,16.461218731395245,69.24709125085045,57.13584939997557,9.70840483205393e-05,0.1157862395048141,0,0,0
5410,241150.18467841155,2011-01-27 05:54:01,2111.401455007865,2,31,0.550297200679779,4.200138568878174,16.884927242753292,16.461218731395245,69.25373799674449,57.13584939997557,0.0001618385285837,0.1157862395048141,0,0,0
5411,241180.19553812817,2011-01-27 05:54:31,30.01518661047534,3,31,0.0,4.087466239929199,16.884927242753292,16.461218731395245,69.25373799674449,57.13584939997557,-0.0005504608270712,0.1157862395048141,0,0,0
5412,241210.21056144664,2011-01-27 05:55:01,60.03020992897684,3,31,0.0,4.0738677978515625,16.884927242753292,16.461218731395245,69.25373799674449,57.13584939997557,-0.0002914428769145,0.1157862395048141,0,0,0
5413,241240.22567856396,2011-01-27 05:55:31,90.04532704124125,3,31,0.0,4.065125942230225,16.884927242753292,16.461218731395245,69.25373799674449,57.13584939997557,-0.0001942634553415,0.1157862395048141,0,0,0
5414,241270.19393844856,2011-01-27 05:56:01,120.01358693590178,3,31,0.0,4.059136390686035,16.884927242753292,16.461218731395245,69.25373799674449,57.13584939997557,-0.0001295089750783,0.1157862395048141,0,0,0
5415,241270.2075704606,2011-01-27 05:56:01,0.015634876924026,4,31,1.0054326057434082,4.199976921081543,16.8849316093688,16.461218731395245,69.25375633642884,57.13584939997557,0.0,0.1157862395048141,0,0,0
5416,241270.80142410155,2011-01-27 05:56:02,0.609488532959067,4,31,0.954320192337036,4.199653148651123,16.885091573561184,16.461218731395245,69.25442816128756,57.13584939997557,-6.47544875391759e-05,0.1157862395048141,0,0,0
5417,241272.78563289545,2011-01-27 05:56:04,2.593697316774114,4,31,0.9039301872253418,4.199814796447754,16.885602262226556,16.461218731395245,69.25657297036362,57.13584939997557,-3.24249267578125e-05,0.1157862395048141,0,0,0
5418,241275.92644710583,2011-01-27 05:56:07,5.734511522178353,4,31,0.8537207841873169,4.199814796447754,16.886367625819943,16.461218731395245,69.25978737662301,57.13584939997557,0.0,0.1157862395048141,0,0,0
5419,241280.3639061742,2011-01-27 05:56:11,10.17197060558623,4,31,0.8033308386802673,4.199653148651123,16.887387537321395,16.461218731395245,69.26407085981663,57.13584939997557,-3.23295607813634e-05,0.1157862395048141,0,0,0
5420,241286.31665324152,2011-01-27 05:56:17,16.124717657854962,4,31,0.7533020377159119,4.199814796447754,16.888672994586926,16.461218731395245,69.26946959630735,57.13584939997557,-3.24249267578125e-05,0.1157862395048141,0,0,0
5421,241294.28533163492,2011-01-27 05:56:25,24.093396056324995,4,31,0.7030926942825317,4.199814796447754,16.89028253937359,16.461218731395245,69.27622949423093,57.13584939997557,3.23295607813634e-05,0.1157862395048141,0,0,0
5422,241305.066343584,2011-01-27 05:56:36,34.87440802538635,4,31,0.6528832912445068,4.199814796447754,16.892309138612674,16.461218731395245,69.28474095243365,57.13584939997557,3.23295607813634e-05,0.1157862395048141,0,0,0
5423,241320.65982994493,2011-01-27 05:56:51,50.46789436133132,4,31,0.6026738882064819,4.199814796447754,16.895022059114634,16.461218731395245,69.29613488457053,57.13584939997557,0.0,0.1157862395048141,0,0,0
5424,241345.7375084861,2011-01-27 05:57:16,75.5455729074771,4,31,0.5526451468467712,4.199814796447754,16.89903196291156,16.461218731395245,69.31297601654833,57.13584939997557,0.0,0.1157862395048141,0,0,0
5425,241393.09607175263,2011-01-27 05:58:04,122.9041361689904,4,31,0.5026163458824158,4.199976921081543,16.90593676386422,16.461218731395245,69.34197531732919,57.13584939997557,0.0,0.1157862395048141,0,0,0
5426,241482.09455424012,2011-01-27 05:59:33,211.90261867153524,4,31,0.4525876045227051,4.199814796447754,16.917691263594058,16.461218731395245,69.39134283836835,57.13584939997557,0.0,0.1157862395048141,0,0,0
5427,241613.01433027003,2011-01-27 06:01:44,342.8223947064222,4,31,0.402558833360672,4.199814796447754,16.933214051291,16.461218731395245,69.45653669053215,57.13584939997557,0.0,0.1157862395048141,0,0,0
5428,241778.7615515797,2011-01-27 06:04:29,508.56961600103335,4,31,0.3525300621986389,4.199653148651123,16.950579809597972,16.461218731395245,69.52947085696897,57.13584939997557,-3.23295607813634e-05,0.1157862395048141,0,0,0
5429,241977.179858783,2011-01-27 06:07:48,706.9879232043709,4,31,0.3025012910366058,4.199976921081543,16.968598447018962,16.461218731395245,69.60514656430131,57.13584939997557,6.47544875391759e-05,0.1157862395048141,0,0,0
5430,242221.55063975017,2011-01-27 06:11:52,951.3587041665382,4,31,0.2524725198745727,4.199814796447754,16.98740159295359,16.461218731395245,69.68411727475721,57.13584939997557,0.0,0.1157862395048141,0,0,0
5431,242524.0612373396,2011-01-27 06:16:55,1253.8693017659398,4,31,0.2024437636137008,4.199814796447754,17.006474075784805,16.461218731395245,69.76421933399318,57.13584939997557,0.0,0.1157862395048141,0,0,0
5432,242924.71058940163,2011-01-27 06:23:35,1654.5186538229896,4,31,0.1524149924516677,4.199653148651123,17.026150434871276,16.461218731395245,69.84685763103812,57.13584939997557,-3.23295607813634e-05,0.1157862395048141,0,0,0
5433,243501.24745923225,2011-01-27 06:33:12,2231.055523653567,4,31,0.1023862138390541,4.199814796447754,17.046345954477,16.461218731395245,69.9316764698155,57.13584939997557,0.0,0.1157862395048141,0,0,0
5434,244568.901049122,2011-01-27 06:51:00,3298.7091135333444,4,31,0.0523574464023113,4.199814796447754,17.068411894917347,16.461218731395245,70.02435081491971,57.13584939997557,-3.24249267578125e-05,0.1157862395048141,0,0,0
5435,244659.52462249104,2011-01-27 06:52:30,3389.3326869123816,4,31,0.0498289167881011,4.199814796447754,17.069709400476842,16.461218731395245,70.0298001842342,57.13584939997557,-6.47544875391759e-05,0.1157862395048141,0,0,0
5436,244689.53229852792,2011-01-27 06:53:00,30.01421879838983,5,31,0.0,4.189130783081055,17.069709400476842,16.461218731395245,70.0298001842342,57.13584939997557,-9.70840483205393e-05,0.1157862395048141,0,0,0
5437,244719.53176028223,2011-01-27 06:53:30,60.01368054767266,5,31,0.0,4.187511920928955,17.069709400476842,16.461218731395245,70.0298001842342,57.13584939997557,-3.23295607813634e-05,0.1157862395048141,0,0,0
5438,244719.7138320399,2011-01-27 06:53:31,0.187479616891329,6,31,-1.9243103452026844e-05,4.187511920928955,17.06970940417763,16.461218731395245,70.02980019973188,57.13584939997557,-6.47544875391759e-05,0.1188103631138801,0,0,0
5439,244724.54186579052,2011-01-27 06:53:36,5.015513377571794,6,31,0.0005225847125984,4.187349796295166,17.069710354183787,16.46121873156213,70.0298041779378,57.1358494006744,-6.47544875391759e-05,0.1188103631138801,0,0,0
5440,244734.3643863412,2011-01-27 06:53:45,9.827828587788028,7,31,-1.0993878841400146,3.987259149551392,17.069710354183787,16.464220223656152,70.0298041779378,57.14786158817519,-0.0021692276932299,0.1188103631138801,0,0,0
5441,244764.3795069472,2011-01-27 06:54:15,39.84294918874734,7,31,-1.099568486213684,3.921857118606568,17.069710354183787,16.473387170448127,70.0298041779378,57.18410537063279,-0.0016512393485754,0.1188103631138801,0,0,0
5442,244794.3947726598,2011-01-27 06:54:46,69.85821502668188,7,31,-1.0993878841400146,3.861797571182251,17.069710354183787,16.482554161457937,70.0298041779378,57.21977847056619,-0.0015864849556237,0.1188103631138801,0,0,0
5443,244824.4097299688,2011-01-27 06:55:16,99.87317221035504,7,31,-1.0993878841400146,3.808375358581543,17.069710354183787,16.491721075313045,70.0298041779378,57.25492825725124,-0.0013274669181555,0.1188103631138801,0,0,0
5444,244854.424839026,2011-01-27 06:55:46,129.8882812725562,7,31,-1.0992072820663452,3.7657992839813232,17.069710354183787,16.500887940892408,70.0298041779378,57.28963485333121,-0.0009389400365762,0.1188103631138801,0,0,0
5445,244884.44007954083,2011-01-27 06:56:16,159.90352181244023,7,31,-1.0997490882873535,3.7321271896362314,17.069710354183787,16.510055108184815,70.0298041779378,57.323996139319306,-0.0008094310760498,0.1188103631138801,0,0,0
5446,244914.4550419024,2011-01-27 06:56:46,189.91848416900584,7,31,-1.0997490882873535,3.705254077911377,17.069710354183787,16.519222681294096,70.0298041779378,57.35808418129226,-0.0006475448608398,0.1188103631138801,0,0,0
5447,244944.470207716,2011-01-27 06:57:16,219.93364996259916,7,31,-1.0997490882873535,3.6829137802124015,17.069710354183787,16.52839011858519,70.0298041779378,57.39194723440609,-0.0005504131549969,0.1188103631138801,0,0,0
5448,244974.4854609125,2011-01-27 06:57:46,249.94890317406453,7,31,-1.0992072820663452,3.663811445236206,17.069710354183787,16.537557186339296,70.0298041779378,57.425618473057504,-0.0004209041653666,0.1188103631138801,0,0,0
5449,245004.50047488263,2011-01-27 06:58:16,279.9639171492797,7,31,-1.0993878841400146,3.64616584777832,17.069710354183787,16.54672416599012,70.0298041779378,57.45912263974624,-0.0005180359003134,0.1188103631138801,0,0,0
5450,245034.5155409076,2011-01-27 06:58:46,309.9789831641939,7,31,-1.0992072820663452,3.630624771118164,17.069710354183787,16.55589107328167,70.0298041779378,57.49247460491711,-0.0004209041653666,0.1188103631138801,0,0,0
5451,245064.5309816715,2011-01-27 06:59:16,339.99442391306025,7,31,-1.099568486213684,3.615731239318848,17.069710354183787,16.565058159716788,70.0298041779378,57.52568763108112,-0.0004209041653666,0.1188103631138801,0,0,0
5452,245094.54577124745,2011-01-27 06:59:46,370.0092134940159,7,31,-1.099568486213684,3.601970911026001,17.069710354183787,16.574225064085265,70.0298041779378,57.55876997736448,-0.0003561496851034,0.1188103631138801,0,0,0
5453,245124.5610182785,2011-01-27 07:00:16,400.0244605451279,7,31,-1.099568486213684,3.589020252227783,17.069710354183787,16.58339208434302,70.0298041779378,57.591730013643705,-0.0003561496851034,0.1188103631138801,0,0,0
5454,245154.57599162747,2011-01-27 07:00:46,430.0394338740399,7,31,-1.099568486213684,3.5763931274414062,17.069710354183787,16.592558995074068,70.0298041779378,57.62457313306724,-0.0003885269106831,0.1188103631138801,0,0,0
5455,245184.59109612327,2011-01-27 07:01:16,460.05453836484776,7,31,-1.099568486213684,3.564899206161499,17.069710354183787,16.601726001315626,70.0298041779378,57.65730654993919,-0.0003237724304199,0.1188103631138801,0,0,0
5456,245214.60629023745,2011-01-27 07:01:46,490.06973249406207,7,31,-1.0993878841400146,3.553729057312012,17.069710354183787,16.61089275155518,70.0298041779378,57.6899342935922,-0.0002913951757363,0.1188103631138801,0,0,0
5457,245244.62130869887,2011-01-27 07:02:16,520.0847509404207,7,31,-1.0993878841400146,3.5430445671081543,17.069710354183787,16.620058994015732,70.0298041779378,57.7224591597089,-0.0002590179501567,0.1188103631138801,0,0,0
5458,245274.63640605687,2011-01-27 07:02:46,550.099848293439,7,31,-1.0993878841400146,3.532521963119507,17.069710354183787,16.62922531389323,70.0298041779378,57.75488693245233,-0.0002590179501567,0.1188103631138801,0,0,0
5459,245304.6515174349,2011-01-27 07:03:16,580.1149596764243,7,31,-1.099568486213684,3.5224850177764893,17.069710354183787,16.63839169205537,70.0298041779378,57.787221332531495,-0.0002590179501567,0.1188103631138801,0,0,0
5460,245334.6665912893,2011-01-27 07:03:46,610.1300335258645,7,31,-1.099568486213684,3.5129337310791016,17.069710354183787,16.647558253793413,70.0298041779378,57.81946688686265,-0.0002590179501567,0.1188103631138801,0,0,0
5461,245364.681763514,2011-01-27 07:04:16,640.1452057454734,7,31,-1.099568486213684,3.503868341445923,17.069710354183787,16.65672533285286,70.0298041779378,57.85162850449466,-0.0002266406954731,0.1188103631138801,0,0,0
5462,245394.69706518616,2011-01-27 07:04:46,670.1605074578179,7,31,-1.0993878841400146,3.494964599609375,17.069710354183787,16.665892443351538,70.0298041779378,57.88370772169656,-0.0002266406954731,0.1188103631138801,0,0,0
5463,245424.71198177867,2011-01-27 07:05:16,700.1754240403004,7,31,-1.0993878841400146,3.486384630203247,17.069710354183787,16.675059466521294,70.0298041779378,57.91570628790879,-0.0001942634553415,0.1188103631138801,0,0,0
5464,245454.72708147755,2011-01-27 07:05:46,730.1905237141028,7,31,-1.0993878841400146,3.477966547012329,17.069710354183787,16.684226546326126,70.0298041779378,57.94762752451146,-0.0002266406954731,0.1188103631138801,0,0,0
5465,245484.74220081035,2011-01-27 07:06:16,760.2056430719639,7,31,-1.0993878841400146,3.470034122467041,17.069710354183787,16.69339359793444,70.0298041779378,57.97947339308629,-0.0002266406954731,0.1188103631138801,0,0,0
5466,245514.7573026696,2011-01-27 07:06:46,790.2207449061507,7,31,-1.099568486213684,3.462101697921753,17.069710354183787,16.702560667072497,70.0298041779378,58.01124719285172,-0.0002266406954731,0.1188103631138801,0,0,0
5467,245544.77277267136,2011-01-27 07:07:16,820.2362150382492,7,31,-1.099568486213684,3.454331159591675,17.069710354183787,16.711727852892643,70.0298041779378,58.042949820233744,-0.0002266406954731,0.1188103631138801,0,0,0
5468,245574.78752948067,2011-01-27 07:07:46,850.2509717272278,7,31,-1.0993878841400146,3.4465606212615967,17.069710354183787,16.720894771619975,70.0298041779378,58.07458012337735,-0.0002266406954731,0.1188103631138801,0,0,0
5469,245604.8026629637,2011-01-27 07:08:16,880.2661052253308,7,31,-1.0997490882873535,3.4386281967163086,17.069710354183787,16.730061888947308,70.0298041779378,58.1061385931706,-0.0002266406954731,0.1188103631138801,0,0,0
5470,245634.8180243097,2011-01-27 07:08:46,910.2814665813256,7,31,-1.099568486213684,3.4306960105896,17.069710354183787,16.739229045550243,70.0298041779378,58.137625315256216,-0.0002265930233988,0.1188103631138801,0,0,0
5471,245664.8329535036,2011-01-27 07:09:16,940.296395745165,7,31,-1.099568486213684,3.4230873584747314,17.069710354183787,16.748396131839726,70.0298041779378,58.16904000890374,-0.0001942634553415,0.1188103631138801,0,0,0
5472,245694.84800280185,2011-01-27 07:09:46,970.311445063466,7,31,-1.0993878841400146,3.415154933929444,17.069710354183787,16.757563273559832,70.0298041779378,58.20038309360492,-0.0001942634553415,0.1188103631138801,0,0,0
5473,245724.86309322252,2011-01-27 07:10:16,1000.3265354691692,7,31,-1.0992072820663452,3.4070606231689453,17.069710354183787,16.766730413339594,70.0298041779378,58.23165177947241,-0.0001618862152099,0.1188103631138801,0,0,0
5474,245754.87827432435,2011-01-27 07:10:46,1030.3417165859528,7,31,-1.0993878841400146,3.3984806537628174,17.069710354183787,16.775897562304042,70.0298041779378,58.26284477573176,-0.0002266406954731,0.1188103631138801,0,0,0
5475,245784.89343016816,2011-01-27 07:11:16,1060.356872419723,7,31,-1.0993878841400146,3.3900625705718994,17.069710354183787,16.785064633995972,70.0298041779378,58.29395984572064,-0.0002266406954731,0.1188103631138801,0,0,0
5476,245814.908412284,2011-01-27 07:11:46,1090.3718545204972,7,31,-1.099568486213684,3.380835056304932,17.069710354183787,16.794231650950284,70.0298041779378,58.32499418459715,-0.0002266406954731,0.1188103631138801,0,0,0
5477,245844.9237021568,2011-01-27 07:12:16,1120.3871444133842,7,31,-1.0993878841400146,3.371445655822754,17.069710354183787,16.803398847026752,70.0298041779378,58.35594355419784,-0.0002590179501567,0.1188103631138801,0,0,0
5478,245874.9386295713,2011-01-27 07:12:46,1150.4020718178383,7,31,-1.0997490882873535,3.3614087104797363,17.069710354183787,16.81256593407414,70.0298041779378,58.38680347681024,-0.0002266406954731,0.1188103631138801,0,0,0
5479,245904.9540355384,2011-01-27 07:13:16,1180.4174777900307,7,31,-1.0993878841400146,3.350886344909668,17.069710354183787,16.821733121215058,70.0298041779378,58.41756983296008,-0.0002589702489785,0.1188103631138801,0,0,0
5480,245934.96900620573,2011-01-27 07:13:46,1210.4324484623214,7,31,-1.0993878841400146,3.3393924236297607,17.069710354183787,16.830900277181478,70.0298041779378,58.44823525556719,-0.0002913951757363,0.1188103631138801,0,0,0
5481,245964.98398740427,2011-01-27 07:14:16,1240.447429670872,7,31,-1.099568486213684,3.3275747299194336,17.069710354183787,16.840067413366906,70.0298041779378,58.478794426016826,-0.0003237724304199,0.1188103631138801,0,0,0
5482,245994.99918340813,2011-01-27 07:14:46,1270.4626257549585,7,31,-1.0993878841400146,3.3146238327026367,17.069710354183787,16.849234552236638,70.0298041779378,58.50924086351189,-0.0003885269106831,0.1188103631138801,0,0,0
5483,246025.0144313715,2011-01-27 07:15:16,1300.4778736331318,7,31,-1.099568486213684,3.301025390625,17.069710354183787,16.858401659232218,70.0298041779378,58.539564528142094,-0.0003561496851034,0.1188103631138801,0,0,0
5484,246055.02932020987,2011-01-27 07:15:46,1330.49276245643,7,31,-1.099568486213684,3.286131858825684,17.069710354183787,16.867568653383184,70.0298041779378,58.56975897481784,-0.0004532813909463,0.1188103631138801,0,0,0
5485,246085.04455011824,2011-01-27 07:16:16,1360.5079923497794,7,31,-1.099568486213684,3.2697815895080566,17.069710354183787,16.8767358739918,70.0298041779378,58.599810550711744,-0.0004856109735555,0.1188103631138801,0,0,0
5486,246115.0594867056,2011-01-27 07:16:46,1390.5229289671952,7,31,-1.099568486213684,3.251164674758911,17.069710354183787,16.88590365502519,70.0298041779378,58.629702984148,-0.0005180359003134,0.1188103631138801,0,0,0
5487,246145.0745641991,2011-01-27 07:17:16,1420.538006435655,7,31,-1.0993878841400146,3.230119466781616,17.069710354183787,16.895071349883366,70.0298041779378,58.65941315364547,-0.0005827903514727,0.1188103631138801,0,0,0
5488,246175.08972251907,2011-01-27 07:17:46,1450.5531647506093,7,31,-1.0997490882873535,3.205836534500122,17.069710354183787,16.90423901812442,70.0298041779378,58.68891633769497,-0.0007122993702068,0.1188103631138801,0,0,0
5489,246205.1048524583,2011-01-27 07:18:16,1480.5682947199173,7,31,-1.099568486213684,3.177344799041748,17.069710354183787,16.913406871797985,70.0298041779378,58.718179002386165,-0.0007770538213662,0.1188103631138801,0,0,0
5490,246235.1221423959,2011-01-27 07:18:46,1510.5855846625436,7,31,-1.099568486213684,3.1427011489868164,17.069710354183787,16.922575272737625,70.0298041779378,58.747155536795695,-0.0010036944877356,0.1188103631138801,0,0,0
5491,246265.13509029683,2011-01-27 07:19:16,1540.5985325484282,7,31,-1.0997490882873535,3.099639654159546,17.069710354183787,16.931742405102632,70.0298041779378,58.77577631920556,-0.0013274669181555,0.1188103631138801,0,0,0
5492,246295.15017519385,2011-01-27 07:19:46,1570.61361744039,7,31,-1.099568486213684,3.0437889099121094,17.069710354183787,16.94090948791787,70.0298041779378,58.80394861823871,-0.0016836166614666,0.1188103631138801,0,0,0
5493,246325.1654486407,2011-01-27 07:20:16,1600.6288909173634,7,31,-1.0993878841400146,2.966245651245117,17.069710354183787,16.95007663508038,70.0298041779378,58.83151440171762,-0.0023311614058911,0.1188103631138801,0,0,0
5494,246355.18039454627,2011-01-27 07:20:46,1630.6438368129027,7,31,-1.099568486213684,2.8548684120178223,17.069710354183787,16.95924359458701,70.0298041779378,58.85822632571397,-0.0034643174149096,0.1188103631138801,0,0,0
5495,246385.1486430776,2011-01-27 07:21:16,1660.6120853141676,7,31,-1.099568486213684,2.699943780899048,17.069710354183787,16.968396323034057,70.0298041779378,58.883679265439774,-0.0045651434920728,0.1188103631138801,0,0,0
5496,246445.17310686063,2011-01-27 07:22:16,60.01695876299393,8,31,0.0,3.675790786743164,17.069710354183787,16.968396323034057,70.0298041779378,58.883679265439774,0.001068401383236,0.1188103631138801,0,0,0
5497,246445.36678499085,2011-01-27 07:22:17,0.187497270890527,9,31,-1.9243103452026844e-05,3.675952672958374,17.069710354183787,16.968396324036288,70.0298041779378,58.88367926912392,0.0,0.1149765476584434,0,0,0
5498,246450.1948003457,2011-01-27 07:22:22,5.0155126206854,9,31,0.0008838032954372,3.6825900077819824,17.06971127065918,16.968396324120008,70.02980755034498,58.88367926943168,0.0009389400365762,0.1149765476584434,0,0,0
