Data_Point,Test_Time(s),Date_Time,Step_Time(s),Step_Index,Cycle_Index,Current(A),Voltage(V),Charge_Capacity(Ah),Discharge_Capacity(Ah),Charge_Energy(Wh),Discharge_Energy(Wh),dV/dt(V/s),Internal_Resistance(Ohm),Is_FC_Data,AC_Impedance(Ohm),ACI_Phase_Angle(Deg)
392,17231.526644232865,2011-01-24 15:41:28,30.014795560859373,1,3,0.0,3.664944648742676,1.215045700725303,1.199333217900191,4.973918107844601,4.201379248004714,0.0007446765666827,0.1086953729391098,0,0,0
393,17261.54176234262,2011-01-24 15:41:58,60.029913760834695,1,3,0.0,3.6858277320861816,1.215045700725303,1.199333217900191,4.973918107844601,4.201379248004714,0.0004209041653666,0.1086953729391098,0,0,0
394,17291.55702970435,2011-01-24 15:42:28,90.04518103234214,1,3,0.0,3.700235605239868,1.215045700725303,1.199333217900191,4.973918107844601,4.201379248004714,0.0002590179501567,0.1086953729391098,0,0,0
395,17321.525264762106,2011-01-24 15:42:58,120.01341612017644,1,3,0.0,3.7109200954437256,1.215045700725303,1.199333217900191,4.973918107844601,4.201379248004714,0.0002590179501567,0.1086953729391098,0,0,0
396,17351.543543846907,2011-01-24 15:43:28,30.017277847481417,2,3,0.5499359965324402,3.829744338989258,1.219632611441218,1.199333217900191,4.991404356974483,4.201379248004714,0.0006475448608398,0.1086953729391098,0,0,0
397,17381.556374696098,2011-01-24 15:43:58,60.03010856634998,2,3,0.5497553944587708,3.849170446395874,1.224218015070394,1.199333217900191,5.00901401448443,4.201379248004714,0.0004209041653666,0.1086953729391098,0,0,0
398,17411.571496294542,2011-01-24 15:44:28,90.04523017482032,2,3,0.5501165986061096,3.862768888473511,1.228803766573732,1.199333217900191,5.026697676259516,4.201379248004714,0.0003237724304199,0.1086953729391098,0,0,0
399,17441.58662533153,2011-01-24 15:44:58,120.06035922684228,2,3,0.5501165986061096,3.873615264892578,1.233389440184419,1.199333217900191,5.044435799244591,4.201379248004714,0.0002913951757363,0.1086953729391098,0,0,0
400,17471.601632434613,2011-01-24 15:45:28,150.0753663249175,2,3,0.5501165986061096,3.882680892944336,1.237975124144877,1.199333217900191,5.062219634027159,4.201379248004714,0.0002266406954731,0.1086953729391098,0,0,0
401,17501.616813586486,2011-01-24 15:45:58,180.09054746175082,2,3,0.5501165986061096,3.891260862350464,1.242561643068434,1.199333217900191,5.080047296901132,4.201379248004714,0.0002590179501567,0.1086953729391098,0,0,0
402,17531.631918899344,2011-01-24 15:46:28,210.10565277460748,2,3,0.5499359965324402,3.898545742034912,1.247148156950086,1.199333217900191,5.097911581271999,4.201379248004714,0.0001618862152099,0.1086953729391098,0,0,0
403,17561.64707126447,2011-01-24 15:46:58,240.12080513973288,2,3,0.5501165986061096,3.90583062171936,1.251734716978501,1.199333217900191,5.115809833623462,4.201379248004714,0.0001942634553415,0.1086953729391098,0,0,0
404,17591.662206922956,2011-01-24 15:47:28,270.1359407982202,2,3,0.550297200679779,3.9126298427581783,1.256321280796929,1.199333217900191,5.133740023722854,4.201379248004714,0.0001942634553415,0.1086953729391098,0,0,0
405,17621.67725045684,2011-01-24 15:47:58,300.15098432709215,2,3,0.5501165986061096,3.918943166732788,1.260907763441943,1.199333217900191,5.151699825397583,4.201379248004714,0.0001618862152099,0.1086953729391098,0,0,0
406,17651.694572735058,2011-01-24 15:48:28,330.16830680079585,2,3,0.5501165986061096,3.925094842910767,1.265494601135745,1.199333217900191,5.169689732466597,4.201379248004714,0.0001618862152099,0.1086953729391098,0,0,0
407,17681.707501403045,2011-01-24 15:48:58,360.1812352732965,2,3,0.5501165986061096,3.931084632873535,1.270080724013924,1.199333217900191,5.187704337578039,4.201379248004714,0.0001618862152099,0.1086953729391098,0,0,0
408,17711.722585367694,2011-01-24 15:49:28,390.19631923794685,2,3,0.5501165986061096,3.936750650405884,1.274667232367091,1.199333217900191,5.205747010281506,4.201379248004714,0.0001618862152099,0.1086953729391098,0,0,0
409,17741.737695477503,2011-01-24 15:49:58,420.2114293477591,2,3,0.5501165986061096,3.942092895507813,1.279253795114767,1.199333217900191,5.223815416758701,4.201379248004714,0.0001618862152099,0.1086953729391098,0,0,0
410,17771.752837692336,2011-01-24 15:50:28,450.22657156258674,2,3,0.5501165986061096,3.9472732543945312,1.283840303084094,1.199333217900191,5.241907953117559,4.201379248004714,0.0001295089750783,0.1086953729391098,0,0,0
411,17801.768062728577,2011-01-24 15:50:58,480.2417966088559,2,3,0.5501165986061096,3.95212984085083,1.288426824001565,1.199333217900191,5.26002364887365,4.201379248004714,9.713172767078504e-05,0.1086953729391098,0,0,0
412,17831.7830265137,2011-01-24 15:51:29,510.256760383957,2,3,0.550297200679779,3.956986427307129,1.293013368056577,1.199333217900191,5.278161630779986,4.201379248004714,0.0001295089750783,0.1086953729391098,0,0,0
413,17861.798141605934,2011-01-24 15:51:59,540.2718754761869,2,3,0.550297200679779,3.9616811275482178,1.297599949638298,1.199333217900191,5.296320939841314,4.201379248004714,0.0001618862152099,0.1086953729391098,0,0,0
414,17891.813305865704,2011-01-24 15:52:29,570.2870397560073,2,3,0.5499359965324402,3.965566396713257,1.302186446650458,1.199333217900191,5.314500136264599,4.201379248004714,6.47544875391759e-05,0.1086953729391098,0,0,0
415,17921.82839042684,2011-01-24 15:52:59,600.3021242970943,2,3,0.5501165986061096,3.969937324523926,1.306773008831251,1.199333217900191,5.332698975851065,4.201379248004714,9.713172767078504e-05,0.1086953729391098,0,0,0
416,17951.843628655966,2011-01-24 15:53:29,630.3173626314815,2,3,0.550297200679779,3.9741463661193848,1.311359613035322,1.199333217900191,5.35091664711697,4.201379248004714,0.0001295089750783,0.1086953729391098,0,0,0
417,17981.858607097623,2011-01-24 15:53:59,660.3323409778988,2,3,0.5501165986061096,3.977869749069214,1.315946210547932,1.199333217900191,5.369152347806891,4.201379248004714,0.0001295089750783,0.1086953729391098,0,0,0
418,18011.873691307883,2011-01-24 15:54:29,690.3474251981863,2,3,0.5499359965324402,3.981593132019043,1.320532708674693,1.199333217900191,5.387404937794626,4.201379248004714,0.0001295089750783,0.1086953729391098,0,0,0
419,18041.888818665684,2011-01-24 15:54:59,720.3625525509732,2,3,0.5499359965324402,3.984992742538452,1.325119196897168,1.199333217900191,5.405674660974085,4.201379248004714,6.47544875391759e-05,0.1086953729391098,0,0,0
420,18071.903912149057,2011-01-24 15:55:29,750.3776460343471,2,3,0.5501165986061096,3.988716125488281,1.329705688602754,1.199333217900191,5.423960801222153,4.201379248004714,0.0001295089750783,0.1086953729391098,0,0,0
421,18101.919278011283,2011-01-24 15:55:59,780.3930118815355,2,3,0.5501165986061096,3.992277622222901,1.334292129886921,1.199333217900191,5.442262838221735,4.201379248004714,0.0001295089750783,0.1086953729391098,0,0,0
422,18131.934137807235,2011-01-24 15:56:29,810.4078716875136,2,3,0.5501165986061096,3.995515108108521,1.338878522210152,1.199333217900191,5.460580523463896,4.201379248004714,6.47544875391759e-05,0.1086953729391098,0,0,0
423,18161.949460842727,2011-01-24 15:56:59,840.4231947480644,2,3,0.5497553944587708,3.9989147186279297,1.343465041435947,1.199333217900191,5.478914391232027,4.201379248004714,9.713172767078504e-05,0.1086953729391098,0,0,0
424,18191.96444917904,2011-01-24 15:57:29,870.4381830593171,2,3,0.5501165986061096,4.002476215362549,1.348051439085737,1.199333217900191,5.497263278248664,4.201379248004714,9.70840483205393e-05,0.1086953729391098,0,0,0
425,18221.97946710911,2011-01-24 15:57:59,900.4532009944016,2,3,0.5499359965324402,4.005713939666748,1.352637904085194,1.199333217900191,5.515627718131515,4.201379248004714,9.70840483205393e-05,0.1086953729391098,0,0,0
426,18251.994592286475,2011-01-24 15:58:29,930.4683261817912,2,3,0.5499359965324402,4.008627891540527,1.357224312854445,1.199333217900191,5.534006941702938,4.201379248004714,3.23295607813634e-05,0.1086953729391098,0,0,0
427,18282.00969836123,2011-01-24 15:58:59,960.4834322415096,2,3,0.5499359965324402,4.012027740478516,1.361810694984993,1.199333217900191,5.552400760827682,4.201379248004714,9.71794142969884e-05,0.1086953729391098,0,0,0
428,18312.02479293232,2011-01-24 15:59:29,990.4985268176068,2,3,0.5501165986061096,4.015265464782715,1.3663970937989,1.199333217900191,5.570809354952199,4.201379248004714,6.47544875391759e-05,0.1086953729391098,0,0,0
429,18342.03990479149,2011-01-24 15:59:59,1020.5136386717666,2,3,0.550297200679779,4.018503189086914,1.37098357351825,1.199333217900191,5.589232885464771,4.201379248004714,6.47544875391759e-05,0.1086953729391098,0,0,0
430,18372.055383038813,2011-01-24 16:00:29,1050.5291170393905,2,3,0.5499359965324402,4.021740913391113,1.375570070772071,1.199333217900191,5.607670825158788,4.201379248004714,9.71794142969884e-05,0.1086953729391098,0,0,0
431,18402.0701760834,2011-01-24 16:00:59,1080.5439099636787,2,3,0.550297200679779,4.024816513061523,1.380156522438053,1.199333217900191,5.626122954509698,4.201379248004714,9.70840483205393e-05,0.1086953729391098,0,0,0
432,18432.085256900205,2011-01-24 16:01:29,1110.5589907905087,2,3,0.5499359965324402,4.027730464935303,1.384742997559801,1.199333217900191,5.644589326275854,4.201379248004714,6.47544875391759e-05,0.1086953729391098,0,0,0
433,18462.100693568904,2011-01-24 16:01:59,1140.5744276246182,2,3,0.5499359965324402,4.030806541442871,1.389329464470275,1.199333217900191,5.663069722295617,4.201379248004714,6.47544875391759e-05,0.1086953729391098,0,0,0
434,18492.115463185102,2011-01-24 16:02:29,1170.5891970653784,2,3,0.550297200679779,4.033882141113281,1.393915843927426,1.199333217900191,5.681563694358906,4.201379248004714,6.47544875391759e-05,0.1086953729391098,0,0,0
435,18522.130582888825,2011-01-24 16:02:59,1200.6043167691014,2,3,0.5499359965324402,4.0367960929870605,1.398502307537589,1.199333217900191,5.700071805137754,4.201379248004714,9.71794142969884e-05,0.1086953729391098,0,0,0
436,18552.145687740533,2011-01-24 16:03:29,1230.619421620809,2,3,0.5499359965324402,4.03971004486084,1.403088893019522,1.199333217900191,5.718594223843805,4.201379248004714,0.0,0.1086953729391098,0,0,0
437,18582.160909684066,2011-01-24 16:03:59,1260.6346435693574,2,3,0.5499359965324402,4.04278564453125,1.407675363054624,1.199333217900191,5.73712977863022,4.201379248004714,6.47544875391759e-05,0.1086953729391098,0,0,0
438,18612.175912977666,2011-01-24 16:04:29,1290.6496468679632,2,3,0.550297200679779,4.045861721038818,1.412261769142641,1.199333217900191,5.755678752064232,4.201379248004714,6.47544875391759e-05,0.1086953729391098,0,0,0
439,18642.191141236937,2011-01-24 16:04:59,1320.6648751222276,2,3,0.5499359965324402,4.048775672912598,1.416848319148341,1.199333217900191,5.774242004117423,4.201379248004714,6.47544875391759e-05,0.1086953729391098,0,0,0
440,18672.206107798986,2011-01-24 16:05:29,1350.6798416792622,2,3,0.5501165986061096,4.051689624786377,1.421434785830271,1.199333217900191,5.792818484019548,4.201379248004714,6.47544875391759e-05,0.1086953729391098,0,0,0
441,18702.221240109127,2011-01-24 16:05:59,1380.6949739894042,2,3,0.550297200679779,4.054765224456787,1.426021337037606,1.199333217900191,5.811408830955108,4.201379248004714,9.70840483205393e-05,0.1086953729391098,0,0,0
442,18732.236335472186,2011-01-24 16:06:29,1410.7100693574755,2,3,0.5499359965324402,4.057841300964356,1.430607832816936,1.199333217900191,5.830012469882898,4.201379248004714,9.71794142969884e-05,0.1086953729391098,0,0,0
443,18762.251569731416,2011-01-24 16:06:59,1440.7253036317436,2,3,0.550297200679779,4.060593128204346,1.435194416859709,1.199333217900191,5.848630045559376,4.201379248004714,3.23295607813634e-05,0.1086953729391098,0,0,0
444,18792.26660805732,2011-01-24 16:07:29,1470.740341962661,2,3,0.5501165986061096,4.063507080078125,1.439780849292621,1.199333217900191,5.867260145582342,4.201379248004714,6.47544875391759e-05,0.1086953729391098,0,0,0
445,18822.281961954726,2011-01-24 16:07:59,1500.7556958400166,2,3,0.5501165986061096,4.066583156585693,1.444367283516383,1.199333217900191,5.885903956914699,4.201379248004714,9.71794142969884e-05,0.1086953729391098,0,0,0
446,18852.29680148517,2011-01-24 16:08:29,1530.7705353654492,2,3,0.550297200679779,4.069497108459473,1.448953716387601,1.199333217900191,5.904561494230191,4.201379248004714,6.47544875391759e-05,0.1086953729391098,0,0,0
447,18882.31195888284,2011-01-24 16:08:59,1560.7856927631174,2,3,0.550297200679779,4.072411060333252,1.453540375844132,1.199333217900191,5.923233551951725,4.201379248004714,3.24249267578125e-05,0.1086953729391098,0,0,0
448,18912.32701819104,2011-01-24 16:09:29,1590.8007520963788,2,3,0.5501165986061096,4.075162887573242,1.458127529378145,1.199333217900191,5.941921357085698,4.201379248004714,6.47544875391759e-05,0.1086953729391098,0,0,0
449,18942.34252430281,2011-01-24 16:09:59,1620.8162581880997,2,3,0.550297200679779,4.078400611877441,1.462714766954561,1.199333217900191,5.960623023687433,4.201379248004714,6.47544875391759e-05,0.1086953729391098,0,0,0
450,18972.357242881804,2011-01-24 16:10:29,1650.8309767670964,2,3,0.5501165986061096,4.081314563751221,1.467301943773365,1.199333217900191,5.979338001561577,4.201379248004714,9.70840483205393e-05,0.1086953729391098,0,0,0
451,19002.37244501096,2011-01-24 16:10:59,1680.846178906274,2,3,0.5501165986061096,4.084228515625,1.471888958466003,1.199333217900191,5.998065804870758,4.201379248004714,6.47544875391759e-05,0.1086953729391098,0,0,0
452,19032.387482033613,2011-01-24 16:11:29,1710.8612160191556,2,3,0.5501165986061096,4.087304592132568,1.476475403085107,1.199333217900191,6.016805203190438,4.201379248004714,6.47544875391759e-05,0.1086953729391098,0,0,0
453,19062.402720292816,2011-01-24 16:11:59,1740.8764541680805,2,3,0.5501165986061096,4.0903801918029785,1.481061781162945,1.199333217900191,6.035558165858132,4.201379248004714,9.70840483205393e-05,0.1086953729391098,0,0,0
454,19092.41797998042,2011-01-24 16:12:29,1770.8917138657114,2,3,0.5499359965324402,4.093294143676758,1.485648245168308,1.199333217900191,6.054325524498371,4.201379248004714,3.23295607813634e-05,0.1086953729391098,0,0,0
455,19122.43303170472,2011-01-24 16:12:59,1800.9067655849965,2,3,0.5501165986061096,4.096531867980957,1.490234620177894,1.199333217900191,6.073106474121308,4.201379248004714,9.70840483205393e-05,0.1086953729391098,0,0,0
456,19152.447932693336,2011-01-24 16:13:29,1830.9216665686013,2,3,0.550297200679779,4.099607944488525,1.494820968929534,1.199333217900191,6.091901503451211,4.201379248004714,9.71794142969884e-05,0.1086953729391098,0,0,0
457,19182.463022282005,2011-01-24 16:13:59,1860.936756187344,2,3,0.5501165986061096,4.102683544158936,1.499407349383274,1.199333217900191,6.110710848531084,4.201379248004714,9.70840483205393e-05,0.1086953729391098,0,0,0
458,19212.47812654725,2011-01-24 16:14:29,1890.9518604225143,2,3,0.550297200679779,4.105921268463135,1.503993695318502,1.199333217900191,6.129534381005786,4.201379248004714,9.70840483205393e-05,0.1086953729391098,0,0,0
459,19242.493261273416,2011-01-24 16:14:59,1920.9669951787528,2,3,0.5499359965324402,4.108997344970703,1.508580004255508,1.199333217900191,6.148372164382089,4.201379248004714,6.47544875391759e-05,0.1086953729391098,0,0,0
460,19272.511098510065,2011-01-24 16:15:29,1950.9848324755544,2,3,0.5501165986061096,4.112235069274902,1.513166734285805,1.199333217900191,6.167226322017318,4.201379248004714,6.47544875391759e-05,0.1086953729391098,0,0,0
461,19302.523471292618,2011-01-24 16:15:59,1980.9972051728923,2,3,0.5501165986061096,4.115148544311523,1.517752694136771,1.199333217900191,6.186091849294637,4.201379248004714,3.23295607813634e-05,0.1086953729391098,0,0,0
462,19332.538573492715,2011-01-24 16:16:29,2011.0123073980533,2,3,0.5501165986061096,4.118548393249512,1.522339096898556,1.199333217900191,6.204974014740711,4.201379248004714,6.47544875391759e-05,0.1086953729391098,0,0,0
463,19362.553703051,2011-01-24 16:16:59,2041.0274369513247,2,3,0.5501165986061096,4.121786117553711,1.526925479501742,1.199333217900191,6.223870910668496,4.201379248004714,3.24249267578125e-05,0.1086953729391098,0,0,0
464,19392.56886811777,2011-01-24 16:17:29,2071.042601993044,2,3,0.5501165986061096,4.125185489654541,1.531511920659539,1.199333217900191,6.242782966167721,4.201379248004714,9.70840483205393e-05,0.1086953729391098,0,0,0
465,19422.5839206541,2011-01-24 16:17:59,2101.0576545594404,2,3,0.550297200679779,4.12842321395874,1.536098320696409,1.199333217900191,6.261709968659345,4.201379248004714,9.70840483205393e-05,0.1086953729391098,0,0,0
466,19452.599038282653,2011-01-24 16:18:29,2131.0727721779667,2,3,0.5499359965324402,4.13166093826294,1.540684706482704,1.199333217900191,6.280652145305048,4.201379248004714,9.70840483205393e-05,0.1086953729391098,0,0,0
467,19482.61413374596,2011-01-24 16:18:59,2161.087867621225,2,3,0.5499359965324402,4.135060787200928,1.545271182454375,1.199333217900191,6.299609956993209,4.201379248004714,9.71794142969884e-05,0.1086953729391098,0,0,0
468,19512.6292248885,2011-01-24 16:19:29,2191.102958788827,2,3,0.550297200679779,4.138460159301758,1.549857558273348,1.199333217900191,6.318582738111025,4.201379248004714,9.70840483205393e-05,0.1086953729391098,0,0,0
469,19542.64434994055,2011-01-24 16:19:59,2221.118083850906,2,3,0.5501165986061096,4.141860008239746,1.554443993967428,1.199333217900191,6.33757121843681,4.201379248004714,9.71794142969884e-05,0.1086953729391098,0,0,0
470,19572.661705336308,2011-01-24 16:20:29,2251.135439387011,2,3,0.5501165986061096,4.145421504974365,1.559030748186286,1.199333217900191,6.356576687734737,4.201379248004714,9.71794142969884e-05,0.1086953729391098,0,0,0
471,19602.67458414002,2011-01-24 16:20:59,2281.1483180202968,2,3,0.5501165986061096,4.1486592292785645,1.563616797285153,1.199333217900191,6.375595250618642,4.201379248004714,3.24249267578125e-05,0.1086953729391098,0,0,0
472,19632.689676009373,2011-01-24 16:21:29,2311.1634098846357,2,3,0.5501165986061096,4.152382373809815,1.568203191030866,1.199333217900191,6.394631134183488,4.201379248004714,0.0001295089750783,0.1086953729391098,0,0,0
473,19662.704800159176,2011-01-24 16:21:59,2341.178534059502,2,3,0.5499359965324402,4.155782222747803,1.572789604952597,1.199333217900191,6.413683119988349,4.201379248004714,0.0001295089750783,0.1086953729391098,0,0,0
474,19692.71989026413,2011-01-24 16:22:29,2371.1936241494186,2,3,0.550297200679779,4.159181594848633,1.57737598034731,1.199333217900191,6.432751063903129,4.201379248004714,9.70840483205393e-05,0.1086953729391098,0,0,0
475,19722.735139209963,2011-01-24 16:22:59,2401.2088730952523,2,3,0.5499359965324402,4.162743091583252,1.581962299382066,1.199333217900191,6.45183501357136,4.201379248004714,6.47544875391759e-05,0.1086953729391098,0,0,0
476,19752.75011502507,2011-01-24 16:23:30,2431.2238488852986,2,3,0.5501165986061096,4.16646671295166,1.586548657441475,1.199333217900191,6.470935443693718,4.201379248004714,9.71794142969884e-05,0.1086953729391098,0,0,0
477,19782.76535240207,2011-01-24 16:24:00,2461.2390862773373,2,3,0.5501165986061096,4.170028209686279,1.591135044061092,1.199333217900191,6.490052456796464,4.201379248004714,9.71794142969884e-05,0.1086953729391098,0,0,0
478,19812.780457960544,2011-01-24 16:24:30,2491.254191835806,2,3,0.5501165986061096,4.173589706420898,1.595721343529711,1.199333217900191,6.509185692225572,4.201379248004714,9.71794142969884e-05,0.1086953729391098,0,0,0
479,19842.79546452729,2011-01-24 16:25:00,2521.269198432632,2,3,0.5499359965324402,4.177312850952148,1.600307705923618,1.199333217900191,6.528335997977212,4.201379248004714,9.70840483205393e-05,0.1086953729391098,0,0,0
480,19872.81065780939,2011-01-24 16:25:30,2551.284391674636,2,3,0.5499359965324402,4.181036472320557,1.604894141184618,1.199333217900191,6.547503611693962,4.201379248004714,9.71794142969884e-05,0.1086953729391098,0,0,0
481,19902.82610616221,2011-01-24 16:26:00,2581.299840157778,2,3,0.5501165986061096,4.184759616851807,1.60948061864534,1.199333217900191,6.56668845071769,4.201379248004714,9.70840483205393e-05,0.1086953729391098,0,0,0
482,19932.84077178924,2011-01-24 16:26:30,2611.3145056745275,2,3,0.5501165986061096,4.188644886016846,1.614066906152779,1.199333217900191,6.58588958797202,4.201379248004714,0.0001295089750783,0.1086953729391098,0,0,0
483,19962.855878731152,2011-01-24 16:27:00,2641.329612626469,2,3,0.5501165986061096,4.192530155181885,1.618653195693526,1.199333217900191,6.605108111115029,4.201379248004714,0.0001618385285837,0.1086953729391098,0,0,0
484,19992.87102875043,2011-01-24 16:27:30,2671.344762640736,2,3,0.5501165986061096,4.196091651916504,1.623239516613466,1.199333217900191,6.624344241721589,4.201379248004714,6.47544875391759e-05,0.1086953729391098,0,0,0
485,20022.511095832622,2011-01-24 16:27:59,2700.9848297479875,2,3,0.5501165986061096,4.200138568878174,1.627768470768481,1.199333217900191,6.643356941789884,4.201379248004714,0.0001618385285837,0.1086953729391098,0,0,0
486,20052.52676423633,2011-01-24 16:28:29,30.015107814090506,3,3,0.0,4.091189861297607,1.627768470768481,1.199333217900191,6.643356941789884,4.201379248004714,-0.0004532813909463,0.1086953729391098,0,0,0
487,20082.544084840378,2011-01-24 16:28:59,60.032428508359295,3,3,0.0,4.077429294586182,1.627768470768481,1.199333217900191,6.643356941789884,4.201379248004714,-0.0002590179501567,0.1086953729391098,0,0,0
488,20112.55702956839,2011-01-24 16:29:29,90.04537312609888,3,3,0.0,4.068687438964844,1.627768470768481,1.199333217900191,6.643356941789884,4.201379248004714,-0.0001619339018361,0.1086953729391098,0,0,0
489,20142.52547086516,2011-01-24 16:29:59,120.01381451309418,3,3,0.0,4.062697887420654,1.627768470768481,1.199333217900191,6.643356941789884,4.201379248004714,-9.70840483205393e-05,0.1086953729391098,0,0,0
490,20142.525903563088,2011-01-24 16:30:00,2.837070854e-06,4,3,1.0265638828277588,4.199814796447754,1.62776847157749,1.199333217900191,6.643356945187574,4.201379248004714,0.0,0.1086953729391098,0,0,0
491,20142.963289338026,2011-01-24 16:30:00,0.437388657114655,4,3,0.9752708673477172,4.199653148651123,1.627888734262725,1.199333217900191,6.643862029984211,4.201379248004714,-3.23295607813634e-05,0.1086953729391098,0,0,0
492,20144.697698278767,2011-01-24 16:30:02,2.171797668034178,4,3,0.9247002601623536,4.199814796447754,1.628345150998391,1.199333217900191,6.645778896703591,4.201379248004714,0.0,0.1086953729391098,0,0,0
493,20147.51010422474,2011-01-24 16:30:05,4.984203543832321,4,3,0.8744908571243286,4.199653148651123,1.629046789518828,1.199333217900191,6.648725650000895,4.201379248004714,0.0,0.1086953729391098,0,0,0
494,20151.44767329342,2011-01-24 16:30:08,8.921772597473703,4,3,0.8242815136909485,4.199653148651123,1.629974602305367,1.199333217900191,6.652622315426922,4.201379248004714,-3.23295607813634e-05,0.1086953729391098,0,0,0
495,20156.760075489277,2011-01-24 16:30:14,14.234174803356057,4,3,0.7740721106529236,4.199814796447754,1.63115239288897,1.199333217900191,6.65756887065846,4.201379248004714,-3.24249267578125e-05,0.1086953729391098,0,0,0
496,20163.697445404683,2011-01-24 16:30:21,21.17154470873562,4,3,0.7236821055412292,4.199814796447754,1.632593423092855,1.199333217900191,6.663620993963456,4.201379248004714,3.23295607813634e-05,0.1086953729391098,0,0,0
497,20172.947330940555,2011-01-24 16:30:30,30.42143023458465,4,3,0.6736533641815186,4.199814796447754,1.634385433532503,1.199333217900191,6.671147173863232,4.201379248004714,0.0,0.1086953729391098,0,0,0
498,20185.71255410444,2011-01-24 16:30:43,43.1866534235325,4,3,0.6236245632171631,4.199814796447754,1.636680385231436,1.199333217900191,6.680785638903537,4.201379248004714,0.0,0.1086953729391098,0,0,0
499,20205.103001425457,2011-01-24 16:31:02,62.57710080971035,4,3,0.5735958218574524,4.199976921081543,1.639894888939773,1.199333217900191,6.694286110132254,4.201379248004714,3.24249267578125e-05,0.1086953729391098,0,0,0
500,20238.89914197151,2011-01-24 16:31:36,96.3732412906012,4,3,0.5235670208930969,4.199814796447754,1.645021538629812,1.199333217900191,6.715817324358385,4.201379248004714,-3.24249267578125e-05,0.1086953729391098,0,0,0
501,20305.72613574715,2011-01-24 16:32:43,163.20023504117955,4,3,0.4735382795333862,4.199814796447754,1.654228769220233,1.199333217900191,6.754486397165624,4.201379248004714,-3.24249267578125e-05,0.1086953729391098,0,0,0
502,20418.193362847385,2011-01-24 16:34:35,275.667462141414,4,3,0.4235095083713531,4.199814796447754,1.66820578846329,1.199333217900191,6.813187853700552,4.201379248004714,3.23295607813634e-05,0.1086953729391098,0,0,0
503,20564.95604289882,2011-01-24 16:37:02,422.4301421928498,4,3,0.37348073720932,4.199814796447754,1.684429441482142,1.199333217900191,6.881324873357505,4.201379248004714,0.0,0.1086953729391098,0,0,0
504,20741.65626123721,2011-01-24 16:39:59,599.130360551297,4,3,0.323451966047287,4.199814796447754,1.701515109595434,1.199333217900191,6.953082286530329,4.201379248004714,0.0,0.1086953729391098,0,0,0
505,20957.933682507923,2011-01-24 16:43:35,815.4077818320275,4,3,0.2734231948852539,4.199814796447754,1.719424893932254,1.199333217900191,7.028300865072445,4.201379248004714,0.0,0.1086953729391098,0,0,0
506,21225.49162315654,2011-01-24 16:48:03,1082.9657224555815,4,3,0.223394438624382,4.199814796447754,1.73784007377622,1.199333217900191,7.105641800117086,4.201379248004714,0.0,0.1086953729391098,0,0,0
507,21571.079525143028,2011-01-24 16:53:48,1428.5536244571083,4,3,0.1733656674623489,4.199653148651123,1.756817570393452,1.199333217900191,7.185344560106707,4.201379248004714,-6.47544875391759e-05,0.1086953729391098,0,0,0
508,22053.540020431672,2011-01-24 17:01:51,1911.0141197658008,4,3,0.1233368963003158,4.199814796447754,1.776549896046401,1.199333217900191,7.268217480715088,4.201379248004714,0.0,0.1086953729391098,0,0,0
509,22833.026503303983,2011-01-24 17:14:50,2690.500602623076,4,3,0.0733081251382827,4.199814796447754,1.797384743668799,1.199333217900191,7.355720860937539,4.201379248004714,-3.24249267578125e-05,0.1086953729391098,0,0,0
510,23481.421648817803,2011-01-24 17:25:39,3338.8957481318826,4,3,0.0498289167881011,4.199653148651123,1.808409790479356,1.199333217900191,7.402024446357171,4.201379248004714,-3.23295607813634e-05,0.1086953729391098,0,0,0
511,23511.43819997841,2011-01-24 17:26:09,30.015242294256456,5,3,0.0,4.189454555511475,1.808409790479356,1.199333217900191,7.402024446357171,4.201379248004714,-6.47544875391759e-05,0.1086953729391098,0,0,0
512,23541.43767585791,2011-01-24 17:26:39,60.01471815370616,5,3,0.0,4.187835693359375,1.808409790479356,1.199333217900191,7.402024446357171,4.201379248004714,-6.47544875391759e-05,0.1086953729391098,0,0,0
513,23541.625450360683,2011-01-24 17:26:39,0.18750282473241,6,3,-1.9243103452026844e-05,4.187835693359375,1.808409790479356,1.199333218902451,7.402024446357171,4.201379252202015,0.0,0.1140638068318367,0,0,0
514,23546.45372035012,2011-01-24 17:26:44,5.015772814167618,6,3,0.0005225847125984,4.187673568725586,1.80841036229391,1.199333219068837,7.402026841085492,4.2013792528988,-9.71794142969884e-05,0.1140638068318367,0,0,0
515,23559.85992523533,2011-01-24 17:26:57,13.40595364138314,7,3,-1.0997490882873535,3.987582921981812,1.80841036229391,1.203428086222818,7.402026841085492,4.217780519620953,-0.0018778324592858,0.1140638068318367,0,0,0
516,23589.875104327068,2011-01-24 17:27:27,43.42113275316944,7,3,-1.0993878841400146,3.929789543151856,1.80841036229391,1.212596135569096,7.402026841085492,4.254065580467608,-0.0014569759368896,0.1140638068318367,0,0,0
517,23619.890147555187,2011-01-24 17:27:57,73.43617595121688,7,3,-1.0993878841400146,3.881547689437866,1.80841036229391,1.221763372818239,7.402026841085492,4.289863289186534,-0.0011655807029455,0.1140638068318367,0,0,0
518,23649.90525567003,2011-01-24 17:28:27,103.45128406605694,7,3,-1.099568486213684,3.841561794281006,1.80841036229391,1.23093064290899,7.402026841085492,4.325256629291176,-0.0009713172912597,0.1140638068318367,0,0,0
519,23679.920452626287,2011-01-24 17:28:57,133.46648102231717,7,3,-1.099568486213684,3.810156106948853,1.80841036229391,1.240097938747023,7.402026841085492,4.360324493017424,-0.0007770538213662,0.1140638068318367,0,0,0
520,23709.93550292704,2011-01-24 17:29:27,163.48153132306672,7,3,-1.099568486213684,3.784901857376098,1.80841036229391,1.249265157159364,7.402026841085492,4.395134218499012,-0.0006475448608398,0.1140638068318367,0,0,0
521,23739.950703246683,2011-01-24 17:29:57,193.496731647722,7,3,-1.099568486213684,3.763856649398804,1.80841036229391,1.25843247099517,7.402026841085492,4.429733714684605,-0.0005180359003134,0.1140638068318367,0,0,0
522,23769.96569427972,2011-01-24 17:30:27,223.5117226757457,7,3,-1.0997490882873535,3.7454018592834473,1.80841036229391,1.267599718798074,7.402026841085492,4.464152022530247,-0.0004532813909463,0.1140638068318367,0,0,0
523,23799.983137479307,2011-01-24 17:30:57,253.52916587032297,7,3,-1.099568486213684,3.7288894653320312,1.80841036229391,1.276767730804721,7.402026841085492,4.498413019210822,-0.0004209041653666,0.1140638068318367,0,0,0
524,23829.99596826835,2011-01-24 17:31:27,283.5419966744039,7,3,-1.0993878841400146,3.713672161102295,1.80841036229391,1.285934328135334,7.402026841085492,4.532524762976495,-0.0003885269106831,0.1140638068318367,0,0,0
525,23860.01115291393,2011-01-24 17:31:57,313.5571813149696,7,3,-1.099568486213684,3.699588060379028,1.80841036229391,1.29510168418425,7.402026841085492,4.56650548343823,-0.0003885269106831,0.1140638068318367,0,0,0
526,23890.02614971133,2011-01-24 17:32:27,343.5721781324223,7,3,-1.0993878841400146,3.686313390731812,1.80841036229391,1.304268956283802,7.402026841085492,4.600359876757086,-0.0003237724304199,0.1140638068318367,0,0,0
527,23920.04124766084,2011-01-24 17:32:57,373.5872760618773,7,3,-1.099568486213684,3.673362493515015,1.80841036229391,1.313436281290098,7.402026841085492,4.634094056829939,-0.0003561496851034,0.1140638068318367,0,0,0
528,23950.05637150488,2011-01-24 17:33:27,403.6023999009069,7,3,-1.099568486213684,3.6610593795776367,1.80841036229391,1.322603578589918,7.402026841085492,4.667712839591437,-0.0003885269106831,0.1140638068318367,0,0,0
529,23980.07146362987,2011-01-24 17:33:58,433.6174920359203,7,3,-1.099568486213684,3.6489179134368896,1.80841036229391,1.331770855775118,7.402026841085492,4.701220121150951,-0.0003561496851034,0.1140638068318367,0,0,0
530,24010.08669561844,2011-01-24 17:34:28,463.63272401947927,7,3,-1.099568486213684,3.637585878372192,1.80841036229391,1.340938168591031,7.402026841085492,4.734619842270656,-0.0003237724304199,0.1140638068318367,0,0,0
531,24040.1016858996,2011-01-24 17:34:58,493.6477142956291,7,3,-1.099568486213684,3.626577615737915,1.80841036229391,1.35010536162899,7.402026841085492,4.767915597581748,-0.0002590179501567,0.1140638068318367,0,0,0
532,24070.116811873955,2011-01-24 17:35:28,523.6628402699805,7,3,-1.0992072820663452,3.6155693531036377,1.80841036229391,1.359272646335471,7.402026841085492,4.801110472005519,-0.0002913951757363,0.1140638068318367,0,0,0
533,24100.13192458525,2011-01-24 17:35:58,553.6779530013264,7,3,-1.099568486213684,3.60488486289978,1.80841036229391,1.368439918062489,7.402026841085492,4.834206692492789,-0.0002913951757363,0.1140638068318367,0,0,0
534,24130.14701263508,2011-01-24 17:36:28,583.6930410461457,7,3,-1.0993878841400146,3.5946860313415527,1.80841036229391,1.377607193844986,7.402026841085492,4.867206684928469,-0.0002590179501567,0.1140638068318367,0,0,0
535,24160.162142328703,2011-01-24 17:36:58,613.7081707548043,7,3,-1.099568486213684,3.5846493244171143,1.80841036229391,1.386774433879534,7.402026841085492,4.900113857538699,-0.0002913951757363,0.1140638068318367,0,0,0
536,24190.17737200651,2011-01-24 17:37:28,643.7234004426417,7,3,-1.099568486213684,3.574774265289306,1.80841036229391,1.395941697250763,7.402026841085492,4.932930941981327,-0.0002590179501567,0.1140638068318367,0,0,0
537,24220.192337520948,2011-01-24 17:37:58,673.7383659520651,7,3,-1.0997490882873535,3.565384864807129,1.80841036229391,1.405108888782071,7.402026841085492,4.965658991459911,-0.0002266406954731,0.1140638068318367,0,0,0
538,24250.20768746851,2011-01-24 17:38:28,703.7537158645392,7,3,-1.099568486213684,3.556319236755371,1.80841036229391,1.414276234346771,7.402026841085492,4.998302167898634,-0.0002590179501567,0.1140638068318367,0,0,0
539,24280.22256195107,2011-01-24 17:38:58,733.7685903470958,7,3,-1.099568486213684,3.5472536087036133,1.80841036229391,1.423443385913487,7.402026841085492,5.030862047462751,-0.0002266406954731,0.1140638068318367,0,0,0
540,24310.23790094132,2011-01-24 17:39:28,763.7839293624108,7,3,-1.0993878841400146,3.5388355255126958,1.80841036229391,1.432610754760888,7.402026841085492,5.063341989838578,-0.0002266406954731,0.1140638068318367,0,0,0
541,24340.2527773988,2011-01-24 17:39:58,793.7988057948271,7,3,-1.0997490882873535,3.5300936698913574,1.80841036229391,1.44177796709421,7.402026841085492,5.095744008057378,-0.0002913951757363,0.1140638068318367,0,0,0
542,24370.2679733275,2011-01-24 17:40:28,823.8140018087387,7,3,-1.0993878841400146,3.5223231315612797,1.80841036229391,1.450945299859464,7.402026841085492,5.128070571003458,-0.0001942634553415,0.1140638068318367,0,0,0
543,24400.28303942261,2011-01-24 17:40:58,853.8290678286653,7,3,-1.0993878841400146,3.514552593231201,1.80841036229391,1.460112560500978,7.402026841085492,5.160324224733444,-0.0002266406954731,0.1140638068318367,0,0,0
544,24430.29825392761,2011-01-24 17:41:28,883.8442823236372,7,3,-1.099568486213684,3.506782293319702,1.80841036229391,1.469279882441547,7.402026841085492,5.19250719023453,-0.0002266406954731,0.1140638068318367,0,0,0
545,24460.313215797963,2011-01-24 17:41:58,913.8592441939912,7,3,-1.0993878841400146,3.499335527420044,1.80841036229391,1.478447145206333,7.402026841085492,5.224620631256452,-0.0002266406954731,0.1140638068318367,0,0,0
546,24490.32845123513,2011-01-24 17:42:28,943.8744796311576,7,3,-1.0993878841400146,3.4922125339508057,1.80841036229391,1.487614514681345,7.402026841085492,5.256667220239392,-0.0001942634553415,0.1140638068318367,0,0,0
547,24520.34358356031,2011-01-24 17:42:58,973.8896119663624,7,3,-1.099568486213684,3.4852514266967773,1.80841036229391,1.496781868635869,7.402026841085492,5.288649062330004,-0.0001618862152099,0.1140638068318367,0,0,0
548,24550.358627124268,2011-01-24 17:43:28,1003.9046555503718,7,3,-1.0993878841400146,3.478452205657959,1.80841036229391,1.505949160838148,7.402026841085492,5.320567693161286,-0.0001618862152099,0.1140638068318367,0,0,0
549,24580.373783569565,2011-01-24 17:43:58,1033.9198119706036,7,3,-1.0993878841400146,3.4714910984039307,1.80841036229391,1.515116417157444,7.402026841085492,5.352423253186706,-0.0001618862152099,0.1140638068318367,0,0,0
550,24610.38889203528,2011-01-24 17:44:28,1063.9349204363182,7,3,-1.099568486213684,3.4646918773651123,1.80841036229391,1.524283955114407,7.402026841085492,5.38421643154197,-0.0001618862152099,0.1140638068318367,0,0,0
551,24640.403849875587,2011-01-24 17:44:58,1093.9498782916653,7,3,-1.099568486213684,3.457892656326294,1.80841036229391,1.53345196454203,7.402026841085492,5.415949534403772,-0.0001942634553415,0.1140638068318367,0,0,0
552,24670.418965589368,2011-01-24 17:45:28,1123.9649939904068,7,3,-1.0997490882873535,3.451255321502685,1.80841036229391,1.542620042302604,7.402026841085492,5.447622087344288,-0.0001942634553415,0.1140638068318367,0,0,0
553,24700.434127297776,2011-01-24 17:45:58,1153.980155683781,7,3,-1.099568486213684,3.444779872894287,1.80841036229391,1.551788111095777,7.402026841085492,5.479234135217084,-0.0001942634553415,0.1140638068318367,0,0,0
554,24730.44923153295,2011-01-24 17:46:28,1183.9952599440142,7,3,-1.0993878841400146,3.4379806518554688,1.80841036229391,1.560955925105273,7.402026841085492,5.510783552354124,-0.0001942634553415,0.1140638068318367,0,0,0
555,24760.46433347741,2011-01-24 17:46:58,1214.0103618634134,7,3,-1.099568486213684,3.4310197830200195,1.80841036229391,1.570123212798582,7.402026841085492,5.542268983719773,-0.0001942157687153,0.1140638068318367,0,0,0
556,24790.479558944728,2011-01-24 17:47:28,1244.025587380857,7,3,-1.0993878841400146,3.424220561981201,1.80841036229391,1.579290613406799,7.402026841085492,5.573691037388554,-0.0001942634553415,0.1140638068318367,0,0,0
557,24820.49455903533,2011-01-24 17:47:58,1274.0405874213425,7,3,-1.0993878841400146,3.416935682296753,1.80841036229391,1.588457924345312,7.402026841085492,5.605047134925531,-0.0001942634553415,0.1140638068318367,0,0,0
558,24850.50981720917,2011-01-24 17:48:28,1304.0558455951757,7,3,-1.099568486213684,3.4093270301818848,1.80841036229391,1.597625347795593,7.402026841085492,5.636336965392639,-0.0001942634553415,0.1140638068318367,0,0,0
559,24880.524770488115,2011-01-24 17:48:58,1334.0707988741167,7,3,-1.0993878841400146,3.401556491851806,1.80841036229391,1.606792596696374,7.402026841085492,5.667556065550188,-0.0002266406954731,0.1140638068318367,0,0,0
560,24910.53988991615,2011-01-24 17:49:28,1364.085918302153,7,3,-1.0993878841400146,3.393300294876098,1.80841036229391,1.615959860901193,7.402026841085492,5.698701669726399,-0.0002590179501567,0.1140638068318367,0,0,0
561,24940.555008251464,2011-01-24 17:49:58,1394.101036662528,7,3,-1.099568486213684,3.3848822116851807,1.80841036229391,1.625127203490375,7.402026841085492,5.72977104010936,-0.0001942634553415,0.1140638068318367,0,0,0
562,24970.57021969884,2011-01-24 17:50:28,1424.1162480898547,7,3,-1.0997490882873535,3.375492811203003,1.80841036229391,1.634294570232626,7.402026841085492,5.760758306224798,-0.0002266406954731,0.1140638068318367,0,0,0
563,25000.585214270697,2011-01-24 17:50:58,1454.1312427419105,7,3,-1.0993878841400146,3.3659415245056152,1.80841036229391,1.643461916210156,7.402026841085492,5.791657514998575,-0.0001942634553415,0.1140638068318367,0,0,0
564,25030.600336034557,2011-01-24 17:51:28,1484.1463644255684,7,3,-1.0997490882873535,3.355257034301758,1.80841036229391,1.652629314331052,7.402026841085492,5.822463786761646,-0.0002590179501567,0.1140638068318367,0,0,0
565,25060.615421452825,2011-01-24 17:51:58,1514.1614498438416,7,3,-1.0997490882873535,3.34392523765564,1.80841036229391,1.661796621615188,7.402026841085492,5.853170779453941,-0.0003237724304199,0.1140638068318367,0,0,0
566,25090.63082191629,2011-01-24 17:52:28,1544.1768503073044,7,3,-1.0993878841400146,3.3317837715148926,1.80841036229391,1.670964039796145,7.402026841085492,5.883770505973975,-0.0003237724304199,0.1140638068318367,0,0,0
567,25120.645644324057,2011-01-24 17:52:58,1574.191672710062,7,3,-1.0993878841400146,3.318185329437256,1.80841036229391,1.680131317563055,7.402026841085492,5.914251951512031,-0.0003561496851034,0.1140638068318367,0,0,0
568,25150.660997434505,2011-01-24 17:53:28,1604.2070258305314,7,3,-1.099568486213684,3.303129911422729,1.80841036229391,1.689298606144865,7.402026841085492,5.944602750146979,-0.0004209041653666,0.1140638068318367,0,0,0
569,25180.67585569663,2011-01-24 17:53:58,1634.2218840826367,7,3,-1.099568486213684,3.2864556312561035,1.80841036229391,1.69846581691706,7.402026841085492,5.974808173581018,-0.0004532813909463,0.1140638068318367,0,0,0
570,25210.691220721776,2011-01-24 17:54:28,1664.2372491127887,7,3,-1.0997490882873535,3.267515182495117,1.80841036229391,1.707633136768235,7.402026841085492,6.004852835807007,-0.0005180359003134,0.1140638068318367,0,0,0
571,25240.70629196472,2011-01-24 17:54:58,1694.2523203707703,7,3,-1.099568486213684,3.2453367710113525,1.80841036229391,1.716800431632172,7.402026841085492,6.034707836744696,-0.0006475448608398,0.1140638068318367,0,0,0
572,25270.72121020132,2011-01-24 17:55:28,1724.267238592338,7,3,-1.0993878841400146,3.218949317932129,1.80841036229391,1.725967667750667,7.402026841085492,6.064342095612477,-0.0007446765666827,0.1140638068318367,0,0,0
573,25300.736415568543,2011-01-24 17:55:58,1754.2824439695858,7,3,-1.099568486213684,3.185924768447876,1.80841036229391,1.735134995338837,7.402026841085492,6.093706469550932,-0.001003646873869,0.1140638068318367,0,0,0
574,25330.75138484736,2011-01-24 17:56:28,1784.2974132484037,7,3,-1.099568486213684,3.143510580062866,1.80841036229391,1.744302263853615,7.402026841085492,6.122726176873673,-0.0012303352123126,0.1140638068318367,0,0,0
575,25360.766519017143,2011-01-24 17:56:58,1814.3125474181809,7,3,-1.099568486213684,3.0878219604492188,1.80841036229391,1.753469551952297,7.402026841085492,6.151300671158356,-0.0016836166614666,0.1140638068318367,0,0,0
576,25390.78173581785,2011-01-24 17:57:28,1844.3277642439616,7,3,-1.0993878841400146,3.0112500190734863,1.80841036229391,1.762636890288998,7.402026841085492,6.179277104782638,-0.0024282932281494,0.1140638068318367,0,0,0
577,25420.798947199688,2011-01-24 17:57:58,1874.344975600728,7,3,-1.099568486213684,2.8993868827819824,1.80841036229391,1.771804838559824,7.402026841085492,6.20640369176761,-0.0034967423416674,0.1140638068318367,0,0,0
578,25450.81183614367,2011-01-24 17:58:28,1904.3578645447112,7,3,-1.0993878841400146,2.73588228225708,1.80841036229391,1.780971490306461,7.402026841085492,6.232276758884596,-0.0050508501008152,0.1140638068318367,0,0,0
579,25456.29609382628,2011-01-24 17:58:34,1909.8421222273205,7,3,-1.0993878841400146,2.699943780899048,1.80841036229391,1.782646509175688,7.402026841085492,6.236829702931417,-0.0053098201751708,0.1140638068318367,0,0,0
580,25516.31080563196,2011-01-24 17:59:34,60.01461934745057,8,3,0.0,3.629005908966065,1.80841036229391,1.782646509175688,7.402026841085492,6.236829702931417,0.0013922214275225,0.1140638068318367,0,0,0
581,25516.499764488115,2011-01-24 17:59:34,0.187867648986705,9,3,-1.9243103452026844e-05,3.629005908966065,1.80841036229391,1.782646510179898,7.402026841085492,6.236829706575702,0.0,0.1109280735254287,0,0,0
582,25521.32754351392,2011-01-24 17:59:39,5.015646689826954,9,3,0.0005225847125984,3.637262105941773,1.808411223699577,1.782646510344924,7.402029971307048,6.236829707174582,0.0011655807029455,0.1109280735254287,0,0,0
