Data_Point,Test_Time(s),Date_Time,Step_Time(s),Step_Index,Cycle_Index,Current(A),Voltage(V),Charge_Capacity(Ah),Discharge_Capacity(Ah),Charge_Energy(Wh),Discharge_Energy(Wh),dV/dt(V/s),Internal_Resistance(Ohm),Is_FC_Data,AC_Impedance(Ohm),ACI_Phase_Angle(Deg)
8737,295751.9467027757,2010-09-25 01:57:16,30.015378532567837,1,27,0.0,3.3774354457855225,25.817725608786784,25.84500790073937,102.90058109282953,94.46309149107653,0.0008094310760498,0.0874469503760337,0,0,0
8738,295781.9620810677,2010-09-25 01:57:46,60.03075682453509,1,27,0.0,3.404794216156006,25.817725608786784,25.84500790073937,102.90058109282953,94.46309149107653,0.0006151676061563,0.0874469503760337,0,0,0
8739,295811.9774746328,2010-09-25 01:58:16,90.04615038962642,1,27,0.0,3.425353765487671,25.817725608786784,25.84500790073937,102.90058109282953,94.46309149107653,0.0005180359003134,0.0874469503760337,0,0,0
8740,295841.94596235367,2010-09-25 01:58:46,120.01463812053936,1,27,0.0,3.441380262374878,25.817725608786784,25.84500790073937,102.90058109282953,94.46309149107653,0.0004209041653666,0.0874469503760337,0,0,0
8741,295871.96572081366,2010-09-25 01:59:16,30.01534979082401,2,27,0.5501165986061096,3.585296869277954,25.82231257206501,25.84500790073937,102.9168688719068,94.46309149107653,0.0014893531333655,0.0874469503760337,0,0,0
8742,295901.98112067947,2010-09-25 01:59:46,60.03074957143022,2,27,0.5499359965324402,3.631919860839844,25.82689955294224,25.84500790073937,102.93342827391972,94.46309149107653,0.0010684489971026,0.0874469503760337,0,0,0
8743,295931.9964808161,2010-09-25 02:00:16,90.04610968802896,2,27,0.550297200679779,3.6660778522491455,25.831486467315703,25.84500790073937,102.95016911239564,94.46309149107653,0.0008741855854168,0.0874469503760337,0,0,0
8744,295962.0119949572,2010-09-25 02:00:46,120.06162382408397,2,27,0.550297200679779,3.69278883934021,25.83607335599304,25.84500790073937,102.96704765543387,94.46309149107653,0.0006799221155233,0.0874469503760337,0,0,0
8745,295992.0272376657,2010-09-25 02:01:16,150.0768665376266,2,27,0.5499359965324402,3.714319705963135,25.84066021046158,25.84500790073937,102.984036775273,94.46309149107653,0.0005180359003134,0.0874469503760337,0,0,0
8746,296022.04261489003,2010-09-25 02:01:46,180.0922437519038,2,27,0.5501165986061096,3.73228907585144,25.845247074843357,25.84500790073937,103.00111678760648,94.46309149107653,0.0004532813909463,0.0874469503760337,0,0,0
8747,296052.0579964802,2010-09-25 02:02:16,210.10762534711645,2,27,0.5501165986061096,3.746373176574707,25.849833970948517,25.84500790073937,103.0182704817454,94.46309149107653,0.0002913951757363,0.0874469503760337,0,0,0
8748,296082.0735909869,2010-09-25 02:02:46,240.12321987885144,2,27,0.5501165986061096,3.755924224853516,25.854420874007836,25.84500790073937,103.03547851825476,94.46309149107653,0.0002266406954731,0.0874469503760337,0,0,0
8749,296112.08891698334,2010-09-25 02:03:16,270.1385458552309,2,27,0.5501165986061096,3.761266469955444,25.85900775446301,25.84500790073937,103.05271920552678,94.46309149107653,9.713172767078504e-05,0.0874469503760337,0,0,0
8750,296142.1042628644,2010-09-25 02:03:46,300.1538918315333,2,27,0.550297200679779,3.764827966690064,25.86359462747875,25.84500790073937,103.0699798114662,94.46309149107653,9.713172767078504e-05,0.0874469503760337,0,0,0
8751,296172.1195058185,2010-09-25 02:04:16,330.1691346854263,2,27,0.550297200679779,3.7682275772094727,25.868181425973138,25.84500790073937,103.08725595249597,94.46309149107653,9.713172767078504e-05,0.0874469503760337,0,0,0
8752,296202.1349073485,2010-09-25 02:04:46,360.184536310637,2,27,0.5501165986061096,3.771303415298462,25.87276832495081,25.84500790073937,103.10454723572884,94.46309149107653,9.713172767078504e-05,0.0874469503760337,0,0,0
8753,296232.1502721518,2010-09-25 02:05:16,390.19990101368415,2,27,0.5501165986061096,3.774541139602661,25.87735519667492,25.84500790073937,103.12185306507894,94.46309149107653,6.47544875391759e-05,0.0874469503760337,0,0,0
8754,296262.16564178217,2010-09-25 02:05:46,420.2152706690932,2,27,0.550297200679779,3.7776169776916495,25.88194208200729,25.84500790073937,103.13917337799924,94.46309149107653,6.47544875391759e-05,0.0874469503760337,0,0,0
8755,296292.1810218085,2010-09-25 02:06:16,450.2306506703271,2,27,0.5501165986061096,3.78069281578064,25.886528977434008,25.84500790073937,103.15650799979376,94.46309149107653,6.47544875391759e-05,0.0874469503760337,0,0,0
8756,296322.1964315088,2010-09-25 02:06:46,480.2460603907446,2,27,0.5501165986061096,3.783768653869629,25.891115933174465,25.84500790073937,103.17385682383356,94.46309149107653,6.47544875391759e-05,0.0874469503760337,0,0,0
8757,296352.211788257,2010-09-25 02:07:16,510.2614171188852,2,27,0.5501165986061096,3.786682605743408,25.895702885012057,25.84500790073937,103.19121941964627,94.46309149107653,9.713172767078504e-05,0.0874469503760337,0,0,0
8758,296382.2271671605,2010-09-25 02:07:46,540.2767960324039,2,27,0.550297200679779,3.789596557617188,25.90028987400095,25.84500790073937,103.2085957689242,94.46309149107653,9.713172767078504e-05,0.0874469503760337,0,0,0
8759,296412.24289454886,2010-09-25 02:08:16,570.2925234207695,2,27,0.5501165986061096,3.792348623275757,25.904876929152,25.84500790073937,103.2259857760464,94.46309149107653,3.237724376958795e-05,0.0874469503760337,0,0,0
8760,296442.257957208,2010-09-25 02:08:46,600.3075860698436,2,27,0.550297200679779,3.795586347579956,25.909463915618662,25.84500790073937,103.24338885928076,94.46309149107653,9.713172767078504e-05,0.0874469503760337,0,0,0
8761,296472.2733605425,2010-09-25 02:09:16,630.3229894143458,2,27,0.550297200679779,3.798338413238525,25.91405090186329,25.84500790073937,103.26080521603882,94.46309149107653,6.47544875391759e-05,0.0874469503760337,0,0,0
8762,296502.28869352135,2010-09-25 02:09:46,660.3383223831796,2,27,0.5501165986061096,3.8012523651123047,25.918637891961005,25.84500790073937,103.27823494698832,94.46309149107653,6.47544875391759e-05,0.0874469503760337,0,0,0
8763,296532.30408868537,2010-09-25 02:10:16,690.3537175673123,2,27,0.550297200679779,3.804166316986084,25.923224985309204,25.84500790073937,103.29567845598268,94.46309149107653,6.47544875391759e-05,0.0874469503760337,0,0,0
8764,296562.3194661503,2010-09-25 02:10:46,720.3690950121651,2,27,0.550297200679779,3.807242155075073,25.92781209252404,25.84500790073937,103.31313572909792,94.46309149107653,6.47544875391759e-05,0.0874469503760337,0,0,0
8765,296592.3348376804,2010-09-25 02:11:16,750.3844665422534,2,27,0.5499359965324402,3.8103179931640634,25.93239872594832,25.84500790073937,103.33060519518855,94.46309149107653,6.47544875391759e-05,0.0874469503760337,0,0,0
8766,296622.3502321427,2010-09-25 02:11:46,780.3998610045845,2,27,0.5501165986061096,3.813717603683472,25.936984800882968,25.84500790073937,103.34808701672432,94.46309149107653,9.713172767078504e-05,0.0874469503760337,0,0,0
8767,296652.3657302337,2010-09-25 02:12:16,810.4153591958388,2,27,0.5501165986061096,3.816955327987671,25.94157090416238,25.84500790073937,103.36558425857288,94.46309149107653,6.47544875391759e-05,0.0874469503760337,0,0,0
8768,296682.38099022035,2010-09-25 02:12:46,840.4306190822476,2,27,0.5501165986061096,3.82035493850708,25.946157006256453,25.84500790073937,103.38309691162256,94.46309149107653,9.713172767078504e-05,0.0874469503760337,0,0,0
8769,296712.396353535,2010-09-25 02:13:16,870.4459823968291,2,27,0.5501165986061096,3.823754549026489,25.950743572610342,25.84500790073937,103.40062717624222,94.46309149107653,6.47544875391759e-05,0.0874469503760337,0,0,0
8770,296742.41175581684,2010-09-25 02:13:46,900.4613846786788,2,27,0.5501165986061096,3.827316045761109,25.95533065818356,25.84500790073937,103.41817535461809,94.46309149107653,9.713172767078504e-05,0.0874469503760337,0,0,0
8771,296772.4271156276,2010-09-25 02:14:16,930.4767444945268,2,27,0.550297200679779,3.8307156562805176,25.959917593596447,25.84500790073937,103.43573864292031,94.46309149107653,9.713172767078504e-05,0.0874469503760337,0,0,0
8772,296802.4425110223,2010-09-25 02:14:46,960.4921398941974,2,27,0.550297200679779,3.8339531421661377,25.96450455380182,25.84500790073937,103.45331755190162,94.46309149107653,6.47544875391759e-05,0.0874469503760337,0,0,0
8773,296832.45790690824,2010-09-25 02:15:16,990.5075357700568,2,27,0.5501165986061096,3.837352752685547,25.969091483007286,25.84500790073937,103.47091160324212,94.46309149107653,9.713172767078504e-05,0.0874469503760337,0,0,0
8774,296862.4732846588,2010-09-25 02:15:46,1020.5229135256852,2,27,0.550297200679779,3.840428590774536,25.973678457983905,25.84500790073937,103.48852076118422,94.46309149107653,6.47544875391759e-05,0.0874469503760337,0,0,0
8775,296892.48863957246,2010-09-25 02:16:16,1050.538268434284,2,27,0.550297200679779,3.843828201293945,25.978265433461463,25.84500790073937,103.50614453107794,94.46309149107653,9.713172767078504e-05,0.0874469503760337,0,0,0
8776,296922.50403699715,2010-09-25 02:16:46,1080.5536658590097,2,27,0.5501165986061096,3.8467421531677246,25.982852419296087,25.84500790073937,103.52378264740923,94.46309149107653,3.237724376958795e-05,0.0874469503760337,0,0,0
8777,296952.51942343946,2010-09-25 02:17:16,1110.5690523113465,2,27,0.550297200679779,3.849817991256714,25.98743938861352,25.84500790073937,103.5414346534614,94.46309149107653,9.713172767078504e-05,0.0874469503760337,0,0,0
8778,296982.53478283423,2010-09-25 02:17:46,1140.5844116961182,2,27,0.5501165986061096,3.852731943130493,25.992026397687624,25.84500790073937,103.55910043350588,94.46309149107653,6.47544875391759e-05,0.0874469503760337,0,0,0
8779,297012.5501603142,2010-09-25 02:18:16,1170.5997891760587,2,27,0.5501165986061096,3.855645895004273,25.99661333704029,25.84500790073937,103.57677891201529,94.46309149107653,9.713172767078504e-05,0.0874469503760337,0,0,0
8780,297042.565556571,2010-09-25 02:18:46,1200.615185442894,2,27,0.5501165986061096,3.858074188232422,26.001200304312228,25.84500790073937,103.59447007877417,94.46309149107653,3.237724376958795e-05,0.0874469503760337,0,0,0
8781,297072.5809266725,2010-09-25 02:19:16,1230.6305555343918,2,27,0.550297200679779,3.860826253890991,26.005787283699892,25.84500790073937,103.61217320808412,94.46309149107653,6.47544875391759e-05,0.0874469503760337,0,0,0
8782,297102.59630179155,2010-09-25 02:19:46,1260.6459306534389,2,27,0.5499359965324402,3.86309266090393,26.010374301182093,25.84500790073937,103.62988784210636,94.46309149107653,9.713172767078504e-05,0.0874469503760337,0,0,0
8783,297132.61168036924,2010-09-25 02:20:16,1290.6613092311193,2,27,0.5501165986061096,3.86552095413208,26.01496127676233,25.84500790073937,103.64761285688732,94.46309149107653,6.47544875391759e-05,0.0874469503760337,0,0,0
8784,297162.62709333777,2010-09-25 02:20:46,1320.6767222046567,2,27,0.5501165986061096,3.8673017024993896,26.019548185408578,25.84500790073937,103.66534764698588,94.46309149107653,3.237724376958795e-05,0.0874469503760337,0,0,0
8785,297192.6424830282,2010-09-25 02:21:16,1350.6921120003392,2,27,0.550297200679779,3.869406223297119,26.02413522971489,25.84500790073937,103.68309237630932,94.46309149107653,6.47544875391759e-05,0.0874469503760337,0,0,0
8786,297222.65783049323,2010-09-25 02:21:46,1380.7074593600953,2,27,0.550297200679779,3.8715107440948486,26.02872222205022,25.84500790073937,103.70084563156004,94.46309149107653,9.713172767078504e-05,0.0874469503760337,0,0,0
8787,297252.67329327605,2010-09-25 02:22:17,1410.7229221630146,2,27,0.5499359965324402,3.872805833816528,26.0333092185299,25.84500790073937,103.71860704378976,94.46309149107653,3.237724376958795e-05,0.0874469503760337,0,0,0
8788,297282.6888534471,2010-09-25 02:22:47,1440.7384823440048,2,27,0.5501165986061096,3.874424695968628,26.03789628423937,25.84500790073937,103.73637625960778,94.46309149107653,6.47544875391759e-05,0.0874469503760337,0,0,0
8789,297312.7039636749,2010-09-25 02:23:17,1470.75359254678,2,27,0.5501165986061096,3.876043558120728,26.04248322905773,25.84500790073937,103.75415209654392,94.46309149107653,6.47544875391759e-05,0.0874469503760337,0,0,0
8790,297342.71934668365,2010-09-25 02:23:47,1500.7689755454962,2,27,0.5501165986061096,3.8773386478424072,26.047070189717527,25.84500790073937,103.7719346214912,94.46309149107653,0.0,0.0874469503760337,0,0,0
8791,297372.7347486096,2010-09-25 02:24:17,1530.7843774814826,2,27,0.5501165986061096,3.878795623779297,26.051657143731884,25.84500790073937,103.78972343695314,94.46309149107653,3.237724376958795e-05,0.0874469503760337,0,0,0
8792,297402.7501271472,2010-09-25 02:24:47,1560.7997560140504,2,27,0.5499359965324402,3.880090713500977,26.05624413620787,25.84500790073937,103.80751835135148,94.46309149107653,3.237724376958795e-05,0.0874469503760337,0,0,0
8793,297432.765493745,2010-09-25 02:25:17,1590.8151226068146,2,27,0.5501165986061096,3.881385803222656,26.06083109308035,25.84500790073937,103.825318971189,94.46309149107653,3.237724376958795e-05,0.0874469503760337,0,0,0
8794,297462.78086924995,2010-09-25 02:25:47,1620.8304981118251,2,27,0.5501165986061096,3.882519006729126,26.065418111289983,25.84500790073937,103.84312549030302,94.46309149107653,0.0,0.0874469503760337,0,0,0
8795,297492.7962496522,2010-09-25 02:26:17,1650.84587851406,2,27,0.5499359965324402,3.883652210235596,26.070005077451103,25.84500790073937,103.8609373718144,94.46309149107653,0.0,0.0874469503760337,0,0,0
8796,297522.81167598907,2010-09-25 02:26:47,1680.8613048509549,2,27,0.5499359965324402,3.8847854137420654,26.074592048659472,25.84500790073937,103.8787546892522,94.46309149107653,0.0,0.0874469503760337,0,0,0
8797,297552.82701094286,2010-09-25 02:27:17,1710.8766398047435,2,27,0.5501165986061096,3.886080503463745,26.079178991446778,25.84500790073937,103.8965773812956,94.46309149107653,0.0,0.0874469503760337,0,0,0
8798,297582.8424260668,2010-09-25 02:27:47,1740.8920549286488,2,27,0.5501165986061096,3.887213706970215,26.083765939075807,25.84500790073937,103.91440545416596,94.46309149107653,3.237724376958795e-05,0.0874469503760337,0,0,0
8799,297612.8579407041,2010-09-25 02:28:17,1770.907569565955,2,27,0.5499359965324402,3.888346910476685,26.08835293732113,25.84500790073937,103.93223909741997,94.46309149107653,3.237724376958795e-05,0.0874469503760337,0,0,0
8800,297642.87317352794,2010-09-25 02:28:47,1800.9228023898115,2,27,0.550297200679779,3.889642000198364,26.092939994103546,25.84500790073937,103.9500784812924,94.46309149107653,3.237724376958795e-05,0.0874469503760337,0,0,0
8801,297672.888602747,2010-09-25 02:29:17,1830.9382317041384,2,27,0.5501165986061096,3.890775203704834,26.097527003041957,25.84500790073937,103.96792295014168,94.46309149107653,3.237724376958795e-05,0.0874469503760337,0,0,0
8802,297702.90392184624,2010-09-25 02:29:47,1860.9535507081137,2,27,0.5501165986061096,3.891908407211304,26.1021140547966,25.84500790073937,103.98577308756644,94.46309149107653,0.0,0.0874469503760337,0,0,0
8803,297732.9192973212,2010-09-25 02:30:17,1890.9689261930744,2,27,0.5501165986061096,3.893203496932984,26.10670112795815,25.84500790073937,104.00362874998012,94.46309149107653,3.237724376958795e-05,0.0874469503760337,0,0,0
8804,297762.9347120792,2010-09-25 02:30:47,1920.9843409410407,2,27,0.550297200679779,3.894498586654663,26.111288190280582,25.84500790073937,104.02148990384508,94.46309149107653,6.47544875391759e-05,0.0874469503760337,0,0,0
8805,297792.9500940202,2010-09-25 02:31:17,1950.999722882117,2,27,0.5501165986061096,3.895469903945923,26.115875246784267,25.84500790073937,104.0393560927667,94.46309149107653,3.237724376958795e-05,0.0874469503760337,0,0,0
8806,297822.9654582321,2010-09-25 02:31:47,1981.0150871139883,2,27,0.550297200679779,3.896926879882813,26.12046220496461,25.84500790073937,104.0572274884907,94.46309149107653,3.237724376958795e-05,0.0874469503760337,0,0,0
8807,297852.9809515562,2010-09-25 02:32:17,2011.0305804180432,2,27,0.5501165986061096,3.898060083389282,26.12504922792975,25.84500790073937,104.0751047764507,94.46309149107653,3.237724376958795e-05,0.0874469503760337,0,0,0
8808,297882.9963541137,2010-09-25 02:32:47,2041.0459829755816,2,27,0.5501165986061096,3.899193286895752,26.12963608377833,25.84500790073937,104.09298697138298,94.46309149107653,3.237724376958795e-05,0.0874469503760337,0,0,0
8809,297913.0115801657,2010-09-25 02:33:17,2071.0612090325467,2,27,0.5501165986061096,3.900488376617432,26.134222979205287,25.84500790073937,104.11087490890188,94.46309149107653,6.47544875391759e-05,0.0874469503760337,0,0,0
8810,297943.0269653849,2010-09-25 02:33:47,2101.076594246793,2,27,0.5501165986061096,3.9017834663391113,26.138809851150423,25.84500790073937,104.12876848595864,94.46309149107653,3.237724376958795e-05,0.0874469503760337,0,0,0
8811,297973.04234760173,2010-09-25 02:34:17,2131.0919764635573,2,27,0.550297200679779,3.903078556060791,26.14339674894565,25.84500790073937,104.14666798751846,94.46309149107653,3.237724376958795e-05,0.0874469503760337,0,0,0
8812,298003.0579524642,2010-09-25 02:34:47,2161.1075813260795,2,27,0.5501165986061096,3.9042117595672607,26.14798370899696,25.84500790073937,104.16457366845944,94.46309149107653,3.237724376958795e-05,0.0874469503760337,0,0,0
8813,298033.0731256291,2010-09-25 02:35:17,2191.122754491018,2,27,0.5501165986061096,3.905506849288941,26.15257066402681,25.84500790073937,104.18248523021656,94.46309149107653,3.237724376958795e-05,0.0874469503760337,0,0,0
8814,298063.08847027714,2010-09-25 02:35:47,2221.13809916908,2,27,0.5499359965324402,3.90680193901062,26.157157641540643,25.84500790073937,104.20040281372252,94.46309149107653,0.0,0.0874469503760337,0,0,0
8815,298093.10387777205,2010-09-25 02:36:17,2251.1535066238416,2,27,0.5501165986061096,3.9082589149475098,26.16174523283189,25.84500790073937,104.2183288163006,94.46309149107653,6.47544875391759e-05,0.0874469503760337,0,0,0
8816,298123.1192786804,2010-09-25 02:36:47,2281.1689075422883,2,27,0.5504778623580933,3.9095540046691895,26.166332869484137,25.84500790073937,104.23626108966832,94.46309149107653,6.47544875391759e-05,0.0874469503760337,0,0,0
8817,298153.13466894225,2010-09-25 02:37:17,2311.184297899372,2,27,0.550297200679779,3.910849094390869,26.170920518289726,25.84500790073937,104.2541995387388,94.46309149107653,6.47544875391759e-05,0.0874469503760337,0,0,0
8818,298183.1499969537,2010-09-25 02:37:47,2341.199625840656,2,27,0.5501165986061096,3.912144184112549,26.175508051514107,25.84500790073937,104.27214373754812,94.46309149107653,0.0,0.0874469503760337,0,0,0
8819,298213.1654244636,2010-09-25 02:38:17,2371.215053345466,2,27,0.5501165986061096,3.9136011600494394,26.18009497184035,25.84500790073937,104.2900917197802,94.46309149107653,3.237724376958795e-05,0.0874469503760337,0,0,0
8820,298243.18080002366,2010-09-25 02:38:47,2401.230428910627,2,27,0.5501165986061096,3.914896011352539,26.184681838947025,25.84500790073937,104.30804573013424,94.46309149107653,0.0,0.0874469503760337,0,0,0
8821,298273.19616524805,2010-09-25 02:39:17,2431.2457941349758,2,27,0.5501165986061096,3.9163529872894287,26.1892687764296,25.84500790073937,104.32600625155916,94.46309149107653,6.47544875391759e-05,0.0874469503760337,0,0,0
8822,298303.2115454748,2010-09-25 02:39:47,2461.2611743367097,2,27,0.5504778623580933,3.9178099632263184,26.193855613658947,25.84500790073937,104.34397280439887,94.46309149107653,3.237724376958795e-05,0.0874469503760337,0,0,0
8823,298333.2273256099,2010-09-25 02:40:17,2491.276954471739,2,27,0.5501165986061096,3.919105052947998,26.19844255066472,25.84500790073937,104.36194622708044,94.46309149107653,3.237724376958795e-05,0.0874469503760337,0,0,0
8824,298363.24245405314,2010-09-25 02:40:47,2521.2920829150457,2,27,0.550297200679779,3.920562028884888,26.203029418976257,25.84500790073937,104.37992602279392,94.46309149107653,3.237724376958795e-05,0.0874469503760337,0,0,0
8825,298393.2576889923,2010-09-25 02:41:17,2551.307317854182,2,27,0.5501165986061096,3.922019004821777,26.20761631829657,25.84500790073937,104.39791242100408,94.46309149107653,6.47544875391759e-05,0.0874469503760337,0,0,0
8826,298423.2732305067,2010-09-25 02:41:47,2581.3228593685776,2,27,0.5501165986061096,3.923475980758667,26.212203212845424,25.84500790073937,104.41590549546792,94.46309149107653,6.47544875391759e-05,0.0874469503760337,0,0,0
8827,298453.28849393694,2010-09-25 02:42:17,2611.338122904095,2,27,0.550297200679779,3.9249329566955566,26.21679014734364,25.84500790073937,104.4339054208648,94.46309149107653,6.47544875391759e-05,0.0874469503760337,0,0,0
8828,298483.30386747705,2010-09-25 02:42:47,2641.353496424151,2,27,0.5501165986061096,3.926228046417236,26.2213771109214,25.84500790073937,104.45191217408156,94.46309149107653,3.237724376958795e-05,0.0874469503760337,0,0,0
8829,298513.31931741285,2010-09-25 02:43:17,2671.368946369977,2,27,0.550297200679779,3.927846908569336,26.225964012535773,25.84500790073937,104.4699254732138,94.46309149107653,3.237724376958795e-05,0.0874469503760337,0,0,0
8830,298543.3346032039,2010-09-25 02:43:47,2701.3842320658105,2,27,0.5501165986061096,3.9293038845062256,26.230550910595028,25.84500790073937,104.48794561712008,94.46309149107653,6.47544875391759e-05,0.0874469503760337,0,0,0
8831,298573.3501291244,2010-09-25 02:44:17,2731.399758086532,2,27,0.5501165986061096,3.930922746658325,26.23513788132584,25.84500790073937,104.50597299025785,94.46309149107653,6.47544875391759e-05,0.0874469503760337,0,0,0
8832,298603.3654237425,2010-09-25 02:44:47,2761.415052599373,2,27,0.5501165986061096,3.932379722595215,26.23972476925897,25.84500790073937,104.524006961452,94.46309149107653,3.237724376958795e-05,0.0874469503760337,0,0,0
8833,298633.3807662502,2010-09-25 02:45:17,2791.43039513208,2,27,0.5501165986061096,3.9339985847473145,26.244311635849368,25.84500790073937,104.54204791465264,94.46309149107653,6.47544875391759e-05,0.0874469503760337,0,0,0
8834,298663.3962559051,2010-09-25 02:45:47,2821.445884766976,2,27,0.550297200679779,3.935455560684204,26.24889855955795,25.84500790073937,104.56009625302715,94.46309149107653,6.47544875391759e-05,0.0874469503760337,0,0,0
8835,298693.4115052352,2010-09-25 02:46:17,2851.461134102047,2,27,0.550297200679779,3.937074422836304,26.25348554357094,25.84500790073937,104.57815190470038,94.46309149107653,6.47544875391759e-05,0.0874469503760337,0,0,0
8836,298723.4269128553,2010-09-25 02:46:47,2881.4765417172093,2,27,0.5501165986061096,3.9386932849884033,26.25807250637568,25.84500790073937,104.59621481833176,94.46309149107653,6.47544875391759e-05,0.0874469503760337,0,0,0
8837,298753.44230260595,2010-09-25 02:47:17,2911.4919315880798,2,27,0.5501165986061096,3.940312147140503,26.262659406179527,25.84500790073937,104.61428477796402,94.46309149107653,6.47544875391759e-05,0.0874469503760337,0,0,0
8838,298783.4576667476,2010-09-25 02:47:47,2941.5072956044123,2,27,0.5501165986061096,3.9419310092926025,26.267245758872452,25.84500790073937,104.63235984875054,94.46309149107653,9.713172767078504e-05,0.0874469503760337,0,0,0
8839,298813.4730449944,2010-09-25 02:48:17,2971.522673881342,2,27,0.5499359965324402,3.943549871444702,26.27183184894411,25.84500790073937,104.65044125213484,94.46309149107653,3.237724376958795e-05,0.0874469503760337,0,0,0
8840,298843.4884828852,2010-09-25 02:48:47,3001.538111767065,2,27,0.550297200679779,3.9451687335968018,26.276418521206388,25.84500790073937,104.66853256487792,94.46309149107653,3.237724376958795e-05,0.0874469503760337,0,0,0
8841,298873.5038493376,2010-09-25 02:49:17,3031.5534781994284,2,27,0.5499359965324402,3.9466257095336914,26.281005471327337,25.84500790073937,104.68663264584715,94.46309149107653,0.0,0.0874469503760337,0,0,0
8842,298903.51920776494,2010-09-25 02:49:47,3061.568836626811,2,27,0.5501165986061096,3.948406457901001,26.28559238476464,25.84500790073937,104.70474019613366,94.46309149107653,3.237724376958795e-05,0.0874469503760337,0,0,0
8843,298933.5345878364,2010-09-25 02:50:17,3091.584216728295,2,27,0.550297200679779,3.950349092483521,26.29017929126087,25.84500790073937,104.72285544623163,94.46309149107653,6.47544875391759e-05,0.0874469503760337,0,0,0
8844,298963.5501963129,2010-09-25 02:50:47,3121.5998251747637,2,27,0.5501165986061096,3.95196795463562,26.29476625414057,25.84500790073937,104.74097879466191,94.46309149107653,6.47544875391759e-05,0.0874469503760337,0,0,0
8845,298993.56536399416,2010-09-25 02:51:17,3151.6149928810764,2,27,0.5501165986061096,3.95358681678772,26.29935313247696,25.84500790073937,104.75910960049676,94.46309149107653,6.47544875391759e-05,0.0874469503760337,0,0,0
8846,299023.5807347022,2010-09-25 02:51:47,3181.630363569063,2,27,0.5499359965324402,3.955367565155029,26.303940056543208,25.84500790073937,104.77724858917556,94.46309149107653,6.47544875391759e-05,0.0874469503760337,0,0,0
8847,299053.5961370342,2010-09-25 02:52:17,3211.645765921088,2,27,0.550297200679779,3.956986427307129,26.30852697605746,25.84500790073937,104.79539561667306,94.46309149107653,3.237724376958795e-05,0.0874469503760337,0,0,0
8848,299083.6115240579,2010-09-25 02:52:47,3241.6611529197885,2,27,0.5501165986061096,3.958929061889648,26.31311392054496,25.84500790073937,104.8135507652146,94.46309149107653,3.237724376958795e-05,0.0874469503760337,0,0,0
8849,299113.6268940642,2010-09-25 02:53:17,3271.676522926073,2,27,0.5501165986061096,3.960547924041748,26.31770078976304,25.84500790073937,104.83171386284631,94.46309149107653,6.47544875391759e-05,0.0874469503760337,0,0,0
8850,299143.64226148406,2010-09-25 02:53:47,3301.691890345902,2,27,0.5501165986061096,3.962490558624268,26.32228774332029,25.84500790073937,104.8498855634334,94.46309149107653,6.47544875391759e-05,0.0874469503760337,0,0,0
8851,299173.65764612687,2010-09-25 02:54:18,3331.7072750137845,2,27,0.5501165986061096,3.964433193206787,26.32687466892705,25.84500790073937,104.86806549777248,94.46309149107653,6.47544875391759e-05,0.0874469503760337,0,0,0
8852,299203.6731894057,2010-09-25 02:54:48,3361.722818292584,2,27,0.5501165986061096,3.9662139415740967,26.33146161745284,25.84500790073937,104.88625397605703,94.46309149107653,6.47544875391759e-05,0.0874469503760337,0,0,0
8853,299233.68841058546,2010-09-25 02:55:18,3391.738039537538,2,27,0.5499359965324402,3.968156576156616,26.33604859526924,25.84500790073937,104.90445112173175,94.46309149107653,6.47544875391759e-05,0.0874469503760337,0,0,0
8854,299263.7038246317,2010-09-25 02:55:48,3421.753453513578,2,27,0.5501165986061096,3.969937324523926,26.340635549252877,25.84500790073937,104.92265677468738,94.46309149107653,3.237724376958795e-05,0.0874469503760337,0,0,0
8855,299293.7193153192,2010-09-25 02:56:18,3451.7689442863148,2,27,0.5501165986061096,3.971879959106445,26.345222529124392,25.84500790073937,104.94087128548576,94.46309149107653,3.237724376958795e-05,0.0874469503760337,0,0,0
8856,299323.73470315,2010-09-25 02:56:48,3481.784332117092,2,27,0.5501165986061096,3.973660707473755,26.34980945365131,25.84500790073937,104.9590943607905,94.46309149107653,3.237724376958795e-05,0.0874469503760337,0,0,0
8857,299353.7499337282,2010-09-25 02:57:18,3511.799562595093,2,27,0.550297200679779,3.975765228271485,26.354396333970243,25.84500790073937,104.97732622273608,94.46309149107653,6.47544875391759e-05,0.0874469503760337,0,0,0
8858,299383.7655357837,2010-09-25 02:57:48,3541.815164760884,2,27,0.5501165986061096,3.977707862854004,26.358983337854216,25.84500790073937,104.99556766406216,94.46309149107653,3.237724376958795e-05,0.0874469503760337,0,0,0
8859,299413.78071362537,2010-09-25 02:58:18,3571.830342482196,2,27,0.5501165986061096,3.979812383651733,26.36357024898993,25.84500790073937,105.01381752041468,94.46309149107653,6.47544875391759e-05,0.0874469503760337,0,0,0
8860,299443.79609766667,2010-09-25 02:58:48,3601.845726558602,2,27,0.550297200679779,3.981916904449463,26.36815709724804,25.84500790073937,105.03207676136007,94.46309149107653,9.713172767078504e-05,0.0874469503760337,0,0,0
8861,299473.8114935325,2010-09-25 02:59:18,3631.861122424437,2,27,0.5501165986061096,3.984021425247192,26.37274399512212,25.84500790073937,105.05034558556814,94.46309149107653,9.713172767078504e-05,0.0874469503760337,0,0,0
8862,299503.8268566215,2010-09-25 02:59:48,3661.876485488392,2,27,0.5501165986061096,3.985964059829712,26.37733081587304,25.84500790073937,105.06862349878304,94.46309149107653,6.47544875391759e-05,0.0874469503760337,0,0,0
8863,299533.8423693741,2010-09-25 03:00:18,3691.891998266057,2,27,0.550297200679779,3.987906694412232,26.381917707410565,25.84500790073937,105.0869112367245,94.46309149107653,3.237724376958795e-05,0.0874469503760337,0,0,0
8864,299563.85764786694,2010-09-25 03:00:48,3721.90727673886,2,27,0.550297200679779,3.990173101425171,26.38650454782977,25.84500790073937,105.10520827727454,94.46309149107653,6.47544875391759e-05,0.0874469503760337,0,0,0
8865,299593.8730304446,2010-09-25 03:01:18,3751.922659306499,2,27,0.550297200679779,3.992277622222901,26.39109141425572,25.84500790073937,105.12351517286088,94.46309149107653,6.47544875391759e-05,0.0874469503760337,0,0,0
8866,299623.8883813583,2010-09-25 03:01:48,3781.938010230152,2,27,0.5501165986061096,3.994381904602051,26.39567832682634,25.84500790073937,105.1418320331239,94.46309149107653,6.47544875391759e-05,0.0874469503760337,0,0,0
8867,299653.9037775198,2010-09-25 03:02:18,3811.953406381698,2,27,0.5501165986061096,3.9966483116149902,26.400265189904843,25.84500790073937,105.16015852538604,94.46309149107653,6.47544875391759e-05,0.0874469503760337,0,0,0
8868,299683.91919888934,2010-09-25 03:02:48,3841.9688277511946,2,27,0.5501165986061096,3.9985909461975098,26.404852043512637,25.84500790073937,105.17849493311496,94.46309149107653,6.47544875391759e-05,0.0874469503760337,0,0,0
8869,299713.93456169264,2010-09-25 03:03:18,3871.984190554499,2,27,0.5501165986061096,4.000857353210449,26.40943886213296,25.84500790073937,105.19684114499218,94.46309149107653,6.47544875391759e-05,0.0874469503760337,0,0,0
8870,299743.949923313,2010-09-25 03:03:48,3901.999552204927,2,27,0.5501165986061096,4.002962112426758,26.4140257035628,25.84500790073937,105.21519756654835,94.46309149107653,3.24249267578125e-05,0.0874469503760337,0,0,0
8871,299773.9654199554,2010-09-25 03:04:18,3932.0150490077153,2,27,0.5501165986061096,4.005228519439697,26.418612546933144,25.84500790073937,105.23356411756772,94.46309149107653,6.47544875391759e-05,0.0874469503760337,0,0,0
8872,299803.980699561,2010-09-25 03:04:48,3962.0303284529455,2,27,0.550297200679779,4.007656574249268,26.42319934279057,25.84500790073937,105.25194075929365,94.46309149107653,9.70840483205393e-05,0.0874469503760337,0,0,0
8873,299833.99605709617,2010-09-25 03:05:18,3992.0456859530136,2,27,0.5501165986061096,4.009761333465576,26.427786244891006,25.84500790073937,105.27032810133636,94.46309149107653,3.24249267578125e-05,0.0874469503760337,0,0,0
8874,299864.0114506362,2010-09-25 03:05:48,4022.0610795181046,2,27,0.5501165986061096,4.012027740478516,26.43237305431453,25.84500790073937,105.28872540303075,94.46309149107653,3.24249267578125e-05,0.0874469503760337,0,0,0
8875,299894.0268467376,2010-09-25 03:06:18,4052.0764756044896,2,27,0.5501165986061096,4.014294147491455,26.43695986832479,25.84500790073937,105.30713319390394,94.46309149107653,6.47544875391759e-05,0.0874469503760337,0,0,0
8876,299924.04242132953,2010-09-25 03:06:48,4082.092050206477,2,27,0.550297200679779,4.016722202301025,26.441546775878304,25.84500790073937,105.32555188822067,94.46309149107653,6.47544875391759e-05,0.0874469503760337,0,0,0
8877,299954.0575951762,2010-09-25 03:07:18,4112.107224033067,2,27,0.550297200679779,4.019150733947754,26.446133623727565,25.84500790073937,105.34398105371076,94.46309149107653,9.71794142969884e-05,0.0874469503760337,0,0,0
8878,299984.0729797238,2010-09-25 03:07:48,4142.122608580649,2,27,0.5501165986061096,4.021417140960693,26.45072043370557,25.84500790073937,105.36242063590592,94.46309149107653,9.71794142969884e-05,0.0874469503760337,0,0,0
8879,300014.0883606774,2010-09-25 03:08:18,4172.137989539273,2,27,0.550297200679779,4.023845195770264,26.45530726629653,25.84500790073937,105.38087122338732,94.46309149107653,9.70840483205393e-05,0.0874469503760337,0,0,0
8880,300044.10388895374,2010-09-25 03:08:48,4202.153517815625,2,27,0.550297200679779,4.025949954986572,26.4598941587389,25.84500790073937,105.399332925466,94.46309149107653,3.24249267578125e-05,0.0874469503760337,0,0,0
8881,300074.11913231894,2010-09-25 03:09:18,4232.168761200844,2,27,0.5501165986061096,4.028540134429932,26.46448096512416,25.84500790073937,105.4178052995212,94.46309149107653,6.47544875391759e-05,0.0874469503760337,0,0,0
8882,300104.1345300244,2010-09-25 03:09:48,4262.184158901257,2,27,0.5501165986061096,4.030806541442871,26.46906776110428,25.84500790073937,105.43628866618162,94.46309149107653,3.24249267578125e-05,0.0874469503760337,0,0,0
8883,300134.14989684266,2010-09-25 03:10:18,4292.199525724597,2,27,0.5501165986061096,4.033396720886231,26.47365458978855,25.84500790073937,105.45478332821256,94.46309149107653,9.71794142969884e-05,0.0874469503760337,0,0,0
8884,300164.1653144277,2010-09-25 03:10:48,4322.214943389846,2,27,0.5501165986061096,4.035824775695801,26.47824145689029,25.84500790073937,105.47328944670382,94.46309149107653,6.47544875391759e-05,0.0874469503760337,0,0,0
8885,300194.18066739646,2010-09-25 03:11:18,4352.230296278402,2,27,0.550297200679779,4.038252830505371,26.48282835642197,25.84500790073937,105.49180707628976,94.46309149107653,3.23295607813634e-05,0.0874469503760337,0,0,0
8886,300224.19604450045,2010-09-25 03:11:48,4382.24567339243,2,27,0.5501165986061096,4.0408430099487305,26.48741524591102,25.84500790073937,105.51033618557732,94.46309149107653,6.47544875391759e-05,0.0874469503760337,0,0,0
8887,300254.21182628965,2010-09-25 03:12:18,4412.261455161538,2,27,0.5499359965324402,4.043271541595459,26.49200219826034,25.84500790073937,105.528877174817,94.46309149107653,6.47544875391759e-05,0.0874469503760337,0,0,0
8888,300284.22682208184,2010-09-25 03:12:48,4442.276450968765,2,27,0.5501165986061096,4.046023368835449,26.49658904418725,25.84500790073937,105.54742949964536,94.46309149107653,9.70840483205393e-05,0.0874469503760337,0,0,0
8889,300314.2422116019,2010-09-25 03:13:18,4472.291840483746,2,27,0.5501165986061096,4.048451900482178,26.501175933698367,25.84500790073937,105.56599388809757,94.46309149107653,6.47544875391759e-05,0.0874469503760337,0,0,0
8890,300344.25757222465,2010-09-25 03:13:48,4502.307201116633,2,27,0.5501165986061096,4.051203727722168,26.50576278699112,25.84500790073937,105.58457012130916,94.46309149107653,3.23295607813634e-05,0.0874469503760337,0,0,0
8891,300374.2729503763,2010-09-25 03:14:18,4532.322579258225,2,27,0.5501165986061096,4.053793907165527,26.51034963744861,25.84500790073937,105.60315842605704,94.46309149107653,6.47544875391759e-05,0.0874469503760337,0,0,0
8892,300404.28835364064,2010-09-25 03:14:48,4562.337982522527,2,27,0.5501165986061096,4.056546211242676,26.5149365312213,25.84500790073937,105.62175919874149,94.46309149107653,6.47544875391759e-05,0.0874469503760337,0,0,0
8893,300434.30383668904,2010-09-25 03:15:18,4592.353465651184,2,27,0.5499359965324402,4.059298038482666,26.51952335927356,25.84500790073937,105.64037200778084,94.46309149107653,9.70840483205393e-05,0.0874469503760337,0,0,0
8894,300464.31909688626,2010-09-25 03:15:48,4622.36872577318,2,27,0.5501165986061096,4.061888217926025,26.52411018968184,25.84500790073937,105.65899700768335,94.46309149107653,9.70840483205393e-05,0.0874469503760337,0,0,0
8895,300494.33471954823,2010-09-25 03:16:18,4652.384348500294,2,27,0.550297200679779,4.064640522003174,26.528697108586,25.84500790073937,105.67763481860096,94.46309149107653,9.71794142969884e-05,0.0874469503760337,0,0,0
8896,300524.34988312924,2010-09-25 03:16:48,4682.399511991085,2,27,0.5501165986061096,4.067392349243164,26.533283959245008,25.84500790073937,105.69628497423402,94.46309149107653,9.70840483205393e-05,0.0874469503760337,0,0,0
8897,300554.3652538373,2010-09-25 03:17:18,4712.414882694109,2,27,0.550297200679779,4.070306301116943,26.53787086103955,25.84500790073937,105.71494819260349,94.46309149107653,9.70840483205393e-05,0.0874469503760337,0,0,0
8898,300584.3806469112,2010-09-25 03:17:48,4742.430275783013,2,27,0.550297200679779,4.073058605194092,26.542457714014084,25.84500790073937,105.73362403958252,94.46309149107653,6.47544875391759e-05,0.0874469503760337,0,0,0
8899,300614.39600397507,2010-09-25 03:18:18,4772.445632836966,2,27,0.5501165986061096,4.075810432434082,26.54704451657849,25.84500790073937,105.75231267555222,94.46309149107653,6.47544875391759e-05,0.0874469503760337,0,0,0
8900,300644.4114018409,2010-09-25 03:18:48,4802.461030702793,2,27,0.550297200679779,4.078724384307861,26.551631504559698,25.84500790073937,105.77101519386356,94.46309149107653,6.47544875391759e-05,0.0874469503760337,0,0,0
8901,300674.4267937469,2010-09-25 03:19:18,4832.4764227039805,2,27,0.550297200679779,4.081638336181641,26.556219191708383,25.84500790073937,105.78973383641473,94.46309149107653,6.47544875391759e-05,0.0874469503760337,0,0,0
8902,300704.442194139,2010-09-25 03:19:48,4862.491822995863,2,27,0.5501165986061096,4.08455228805542,26.56080672291266,25.84500790073937,105.8084651607779,94.46309149107653,9.70840483205393e-05,0.0874469503760337,0,0,0
8903,300734.45771050564,2010-09-25 03:20:18,4892.507339397573,2,27,0.5501165986061096,4.087466239929199,26.56539361892132,25.84500790073937,105.8272073754294,94.46309149107653,6.47544875391759e-05,0.0874469503760337,0,0,0
8904,300764.4729995699,2010-09-25 03:20:48,4922.522628436752,2,27,0.5501165986061096,4.090542316436768,26.56998044449155,25.84500790073937,105.8459629689362,94.46309149107653,6.47544875391759e-05,0.0874469503760337,0,0,0
8905,300794.48832965654,2010-09-25 03:21:18,4952.537958513366,2,27,0.5499359965324402,4.093456268310547,26.57456736246412,25.84500790073937,105.86473264120058,94.46309149107653,9.71794142969884e-05,0.0874469503760337,0,0,0
8906,300824.5037068758,2010-09-25 03:21:48,4982.553335732656,2,27,0.550297200679779,4.096531867980957,26.57915423045602,25.84500790073937,105.88351590220614,94.46309149107653,9.70840483205393e-05,0.0874469503760337,0,0,0
8907,300854.51908631565,2010-09-25 03:22:18,5012.568715177501,2,27,0.5501165986061096,4.099607944488525,26.5837411556758,25.84500790073937,105.9023133861204,94.46309149107653,9.71794142969884e-05,0.0874469503760337,0,0,0
8908,300884.5346753286,2010-09-25 03:22:48,5042.584304215523,2,27,0.5501165986061096,4.102521896362305,26.58832807723414,25.84500790073937,105.92112487430784,94.46309149107653,9.71794142969884e-05,0.0874469503760337,0,0,0
8909,300914.54985924537,2010-09-25 03:23:18,5072.59948811225,2,27,0.5499359965324402,4.105759620666504,26.59291492474744,25.84500790073937,105.93995031157814,94.46309149107653,9.71794142969884e-05,0.0874469503760337,0,0,0
8910,300944.5652565599,2010-09-25 03:23:48,5102.6148854267,2,27,0.550297200679779,4.108997344970703,26.59750174011992,25.84500790073937,105.95878994888032,94.46309149107653,9.71794142969884e-05,0.0874469503760337,0,0,0
8911,300974.5806304007,2010-09-25 03:24:18,5132.630259272569,2,27,0.5501165986061096,4.111911296844482,26.60208859346895,25.84500790073937,105.9776442503994,94.46309149107653,6.47544875391759e-05,0.0874469503760337,0,0,0
8912,301004.59602597577,2010-09-25 03:24:48,5162.645654842666,2,27,0.5501165986061096,4.115148544311523,26.60667536676885,25.84500790073937,105.99651264068328,94.46309149107653,6.47544875391759e-05,0.0874469503760337,0,0,0
8913,301034.6113768644,2010-09-25 03:25:18,5192.661005721204,2,27,0.5499359965324402,4.118224620819092,26.61126220140073,25.84500790073937,106.01539596350288,94.46309149107653,6.47544875391759e-05,0.0874469503760337,0,0,0
8914,301064.6267419634,2010-09-25 03:25:48,5222.676370825253,2,27,0.5501165986061096,4.121786117553711,26.615848988810157,25.84500790073937,106.03429381399104,94.46309149107653,9.71794142969884e-05,0.0874469503760337,0,0,0
8915,301094.64218071126,2010-09-25 03:26:19,5252.691809568115,2,27,0.5501165986061096,4.12502384185791,26.62043581150308,25.84500790073937,106.05320674645785,94.46309149107653,9.71794142969884e-05,0.0874469503760337,0,0,0
8916,301124.6576076246,2010-09-25 03:26:49,5282.707236576685,2,27,0.550297200679779,4.128261566162109,26.6250226925583,25.84500790073937,106.07213503903992,94.46309149107653,6.47544875391759e-05,0.0874469503760337,0,0,0
8917,301154.67296563095,2010-09-25 03:27:19,5312.722594512842,2,27,0.5499359965324402,4.131499290466309,26.629609559910705,25.84500790073937,106.09107844554022,94.46309149107653,6.47544875391759e-05,0.0874469503760337,0,0,0
8918,301184.6883336072,2010-09-25 03:27:49,5342.737962463996,2,27,0.5501165986061096,4.134898662567139,26.63419653938628,25.84500790073937,106.11003758120788,94.46309149107653,9.70840483205393e-05,0.0874469503760337,0,0,0
8919,301214.703705042,2010-09-25 03:28:19,5372.753333898848,2,27,0.5501165986061096,4.138298511505127,26.63878339701417,25.84500790073937,106.12901159859392,94.46309149107653,9.71794142969884e-05,0.0874469503760337,0,0,0
8920,301244.7192344813,2010-09-25 03:28:49,5402.768863343114,2,27,0.5501165986061096,4.141697883605957,26.64337034593953,25.84500790073937,106.14800149685678,94.46309149107653,9.70840483205393e-05,0.0874469503760337,0,0,0
8921,301274.7345008538,2010-09-25 03:29:19,5432.784129715714,2,27,0.5501165986061096,4.145097732543945,26.647957212712846,25.84500790073937,106.16700674883056,94.46309149107653,9.71794142969884e-05,0.0874469503760337,0,0,0
8922,301304.7499856818,2010-09-25 03:29:49,5462.799614548623,2,27,0.5501165986061096,4.1486592292785645,26.6525440179371,25.84500790073937,106.18602781991451,94.46309149107653,0.0001295089750783,0.0874469503760337,0,0,0
8923,301334.76523698174,2010-09-25 03:30:19,5492.814865853611,2,27,0.5499359965324402,4.151896953582764,26.65713084241975,25.84500790073937,106.20506485135212,94.46309149107653,3.24249267578125e-05,0.0874469503760337,0,0,0
8924,301364.78065876727,2010-09-25 03:30:49,5522.830287624108,2,27,0.5501165986061096,4.155782222747803,26.66171768312529,25.84500790073937,106.2241179669142,94.46309149107653,0.0001619339018361,0.0874469503760337,0,0,0
8925,301394.7960119666,2010-09-25 03:31:19,5552.84564082344,2,27,0.5501165986061096,4.159019947052002,26.666304493405644,25.84500790073937,106.24318710806156,94.46309149107653,6.47544875391759e-05,0.0874469503760337,0,0,0
8926,301424.81139453925,2010-09-25 03:31:49,5582.861023396093,2,27,0.5501165986061096,4.162581443786621,26.670891299802552,25.84500790073937,106.2622724345032,94.46309149107653,9.71794142969884e-05,0.0874469503760337,0,0,0
8927,301454.8268780789,2010-09-25 03:32:19,5612.876506950812,2,27,0.5501165986061096,4.16614294052124,26.67547806921785,25.84500790073937,106.28137385644126,94.46309149107653,6.47544875391759e-05,0.0874469503760337,0,0,0
8928,301484.8421406621,2010-09-25 03:32:49,5642.891769639215,2,27,0.5501165986061096,4.16986608505249,26.680064846800462,25.84500790073937,106.3004917694256,94.46309149107653,9.70840483205393e-05,0.0874469503760337,0,0,0
8929,301514.857550583,2010-09-25 03:33:19,5672.907179439832,2,27,0.5501165986061096,4.173265933990479,26.684651669156768,25.84500790073937,106.31962655943326,94.46309149107653,3.24249267578125e-05,0.0874469503760337,0,0,0
8930,301544.87296115054,2010-09-25 03:33:49,5702.922590007364,2,27,0.550297200679779,4.177151203155518,26.689238505134124,25.84500790073937,106.33877811522892,94.46309149107653,6.47544875391759e-05,0.0874469503760337,0,0,0
8931,301574.88836006896,2010-09-25 03:34:19,5732.937988945869,2,27,0.5501165986061096,4.180874347686768,26.693825366683207,25.84500790073937,106.3579466075651,94.46309149107653,9.70840483205393e-05,0.0874469503760337,0,0,0
8932,301604.9037258998,2010-09-25 03:34:49,5762.953354756682,2,27,0.5501165986061096,4.184597969055176,26.69841223467457,25.84500790073937,106.37713210263948,94.46309149107653,9.71794142969884e-05,0.0874469503760337,0,0,0
8933,301634.9192132039,2010-09-25 03:35:19,5792.968842070784,2,27,0.5501165986061096,4.188483238220215,26.702999051412306,25.84500790073937,106.39633438676812,94.46309149107653,0.0001619339018361,0.0874469503760337,0,0,0
8934,301664.93449205265,2010-09-25 03:35:49,5822.984120914513,2,27,0.550297200679779,4.192206382751465,26.707585882001467,25.84500790073937,106.41555412642091,94.46309149107653,0.0001295089750783,0.0874469503760337,0,0,0
8935,301694.9498651968,2010-09-25 03:36:19,5852.999494143844,2,27,0.5501165986061096,4.195767879486084,26.712172698935778,25.84500790073937,106.43479111382835,94.46309149107653,9.71794142969884e-05,0.0874469503760337,0,0,0
8936,301724.9653837889,2010-09-25 03:36:49,5883.015012655822,2,27,0.5501165986061096,4.199814796447754,26.71675950463141,25.84500790073937,106.45404558864992,94.46309149107653,0.0001295089750783,0.0874469503760337,0,0,0
8937,301726.37164548953,2010-09-25 03:36:50,5884.421274361387,2,27,0.5504778623580933,4.200138568878174,26.71697439651449,25.84500790073937,106.45494809903552,94.46309149107653,0.0001295089750783,0.0874469503760337,0,0,0
8938,301756.37634003564,2010-09-25 03:37:20,30.015356277014547,3,27,0.0,4.122271537780762,26.71697439651449,25.84500790073937,106.45494809903552,94.46309149107653,-0.0003237724304199,0.0874469503760337,0,0,0
8939,301786.3916900871,2010-09-25 03:37:50,60.03070631345166,3,27,0.0,4.112558841705322,26.71697439651449,25.84500790073937,106.45494809903552,94.46309149107653,-0.0002265930233988,0.0874469503760337,0,0,0
8940,301816.40728847845,2010-09-25 03:38:20,90.04630472988345,3,27,0.0,4.107054710388184,26.71697439651449,25.84500790073937,106.45494809903552,94.46309149107653,-0.0001295089750783,0.0874469503760337,0,0,0
8941,301846.37557859614,2010-09-25 03:38:50,120.01459482246068,3,27,0.0,4.1034932136535645,26.71697439651449,25.84500790073937,106.45494809903552,94.46309149107653,-9.70840483205393e-05,0.0874469503760337,0,0,0
8942,301846.3817894452,2010-09-25 03:38:51,0.015728245119548,4,27,0.9904420375823976,4.199491024017334,26.716978739497176,25.84500790073937,106.45496633805443,94.46309149107653,-6.47544875391759e-05,0.0874469503760337,0,0,0
8943,301847.41305047134,2010-09-25 03:38:52,1.046989261271404,4,27,0.9396908283233644,4.199653148651123,26.71725377943488,25.84500790073937,106.45612140125075,94.46309149107653,-3.23295607813634e-05,0.0874469503760337,0,0,0
8944,301849.5222925491,2010-09-25 03:38:54,3.156231333983675,4,27,0.8896620273590088,4.199653148651123,26.717788564109863,25.84500790073937,106.45836728708974,94.46309149107653,-3.23295607813634e-05,0.0874469503760337,0,0,0
8945,301852.678487803,2010-09-25 03:38:57,6.312426587905965,4,27,0.8392720818519592,4.199653148651123,26.718545425595508,25.84500790073937,106.46154581560332,94.46309149107653,0.0,0.0874469503760337,0,0,0
8946,301856.97535353096,2010-09-25 03:39:01,10.609292335869148,4,27,0.7890626788139343,4.199653148651123,26.719516140688032,25.84500790073937,106.46562246790376,94.46309149107653,3.24249267578125e-05,0.0874469503760337,0,0,0
8947,301862.50667554163,2010-09-25 03:39:07,16.140614331542967,4,27,0.7390339374542236,4.199653148651123,26.720688670229247,25.84500790073937,106.47054666552091,94.46309149107653,-3.23295607813634e-05,0.0874469503760337,0,0,0
8948,301869.6783873928,2010-09-25 03:39:14,23.312326182663647,4,27,0.6886439323425293,4.199653148651123,26.722109065356378,25.84500790073937,106.47651181625656,94.46309149107653,3.24249267578125e-05,0.0874469503760337,0,0,0
8949,301879.20976254146,2010-09-25 03:39:23,32.843701331400304,4,27,0.6386151313781738,4.199653148651123,26.72386353423624,25.84500790073937,106.48387996480112,94.46309149107653,0.0,0.0874469503760337,0,0,0
8950,301892.42816466675,2010-09-25 03:39:37,46.0621034617179,4,27,0.5885863900184631,4.199491024017334,26.726111551853258,25.84500790073937,106.49332082882675,94.46309149107653,-3.24249267578125e-05,0.0874469503760337,0,0,0
8951,301911.91239058226,2010-09-25 03:39:56,65.54632936715107,4,27,0.5385576486587524,4.199653148651123,26.72915338104728,25.84500790073937,106.50609544072616,94.46309149107653,-3.23295607813634e-05,0.0874469503760337,0,0,0
8952,301944.1465408855,2010-09-25 03:40:28,97.78047970048314,4,27,0.4883482456207275,4.199653148651123,26.733734277206807,25.84500790073937,106.52533358063272,94.46309149107653,-3.23295607813634e-05,0.0874469503760337,0,0,0
8953,301999.9741740217,2010-09-25 03:41:24,153.60811283665765,4,27,0.4383194744586944,4.199653148651123,26.74088926576271,25.84500790073937,106.55538196316276,94.46309149107653,0.0,0.0874469503760337,0,0,0
8954,302083.9891107341,2010-09-25 03:42:48,237.62304952901667,4,27,0.3881101012229919,4.199491024017334,26.750511126471903,25.84500790073937,106.59579020300616,94.46309149107653,0.0,0.0874469503760337,0,0,0
8955,302192.72263897385,2010-09-25 03:44:37,346.3565777587131,4,27,0.3380813300609588,4.199491024017334,26.761467376225266,25.84500790073937,106.64180248952614,94.46309149107653,3.23295607813634e-05,0.0874469503760337,0,0,0
8956,302323.59670393943,2010-09-25 03:46:48,477.2306427343638,4,27,0.2880525588989258,4.199491024017334,26.772829026419043,25.84500790073937,106.68951727501585,94.46309149107653,-6.47544875391759e-05,0.0874469503760337,0,0,0
8957,302481.8769491072,2010-09-25 03:49:26,635.5108879973473,4,27,0.2380237877368927,4.199491024017334,26.784367871640196,25.84500790073937,106.73797629952185,94.46309149107653,-3.24249267578125e-05,0.0874469503760337,0,0,0
8958,302679.609461689,2010-09-25 03:52:44,833.2434004738752,4,27,0.1879950165748596,4.199653148651123,26.79602649924638,25.84500790073937,106.78693837165656,94.46309149107653,0.0,0.0874469503760337,0,0,0
8959,302946.54484284733,2010-09-25 03:57:11,1100.1787816422532,4,27,0.1379662454128265,4.199491024017334,26.808034702238995,25.84500790073937,106.83736852411862,94.46309149107653,0.0,0.0874469503760337,0,0,0
8960,303351.9320989458,2010-09-25 04:03:56,1505.5660377357328,4,27,0.0879374742507934,4.199653148651123,26.82056405539557,25.84500790073937,106.88998725498688,94.46309149107653,3.24249267578125e-05,0.0874469503760337,0,0,0
8961,303907.22452646453,2010-09-25 04:13:11,2060.858465259436,4,27,0.0496483072638511,4.199653148651123,26.830928168511328,25.84500790073937,106.9335127788526,94.46309149107653,3.24249267578125e-05,0.0874469503760337,0,0,0
8962,303937.24683428084,2010-09-25 04:13:42,30.015309029076427,5,27,0.0,4.192368507385254,26.830928168511328,25.84500790073937,106.9335127788526,94.46309149107653,-6.47544875391759e-05,0.0874469503760337,0,0,0
8963,303967.24661269813,2010-09-25 04:14:12,60.01508747643155,5,27,0.0,4.191235065460205,26.830928168511328,25.84500790073937,106.9335127788526,94.46309149107653,-3.24249267578125e-05,0.0874469503760337,0,0,0
8964,303967.44139659184,2010-09-25 04:14:12,0.18732464112342,6,27,-1.9243103452026844e-05,4.191397190093994,26.830928168511328,25.84500790174068,106.9335127788526,94.4630914952734,0.0,0.0897949114441871,0,0,0
8965,303972.2694667728,2010-09-25 04:14:17,5.015394797012543,6,27,0.0007031940040178,4.191397190093994,26.8309289234396,25.845007901826467,106.93351594307433,94.46309149563298,-3.23295607813634e-05,0.0897949114441871,0,0,0
8966,304002.2923429426,2010-09-25 04:14:47,30.015372998754582,7,27,-1.099929690361023,4.030158996582031,26.8309289234396,25.85417762039038,106.93351594307433,94.50023085916938,-0.0008741378551349,0.0897949114441871,0,0,0
8967,304032.3078606576,2010-09-25 04:15:17,60.03089071374316,7,27,-1.099568486213684,4.006037712097168,26.8309289234396,25.863347346565835,106.93351594307433,94.53706713757876,-0.0004857063177041,0.0897949114441871,0,0,0
8968,304062.32313017803,2010-09-25 04:15:47,90.0461602392125,7,27,-1.0997490882873535,3.989201784133911,26.8309289234396,25.872516942870693,106.93351594307433,94.5737191621302,-0.0003885269106831,0.0897949114441871,0,0,0
8969,304092.3385170464,2010-09-25 04:16:17,120.06154709756277,7,27,-1.099929690361023,3.9759271144866943,26.8309289234396,25.88168660640147,106.93351594307433,94.61023617394224,-0.0003237724304199,0.0897949114441871,0,0,0
8970,304122.3539131679,2010-09-25 04:16:47,150.0769432491103,7,27,-1.099929690361023,3.964595079421997,26.8309289234396,25.890856202976128,106.93351594307433,94.64664173997068,-0.0003237724304199,0.0897949114441871,0,0,0
8971,304152.36929438217,2010-09-25 04:17:17,180.09232443329694,7,27,-1.0997490882873535,3.95455813407898,26.8309289234396,25.900025780536243,106.93351594307433,94.68294963684994,-0.0002590179501567,0.0897949114441871,0,0,0
8972,304182.38485620724,2010-09-25 04:17:47,210.10788625839115,7,27,-1.0997490882873535,3.9451687335968018,26.8309289234396,25.90919546928541,106.93351594307433,94.7191684477282,-0.0002590179501567,0.0897949114441871,0,0,0
8973,304212.4000362945,2010-09-25 04:18:17,240.1230663456089,7,27,-1.099929690361023,3.936103105545044,26.8309289234396,25.91836507188165,106.93351594307433,94.75530276979416,-0.0002913951757363,0.0897949114441871,0,0,0
8974,304242.41542387963,2010-09-25 04:18:47,270.13845393578583,7,27,-1.099929690361023,3.927523136138916,26.8309289234396,25.927534606641675,106.93351594307433,94.7913561221445,-0.0002266406954731,0.0897949114441871,0,0,0
8975,304272.4309260508,2010-09-25 04:19:17,300.1539561019622,7,27,-1.099929690361023,3.918943166732788,26.8309289234396,25.93670433580721,106.93351594307433,94.82733196051048,-0.0002590179501567,0.0897949114441871,0,0,0
8976,304302.4463218465,2010-09-25 04:19:47,330.16935189762137,7,27,-1.0997490882873535,3.911010980606079,26.8309289234396,25.94587408233444,106.93351594307433,94.86323166353722,-0.0001942634553415,0.0897949114441871,0,0,0
8977,304332.4615918431,2010-09-25 04:20:17,360.1846219193294,7,27,-1.099929690361023,3.902754783630371,26.8309289234396,25.95504368359704,106.93351594307433,94.89905596035076,-0.0002266406954731,0.0897949114441871,0,0,0
8978,304362.4769583106,2010-09-25 04:20:47,390.1999883617182,7,27,-1.0997490882873535,3.894984245300293,26.8309289234396,25.96421330451482,106.93351594307433,94.934807029365,-0.0002266406954731,0.0897949114441871,0,0,0
8979,304392.492334778,2010-09-25 04:21:17,420.2153648291312,7,27,-1.0997490882873535,3.887213706970215,26.8309289234396,25.97338294610888,106.93351594307433,94.97048657378268,-0.0001618862152099,0.0897949114441871,0,0,0
8980,304422.50774137065,2010-09-25 04:21:47,450.2307714217412,7,27,-1.0997490882873535,3.8794431686401367,26.8309289234396,25.98255263848213,106.93351594307433,95.0060949365732,-0.0001942634553415,0.0897949114441871,0,0,0
8981,304452.5231014671,2010-09-25 04:22:17,480.2461315182899,7,27,-1.099929690361023,3.871834516525269,26.8309289234396,25.99172234205365,106.93351594307433,95.04163294866076,-0.0001942634553415,0.0897949114441871,0,0,0
8982,304482.53845941334,2010-09-25 04:22:47,510.2614894694834,7,27,-1.099929690361023,3.8640639781951904,26.8309289234396,26.00089211127221,106.93351594307433,95.07710183564984,-0.0002266406954731,0.0897949114441871,0,0,0
8983,304512.5542406812,2010-09-25 04:23:17,540.2772708375908,7,27,-1.0997490882873535,3.856940984725952,26.8309289234396,26.01006193022726,106.93351594307433,95.11250251459498,-0.0001942634553415,0.0897949114441871,0,0,0
8984,304542.569261546,2010-09-25 04:23:47,570.292291597102,7,27,-1.0997490882873535,3.849494218826294,26.8309289234396,26.019231597105357,106.93351594307433,95.14783503286088,-0.0002266406954731,0.0897949114441871,0,0,0
8985,304572.5846239683,2010-09-25 04:24:17,600.3076540194562,7,27,-1.0997490882873535,3.842371225357056,26.8309289234396,26.02840128750603,106.93351594307433,95.18310104876136,-0.0001942634553415,0.0897949114441871,0,0,0
8986,304602.600126731,2010-09-25 04:24:47,630.3231567821215,7,27,-1.0997490882873535,3.8352482318878174,26.8309289234396,26.03757111147184,106.93351594307433,95.21830243689624,-0.0002266406954731,0.0897949114441871,0,0,0
8987,304632.6154151235,2010-09-25 04:25:17,660.338445184711,7,27,-1.0997490882873535,3.828287363052368,26.8309289234396,26.046740854204923,106.93351594307433,95.25343968916836,-0.0002266406954731,0.0897949114441871,0,0,0
8988,304662.6307946586,2010-09-25 04:25:47,690.3538247298063,7,27,-1.0997490882873535,3.82165002822876,26.8309289234396,26.055910571079707,106.93351594307433,95.28851375954916,-0.0001942634553415,0.0897949114441871,0,0,0
8989,304692.6461502589,2010-09-25 04:26:17,720.3691803201067,7,27,-1.1001102924346924,3.814850807189941,26.8309289234396,26.06508035034541,106.93351594307433,95.3235258861711,-0.0001618862152099,0.0897949114441871,0,0,0
8990,304722.6615368717,2010-09-25 04:26:47,750.3845669278313,7,27,-1.0997490882873535,3.808213472366333,26.8309289234396,26.07425010202552,106.93351594307433,95.35847649079643,-0.0001618862152099,0.0897949114441871,0,0,0
8991,304752.6770928071,2010-09-25 04:27:17,780.4001228682365,7,27,-1.0997490882873535,3.801738023757935,26.8309289234396,26.08341993539757,106.93351594307433,95.39336734680444,-0.0001618862152099,0.0897949114441871,0,0,0
8992,304782.69232397183,2010-09-25 04:27:47,810.4153540229264,7,27,-1.0997490882873535,3.795424461364746,26.8309289234396,26.092589639769177,106.93351594307433,95.42819893617168,-0.0001295089750783,0.0897949114441871,0,0,0
8993,304812.7076920934,2010-09-25 04:28:17,840.4307221445068,7,27,-1.0997490882873535,3.789272785186768,26.8309289234396,26.101759361071235,106.93351594307433,95.46297291556836,-0.0001295089750783,0.0897949114441871,0,0,0
8994,304842.72307355324,2010-09-25 04:28:47,870.4461036043816,7,27,-1.099929690361023,3.782959222793579,26.8309289234396,26.110929167410944,106.93351594307433,95.49769067298612,-0.0001618862152099,0.0897949114441871,0,0,0
8995,304872.73845808575,2010-09-25 04:29:17,900.4614881469514,7,27,-1.099929690361023,3.7769694328308105,26.8309289234396,26.12009892195072,106.93351594307433,95.53235278460758,-0.0001618862152099,0.0897949114441871,0,0,0
8996,304902.7538848688,2010-09-25 04:29:47,930.4769150151724,7,27,-1.0997490882873535,3.771303415298462,26.8309289234396,26.12926869617316,106.93351594307433,95.56696054744609,-0.0001295089750783,0.0897949114441871,0,0,0
8997,304932.7692550104,2010-09-25 04:30:17,960.4922851517828,7,27,-1.099929690361023,3.765313625335693,26.8309289234396,26.138438428623584,106.93351594307433,95.60151465543647,-0.0001618862152099,0.0897949114441871,0,0,0
8998,304962.78464720206,2010-09-25 04:30:47,990.5076772632456,7,27,-1.099929690361023,3.7596476078033447,26.8309289234396,26.14760824613451,106.93351594307433,95.63601667738688,-0.0001618862152099,0.0897949114441871,0,0,0
8999,304992.7999736396,2010-09-25 04:31:17,1020.5230037158136,7,27,-1.0997490882873535,3.754143476486206,26.8309289234396,26.15677794021012,106.93351594307433,95.6704668019544,-0.0001618862152099,0.0897949114441871,0,0,0
9000,305022.8153688338,2010-09-25 04:31:47,1050.538398894934,7,27,-1.1001102924346924,3.7486395835876474,26.8309289234396,26.16594771592957,106.93351594307433,95.70486653183085,-0.0001618862152099,0.0897949114441871,0,0,0
9001,305052.83089179185,2010-09-25 04:32:17,1080.55392185301,7,27,-1.099929690361023,3.7432973384857178,26.8309289234396,26.1751174864274,106.93351594307433,95.73921679401346,-0.0001618862152099,0.0897949114441871,0,0,0
9002,305082.8461286858,2010-09-25 04:32:47,1110.569158737001,7,27,-1.099929690361023,3.738116979598999,26.8309289234396,26.184287257326773,106.93351594307433,95.77351820082662,-0.0001295089750783,0.0897949114441871,0,0,0
9003,305112.8615237096,2010-09-25 04:33:17,1140.5845537607331,7,27,-1.099929690361023,3.73293662071228,26.8309289234396,26.193456953937098,106.93351594307433,95.80777186610857,-0.0001295089750783,0.0897949114441871,0,0,0
9004,305142.8771595444,2010-09-25 04:33:47,1170.6001896156174,7,27,-1.0997490882873535,3.727918148040772,26.8309289234396,26.202626648487843,106.93351594307433,95.84197880889162,-0.0001942634553415,0.0897949114441871,0,0,0
9005,305172.8923132608,2010-09-25 04:34:17,1200.6153433320096,7,27,-1.0997490882873535,3.7230615615844727,26.8309289234396,26.21179615454089,106.93351594307433,95.87613942444256,-0.0001295089750783,0.0897949114441871,0,0,0
9006,305202.90767014434,2010-09-25 04:34:47,1230.630700195488,7,27,-1.099929690361023,3.718043088912964,26.8309289234396,26.2209657920486,106.93351594307433,95.910255155507,-0.0001295089750783,0.0897949114441871,0,0,0
9007,305232.9231792629,2010-09-25 04:35:17,1260.6462093240434,7,27,-1.0997490882873535,3.713348388671875,26.8309289234396,26.230135447019386,106.93351594307433,95.94432628799647,-9.713172767078504e-05,0.0897949114441871,0,0,0
9008,305262.9384524926,2010-09-25 04:35:47,1290.661482553759,7,27,-1.099929690361023,3.708329916000366,26.8309289234396,26.23930506518904,106.93351594307433,95.97835317655093,-0.0001295089750783,0.0897949114441871,0,0,0
9009,305292.9538340978,2010-09-25 04:36:17,1320.6768641790468,7,27,-1.099929690361023,3.7037971019744873,26.8309289234396,26.24847476780449,106.93351594307433,96.0123372084472,-9.713172767078504e-05,0.0897949114441871,0,0,0
9010,305322.9692129813,2010-09-25 04:36:47,1350.692243037428,7,27,-1.0997490882873535,3.699264287948608,26.8309289234396,26.257644393578342,106.93351594307433,96.0462782841864,-9.713172767078504e-05,0.0897949114441871,0,0,0
9011,305352.9846002056,2010-09-25 04:37:18,1380.7076302817418,7,27,-1.0997490882873535,3.69456958770752,26.8309289234396,26.26681401799545,106.93351594307433,96.08017731492548,-0.0001618862152099,0.0897949114441871,0,0,0
9012,305383.0000415148,2010-09-25 04:37:48,1410.7230715960225,7,27,-1.0997490882873535,3.6900367736816406,26.8309289234396,26.275983719976736,106.93351594307433,96.11403507205712,-0.0001295089750783,0.0897949114441871,0,0,0
9013,305413.01536104514,2010-09-25 04:38:18,1440.7383910962365,7,27,-1.099929690361023,3.685665845870972,26.8309289234396,26.2851533224706,106.93351594307433,96.14785157516415,-9.713172767078504e-05,0.0897949114441871,0,0,0
9014,305443.0308243593,2010-09-25 04:38:48,1470.7538545958953,7,27,-1.0997490882873535,3.681294918060303,26.8309289234396,26.294322993388924,106.93351594307433,96.18162811985812,-0.0001618862152099,0.0897949114441871,0,0,0
9015,305473.0462573678,2010-09-25 04:39:18,1500.769287423993,7,27,-1.0997490882873535,3.677085876464844,26.8309289234396,26.303492650099628,106.93351594307433,96.21536489492875,-9.713172767078504e-05,0.0897949114441871,0,0,0
9016,305503.06154104864,2010-09-25 04:39:48,1530.7845710997838,7,27,-1.0997490882873535,3.672714948654175,26.8309289234396,26.312662267837165,106.93351594307433,96.2490625481582,-0.0001295089750783,0.0897949114441871,0,0,0
9017,305533.0770307236,2010-09-25 04:40:18,1560.80006077478,7,27,-1.099929690361023,3.668506145477295,26.8309289234396,26.321832028471345,106.93351594307433,96.28272202974178,-0.0001295089750783,0.0897949114441871,0,0,0
9018,305563.0922998682,2010-09-25 04:40:48,1590.8153299192986,7,27,-1.0997490882873535,3.664620876312256,26.8309289234396,26.331001680224592,106.93351594307433,96.31634328908616,-9.713172767078504e-05,0.0897949114441871,0,0,0
9019,305593.10769867635,2010-09-25 04:41:18,1620.8307287575526,7,27,-1.099929690361023,3.660573720932007,26.8309289234396,26.3401713822614,106.93351594307433,96.34992754816908,-0.0001295089750783,0.0897949114441871,0,0,0
9020,305623.1231139857,2010-09-25 04:41:48,1650.846144046871,7,27,-1.099568486213684,3.656688451766968,26.8309289234396,26.34934109447147,106.93351594307433,96.38347531615334,-6.47544875391759e-05,0.0897949114441871,0,0,0
9021,305653.1384499821,2010-09-25 04:42:18,1680.8614800382495,7,27,-1.099929690361023,3.652641296386719,26.8309289234396,26.35851066102594,106.93351594307433,96.4169870505231,-9.713172767078504e-05,0.0897949114441871,0,0,0
9022,305683.1538332916,2010-09-25 04:42:48,1710.8768633477412,7,27,-1.0997490882873535,3.6489179134368896,26.8309289234396,26.3676803117108,106.93351594307433,96.45046409534048,-0.0001295089750783,0.0897949114441871,0,0,0
9023,305713.1694743695,2010-09-25 04:43:18,1740.892504430675,7,27,-1.0997490882873535,3.6453564167022714,26.8309289234396,26.37684998714513,106.93351594307433,96.4839068861923,-9.713172767078504e-05,0.0897949114441871,0,0,0
9024,305743.169651893,2010-09-25 04:43:48,1770.8926820494237,7,27,-1.099929690361023,3.6416330337524414,26.8309289234396,26.38601489540148,106.93351594307433,96.51729905595562,-9.713172767078504e-05,0.0897949114441871,0,0,0
9025,305773.18437498953,2010-09-25 04:44:18,1800.9074050456716,7,27,-1.099929690361023,3.6380715370178223,26.8309289234396,26.39518434110081,106.93351594307433,96.55067511892408,-0.0001295089750783,0.0897949114441871,0,0,0
9026,305803.1997443993,2010-09-25 04:44:48,1830.92277446048,7,27,-1.099929690361023,3.634671926498413,26.8309289234396,26.40435396702357,106.93351594307433,96.58402011627275,-0.0001295089750783,0.0897949114441871,0,0,0
9027,305833.21525848523,2010-09-25 04:45:18,1860.93828854641,7,27,-1.099568486213684,3.631272315979004,26.8309289234396,26.41352370304378,106.93351594307433,96.61733419399812,-9.713172767078504e-05,0.0897949114441871,0,0,0
9028,305863.23051569,2010-09-25 04:45:48,1890.9535457561376,7,27,-1.0997490882873535,3.6280345916748047,26.8309289234396,26.4226932560145,106.93351594307433,96.65061712029224,-0.0001295089750783,0.0897949114441871,0,0,0
9029,305893.24581052864,2010-09-25 04:46:18,1920.968840680005,7,27,-1.099568486213684,3.624958753585816,26.8309289234396,26.431862900454064,106.93351594307433,96.68387059513742,-6.47544875391759e-05,0.0897949114441871,0,0,0
9030,305923.26140373707,2010-09-25 04:46:48,1950.9844337982115,7,27,-1.0997490882873535,3.621721029281616,26.8309289234396,26.441033403099052,106.93351594307433,96.7170978018666,-9.713172767078504e-05,0.0897949114441871,0,0,0
9031,305953.2766062703,2010-09-25 04:47:18,1980.9996363615328,7,27,-1.099929690361023,3.618483304977417,26.8309289234396,26.45020375136008,106.93351594307433,96.750296030966,-9.713172767078504e-05,0.0897949114441871,0,0,0
9032,305983.29204666725,2010-09-25 04:47:48,2011.0150767234368,7,27,-1.099929690361023,3.615731239318848,26.8309289234396,26.459374127970783,106.93351594307433,96.7834665612294,-6.47544875391759e-05,0.0897949114441871,0,0,0
9033,306013.3074413502,2010-09-25 04:48:18,2041.0304714113304,7,27,-1.099929690361023,3.6126554012298575,26.8309289234396,26.468544561199185,106.93351594307433,96.81660991279246,-3.237724376958795e-05,0.0897949114441871,0,0,0
9034,306043.3228082988,2010-09-25 04:48:48,2071.0458383750206,7,27,-1.099929690361023,3.609741449356079,26.8309289234396,26.47771503572356,106.93351594307433,96.8497264863724,-6.47544875391759e-05,0.0897949114441871,0,0,0
9035,306073.33819476614,2010-09-25 04:49:18,2101.061224822345,7,27,-1.099929690361023,3.6068274974823,26.8309289234396,26.48688555275026,106.93351594307433,96.88281672791308,-9.713172767078504e-05,0.0897949114441871,0,0,0
9036,306103.3535823564,2010-09-25 04:49:48,2131.0766124175343,7,27,-1.0997490882873535,3.6040754318237305,26.8309289234396,26.49605516040909,106.93351594307433,96.91587772387544,-6.47544875391759e-05,0.0897949114441871,0,0,0
9037,306133.3692965017,2010-09-25 04:50:18,2161.0923265828933,7,27,-1.0997490882873535,3.601161479949951,26.8309289234396,26.505224758695636,106.93351594307433,96.9489127962449,-9.713172767078504e-05,0.0897949114441871,0,0,0
9038,306163.3843782635,2010-09-25 04:50:48,2191.107408414851,7,27,-1.0997490882873535,3.598571300506592,26.8309289234396,26.514394233717837,106.93351594307433,96.98192168714222,-3.237724376958795e-05,0.0897949114441871,0,0,0
9039,306193.39973710687,2010-09-25 04:51:18,2221.1227671680463,7,27,-1.0997490882873535,3.5956573486328125,26.8309289234396,26.523563827577703,106.93351594307433,97.01490523749052,-9.713172767078504e-05,0.0897949114441871,0,0,0
9040,306223.4151169778,2010-09-25 04:51:48,2251.1381470289302,7,27,-1.099929690361023,3.592743396759033,26.8309289234396,26.53273339955643,106.93351594307433,97.04786296390608,-9.713172767078504e-05,0.0897949114441871,0,0,0
9041,306253.4305195203,2010-09-25 04:52:18,2281.15354957143,7,27,-1.0997490882873535,3.590153455734253,26.8309289234396,26.541902951269947,106.93351594307433,97.08079505507192,-6.47544875391759e-05,0.0897949114441871,0,0,0
9042,306283.4458975666,2010-09-25 04:52:48,2311.168927622797,7,27,-1.0997490882873535,3.5872395038604736,26.8309289234396,26.551072523091275,106.93351594307433,97.11370132893671,-6.47544875391759e-05,0.0897949114441871,0,0,0
9043,306313.4612881643,2010-09-25 04:53:18,2341.184318220481,7,27,-1.0997490882873535,3.5843255519866943,26.8309289234396,26.560242153185676,106.93351594307433,97.146581365584,-0.0001295089750783,0.0897949114441871,0,0,0
9044,306343.47665233107,2010-09-25 04:53:48,2371.1996823871896,7,27,-1.0997490882873535,3.581411600112915,26.8309289234396,26.56941164354614,106.93351594307433,97.17943450016972,-6.47544875391759e-05,0.0897949114441871,0,0,0
9045,306373.4921930835,2010-09-25 04:54:18,2401.215223139683,7,27,-1.0997490882873535,3.578497648239136,26.8309289234396,26.57858125291499,106.93351594307433,97.21226112034422,-6.47544875391759e-05,0.0897949114441871,0,0,0
9046,306403.50743531587,2010-09-25 04:54:48,2431.230465367012,7,27,-1.099929690361023,3.5754218101501465,26.8309289234396,26.587750824348426,106.93351594307433,97.24506012537356,-0.0001295089750783,0.0897949114441871,0,0,0
9047,306433.5228108309,2010-09-25 04:55:18,2461.245840882048,7,27,-1.099929690361023,3.572345972061157,26.8309289234396,26.596920383215203,106.93351594307433,97.27783131532908,-0.0001295089750783,0.0897949114441871,0,0,0
9048,306463.5385640989,2010-09-25 04:55:48,2491.2615941550253,7,27,-1.0997490882873535,3.569270133972168,26.8309289234396,26.60609004316889,106.93351594307433,97.31057420519775,-6.47544875391759e-05,0.0897949114441871,0,0,0
9049,306493.5535758058,2010-09-25 04:56:18,2521.27660586194,7,27,-1.0997490882873535,3.565870523452759,26.8309289234396,26.6152593458052,106.93351594307433,97.34328630988334,-9.713172767078504e-05,0.0897949114441871,0,0,0
9050,306523.5689438973,2010-09-25 04:56:48,2551.2919739584577,7,27,-1.0997490882873535,3.56263279914856,26.8309289234396,26.624428754042484,106.93351594307433,97.37596851763854,-9.713172767078504e-05,0.0897949114441871,0,0,0
9051,306553.58445460483,2010-09-25 04:57:18,2581.30748465593,7,27,-1.099568486213684,3.5592331886291504,26.8309289234396,26.63359823700279,106.93351594307433,97.40862033706804,-9.713172767078504e-05,0.0897949114441871,0,0,0
9052,306583.5997337844,2010-09-25 04:57:48,2611.3227638354974,7,27,-1.0997490882873535,3.5555098056793213,26.8309289234396,26.6427676802686,106.93351594307433,97.44123949606517,-0.0001295089750783,0.0897949114441871,0,0,0
9053,306613.6151138758,2010-09-25 04:58:18,2641.338143926956,7,27,-1.0997490882873535,3.551948308944702,26.8309289234396,26.651937164484995,106.93351594307433,97.47382517554976,-6.47544875391759e-05,0.0897949114441871,0,0,0
9054,306643.6304880375,2010-09-25 04:58:48,2671.353518088614,7,27,-1.099929690361023,3.547901153564453,26.8309289234396,26.66110673351501,106.93351594307433,97.5063760730559,-0.0001295089750783,0.0897949114441871,0,0,0
9055,306673.6458788507,2010-09-25 04:59:18,2701.3689089118607,7,27,-1.0997490882873535,3.543853998184204,26.8309289234396,26.670276294325383,106.93351594307433,97.5388905755046,-0.0001295089750783,0.0897949114441871,0,0,0
9056,306703.6614129817,2010-09-25 04:59:48,2731.3844430428258,7,27,-1.099568486213684,3.539806842803955,26.8309289234396,26.679445935031357,106.93351594307433,97.57136743628736,-6.47544875391759e-05,0.0897949114441871,0,0,0
9057,306733.6766533644,2010-09-25 05:00:18,2761.3996834456007,7,27,-1.0997490882873535,3.535435914993286,26.8309289234396,26.688615497365003,106.93351594307433,97.6038046951192,-6.47544875391759e-05,0.0897949114441871,0,0,0
9058,306763.6920247341,2010-09-25 05:00:48,2791.415054785214,7,27,-1.099929690361023,3.5307412147521973,26.8309289234396,26.697785158117007,106.93351594307433,97.63620126373355,-0.0001295089750783,0.0897949114441871,0,0,0
9059,306793.70742503094,2010-09-25 05:01:18,2821.430455082109,7,27,-1.099929690361023,3.5258846282958984,26.8309289234396,26.706954758297847,106.93351594307433,97.66855478327987,-0.0001295089750783,0.0897949114441871,0,0,0
9060,306823.7228267564,2010-09-25 05:01:48,2851.4458568075697,7,27,-1.099568486213684,3.5210280418396,26.8309289234396,26.71612433819,106.93351594307433,97.70086274531856,-0.0001295089750783,0.0897949114441871,0,0,0
9061,306853.73824679764,2010-09-25 05:02:18,2881.46127696905,7,27,-1.0997490882873535,3.515200138092041,26.8309289234396,26.725293887552,106.93351594307433,97.73312236489396,-0.0001942634553415,0.0897949114441871,0,0,0
9062,306883.75359474384,2010-09-25 05:02:48,2911.476624799982,7,27,-1.099568486213684,3.5095343589782715,26.8309289234396,26.73446348383908,106.93351594307433,97.76532948208728,-0.0001295089750783,0.0897949114441871,0,0,0
9063,306913.7689678228,2010-09-25 05:03:18,2941.4919978739235,7,27,-1.0997490882873535,3.502735137939453,26.8309289234396,26.743633135695877,106.93351594307433,97.79747957277048,-0.0001942634553415,0.0897949114441871,0,0,0
9064,306943.7843388115,2010-09-25 05:03:48,2971.507368867673,7,27,-1.0997490882873535,3.495450258255005,26.8309289234396,26.752802674880108,106.93351594307433,97.82956561462235,-0.0002266406954731,0.0897949114441871,0,0,0
9065,306973.7997391786,2010-09-25 05:04:18,3001.5227692297312,7,27,-1.099929690361023,3.487194061279297,26.8309289234396,26.7619723248428,106.93351594307433,97.86158106858412,-0.0002590179501567,0.0897949114441871,0,0,0
9066,307003.8151314905,2010-09-25 05:04:48,3031.5381616369323,7,27,-1.0997490882873535,3.477642774581909,26.8309289234396,26.77114189275552,106.93351594307433,97.89351495503116,-0.0002913951757363,0.0897949114441871,0,0,0
9067,307033.8304706398,2010-09-25 05:05:18,3061.553500690956,7,27,-1.099929690361023,3.466634511947632,26.8309289234396,26.780311488913927,106.93351594307433,97.92535490982452,-0.0002913951757363,0.0897949114441871,0,0,0
9068,307063.8458508516,2010-09-25 05:05:48,3091.568880902715,7,27,-1.099929690361023,3.453197956085205,26.8309289234396,26.78948111426606,106.93351594307433,97.95708317617726,-0.0003885269106831,0.0897949114441871,0,0,0
9069,307093.86143614026,2010-09-25 05:06:18,3121.5844662214527,7,27,-1.0997490882873535,3.436038017272949,26.8309289234396,26.798650755521265,106.93351594307433,97.98867252159998,-0.0005180359003134,0.0897949114441871,0,0,0
9070,307123.8766320219,2010-09-25 05:06:48,3151.5996620730207,7,27,-1.099929690361023,3.412726640701294,26.8309289234396,26.80782022308674,106.93351594307433,98.02007880673182,-0.0007770538213662,0.0897949114441871,0,0,0
9071,307153.8920100332,2010-09-25 05:07:18,3181.615040084288,7,27,-1.0997490882873535,3.380187511444092,26.8309289234396,26.81698976815496,106.93351594307433,98.05123278389466,-0.0010360718006268,0.0897949114441871,0,0,0
9072,307183.90739153815,2010-09-25 05:07:48,3211.630421594288,7,27,-1.0997490882873535,3.3329169750213623,26.8309289234396,26.82615931742905,106.93351594307433,98.08202409049728,-0.0014893531333655,0.0897949114441871,0,0,0
9073,307213.92280852667,2010-09-25 05:08:18,3241.645838602897,7,27,-1.099568486213684,3.264601230621338,26.8309289234396,26.83532881718586,106.93351594307433,98.11229080837352,-0.0021044730674475,0.0897949114441871,0,0,0
9074,307243.93817334005,2010-09-25 05:08:48,3271.661203391157,7,27,-1.0997490882873535,3.1635844707489014,26.8309289234396,26.844498393634908,106.93351594307433,98.14179522762058,-0.0032053471077233,0.0897949114441871,0,0,0
9075,307273.953557652,2010-09-25 05:09:18,3301.676587708164,7,27,-1.0997490882873535,2.988585948944092,26.8309289234396,26.85366790504763,106.93351594307433,98.17010080765212,-0.0066049573943018,0.0897949114441871,0,0,0
9076,307288.8753083524,2010-09-25 05:09:33,3316.598338403553,7,27,-1.099929690361023,2.788171529769897,26.8309289234396,26.858226388759785,106.93351594307433,98.18332184386117,-0.0135660171508789,0.0897949114441871,0,0,0
9077,307293.76592778094,2010-09-25 05:09:38,3321.488957862125,7,27,-1.0997490882873535,2.699458122253418,26.8309289234396,26.859720449734827,106.93351594307433,98.1874215886414,-0.0145373344421386,0.0897949114441871,0,0,0
9078,307353.7839717714,2010-09-25 05:10:38,60.01511596253725,8,27,0.0,3.3275747299194336,26.8309289234396,26.859720449734827,106.93351594307433,98.1874215886414,0.0014569759368896,0.0897949114441871,0,0,0
9079,307353.97503928497,2010-09-25 05:10:39,0.187623512151486,9,27,-1.9243103452026844e-05,3.327898502349853,26.8309289234396,26.859720450737733,106.93351594307433,98.18742159197896,0.0,0.0884163826704025,0,0,0
9080,307358.8030048548,2010-09-25 05:10:44,5.01558916719041,9,27,0.0005225847125984,3.3366403579711914,26.830929714390933,26.859720450987773,106.9335185792656,98.18742159281146,0.0012627125252038,0.0884163826704025,0,0,0
