Data_Point,Test_Time(s),Date_Time,Step_Time(s),Step_Index,Cycle_Index,Current(A),Voltage(V),Charge_Capacity(Ah),Discharge_Capacity(Ah),Charge_Energy(Wh),Discharge_Energy(Wh),dV/dt(V/s),Internal_Resistance(Ohm),Is_FC_Data,AC_Impedance(Ohm),ACI_Phase_Angle(Deg)
12872,435432.7686793168,2010-09-26 16:45:30,30.01502210286446,1,39,0.0,3.3555808067321777,38.00277395021921,38.04744813726998,151.37937830101745,139.2742777608769,0.0008094310760498,0.0867155864834785,0,0,0
12873,435462.7840872177,2010-09-26 16:46:00,60.0304299987276,1,39,0.0,3.3821301460266118,38.00277395021921,38.04744813726998,151.37937830101745,139.2742777608769,0.0005827903514727,0.0867155864834785,0,0,0
12874,435492.7994943617,2010-09-26 16:46:30,90.04583724296415,1,39,0.0,3.4020421504974365,38.00277395021921,38.04744813726998,151.37937830101745,139.2742777608769,0.0004532813909463,0.0867155864834785,0,0,0
12875,435522.7680647289,2010-09-26 16:47:00,120.01440750989973,1,39,0.0,3.4179069995880127,38.00277395021921,38.04744813726998,151.37937830101745,139.2742777608769,0.0003885269106831,0.0867155864834785,0,0,0
12876,435552.7804132022,2010-09-26 16:47:30,30.015408492352066,2,39,0.5501165986061096,3.564737319946289,38.007360112280125,38.04744813726998,151.39556200422436,139.2742777608769,0.0015864849556237,0.0867155864834785,0,0,0
12877,435582.79582784494,2010-09-26 16:48:00,60.03082313505635,2,39,0.5499359965324402,3.614112377166748,38.01194620954341,38.04744813726998,151.41203073434468,139.2742777608769,0.0011008263099938,0.0867155864834785,0,0,0
12878,435612.811247425,2010-09-26 16:48:30,90.04624271508497,2,39,0.550297200679779,3.650698661804199,38.016532357312656,38.04744813726998,151.42869279532178,139.2742777608769,0.0009065627818927,0.0867155864834785,0,0,0
12879,435642.8275284051,2010-09-26 16:49:00,120.062523705326,2,39,0.5499359965324402,3.679190397262573,38.02111857671168,38.04744813726998,151.44550280357495,139.2742777608769,0.0006799221155233,0.0867155864834785,0,0,0
12880,435672.8421004295,2010-09-26 16:49:30,150.07709571970034,2,39,0.5499359965324402,3.702502012252808,38.02570451984492,38.04744813726998,151.462430843045,139.2742777608769,0.0005504131549969,0.0867155864834785,0,0,0
12881,435702.85754672624,2010-09-26 16:50:00,180.09254202644294,2,39,0.5501165986061096,3.722252130508423,38.03029064081911,38.04744813726998,151.47945804020748,139.2742777608769,0.0004532813909463,0.0867155864834785,0,0,0
12882,435732.8729423615,2010-09-26 16:50:30,210.10793775192693,2,39,0.5501165986061096,3.738440752029419,38.03487665406788,38.04744813726998,151.49656643702227,139.2742777608769,0.0003561496851034,0.0867155864834785,0,0,0
12883,435762.888788,2010-09-26 16:51:00,240.12378340550063,2,39,0.5501165986061096,3.750420331954956,38.03946263350157,38.04744813726998,151.51373968631623,139.2742777608769,0.0002590179501567,0.0867155864834785,0,0,0
12884,435792.9037715768,2010-09-26 16:51:30,270.1387668669101,2,39,0.5501165986061096,3.7575430870056152,38.04404843007436,38.04744813726998,151.53095600679154,139.2742777608769,0.0001618862152099,0.0867155864834785,0,0,0
12885,435822.91919577325,2010-09-26 16:52:00,300.1541910684748,2,39,0.5499359965324402,3.761752128601074,38.04863434452767,38.04744813726998,151.54819792338347,139.2742777608769,9.713172767078504e-05,0.0867155864834785,0,0,0
12886,435852.9346537492,2010-09-26 16:52:30,330.1696490393328,2,39,0.5499359965324402,3.7651517391204834,38.0532203876925,38.04744813726998,151.56545739094236,139.2742777608769,9.713172767078504e-05,0.0867155864834785,0,0,0
12887,435882.950213063,2010-09-26 16:53:00,360.18520835315843,2,39,0.5501165986061096,3.7683894634246826,38.05780652865265,38.04744813726998,151.58273206026,139.2742777608769,9.713172767078504e-05,0.0867155864834785,0,0,0
12888,435912.9656113499,2010-09-26 16:53:30,390.2006066450485,2,39,0.5501165986061096,3.771465301513672,38.06239261121348,38.04744813726998,151.60002089073458,139.2742777608769,9.713172767078504e-05,0.0867155864834785,0,0,0
12889,435942.9808983389,2010-09-26 16:54:00,420.21589362909725,2,39,0.5499359965324402,3.774541139602661,38.06697864993962,38.04744813726998,151.61732378197374,139.2742777608769,9.713172767078504e-05,0.0867155864834785,0,0,0
12890,435972.9962907762,2010-09-26 16:54:30,450.2312860663733,2,39,0.5501165986061096,3.77745509147644,38.07156480658224,38.04744813726998,151.6346411085441,139.2742777608769,9.713172767078504e-05,0.0867155864834785,0,0,0
12891,436003.01172158425,2010-09-26 16:55:00,480.2467168744288,2,39,0.5499359965324402,3.7805309295654297,38.076150859396506,38.04744813726998,151.651971774242,139.2742777608769,6.47544875391759e-05,0.0867155864834785,0,0,0
12892,436033.0271380014,2010-09-26 16:55:30,510.26213329657486,2,39,0.5501165986061096,3.783444881439209,38.08073698278152,38.04744813726998,151.6693161162715,139.2742777608769,9.713172767078504e-05,0.0867155864834785,0,0,0
12893,436063.0420309518,2010-09-26 16:56:00,540.2770262320176,2,39,0.5501165986061096,3.786358833312988,38.08532065783268,38.04744813726998,151.6866644688092,139.2742777608769,6.47544875391759e-05,0.0867155864834785,0,0,0
12894,436093.04235184327,2010-09-26 16:56:30,570.2773471334215,2,39,0.5499359965324402,3.788949012756348,38.089906783877616,38.04744813726998,151.70403516038994,139.2742777608769,6.47544875391759e-05,0.0867155864834785,0,0,0
12895,436123.0577890373,2010-09-26 16:57:01,600.2927843274173,2,39,0.5501165986061096,3.791862964630127,38.09449290537554,38.04744813726998,151.7214187899486,139.2742777608769,6.47544875391759e-05,0.0867155864834785,0,0,0
12896,436153.0732011988,2010-09-26 16:57:31,630.3081964889282,2,39,0.5497553944587708,3.794615030288696,38.09907900651639,38.04744813726998,151.73881517748018,139.2742777608769,6.47544875391759e-05,0.0867155864834785,0,0,0
12897,436183.08873350016,2010-09-26 16:58:01,660.3237288003517,2,39,0.5499359965324402,3.797528982162476,38.10366516954048,38.04744813726998,151.7562246876787,139.2742777608769,6.47544875391759e-05,0.0867155864834785,0,0,0
12898,436213.10401793785,2010-09-26 16:58:31,690.3390132330318,2,39,0.5497553944587708,3.800281047821045,38.10825115516478,38.04744813726998,151.77364650387975,139.2742777608769,6.47544875391759e-05,0.0867155864834785,0,0,0
12899,436243.11956331687,2010-09-26 16:59:01,720.354558612074,2,39,0.5501165986061096,3.803194999694824,38.11283725379234,38.04744813726998,151.79108188132795,139.2742777608769,6.47544875391759e-05,0.0867155864834785,0,0,0
12900,436273.13488169934,2010-09-26 16:59:31,750.3698769944979,2,39,0.5501165986061096,3.8062708377838135,38.11742325368403,38.04744813726998,151.8085303327819,139.2742777608769,9.713172767078504e-05,0.0867155864834785,0,0,0
12901,436303.1502798558,2010-09-26 17:00:01,780.3852751460377,2,39,0.5499359965324402,3.8091847896575928,38.12200933945677,38.04744813726998,151.82599305421465,139.2742777608769,3.237724376958795e-05,0.0867155864834785,0,0,0
12902,436333.1657154058,2010-09-26 17:00:31,810.400710690917,2,39,0.5501165986061096,3.812584400177002,38.12659544147223,38.04744813726998,151.8434702567206,139.2742777608769,0.0001295089750783,0.0867155864834785,0,0,0
12903,436363.1811203192,2010-09-26 17:01:01,840.4161156143605,2,39,0.5499359965324402,3.815984010696411,38.1311815024125,38.04744813726998,151.86096261145696,139.2742777608769,9.713172767078504e-05,0.0867155864834785,0,0,0
12904,436393.19667915686,2010-09-26 17:01:31,870.4316744519977,2,39,0.5499359965324402,3.8192217350006095,38.1357676809119,38.04744813726998,151.8784708030291,139.2742777608769,6.47544875391759e-05,0.0867155864834785,0,0,0
12905,436423.21211152873,2010-09-26 17:02:01,900.447106914182,2,39,0.5499359965324402,3.8227832317352295,38.140353860600605,38.04744813726998,151.89599464876787,139.2742777608769,9.713172767078504e-05,0.0867155864834785,0,0,0
12906,436453.22751312895,2010-09-26 17:02:31,930.4625084291172,2,39,0.550297200679779,3.826182842254639,38.144939932726174,38.04744813726998,151.91353372602052,139.2742777608769,6.47544875391759e-05,0.0867155864834785,0,0,0
12907,436483.2431047134,2010-09-26 17:03:01,960.4781000084828,2,39,0.5499359965324402,3.829420566558838,38.14952604186371,38.04744813726998,151.93108849299412,139.2742777608769,9.713172767078504e-05,0.0867155864834785,0,0,0
12908,436513.2582603294,2010-09-26 17:03:31,990.4932556246168,2,39,0.5501165986061096,3.832820177078247,38.154112168549766,38.04744813726998,151.94865871863271,139.2742777608769,9.713172767078504e-05,0.0867155864834785,0,0,0
12909,436543.2736400249,2010-09-26 17:04:01,1020.5086353100623,2,39,0.5499359965324402,3.836057662963867,38.15869830711076,38.04744813726998,151.96624394137334,139.2742777608769,6.47544875391759e-05,0.0867155864834785,0,0,0
12910,436573.2890445674,2010-09-26 17:04:31,1050.52403986258,2,39,0.5501165986061096,3.8392953872680655,38.16328442475477,38.04744813726998,151.98384383995088,139.2742777608769,9.713172767078504e-05,0.0867155864834785,0,0,0
12911,436603.3044781023,2010-09-26 17:05:01,1080.5394733924295,2,39,0.550297200679779,3.8425331115722656,38.16787046812782,38.04744813726998,152.00145778560648,139.2742777608769,0.0001295089750783,0.0867155864834785,0,0,0
12912,436633.3199097123,2010-09-26 17:05:31,1110.554905002487,2,39,0.5499359965324402,3.845447063446045,38.17245656125089,38.04744813726998,152.01908599464775,139.2742777608769,9.713172767078504e-05,0.0867155864834785,0,0,0
12913,436663.335329944,2010-09-26 17:06:01,1140.5703252391547,2,39,0.5499359965324402,3.8481991291046143,38.177042654335615,38.04744813726998,152.0367279395424,139.2742777608769,6.47544875391759e-05,0.0867155864834785,0,0,0
12914,436693.35083842085,2010-09-26 17:06:31,1170.5858337261086,2,39,0.5501165986061096,3.8511130809783936,38.18162871113674,38.04744813726998,152.05438314721826,139.2742777608769,6.47544875391759e-05,0.0867155864834785,0,0,0
12915,436723.3662963666,2010-09-26 17:07:01,1200.601291671904,2,39,0.550297200679779,3.854027032852173,38.18621485305037,38.04744813726998,152.07205161385463,139.2742777608769,9.713172767078504e-05,0.0867155864834785,0,0,0
12916,436753.381595461,2010-09-26 17:07:31,1230.6165907561567,2,39,0.5501165986061096,3.856455326080322,38.1908009653428,38.04744813726998,152.08973224392454,139.2742777608769,6.47544875391759e-05,0.0867155864834785,0,0,0
12917,436783.3969981237,2010-09-26 17:08:01,1260.6319934139449,2,39,0.5499359965324402,3.8590455055236816,38.1953870207582,38.04744813726998,152.10742436297443,139.2742777608769,6.47544875391759e-05,0.0867155864834785,0,0,0
12918,436813.4124526761,2010-09-26 17:08:31,1290.6474479612573,2,39,0.550297200679779,3.861473798751831,38.19997317747771,38.04744813726998,152.12512794725873,139.2742777608769,9.713172767078504e-05,0.0867155864834785,0,0,0
12919,436843.42796821066,2010-09-26 17:09:01,1320.662963505828,2,39,0.5499359965324402,3.8637402057647705,38.204559355579,38.04744813726998,152.14284206195046,139.2742777608769,6.47544875391759e-05,0.0867155864834785,0,0,0
12920,436873.44346445205,2010-09-26 17:09:31,1350.678459742203,2,39,0.5501165986061096,3.86568284034729,38.20914543744325,38.04744813726998,152.16056548898317,139.2742777608769,6.47544875391759e-05,0.0867155864834785,0,0,0
12921,436903.458700925,2010-09-26 17:10:01,1380.6936962151678,2,39,0.5501165986061096,3.8674635887146,38.213731533830895,38.04744813726998,152.1782981769493,139.2742777608769,3.237724376958795e-05,0.0867155864834785,0,0,0
12922,436933.4741010365,2010-09-26 17:10:31,1410.7090963265998,2,39,0.5501165986061096,3.869406223297119,38.218317735905536,38.04744813726998,152.1960399049552,139.2742777608769,3.237724376958795e-05,0.0867155864834785,0,0,0
12923,436963.4895151578,2010-09-26 17:11:01,1440.7245104429903,2,39,0.5499359965324402,3.8710250854492183,38.22290388292478,38.04744813726998,152.2137893971619,139.2742777608769,0.0,0.0867155864834785,0,0,0
12924,436993.5050750632,2010-09-26 17:11:31,1470.7400703533049,2,39,0.5499359965324402,3.8726439476013184,38.22749003805572,38.04744813726998,152.23154636175482,139.2742777608769,3.237724376958795e-05,0.0867155864834785,0,0,0
12925,437023.5203631249,2010-09-26 17:12:01,1500.7553584150437,2,39,0.5501165986061096,3.874100923538208,38.232076208170106,38.04744813726998,152.24931038531994,139.2742777608769,3.237724376958795e-05,0.0867155864834785,0,0,0
12926,437053.5357800032,2010-09-26 17:12:31,1530.7707752883157,2,39,0.5501165986061096,3.875396013259888,38.23666237961537,38.04744813726998,152.26708077615237,139.2742777608769,6.47544875391759e-05,0.0867155864834785,0,0,0
12927,437083.5511983552,2010-09-26 17:13:01,1560.7861936402792,2,39,0.5501165986061096,3.876691102981568,38.24124850372747,38.04744813726998,152.28485725575942,139.2742777608769,3.237724376958795e-05,0.0867155864834785,0,0,0
12928,437113.5666461556,2010-09-26 17:13:31,1590.80164144075,2,39,0.5499359965324402,3.877986192703247,38.24583467508692,38.04744813726998,152.30263987451997,139.2742777608769,0.0,0.0867155864834785,0,0,0
12929,437143.5820455201,2010-09-26 17:14:01,1620.8170408103304,2,39,0.5499359965324402,3.879281282424927,38.25042084888286,38.04744813726998,152.3204282551033,139.2742777608769,0.0,0.0867155864834785,0,0,0
12930,437173.5974597568,2010-09-26 17:14:31,1650.8324550470213,2,39,0.5499359965324402,3.8805763721466064,38.25500700727646,38.04744813726998,152.33822205260253,139.2742777608769,6.47544875391759e-05,0.0867155864834785,0,0,0
12931,437203.613267992,2010-09-26 17:15:01,1680.8482632922178,2,39,0.5499359965324402,3.881547689437866,38.25959316881266,38.04744813726998,152.35602138778765,139.2742777608769,0.0,0.0867155864834785,0,0,0
12932,437233.6283119194,2010-09-26 17:15:31,1710.863307204522,2,39,0.5501165986061096,3.882842779159546,38.264179258864445,38.04744813726998,152.373825832603,139.2742777608769,3.237724376958795e-05,0.0867155864834785,0,0,0
12933,437263.6437636196,2010-09-26 17:16:01,1740.8787589999654,2,39,0.5501165986061096,3.883975982666016,38.26876542334165,38.04744813726998,152.39163596592834,139.2742777608769,3.237724376958795e-05,0.0867155864834785,0,0,0
12934,437293.6591379216,2010-09-26 17:16:31,1770.8941332167603,2,39,0.550297200679779,3.885109186172485,38.27335160111246,38.04744813726998,152.40945140500287,139.2742777608769,3.237724376958795e-05,0.0867155864834785,0,0,0
12935,437323.67457924585,2010-09-26 17:17:01,1800.9095745360537,2,39,0.5501165986061096,3.886404275894165,38.27793773783689,38.04744813726998,152.42727205687396,139.2742777608769,3.237724376958795e-05,0.0867155864834785,0,0,0
12936,437353.6900289912,2010-09-26 17:17:31,1830.9250242813791,2,39,0.5499359965324402,3.8875374794006343,38.28252387351595,38.04744813726998,152.44509802369296,139.2742777608769,6.47544875391759e-05,0.0867155864834785,0,0,0
12937,437383.70539508766,2010-09-26 17:18:01,1860.9403903628672,2,39,0.5501165986061096,3.888670682907105,38.28710991910994,38.04744813726998,152.46292900286082,139.2742777608769,3.237724376958795e-05,0.0867155864834785,0,0,0
12938,437413.72081344976,2010-09-26 17:18:31,1890.9558087198427,2,39,0.5501165986061096,3.889965772628784,38.29169602212211,38.04744813726998,152.48076558201234,139.2742777608769,6.47544875391759e-05,0.0867155864834785,0,0,0
12939,437443.7363646032,2010-09-26 17:19:01,1920.9713599033744,2,39,0.5501165986061096,3.890937089920044,38.2962821948878,38.04744813726998,152.49860777403632,139.2742777608769,0.0,0.0867155864834785,0,0,0
12940,437473.7516730157,2010-09-26 17:19:31,1950.9866683058867,2,39,0.5499359965324402,3.892232179641724,38.30086835826688,38.04744813726998,152.5164554024779,139.2742777608769,3.237724376958795e-05,0.0867155864834785,0,0,0
12941,437503.76709596405,2010-09-26 17:20:01,1981.0020912543232,2,39,0.5501165986061096,3.893203496932984,38.3054545043707,38.04744813726998,152.5343083501215,139.2742777608769,-3.237724376958795e-05,0.0867155864834785,0,0,0
12942,437533.7824907624,2010-09-26 17:20:31,2011.0174860524928,2,39,0.5501165986061096,3.894498586654663,38.31004066801637,38.04744813726998,152.55216692372426,139.2742777608769,3.237724376958795e-05,0.0867155864834785,0,0,0
12943,437563.7978905028,2010-09-26 17:21:01,2041.0328857929985,2,39,0.5501165986061096,3.895793676376343,38.31462681129526,38.04744813726998,152.57003038511962,139.2742777608769,3.237724376958795e-05,0.0867155864834785,0,0,0
12944,437593.81336927065,2010-09-26 17:21:31,2071.048364545732,2,39,0.5499359965324402,3.896926879882813,38.31921293218414,38.04744813726998,152.58789948052078,139.2742777608769,3.237724376958795e-05,0.0867155864834785,0,0,0
12945,437623.82879728667,2010-09-26 17:22:01,2101.063792571843,2,39,0.5501165986061096,3.898221969604492,38.3237991296309,38.04744813726998,152.6057745934901,139.2742777608769,3.237724376958795e-05,0.0867155864834785,0,0,0
12946,437653.84429408447,2010-09-26 17:22:31,2131.079289469869,2,39,0.5497553944587708,3.899193286895752,38.32838531205993,38.04744813726998,152.6236553797521,139.2742777608769,0.0,0.0867155864834785,0,0,0
12947,437683.85961457214,2010-09-26 17:23:01,2161.0946098572977,2,39,0.5501165986061096,3.9006502628326416,38.33297150805702,38.04744813726998,152.6415418959822,139.2742777608769,3.237724376958795e-05,0.0867155864834785,0,0,0
12948,437713.875078954,2010-09-26 17:23:31,2191.110074244171,2,39,0.5501165986061096,3.901945352554321,38.337557621933286,38.04744813726998,152.6594339161985,139.2742777608769,6.47544875391759e-05,0.0867155864834785,0,0,0
12949,437743.8904732058,2010-09-26 17:24:01,2221.125468490964,2,39,0.5499359965324402,3.903240442276001,38.34214373993263,38.04744813726998,152.6773318134826,139.2742777608769,6.47544875391759e-05,0.0867155864834785,0,0,0
12950,437773.9058721544,2010-09-26 17:24:31,2251.140867439493,2,39,0.5499359965324402,3.9045355319976807,38.34672991910587,38.04744813726998,152.69523586080788,139.2742777608769,0.0,0.0867155864834785,0,0,0
12951,437803.9212874136,2010-09-26 17:25:01,2281.1562827087614,2,39,0.5499359965324402,3.90583062171936,38.35131610703653,38.04744813726998,152.71314586675186,139.2742777608769,0.0,0.0867155864834785,0,0,0
12952,437833.93672557495,2010-09-26 17:25:31,2311.1717208601467,2,39,0.5501165986061096,3.90728759765625,38.35590222911394,38.04744813726998,152.7310616645239,139.2742777608769,6.47544875391759e-05,0.0867155864834785,0,0,0
12953,437863.9367320616,2010-09-26 17:26:01,2341.171727351736,2,39,0.5499359965324402,3.90842080116272,38.360485978192,38.04744813726998,152.74897427318612,139.2742777608769,3.237724376958795e-05,0.0867155864834785,0,0,0
12954,437893.9519547602,2010-09-26 17:26:31,2371.1869500503176,2,39,0.5499359965324402,3.9097158908844,38.36507208010419,38.04744813726998,152.76690227035513,139.2742777608769,0.0,0.0867155864834785,0,0,0
12955,437923.9673450721,2010-09-26 17:27:01,2401.2023403572766,2,39,0.5501165986061096,3.911334753036499,38.36965821380987,38.04744813726998,152.78483657528827,139.2742777608769,3.237724376958795e-05,0.0867155864834785,0,0,0
12956,437953.9827600055,2010-09-26 17:27:31,2431.2177552907065,2,39,0.5501165986061096,3.9126298427581783,38.3742443068495,38.04744813726998,152.80277699951867,139.2742777608769,3.237724376958795e-05,0.0867155864834785,0,0,0
12957,437983.9981974452,2010-09-26 17:28:01,2461.2331927303157,2,39,0.5497553944587708,3.9139246940612793,38.37883045389065,38.04744813726998,152.82072396355554,139.2742777608769,3.237724376958795e-05,0.0867155864834785,0,0,0
12958,438014.01361617306,2010-09-26 17:28:31,2491.2486114582166,2,39,0.5501165986061096,3.915219783782959,38.38341663775426,38.04744813726998,152.83867750109337,139.2742777608769,0.0,0.0867155864834785,0,0,0
12959,438044.0290402644,2010-09-26 17:29:01,2521.264035549506,2,39,0.5499359965324402,3.9166767597198486,38.3880027969008,38.04744813726998,152.8566372037346,139.2742777608769,3.237724376958795e-05,0.0867155864834785,0,0,0
12960,438074.0444647116,2010-09-26 17:29:32,2551.2794599816466,2,39,0.5501165986061096,3.9181337356567374,38.3925888753076,38.04744813726998,152.8746031966334,139.2742777608769,3.237724376958795e-05,0.0867155864834785,0,0,0
12961,438104.0598818405,2010-09-26 17:30:02,2581.294877125594,2,39,0.5501165986061096,3.919590711593628,38.397174958481344,38.04744813726998,152.89257571690402,139.2742777608769,3.237724376958795e-05,0.0867155864834785,0,0,0
12962,438134.0752845885,2010-09-26 17:30:32,2611.310279873608,2,39,0.550297200679779,3.9210476875305176,38.401761114291965,38.04744813726998,152.91055513766614,139.2742777608769,3.237724376958795e-05,0.0867155864834785,0,0,0
12963,438164.0907019981,2010-09-26 17:31:02,2641.3256972832187,2,39,0.5501165986061096,3.922666549682617,38.40634724286661,38.04744813726998,152.92854111919905,139.2742777608769,6.47544875391759e-05,0.0867155864834785,0,0,0
12964,438194.1061353626,2010-09-26 17:31:32,2671.341130747905,2,39,0.5501165986061096,3.923961639404297,38.41093334661346,38.04744813726998,152.94653374495917,139.2742777608769,3.237724376958795e-05,0.0867155864834785,0,0,0
12965,438224.1215585816,2010-09-26 17:32:02,2701.356553866767,2,39,0.5501165986061096,3.925580501556397,38.41551951538239,38.04744813726998,152.96453342568697,139.2742777608769,3.237724376958795e-05,0.0867155864834785,0,0,0
12966,438254.13696320925,2010-09-26 17:32:32,2731.371958494473,2,39,0.5501165986061096,3.927037477493286,38.42010571190538,38.04744813726998,152.98253997715116,139.2742777608769,9.713172767078504e-05,0.0867155864834785,0,0,0
12967,438284.15239251865,2010-09-26 17:33:02,2761.3873878088,2,39,0.5501165986061096,3.928494453430176,38.42469181221247,38.04744813726998,153.0005530927711,139.2742777608769,3.237724376958795e-05,0.0867155864834785,0,0,0
12968,438314.16782251466,2010-09-26 17:33:32,2791.402817799816,2,39,0.5499359965324402,3.9301133155822754,38.42927791025112,38.04744813726998,153.01857314922674,139.2742777608769,6.47544875391759e-05,0.0867155864834785,0,0,0
12969,438344.183239012,2010-09-26 17:34:02,2821.4182342971494,2,39,0.5501165986061096,3.931570291519165,38.43386400160091,38.04744813726998,153.03660027196997,139.2742777608769,3.237724376958795e-05,0.0867155864834785,0,0,0
12970,438374.1986440056,2010-09-26 17:34:32,2851.433639290768,2,39,0.5499359965324402,3.933027267456055,38.4384502271007,38.04744813726998,153.0546350600857,139.2742777608769,0.0,0.0867155864834785,0,0,0
12971,438404.2140691295,2010-09-26 17:35:02,2881.449064414635,2,39,0.550297200679779,3.934969902038574,38.44303636241292,38.04744813726998,153.07267662138355,139.2742777608769,9.713172767078504e-05,0.0867155864834785,0,0,0
12972,438434.2296465936,2010-09-26 17:35:32,2911.464641903829,2,39,0.5501165986061096,3.936264991760254,38.44762250740202,38.04744813726998,153.09072546951316,139.2742777608769,0.0,0.0867155864834785,0,0,0
12973,438464.2449222795,2010-09-26 17:36:02,2941.4799175696257,2,39,0.5499359965324402,3.9378838539123535,38.452208603370885,38.04744813726998,153.10878133711523,139.2742777608769,6.47544875391759e-05,0.0867155864834785,0,0,0
12974,438494.2603261803,2010-09-26 17:36:32,2971.495321495579,2,39,0.5501165986061096,3.939664602279663,38.456794759386746,38.04744813726998,153.12684495154397,139.2742777608769,6.47544875391759e-05,0.0867155864834785,0,0,0
12975,438524.27577017137,2010-09-26 17:37:02,3001.5107654564663,2,39,0.5497553944587708,3.9411215782165527,38.46138083460222,38.04744813726998,153.14491569644574,139.2742777608769,3.237724376958795e-05,0.0867155864834785,0,0,0
12976,438554.2911686837,2010-09-26 17:37:32,3031.52616397392,2,39,0.550297200679779,3.943064212799072,38.46596692872856,38.04744813726998,153.16299400273556,139.2742777608769,9.713172767078504e-05,0.0867155864834785,0,0,0
12977,438584.3065942287,2010-09-26 17:38:02,3061.5415895238502,2,39,0.5501165986061096,3.944521188735962,38.470553086489645,38.04744813726998,153.1810802420955,139.2742777608769,3.237724376958795e-05,0.0867155864834785,0,0,0
12978,438614.322005503,2010-09-26 17:38:32,3091.5570007981464,2,39,0.5499359965324402,3.946301937103272,38.47513927642667,38.04744813726998,153.19917434787286,139.2742777608769,9.713172767078504e-05,0.0867155864834785,0,0,0
12979,438644.3374216795,2010-09-26 17:39:02,3121.572416974679,2,39,0.5501165986061096,3.947758913040161,38.47972540408655,38.04744813726998,153.21727584053284,139.2742777608769,3.237724376958795e-05,0.0867155864834785,0,0,0
12980,438674.3528948934,2010-09-26 17:39:32,3151.587890188586,2,39,0.5501165986061096,3.949539661407471,38.48431156859895,38.04744813726998,153.2353853106977,139.2742777608769,3.237724376958795e-05,0.0867155864834785,0,0,0
12981,438704.3682557168,2010-09-26 17:40:02,3181.603251011949,2,39,0.550297200679779,3.9514822959899902,38.488897656180896,38.04744813726998,153.25350241648331,139.2742777608769,6.47544875391759e-05,0.0867155864834785,0,0,0
12982,438734.3836871163,2010-09-26 17:40:32,3211.618682401456,2,39,0.5501165986061096,3.95310115814209,38.49348385767885,38.04744813726998,153.27162791508013,139.2742777608769,6.47544875391759e-05,0.0867155864834785,0,0,0
12983,438764.3991168016,2010-09-26 17:41:02,3241.634112091721,2,39,0.5499359965324402,3.9548819065094,38.498069983863466,38.04744813726998,153.28976119055184,139.2742777608769,3.237724376958795e-05,0.0867155864834785,0,0,0
12984,438794.4145581559,2010-09-26 17:41:32,3271.649553446102,2,39,0.5501165986061096,3.956662654876709,38.50265610249208,38.04744813726998,153.3079026526053,139.2742777608769,6.47544875391759e-05,0.0867155864834785,0,0,0
12985,438824.4301789733,2010-09-26 17:42:02,3301.66517426345,2,39,0.5499359965324402,3.9584434032440186,38.50724230475857,38.04744813726998,153.32605256545102,139.2742777608769,6.47544875391759e-05,0.0867155864834785,0,0,0
12986,438854.44539864926,2010-09-26 17:42:32,3331.680393934475,2,39,0.5501165986061096,3.960224151611328,38.51182843650749,38.04744813726998,153.3442105729059,139.2742777608769,3.237724376958795e-05,0.0867155864834785,0,0,0
12987,438884.460820119,2010-09-26 17:43:02,3361.6958154042204,2,39,0.5499359965324402,3.9620048999786377,38.51641458659392,38.04744813726998,153.3623770612986,139.2742777608769,3.237724376958795e-05,0.0867155864834785,0,0,0
12988,438914.4762334335,2010-09-26 17:43:32,3391.711228718609,2,39,0.5501165986061096,3.963947534561157,38.52100076748984,38.04744813726998,153.38055210229967,139.2742777608769,0.0,0.0867155864834785,0,0,0
12989,438944.491678853,2010-09-26 17:44:02,3421.726674138137,2,39,0.5501165986061096,3.9658901691436768,38.52558688977154,38.04744813726998,153.39873552875957,139.2742777608769,6.47544875391759e-05,0.0867155864834785,0,0,0
12990,438974.5070843679,2010-09-26 17:44:32,3451.742079658069,2,39,0.5501165986061096,3.967832803726196,38.5301730938726,38.04744813726998,153.41692796116735,139.2742777608769,6.47544875391759e-05,0.0867155864834785,0,0,0
12991,439004.5224821085,2010-09-26 17:45:02,3481.7574773935708,2,39,0.5499359965324402,3.969613552093506,38.53475907791046,38.04744813726998,153.43512836720512,139.2742777608769,3.237724376958795e-05,0.0867155864834785,0,0,0
12992,439034.5379308412,2010-09-26 17:45:32,3511.7729262566945,2,39,0.5501165986061096,3.9717180728912354,38.53934502438552,38.04744813726998,153.45333749207143,139.2742777608769,6.47544875391759e-05,0.0867155864834785,0,0,0
12993,439064.553466912,2010-09-26 17:46:02,3541.788462292415,2,39,0.5501165986061096,3.973498821258545,38.54393115794888,38.04744813726998,153.47155627152293,139.2742777608769,3.237724376958795e-05,0.0867155864834785,0,0,0
12994,439094.5687758308,2010-09-26 17:46:32,3571.8037711209904,2,39,0.5499359965324402,3.975441455841065,38.54851725003604,38.04744813726998,153.48978390812127,139.2742777608769,0.0,0.0867155864834785,0,0,0
12995,439124.58420296974,2010-09-26 17:47:02,3601.819198259888,2,39,0.5501165986061096,3.977545976638794,38.55310345972147,38.04744813726998,153.50802123041262,139.2742777608769,6.47544875391759e-05,0.0867155864834785,0,0,0
12996,439154.6000290995,2010-09-26 17:47:32,3631.8350244147896,2,39,0.5501165986061096,3.979650497436523,38.55768960457184,38.04744813726998,153.52626714275544,139.2742777608769,9.713172767078504e-05,0.0867155864834785,0,0,0
12997,439184.6151844551,2010-09-26 17:48:02,3661.8501797452095,2,39,0.5499359965324402,3.981755018234253,38.562275617079,38.04744813726998,153.5445223520844,139.2742777608769,6.47544875391759e-05,0.0867155864834785,0,0,0
12998,439214.63059851626,2010-09-26 17:48:32,3691.865593906713,2,39,0.5495747923851013,3.9835357666015625,38.56686169898948,38.04744813726998,153.56278734828356,139.2742777608769,3.237724376958795e-05,0.0867155864834785,0,0,0
12999,439244.64587748033,2010-09-26 17:49:02,3721.880872770492,2,39,0.5501165986061096,3.985802173614502,38.571447641173,38.04744813726998,153.5810613367238,139.2742777608769,0.0,0.0867155864834785,0,0,0
13000,439274.6614308845,2010-09-26 17:49:32,3751.8964261845913,2,39,0.5501165986061096,3.987906694412232,38.57603373030805,38.04744813726998,153.59934561296717,139.2742777608769,6.47544875391759e-05,0.0867155864834785,0,0,0
13001,439304.6767306053,2010-09-26 17:50:02,3781.911725895408,2,39,0.5501165986061096,3.990011215209961,38.580619747872845,38.04744813726998,153.61763924388313,139.2742777608769,3.237724376958795e-05,0.0867155864834785,0,0,0
13002,439334.69213464647,2010-09-26 17:50:32,3811.9271299366496,2,39,0.5499359965324402,3.992277622222901,38.58520579261632,38.04744813726998,153.63594286489442,139.2742777608769,6.47544875391759e-05,0.0867155864834785,0,0,0
13003,439364.7075286577,2010-09-26 17:51:02,3841.942523957879,2,39,0.5499359965324402,3.994381904602051,38.58979185449086,38.04744813726998,153.6542564541326,139.2742777608769,6.47544875391759e-05,0.0867155864834785,0,0,0
13004,439394.7230816407,2010-09-26 17:51:32,3871.958076940902,2,39,0.5501165986061096,3.9968101978302,38.59437795885727,38.04744813726998,153.67258026927115,139.2742777608769,0.0001295089750783,0.0867155864834785,0,0,0
13005,439424.73850166687,2010-09-26 17:52:02,3901.973496967045,2,39,0.5499359965324402,3.99875283241272,38.59896400597292,38.04744813726998,153.69091385246554,139.2742777608769,3.237724376958795e-05,0.0867155864834785,0,0,0
13006,439454.75383800914,2010-09-26 17:52:32,3931.988833279224,2,39,0.5501165986061096,4.001019477844238,38.60354997834709,38.04744813726998,153.70925720040074,139.2742777608769,3.24249267578125e-05,0.0867155864834785,0,0,0
13007,439484.7692564814,2010-09-26 17:53:02,3962.0042517715374,2,39,0.550297200679779,4.003285884857178,38.60813604915189,38.04744813726998,153.72761113047954,139.2742777608769,6.47544875391759e-05,0.0867155864834785,0,0,0
13008,439514.7848030685,2010-09-26 17:53:32,3992.0197983585954,2,39,0.5501165986061096,4.005552291870117,38.61272209227966,38.04744813726998,153.74597522731108,139.2742777608769,9.71794142969884e-05,0.0867155864834785,0,0,0
13009,439544.80012352107,2010-09-26 17:54:02,4022.035118816199,2,39,0.5499359965324402,4.007656574249268,38.61730810232196,38.04744813726998,153.76434955395814,139.2742777608769,3.23295607813634e-05,0.0867155864834785,0,0,0
13010,439574.8155616624,2010-09-26 17:54:32,4052.0505570527966,2,39,0.550297200679779,4.010085105895996,38.62189413950794,38.04744813726998,153.78273434159695,139.2742777608769,9.71794142969884e-05,0.0867155864834785,0,0,0
13011,439604.8309523704,2010-09-26 17:55:02,4082.065947660506,2,39,0.550297200679779,4.012351512908936,38.62648018884016,38.04744813726998,153.80112965376287,139.2742777608769,9.71794142969884e-05,0.0867155864834785,0,0,0
13012,439634.8463590381,2010-09-26 17:55:32,4112.081354328304,2,39,0.5499359965324402,4.014455795288086,38.6310663064846,38.04744813726998,153.8195358394255,139.2742777608769,3.23295607813634e-05,0.0867155864834785,0,0,0
13013,439664.8617978261,2010-09-26 17:56:02,4142.096793116279,2,39,0.5499359965324402,4.016884326934815,38.6356523180914,38.04744813726998,153.83795221568732,139.2742777608769,3.24249267578125e-05,0.0867155864834785,0,0,0
13014,439694.8772024939,2010-09-26 17:56:32,4172.112197784084,2,39,0.5501165986061096,4.019150733947754,38.64023842434187,38.04744813726998,153.85637974422696,139.2742777608769,3.24249267578125e-05,0.0867155864834785,0,0,0
13015,439724.8925677233,2010-09-26 17:57:02,4202.127563018458,2,39,0.5501165986061096,4.021578788757324,38.64482443820451,38.04744813726998,153.87481760782754,139.2742777608769,3.23295607813634e-05,0.0867155864834785,0,0,0
13016,439754.9081460144,2010-09-26 17:57:32,4232.143141304641,2,39,0.5499359965324402,4.024168968200684,38.64941049892191,38.04744813726998,153.89326656406817,139.2742777608769,9.70840483205393e-05,0.0867155864834785,0,0,0
13017,439784.9236403561,2010-09-26 17:58:02,4262.158635646287,2,39,0.5499359965324402,4.026435375213623,38.65399653482035,38.04744813726998,153.91172642711643,139.2742777608769,6.47544875391759e-05,0.0867155864834785,0,0,0
13018,439814.9389121674,2010-09-26 17:58:32,4292.173907457462,2,39,0.5501165986061096,4.028863906860352,38.65858257175538,38.04744813726998,153.93019752728063,139.2742777608769,3.24249267578125e-05,0.0867155864834785,0,0,0
13019,439844.95445445366,2010-09-26 17:59:02,4322.189449839021,2,39,0.5499359965324402,4.031291961669922,38.66316864433758,38.04744813726998,153.94867993224264,139.2742777608769,6.47544875391759e-05,0.0867155864834785,0,0,0
13020,439874.9697523198,2010-09-26 17:59:32,4352.204747615008,2,39,0.5501165986061096,4.033882141113281,38.66775466263776,38.04744813726998,153.96717348871297,139.2742777608769,9.70840483205393e-05,0.0867155864834785,0,0,0
13021,439904.9851800702,2010-09-26 18:00:02,4382.220175370444,2,39,0.5501165986061096,4.036148548126221,38.67234073307972,38.04744813726998,153.98567868147634,139.2742777608769,3.24249267578125e-05,0.0867155864834785,0,0,0
13022,439935.0006063721,2010-09-26 18:00:32,4412.235601667238,2,39,0.5499359965324402,4.038900375366211,38.67692677111612,38.04744813726998,154.00419527322956,139.2742777608769,6.47544875391759e-05,0.0867155864834785,0,0,0
13023,439965.0160159421,2010-09-26 18:01:02,4442.251011232268,2,39,0.5499359965324402,4.04132890701294,38.68151284840718,38.04744813726998,154.02272363118058,139.2742777608769,6.47544875391759e-05,0.0867155864834785,0,0,0
13024,439995.0314488103,2010-09-26 18:01:33,4472.266444110492,2,39,0.5499359965324402,4.043919086456299,38.68609885640435,38.04744813726998,154.04126351300147,139.2742777608769,6.47544875391759e-05,0.0867155864834785,0,0,0
13025,440025.0468783602,2010-09-26 18:02:03,4502.281873650381,2,39,0.5501165986061096,4.046509265899658,38.690684925794535,38.04744813726998,154.05981550651194,139.2742777608769,6.47544875391759e-05,0.0867155864834785,0,0,0
13026,440055.0622994139,2010-09-26 18:02:33,4532.297294704088,2,39,0.5499359965324402,4.049261093139648,38.69527100992476,38.04744813726998,154.07837959880348,139.2742777608769,9.70840483205393e-05,0.0867155864834785,0,0,0
13027,440085.07773064304,2010-09-26 18:03:03,4562.312725943219,2,39,0.5499359965324402,4.051851272583008,38.69985710418664,38.04744813726998,154.09695579839877,139.2742777608769,6.47544875391759e-05,0.0867155864834785,0,0,0
13028,440115.0932401425,2010-09-26 18:03:33,4592.328235432676,2,39,0.5501165986061096,4.054603576660156,38.704443144673824,38.04744813726998,154.11554399047907,139.2742777608769,6.47544875391759e-05,0.0867155864834785,0,0,0
13029,440145.1085506553,2010-09-26 18:04:03,4622.343545945456,2,39,0.5501165986061096,4.057193756103516,38.709029218143804,38.04744813726998,154.13414470334828,139.2742777608769,6.47544875391759e-05,0.0867155864834785,0,0,0
13030,440175.12395949854,2010-09-26 18:04:33,4652.358954788684,2,39,0.5499359965324402,4.060107707977295,38.71361528342872,38.04744813726998,154.15275787646968,139.2742777608769,9.71794142969884e-05,0.0867155864834785,0,0,0
13031,440205.139399319,2010-09-26 18:05:03,4682.374394609236,2,39,0.550297200679779,4.062697887420654,38.71820208886995,38.04744813726998,154.1713862899125,139.2742777608769,6.47544875391759e-05,0.0867155864834785,0,0,0
13032,440235.1548031247,2010-09-26 18:05:33,4712.38979841489,2,39,0.5499359965324402,4.065288066864014,38.722788867540274,38.04744813726998,154.19002728710038,139.2742777608769,3.24249267578125e-05,0.0867155864834785,0,0,0
13033,440265.1702381432,2010-09-26 18:06:03,4742.405233433456,2,39,0.550297200679779,4.068363666534424,38.72737562200599,38.04744813726998,154.2086809748757,139.2742777608769,9.70840483205393e-05,0.0867155864834785,0,0,0
13034,440295.1856652872,2010-09-26 18:06:33,4772.420660577364,2,39,0.5501165986061096,4.070953845977783,38.73196239803497,38.04744813726998,154.22734769297676,139.2742777608769,3.23295607813634e-05,0.0867155864834785,0,0,0
13035,440325.2012003454,2010-09-26 18:07:03,4802.436195660706,2,39,0.5497553944587708,4.0738677978515625,38.73654850534793,38.04744813726998,154.24602463847057,139.2742777608769,9.70840483205393e-05,0.0867155864834785,0,0,0
13036,440355.2166150282,2010-09-26 18:07:33,4832.451610343511,2,39,0.5501165986061096,4.076781749725342,38.74113453242498,38.04744813726998,154.26471448374932,139.2742777608769,9.70840483205393e-05,0.0867155864834785,0,0,0
13037,440385.232074543,2010-09-26 18:08:03,4862.46706983316,2,39,0.5499359965324402,4.079695701599121,38.74572050565949,38.04744813726998,154.28341740438609,139.2742777608769,6.47544875391759e-05,0.0867155864834785,0,0,0
13038,440415.2473497275,2010-09-26 18:08:33,4892.482345017756,2,39,0.5499359965324402,4.0824480056762695,38.75030646049575,38.04744813726998,154.3021336316488,139.2742777608769,0.0,0.0867155864834785,0,0,0
13039,440445.2627701999,2010-09-26 18:09:03,4922.4977656053,2,39,0.5501165986061096,4.08552360534668,38.75489245797024,38.04744813726998,154.32086356303893,139.2742777608769,3.23295607813634e-05,0.0867155864834785,0,0,0
13040,440475.2781753839,2010-09-26 18:09:33,4952.513170674106,2,39,0.5499359965324402,4.088599681854248,38.75947839478863,38.04744813726998,154.339606930544,139.2742777608769,6.47544875391759e-05,0.0867155864834785,0,0,0
13041,440505.2936107134,2010-09-26 18:10:03,4982.528606003448,2,39,0.5501165986061096,4.091675281524658,38.764064297953695,38.04744813726998,154.3583639578722,139.2742777608769,6.47544875391759e-05,0.0867155864834785,0,0,0
13042,440535.3090136468,2010-09-26 18:10:33,5012.544008941935,2,39,0.5499359965324402,4.094427585601807,38.76865025934951,38.04744813726998,154.37713501738813,139.2742777608769,6.47544875391759e-05,0.0867155864834785,0,0,0
13043,440565.32444383326,2010-09-26 18:11:03,5042.5594391334525,2,39,0.550297200679779,4.097826957702637,38.77323619009386,38.04744813726998,154.39591999195602,139.2742777608769,0.0001295089750783,0.0867155864834785,0,0,0
13044,440595.3398566263,2010-09-26 18:11:33,5072.5748519165145,2,39,0.5501165986061096,4.100740909576416,38.77782211304007,38.04744813726998,154.41471902250768,139.2742777608769,9.70840483205393e-05,0.0867155864834785,0,0,0
13045,440625.355310096,2010-09-26 18:12:03,5102.590305396162,2,39,0.5499359965324402,4.103978633880615,38.78240811435297,38.04744813726998,154.43353255539412,139.2742777608769,9.70840483205393e-05,0.0867155864834785,0,0,0
13046,440655.37083533977,2010-09-26 18:12:33,5132.605830659994,2,39,0.5499359965324402,4.107054710388184,38.78699405778807,38.04744813726998,154.45236027055043,139.2742777608769,9.71794142969884e-05,0.0867155864834785,0,0,0
13047,440685.38612035394,2010-09-26 18:13:03,5162.6211156440495,2,39,0.5499359965324402,4.110130310058594,38.79157996518245,38.04744813726998,154.47120229277593,139.2742777608769,6.47544875391759e-05,0.0867155864834785,0,0,0
13048,440715.401673352,2010-09-26 18:13:33,5192.636668642111,2,39,0.5499359965324402,4.113368034362793,38.7961659225996,38.04744813726998,154.49005914250208,139.2742777608769,6.47544875391759e-05,0.0867155864834785,0,0,0
13049,440745.4171800594,2010-09-26 18:14:03,5222.652175349623,2,39,0.5499359965324402,4.116767406463623,38.80075183180442,38.04744813726998,154.5089304641534,139.2742777608769,9.70840483205393e-05,0.0867155864834785,0,0,0
13050,440775.4323942919,2010-09-26 18:14:33,5252.667389582072,2,39,0.5501165986061096,4.120005130767822,38.80533767829882,38.04744813726998,154.52781640036883,139.2742777608769,9.70840483205393e-05,0.0867155864834785,0,0,0
13051,440805.4478165436,2010-09-26 18:15:03,5282.682811858832,2,39,0.5497553944587708,4.1232428550720215,38.80992356197881,38.04744813726998,154.54671740857555,139.2742777608769,9.70840483205393e-05,0.0867155864834785,0,0,0
13052,440835.46326099575,2010-09-26 18:15:33,5312.698256295908,2,39,0.5501165986061096,4.126480579376221,38.814509450287545,38.04744813726998,154.56563349433313,139.2742777608769,9.70840483205393e-05,0.0867155864834785,0,0,0
13053,440865.47867613466,2010-09-26 18:16:03,5342.713671424825,2,39,0.5499359965324402,4.12971830368042,38.81909537355976,38.04744813726998,154.58456490807174,139.2742777608769,9.70840483205393e-05,0.0867155864834785,0,0,0
13054,440895.4942049574,2010-09-26 18:16:33,5372.729200257566,2,39,0.5499359965324402,4.133118152618408,38.82368126139198,38.04744813726998,154.60351143388917,139.2742777608769,9.71794142969884e-05,0.0867155864834785,0,0,0
13055,440925.509617951,2010-09-26 18:17:03,5402.744613251153,2,39,0.5499359965324402,4.136355876922607,38.82826715491052,38.04744813726998,154.62247325295257,139.2742777608769,6.47544875391759e-05,0.0867155864834785,0,0,0
13056,440955.5248887947,2010-09-26 18:17:33,5432.759884084889,2,39,0.5501165986061096,4.139917373657227,38.8328529618742,38.04744813726998,154.64145021841105,139.2742777608769,9.71794142969884e-05,0.0867155864834785,0,0,0
13057,440985.5403199587,2010-09-26 18:18:03,5462.7753152588575,2,39,0.5499359965324402,4.143316745758057,38.83743883687033,38.04744813726998,154.66044295487043,139.2742777608769,9.70840483205393e-05,0.0867155864834785,0,0,0
13058,441015.5557421102,2010-09-26 18:18:33,5492.790737400281,2,39,0.5499359965324402,4.146716594696045,38.842024700549054,38.04744813726998,154.6794514621388,139.2742777608769,6.47544875391759e-05,0.0867155864834785,0,0,0
13059,441045.5711932941,2010-09-26 18:19:03,5522.806188589208,2,39,0.5501165986061096,4.150439739227295,38.84661052665143,38.04744813726998,154.69847577355924,139.2742777608769,0.0001618385285837,0.0867155864834785,0,0,0
13060,441075.5869692336,2010-09-26 18:19:33,5552.821964528766,2,39,0.5501165986061096,4.153839588165283,38.85119640062747,38.04744813726998,154.7175162383994,139.2742777608769,9.71794142969884e-05,0.0867155864834785,0,0,0
13061,441105.6020377874,2010-09-26 18:20:03,5582.837033087591,2,39,0.5501165986061096,4.157238960266113,38.85578218758787,38.04744813726998,154.73657242957478,139.2742777608769,0.0001295089750783,0.0867155864834785,0,0,0
13062,441135.617427142,2010-09-26 18:20:33,5612.852422447185,2,39,0.5499359965324402,4.1609625816345215,38.86036810479536,38.04744813726998,154.75564543275087,139.2742777608769,0.0001295089750783,0.0867155864834785,0,0,0
13063,441165.6328448623,2010-09-26 18:21:03,5642.867840152535,2,39,0.5501165986061096,4.164361953735352,38.86495404946236,38.04744813726998,154.77473488686928,139.2742777608769,9.70840483205393e-05,0.0867155864834785,0,0,0
13064,441195.6482675702,2010-09-26 18:21:33,5672.88326286037,2,39,0.5499359965324402,4.16808557510376,38.86954000232444,38.04744813726998,154.79384077468163,139.2742777608769,9.71794142969884e-05,0.0867155864834785,0,0,0
13065,441225.663707461,2010-09-26 18:22:03,5702.898702751098,2,39,0.5501165986061096,4.171647071838379,38.874125985772,38.04744813726998,154.8129633963327,139.2742777608769,6.47544875391759e-05,0.0867155864834785,0,0,0
13066,441255.6791766599,2010-09-26 18:22:33,5732.914171970033,2,39,0.5499359965324402,4.175208568572998,38.8787119675363,38.04744813726998,154.8321026918709,139.2742777608769,6.47544875391759e-05,0.0867155864834785,0,0,0
13067,441285.69457413966,2010-09-26 18:23:03,5762.929569429846,2,39,0.5499359965324402,4.178931713104248,38.883297890093175,38.04744813726998,154.85125853515996,139.2742777608769,9.70840483205393e-05,0.0867155864834785,0,0,0
13068,441315.7100894938,2010-09-26 18:23:33,5792.945084788954,2,39,0.5499359965324402,4.182655334472656,38.8878838418241,38.04744813726998,154.8704314610173,139.2742777608769,9.71794142969884e-05,0.0867155864834785,0,0,0
13069,441345.7253874201,2010-09-26 18:24:03,5822.960382710304,2,39,0.5497553944587708,4.186378479003906,38.89246977299212,38.04744813726998,154.88962135087007,139.2742777608769,9.70840483205393e-05,0.0867155864834785,0,0,0
13070,441375.74079388747,2010-09-26 18:24:33,5852.975789177602,2,39,0.550297200679779,4.190263748168945,38.89705561676382,38.04744813726998,154.90882808733733,139.2742777608769,0.0001618385285837,0.0867155864834785,0,0,0
13071,441405.7562144449,2010-09-26 18:25:03,5882.99120973507,2,39,0.5501165986061096,4.1938252449035645,38.90164151556473,38.04744813726998,154.92805234099043,139.2742777608769,6.47544875391759e-05,0.0867155864834785,0,0,0
13072,441435.77163878176,2010-09-26 18:25:33,5913.006634071972,2,39,0.5499359965324402,4.197710514068604,38.90622748355091,38.04744813726998,154.9472943252185,139.2742777608769,0.0001295089750783,0.0867155864834785,0,0,0
13073,441453.2091702329,2010-09-26 18:25:51,5930.444165533197,2,39,0.550297200679779,4.200138568878174,38.90889169148102,38.04744813726998,154.95848096363133,139.2742777608769,0.0001295089750783,0.0867155864834785,0,0,0
13074,441483.2148668637,2010-09-26 18:26:21,30.015408336964192,3,39,0.0,4.1234049797058105,38.90889169148102,38.04744813726998,154.95848096363133,139.2742777608769,-0.0003561019839253,0.0867155864834785,0,0,0
13075,441513.2302780227,2010-09-26 18:26:51,60.03081950599766,3,39,0.0,4.114015579223633,38.90889169148102,38.04744813726998,154.95848096363133,139.2742777608769,-0.0001942634553415,0.0867155864834785,0,0,0
13076,441543.24567440985,2010-09-26 18:27:21,90.04621589313324,3,39,0.0,4.108835220336914,38.90889169148102,38.04744813726998,154.95848096363133,139.2742777608769,-9.71794142969884e-05,0.0867155864834785,0,0,0
13077,441573.2142194037,2010-09-26 18:27:51,120.01476087695826,3,39,0.0,4.105435848236084,38.90889169148102,38.04744813726998,154.95848096363133,139.2742777608769,-9.70840483205393e-05,0.0867155864834785,0,0,0
13078,441573.2211221289,2010-09-26 18:27:51,0.015642887052682,4,39,0.9828564524650574,4.199653148651123,38.90889597400832,38.04744813726998,154.95849894876062,139.2742777608769,0.0,0.0867155864834785,0,0,0
13079,441574.2840008778,2010-09-26 18:27:52,1.078521726154902,4,39,0.9322858452796936,4.199653148651123,38.90917733596155,38.04744813726998,154.95968053786862,139.2742777608769,0.0,0.0867155864834785,0,0,0
13080,441576.4242238887,2010-09-26 18:27:54,3.218744646829972,4,39,0.8822571039199829,4.199491024017334,38.90971553395117,38.04744813726998,154.96194071104225,139.2742777608769,-3.24249267578125e-05,0.0867155864834785,0,0,0
13081,441579.6273228415,2010-09-26 18:27:57,6.42184369483827,4,39,0.832047700881958,4.199653148651123,38.91047707296627,38.04744813726998,154.96513880079343,139.2742777608769,0.0,0.0867155864834785,0,0,0
13082,441583.9866771304,2010-09-26 18:28:02,10.781197888575717,4,39,0.7816576957702637,4.199329376220703,38.9114531525824,38.04744813726998,154.96923788082074,139.2742777608769,-9.70840483205393e-05,0.0867155864834785,0,0,0
13083,441589.7053995764,2010-09-26 18:28:07,16.499920334604457,4,39,0.7310870885848999,4.199491024017334,38.91265356762019,38.04744813726998,154.9742790823642,139.2742777608769,-3.24249267578125e-05,0.0867155864834785,0,0,0
13084,441597.09593858384,2010-09-26 18:28:15,23.890459336960337,4,39,0.6810583472251892,4.199653148651123,38.91410119342089,38.04744813726998,154.98035844955626,139.2742777608769,3.24249267578125e-05,0.0867155864834785,0,0,0
13085,441606.892769521,2010-09-26 18:28:25,33.687290274184406,4,39,0.6310295462608337,4.199491024017334,38.91588338513942,38.04744813726998,154.98784285727615,139.2742777608769,0.0,0.0867155864834785,0,0,0
13086,441620.51767197874,2010-09-26 18:28:38,47.3121927318576,4,39,0.581000804901123,4.199491024017334,38.918172204808194,38.04744813726998,154.997454857335,139.2742777608769,0.0,0.0867155864834785,0,0,0
13087,441641.0957685938,2010-09-26 18:28:59,67.89028935188219,4,39,0.5309720039367676,4.199491024017334,38.92134098549898,38.04744813726998,155.01076232466133,139.2742777608769,-3.24249267578125e-05,0.0867155864834785,0,0,0
13088,441675.017285248,2010-09-26 18:29:33,101.8118060011336,4,39,0.4809432625770569,4.199491024017334,38.92608883866176,38.04744813726998,155.03070118093967,139.2742777608769,0.0,0.0867155864834785,0,0,0
13089,441732.5794379117,2010-09-26 18:30:30,159.37395865988563,4,39,0.4309144914150238,4.199491024017334,38.9333497877448,38.04744813726998,155.06119392037075,139.2742777608769,-3.24249267578125e-05,0.0867155864834785,0,0,0
13090,441818.0007063696,2010-09-26 18:31:56,244.79522712771492,4,39,0.3808857202529907,4.199329376220703,38.94296291914069,38.04744813726998,155.1015647740408,139.2742777608769,-3.23295607813634e-05,0.0867155864834785,0,0,0
13091,441927.437445948,2010-09-26 18:33:45,354.2319667061241,4,39,0.3308569490909576,4.199491024017334,38.95377108502645,38.04744813726998,155.1469543137129,139.2742777608769,-3.24249267578125e-05,0.0867155864834785,0,0,0
13092,442058.5771799894,2010-09-26 18:35:56,485.3717007376104,4,39,0.2808281779289245,4.199491024017334,38.96489561994666,38.04744813726998,155.19367243282122,139.2742777608769,0.0,0.0867155864834785,0,0,0
13093,442217.2948485583,2010-09-26 18:38:35,644.0893693064611,4,39,0.2307994067668914,4.199491024017334,38.97615279849321,38.04744813726998,155.24094758292608,139.2742777608769,-3.24249267578125e-05,0.0867155864834785,0,0,0
13094,442416.6528329829,2010-09-26 18:41:54,843.447353731044,4,39,0.1807706356048584,4.199491024017334,38.98751343351772,38.04744813726998,155.2886571761984,139.2742777608769,0.0,0.0867155864834785,0,0,0
13095,442692.4947391579,2010-09-26 18:46:30,1119.2892599160982,4,39,0.1307418793439865,4.199491024017334,38.99936720576885,38.04744813726998,155.33843780964165,139.2742777608769,3.23295607813634e-05,0.0867155864834785,0,0,0
13096,443123.03879518935,2010-09-26 18:53:41,1549.8333159525123,4,39,0.0807131007313728,4.199491024017334,39.011772340614144,38.04744813726998,155.39053396027282,139.2742777608769,0.0,0.0867155864834785,0,0,0
13097,443582.36369371146,2010-09-26 19:01:20,2009.1582145547925,4,39,0.0498289167881011,4.199329376220703,39.01997407675951,38.04744813726998,155.42497763994996,139.2742777608769,-6.47544875391759e-05,0.0867155864834785,0,0,0
13098,443612.3839426469,2010-09-26 19:01:50,30.01533316432171,5,39,0.0,4.192530155181885,39.01997407675951,38.04744813726998,155.42497763994996,139.2742777608769,-3.24249267578125e-05,0.0867155864834785,0,0,0
13099,443642.3837342371,2010-09-26 19:02:20,60.01512475949582,5,39,0.0,4.191558837890625,39.01997407675951,38.04744813726998,155.42497763994996,139.2742777608769,0.0,0.0867155864834785,0,0,0
13100,443642.5608747685,2010-09-26 19:02:21,0.187444284772374,6,39,-1.9243103452026844e-05,4.191235065460205,39.01997407675951,38.04744813827194,155.42497763994996,139.2742777650763,0.0,0.0898760333657264,0,0,0
13101,443647.3890847987,2010-09-26 19:02:25,5.01565429475884,6,39,0.0003419754502829,4.191397190093994,39.01997452706629,38.0474481386043,155.4249795273866,139.27427776646934,-3.23295607813634e-05,0.0898760333657264,0,0,0
13102,443677.3941786008,2010-09-26 19:02:56,30.01546911868472,7,39,-1.099929690361023,4.032749176025391,39.01997452706629,38.056619127924186,155.4249795273866,139.31144221426086,-0.0008741378551349,0.0898760333657264,0,0,0
13103,443707.4094516901,2010-09-26 19:03:26,60.03074220303758,7,39,-1.099929690361023,4.009113788604736,39.01997452706629,38.065790058514686,155.4249795273866,139.34831046670445,-0.0005180359003134,0.0898760333657264,0,0,0
13104,443737.4250055252,2010-09-26 19:03:56,90.04629604821265,7,39,-1.1001102924346924,3.99292516708374,39.01997452706629,38.07496095531426,155.4249795273866,139.38500023483158,-0.0003884792386088,0.0898760333657264,0,0,0
13105,443767.4402773915,2010-09-26 19:04:26,120.0615679095126,7,39,-1.099929690361023,3.980136156082153,39.01997452706629,38.0841318138129,155.4249795273866,139.4215582804807,-0.0002913951757363,0.0898760333657264,0,0,0
13106,443797.4556995429,2010-09-26 19:04:56,150.07699015118507,7,39,-1.099929690361023,3.968966007232666,39.01997452706629,38.09330254102474,155.4249795273866,139.4580068551918,-0.0002913951757363,0.0898760333657264,0,0,0
13107,443827.4711188523,2010-09-26 19:05:26,180.09240937031282,7,39,-1.1001102924346924,3.958929061889648,39.01997452706629,38.10247329962882,155.4249795273866,139.49435966699917,-0.0002913951757363,0.0898760333657264,0,0,0
13108,443857.4865554599,2010-09-26 19:05:56,210.10784596781969,7,39,-1.099929690361023,3.94986343383789,39.01997452706629,38.11164408623281,155.4249795273866,139.5306241438192,-0.0002266406954731,0.0898760333657264,0,0,0
13109,443887.50196086447,2010-09-26 19:06:26,240.12325138248937,7,39,-1.099929690361023,3.940797805786133,39.01997452706629,38.120814871466415,155.4249795273866,139.5668052928707,-0.0002266406954731,0.0898760333657264,0,0,0
13110,443917.51739891566,2010-09-26 19:06:56,270.13868942861217,7,39,-1.1001102924346924,3.932055950164795,39.01997452706629,38.12998566547137,155.4249795273866,139.60290647165465,-0.0002913951757363,0.0898760333657264,0,0,0
13111,443947.5329294877,2010-09-26 19:07:26,300.1542200057065,7,39,-1.1001102924346924,3.923961639404297,39.01997452706629,38.13915650937738,155.4249795273866,139.63893002653407,-0.0002266406954731,0.0898760333657264,0,0,0
13112,443977.5483615138,2010-09-26 19:07:56,330.1696520518525,7,39,-1.099929690361023,3.915705442428589,39.01997452706629,38.1483274058711,155.4249795273866,139.67487794676708,-0.0001942634553415,0.0898760333657264,0,0,0
13113,444007.56366962055,2010-09-26 19:08:26,360.1849601385767,7,39,-1.099929690361023,3.90761137008667,39.01997452706629,38.157498153725264,155.4249795273866,139.7107506983577,-0.0001942634553415,0.0898760333657264,0,0,0
13114,444037.5792280874,2010-09-26 19:08:56,390.2005186905006,7,39,-1.1001102924346924,3.899517059326172,39.01997452706629,38.16666905586457,155.4249795273866,139.7465505806997,-0.0002590179501567,0.0898760333657264,0,0,0
13115,444067.5944803548,2010-09-26 19:09:26,420.2157708726783,7,39,-1.099929690361023,3.8920702934265137,39.01997452706629,38.17583976492281,155.4249795273866,139.7822778298511,-0.0001942634553415,0.0898760333657264,0,0,0
13116,444097.61004537775,2010-09-26 19:09:56,450.2313359158052,7,39,-1.1001102924346924,3.8841378688812256,39.01997452706629,38.18501063328179,155.4249795273866,139.8179348802393,-0.0002266406954731,0.0898760333657264,0,0,0
13117,444127.62538321374,2010-09-26 19:10:26,480.2466737467756,7,39,-1.099929690361023,3.876691102981568,39.01997452706629,38.19418137630946,155.4249795273866,139.85352141532536,-0.0001942634553415,0.0898760333657264,0,0,0
13118,444157.6407515308,2010-09-26 19:10:56,510.26204204379394,7,39,-1.099929690361023,3.869082450866699,39.01997452706629,38.203352200832754,155.4249795273866,139.8890387696027,-0.0001942634553415,0.0898760333657264,0,0,0
13119,444187.65616675,2010-09-26 19:11:26,540.2774572629371,7,39,-1.099929690361023,3.861635684967041,39.01997452706629,38.212523080759134,155.4249795273866,139.92448773305674,-0.0001942634553415,0.0898760333657264,0,0,0
13120,444217.6715997335,2010-09-26 19:11:56,570.2928902414102,7,39,-1.1001102924346924,3.8543508052825928,39.01997452706629,38.221693870238255,155.4249795273866,139.9598684253837,-0.0001942634553415,0.0898760333657264,0,0,0
13121,444247.6870152382,2010-09-26 19:12:26,600.3083057462666,7,39,-1.1001102924346924,3.846904039382935,39.01997452706629,38.2308647292021,155.4249795273866,139.99518268957732,-0.0002266406954731,0.0898760333657264,0,0,0
13122,444277.7024323722,2010-09-26 19:12:56,630.3237228902144,7,39,-1.099929690361023,3.840104818344116,39.01997452706629,38.240035567686455,155.4249795273866,140.03043133711907,-0.0001618862152099,0.0898760333657264,0,0,0
13123,444307.7178532655,2010-09-26 19:13:26,660.3391437734962,7,39,-1.0997490882873535,3.832982063293457,39.01997452706629,38.24920648179191,155.4249795273866,140.06561538538878,-0.0001618385285837,0.0898760333657264,0,0,0
13124,444337.7334934763,2010-09-26 19:13:56,690.3547839892656,7,39,-1.099929690361023,3.826182842254639,39.01997452706629,38.258377415964645,155.4249795273866,140.1007358047938,-0.0001618862152099,0.0898760333657264,0,0,0
13125,444367.7488233424,2010-09-26 19:14:26,720.3701138603668,7,39,-1.099929690361023,3.81938362121582,39.01997452706629,38.26754823738029,155.4249795273866,140.13579337599896,-0.0001942634553415,0.0898760333657264,0,0,0
13126,444397.7641160858,2010-09-26 19:14:56,750.3854065937667,7,39,-1.099929690361023,3.812584400177002,39.01997452706629,38.27671908503843,155.4249795273866,140.17078942286824,-0.0001942634553415,0.0898760333657264,0,0,0
13127,444427.77953624725,2010-09-26 19:15:26,780.4008267552467,7,39,-1.099929690361023,3.806108951568604,39.01997452706629,38.285889959481054,155.4249795273866,140.2057240989133,-0.0001618862152099,0.0898760333657264,0,0,0
13128,444457.7949680478,2010-09-26 19:15:56,810.4162585557796,7,39,-1.099929690361023,3.799633502960205,39.01997452706629,38.29506083969535,155.4249795273866,140.24059937818592,-0.0001618862152099,0.0898760333657264,0,0,0
13129,444487.8103930915,2010-09-26 19:16:26,840.431683714734,7,39,-1.099929690361023,3.7934818267822266,39.01997452706629,38.304231705493535,155.4249795273866,140.27541649153412,-0.0001295089750783,0.0898760333657264,0,0,0
13130,444517.8104026257,2010-09-26 19:16:56,870.4316932489174,7,39,-1.099929690361023,3.787330150604248,39.01997452706629,38.31339783885642,155.4249795273866,140.31015885254467,-0.0001295089750783,0.0898760333657264,0,0,0
13131,444547.8255903319,2010-09-26 19:17:26,900.4468808398656,7,39,-1.0997490882873535,3.78134036064148,39.01997452706629,38.32256861302013,155.4249795273866,140.3448626997521,-9.713172767078504e-05,0.0898760333657264,0,0,0
13132,444577.84102808224,2010-09-26 19:17:56,930.4623185952628,7,39,-1.0997490882873535,3.775350570678711,39.01997452706629,38.33173942988742,155.4249795273866,140.37951210867357,-0.0001295089750783,0.0898760333657264,0,0,0
13133,444607.8564665093,2010-09-26 19:18:26,960.4777570423864,7,39,-1.099929690361023,3.769522666931152,39.01997452706629,38.34091030179017,155.4249795273866,140.41410809913015,-0.0001618862152099,0.0898760333657264,0,0,0
13134,444637.8718454178,2010-09-26 19:18:56,990.4931359358552,7,39,-1.1001102924346924,3.763856649398804,39.01997452706629,38.35008114122084,155.4249795273866,140.44865125114643,-0.0001295089750783,0.0898760333657264,0,0,0
13135,444667.88739846105,2010-09-26 19:19:26,1020.5086889690034,7,39,-1.099929690361023,3.758352518081665,39.01997452706629,38.35925207399795,155.4249795273866,140.48314297026138,-0.0001295089750783,0.0898760333657264,0,0,0
13136,444697.90309600485,2010-09-26 19:19:56,1050.5243866131227,7,39,-1.099929690361023,3.752686738967896,39.01997452706629,38.36842304946925,155.4249795273866,140.5175842210404,-0.0001294612884521,0.0898760333657264,0,0,0
13137,444727.9181409799,2010-09-26 19:20:26,1080.5394314878292,7,39,-1.099929690361023,3.747344493865967,39.01997452706629,38.37759378732434,155.4249795273866,140.5519748296187,-0.0001618862152099,0.0898760333657264,0,0,0
13138,444757.9335288056,2010-09-26 19:20:56,1110.5548193236193,7,39,-1.1002910137176514,3.742002248764038,39.01997452706629,38.38676460055389,155.4249795273866,140.58631695121673,-0.0001295089750783,0.0898760333657264,0,0,0
13139,444787.94895713247,2010-09-26 19:21:26,1140.5702476404565,7,39,-1.099929690361023,3.736983776092529,39.01997452706629,38.3959354665035,155.4249795273866,140.6206112400328,-0.0001295089750783,0.0898760333657264,0,0,0
13140,444817.9643739606,2010-09-26 19:21:56,1170.5856644736284,7,39,-1.099929690361023,3.7318034172058105,39.01997452706629,38.40510637051069,155.4249795273866,140.65485869389474,-0.0001295089750783,0.0898760333657264,0,0,0
13141,444847.97980789153,2010-09-26 19:22:26,1200.601098414504,7,39,-1.099929690361023,3.7267849445343018,39.01997452706629,38.41427718174633,155.4249795273866,140.68905970472696,-0.0001295089750783,0.0898760333657264,0,0,0
13142,444877.9953665087,2010-09-26 19:22:56,1230.6166571268282,7,39,-1.099929690361023,3.721928358078003,39.01997452706629,38.4234480965694,155.4249795273866,140.72321575514977,-0.0001295089750783,0.0898760333657264,0,0,0
13143,444908.0106725703,2010-09-26 19:23:26,1260.6319630982723,7,39,-1.099929690361023,3.717233657836914,39.01997452706629,38.4326188670599,155.4249795273866,140.7573262878356,-9.713172767078504e-05,0.0898760333657264,0,0,0
13144,444938.02618324273,2010-09-26 19:23:56,1290.6474737606563,7,39,-1.099929690361023,3.712215185165405,39.01997452706629,38.4417897767473,155.4249795273866,140.79139298489872,-0.0001295089750783,0.0898760333657264,0,0,0
13145,444968.0414875298,2010-09-26 19:24:26,1320.6627780428842,7,39,-1.0997490882873535,3.707844257354736,39.01997452706629,38.45096063341183,155.4249795273866,140.8254158449542,-6.47544875391759e-05,0.0898760333657264,0,0,0
13146,444998.05689239816,2010-09-26 19:24:56,1350.6781829061774,7,39,-1.0997490882873535,3.7029876708984375,39.01997452706629,38.46013158955564,155.4249795273866,140.859396098795,-9.713172767078504e-05,0.0898760333657264,0,0,0
13147,445028.0723145647,2010-09-26 19:25:26,1380.6936050726622,7,39,-1.0997490882873535,3.698454856872559,39.01997452706629,38.46930249674449,155.4249795273866,140.89333373987307,-9.713172767078504e-05,0.0898760333657264,0,0,0
13148,445058.0877408464,2010-09-26 19:25:56,1410.7090313644444,7,39,-1.099929690361023,3.69359827041626,39.01997452706629,38.47847340327728,155.4249795273866,140.92722954436422,-9.713172767078504e-05,0.0898760333657264,0,0,0
13149,445088.1032263762,2010-09-26 19:26:26,1440.7245168890809,7,39,-1.099929690361023,3.689389228820801,39.01997452706629,38.48764437209276,155.4249795273866,140.96108425424967,-6.47544875391759e-05,0.0898760333657264,0,0,0
13150,445118.1186225527,2010-09-26 19:26:56,1470.7399131659413,7,39,-1.099929690361023,3.684856414794922,39.01997452706629,38.49681527964919,155.4249795273866,140.9948979312531,-0.0001295089750783,0.0898760333657264,0,0,0
13151,445148.1340148196,2010-09-26 19:27:26,1500.7553053275292,7,39,-1.099929690361023,3.680485486984253,39.01997452706629,38.50598622119907,155.4249795273866,141.0286718178906,-0.0001295089750783,0.0898760333657264,0,0,0
13152,445178.1494184598,2010-09-26 19:27:56,1530.7707089777946,7,39,-1.099929690361023,3.676438331604004,39.01997452706629,38.51515717304219,155.4249795273866,141.06240636194798,-9.713172767078504e-05,0.0898760333657264,0,0,0
13153,445208.1648604909,2010-09-26 19:28:26,1560.7861509988395,7,39,-1.099929690361023,3.672229528427124,39.01997452706629,38.524328051772486,155.4249795273866,141.09610213529027,-9.70840483205393e-05,0.0898760333657264,0,0,0
13154,445238.18026257725,2010-09-26 19:28:56,1590.8015530852012,7,39,-1.099929690361023,3.667858600616455,39.01997452706629,38.53349895512535,155.4249795273866,141.12975995988822,-0.0001295089750783,0.0898760333657264,0,0,0
13155,445268.1956802225,2010-09-26 19:29:26,1620.8169707304005,7,39,-1.099929690361023,3.663973331451416,39.01997452706629,38.54266977496819,155.4249795273866,141.16338035763906,-9.713172767078504e-05,0.0898760333657264,0,0,0
13156,445298.2110953213,2010-09-26 19:29:56,1650.832385829243,7,39,-1.099929690361023,3.660088062286377,39.01997452706629,38.55184058803352,155.4249795273866,141.19696415466677,-0.0001295089750783,0.0898760333657264,0,0,0
13157,445328.22674099565,2010-09-26 19:30:26,1680.848031503638,7,39,-1.099929690361023,3.656202793121338,39.01997452706629,38.56101154944615,155.4249795273866,141.230512535044,-6.47544875391759e-05,0.0898760333657264,0,0,0
13158,445358.241941163,2010-09-26 19:30:56,1710.8632316709786,7,39,-1.1001102924346924,3.652479410171509,39.01997452706629,38.570182374676186,155.4249795273866,141.26402542605132,-9.713172767078504e-05,0.0898760333657264,0,0,0
13159,445388.2573689837,2010-09-26 19:31:26,1740.8786595016022,7,39,-1.099929690361023,3.64875602722168,39.01997452706629,38.57935324052496,155.4249795273866,141.29750387065394,-6.47544875391759e-05,0.0898760333657264,0,0,0
13160,445418.2727825486,2010-09-26 19:31:56,1770.8940730565912,7,39,-1.0997490882873535,3.6450326442718506,39.01997452706629,38.58852409750014,155.4249795273866,141.3309482497601,-9.713172767078504e-05,0.0898760333657264,0,0,0
13161,445448.28822948696,2010-09-26 19:32:26,1800.9095199949104,7,39,-1.0997490882873535,3.641471147537232,39.01997452706629,38.59769490092559,155.4249795273866,141.36435954227684,-6.47544875391759e-05,0.0898760333657264,0,0,0
13162,445478.3036351122,2010-09-26 19:32:56,1830.9249256251185,7,39,-1.1001102924346924,3.6380715370178223,39.01997452706629,38.60686568663952,155.4249795273866,141.3977385556562,-3.237724376958795e-05,0.0898760333657264,0,0,0
13163,445508.3208852064,2010-09-26 19:33:26,1860.9421757143791,7,39,-1.099929690361023,3.634671926498413,39.01997452706629,38.61603704862424,155.4249795273866,141.4310881148712,-6.47544875391759e-05,0.0898760333657264,0,0,0
13164,445538.3346642915,2010-09-26 19:33:57,1890.9559548145176,7,39,-1.099929690361023,3.631272315979004,39.01997452706629,38.62520734852882,155.4249795273866,141.46440317941406,-6.47544875391759e-05,0.0898760333657264,0,0,0
13165,445568.34991793736,2010-09-26 19:34:27,1920.971208450324,7,39,-1.0997490882873535,3.628196477890015,39.01997452706629,38.63437814177944,155.4249795273866,141.49768995147247,-9.713172767078504e-05,0.0898760333657264,0,0,0
13166,445598.36532905634,2010-09-26 19:34:57,1950.9866195742447,7,39,-1.1001102924346924,3.624958753585816,39.01997452706629,38.643548995853415,155.4249795273866,141.53094771439171,-6.47544875391759e-05,0.0898760333657264,0,0,0
13167,445628.38073383935,2010-09-26 19:35:27,1981.0020243573383,7,39,-1.0997490882873535,3.621882915496826,39.01997452706629,38.65271986577187,155.4249795273866,141.5641771670485,-6.47544875391759e-05,0.0898760333657264,0,0,0
13168,445658.396156873,2010-09-26 19:35:57,2011.0174473809625,7,39,-1.099929690361023,3.618968963623047,39.01997452706629,38.66189073187627,155.4249795273866,141.5973786018896,-6.47544875391759e-05,0.0898760333657264,0,0,0
13169,445688.41171641735,2010-09-26 19:36:27,2041.0330069554389,7,39,-1.0997490882873535,3.6158931255340576,39.01997452706629,38.67106169401291,155.4249795273866,141.63055302120426,-9.713172767078504e-05,0.0898760333657264,0,0,0
13170,445718.4271176918,2010-09-26 19:36:57,2071.048408229773,7,39,-1.099929690361023,3.6129791736602783,39.01997452706629,38.68023257995339,155.4249795273866,141.66370037594095,-6.47544875391759e-05,0.0898760333657264,0,0,0
13171,445748.4424383548,2010-09-26 19:37:27,2101.063728877853,7,39,-1.099929690361023,3.610065221786499,39.01997452706629,38.68940345618,155.4249795273866,141.6968211718421,-6.47544875391759e-05,0.0898760333657264,0,0,0
13172,445778.4578410427,2010-09-26 19:37:57,2131.0791315506785,7,39,-1.099929690361023,3.6073131561279297,39.01997452706629,38.69857433794912,155.4249795273866,141.72991591320655,-9.713172767078504e-05,0.0898760333657264,0,0,0
13173,445808.4732730989,2010-09-26 19:38:27,2161.094563606849,7,39,-1.0997490882873535,3.6043992042541504,39.01997452706629,38.7077452569201,155.4249795273866,141.76298475462605,-6.47544875391759e-05,0.0898760333657264,0,0,0
13174,445838.48867670906,2010-09-26 19:38:57,2191.109967217015,7,39,-1.099929690361023,3.601647138595581,39.01997452706629,38.71691616013453,155.4249795273866,141.79602801302482,-6.47544875391759e-05,0.0898760333657264,0,0,0
13175,445868.5041015773,2010-09-26 19:39:27,2221.125392085244,7,39,-1.099929690361023,3.598895072937012,39.01997452706629,38.72608707839749,155.4249795273866,141.82904554538288,-9.713172767078504e-05,0.0898760333657264,0,0,0
13176,445898.51964269567,2010-09-26 19:39:57,2251.1409332036505,7,39,-1.1001102924346924,3.5961430072784424,39.01997452706629,38.73525802974496,155.4249795273866,141.86203771134822,-6.47544875391759e-05,0.0898760333657264,0,0,0
13177,445928.5349483613,2010-09-26 19:40:27,2281.1562388793564,7,39,-1.0997490882873535,3.593390941619873,39.01997452706629,38.7444289028898,155.4249795273866,141.89500403390517,-3.237724376958795e-05,0.0898760333657264,0,0,0
13178,445958.5503712447,2010-09-26 19:40:57,2311.171661767643,7,39,-1.0997490882873535,3.590639114379883,39.01997452706629,38.75359983900524,155.4249795273866,141.92794502328334,-3.237724376958795e-05,0.0898760333657264,0,0,0
13179,445988.5657859625,2010-09-26 19:41:27,2341.1870764704977,7,39,-1.099929690361023,3.5877251625061035,39.01997452706629,38.76277076268601,155.4249795273866,141.96086010556903,-6.47544875391759e-05,0.0898760333657264,0,0,0
13180,446018.5812051767,2010-09-26 19:41:57,2371.2024956846126,7,39,-1.099929690361023,3.584811210632324,39.01997452706629,38.77194164485774,155.4249795273866,141.99374884838446,-6.47544875391759e-05,0.0898760333657264,0,0,0
13181,446048.5966569971,2010-09-26 19:42:27,2401.217947515144,7,39,-1.099929690361023,3.581897258758545,39.01997452706629,38.7811125104736,155.4249795273866,142.02661111129913,-6.47544875391759e-05,0.0898760333657264,0,0,0
13182,446078.6120420861,2010-09-26 19:42:57,2431.233332604077,7,39,-1.099929690361023,3.5789833068847656,39.01997452706629,38.79028337032321,155.4249795273866,142.0594465725965,-6.47544875391759e-05,0.0898760333657264,0,0,0
13183,446108.6274666586,2010-09-26 19:43:27,2461.248757191606,7,39,-1.0997490882873535,3.5759074687957764,39.01997452706629,38.79945428107302,155.4249795273866,142.09225478373605,-9.713172767078504e-05,0.0898760333657264,0,0,0
13184,446138.642880775,2010-09-26 19:43:57,2491.2641712879454,7,39,-1.1001102924346924,3.572669744491577,39.01997452706629,38.8086251960443,155.4249795273866,142.12503459366886,-9.713172767078504e-05,0.0898760333657264,0,0,0
13185,446168.6583335679,2010-09-26 19:44:27,2521.279624075866,7,39,-1.099929690361023,3.569432020187378,39.01997452706629,38.81779609803408,155.4249795273866,142.15778565195671,-9.713172767078504e-05,0.0898760333657264,0,0,0
13186,446198.6737372933,2010-09-26 19:44:57,2551.2950278013195,7,39,-1.0997490882873535,3.5661942958831787,39.01997452706629,38.826966959937096,155.4249795273866,142.19050684968045,-9.713172767078504e-05,0.0898760333657264,0,0,0
13187,446228.6891497205,2010-09-26 19:45:27,2581.3104402335057,7,39,-1.099929690361023,3.5629565715789795,39.01997452706629,38.83613782460486,155.4249795273866,142.22319717057755,-6.47544875391759e-05,0.0898760333657264,0,0,0
13188,446258.70456954616,2010-09-26 19:45:57,2611.325860054136,7,39,-1.099929690361023,3.5593950748443604,39.01997452706629,38.84530863891814,155.4249795273866,142.25585613606975,-9.713172767078504e-05,0.0898760333657264,0,0,0
13189,446288.7200040535,2010-09-26 19:46:27,2641.341294561424,7,39,-1.099929690361023,3.5555098056793213,39.01997452706629,38.85447951068191,155.4249795273866,142.28848181118812,-0.0001295089750783,0.0898760333657264,0,0,0
13190,446318.7200074924,2010-09-26 19:46:57,2671.3412980003936,7,39,-1.099929690361023,3.551786422729492,39.01997452706629,38.86364565834838,155.4249795273866,142.32105588786567,-0.0001295089750783,0.0898760333657264,0,0,0
13191,446348.735216993,2010-09-26 19:47:27,2701.356507501031,7,39,-1.099929690361023,3.547739267349243,39.01997452706629,38.87281650295254,155.4249795273866,142.3536105087025,-0.0001295089750783,0.0898760333657264,0,0,0
13192,446378.7506380217,2010-09-26 19:47:57,2731.371928529676,7,39,-1.099929690361023,3.543692111968994,39.01997452706629,38.88198746863176,155.4249795273866,142.3861279787214,-9.713172767078504e-05,0.0898760333657264,0,0,0
13193,446408.7660510905,2010-09-26 19:48:27,2761.387341598452,7,39,-1.099929690361023,3.539321184158325,39.01997452706629,38.89115834017218,155.4249795273866,142.41860626938953,-9.713172767078504e-05,0.0898760333657264,0,0,0
13194,446438.7814803646,2010-09-26 19:48:57,2791.402770887716,7,39,-1.099929690361023,3.5347883701324463,39.01997452706629,38.900329264864446,155.4249795273866,142.45104439614417,-0.0001295089750783,0.0898760333657264,0,0,0
13195,446468.7970263453,2010-09-26 19:49:27,2821.4183168832974,7,39,-1.099929690361023,3.5302555561065674,39.01997452706629,38.90950026813968,155.4249795273866,142.48344085181708,-9.713172767078504e-05,0.0898760333657264,0,0,0
13196,446498.8123177754,2010-09-26 19:49:57,2851.433608283369,7,39,-1.099929690361023,3.5250751972198486,39.01997452706629,38.91867111781794,155.4249795273866,142.51579288466968,-0.0001618862152099,0.0898760333657264,0,0,0
13197,446528.8277695909,2010-09-26 19:50:27,2881.4490601991124,7,39,-1.1001102924346924,3.51989483833313,39.01997452706629,38.927842039198055,155.4249795273866,142.54809835728366,-0.0001618862152099,0.0898760333657264,0,0,0
13198,446558.8436602919,2010-09-26 19:50:57,2911.4649509001315,7,39,-1.0997490882873535,3.514228820800781,39.01997452706629,38.937013109802784,155.4249795273866,142.58035387602783,-0.0001942634553415,0.0898760333657264,0,0,0
13199,446588.85858719214,2010-09-26 19:51:27,2941.47987771013,7,39,-1.0997490882873535,3.508077383041382,39.01997452706629,38.94618389304997,155.4249795273866,142.61255380871495,-0.0001618862152099,0.0898760333657264,0,0,0
13200,446618.8740066519,2010-09-26 19:51:57,2971.4952971698585,7,39,-1.1001102924346924,3.500954389572144,39.01997452706629,38.955354774288885,155.4249795273866,142.6446938672152,-0.0002266406954731,0.0898760333657264,0,0,0
13201,446648.88981542335,2010-09-26 19:52:27,3001.511105971444,7,39,-1.0997490882873535,3.4933457374572754,39.01997452706629,38.964525808356136,155.4249795273866,142.67676723860464,-0.0002266406954731,0.0898760333657264,0,0,0
13202,446678.9048563432,2010-09-26 19:52:57,3031.5261468612034,7,39,-1.1001102924346924,3.4844419956207275,39.01997452706629,38.9736966281232,155.4249795273866,142.70876366693423,-0.0002266406954731,0.0898760333657264,0,0,0
13203,446708.92026370775,2010-09-26 19:53:27,3061.5415542257406,7,39,-1.1001102924346924,3.47408127784729,39.01997452706629,38.98286758653728,155.4249795273866,142.74067228005427,-0.0002913951757363,0.0898760333657264,0,0,0
13204,446738.9356819143,2010-09-26 19:53:57,3091.556972427328,7,39,-1.099929690361023,3.461454153060913,39.01997452706629,38.992038468925166,155.4249795273866,142.77247676542532,-0.0003885269106831,0.0898760333657264,0,0,0
13205,446768.9510867676,2010-09-26 19:54:27,3121.572377275584,7,39,-1.099929690361023,3.445913076400757,39.01997452706629,39.00120945546799,155.4249795273866,142.80415377694794,-0.0004856586456298,0.0898760333657264,0,0,0
13206,446798.96650911454,2010-09-26 19:54:57,3151.587799627532,7,39,-1.099929690361023,3.425191879272461,39.01997452706629,39.01038038783469,155.4249795273866,142.83566514256066,-0.0006151676061563,0.0898760333657264,0,0,0
13207,446828.9819212159,2010-09-26 19:55:27,3181.603211718867,7,39,-1.1001102924346924,3.395890474319458,39.01997452706629,39.01955143184064,155.4249795273866,142.86695033565206,-0.0009065627818927,0.0898760333657264,0,0,0
13208,446858.9973596029,2010-09-26 19:55:57,3211.618650130904,7,39,-1.099929690361023,3.353961944580078,39.01997452706629,39.02872251571901,155.4249795273866,142.89791364071743,-0.0012950897216796,0.0898760333657264,0,0,0
13209,446889.0128874081,2010-09-26 19:56:27,3241.634177926054,7,39,-1.099929690361023,3.293416738510132,39.01997452706629,39.03789355623038,155.4249795273866,142.9284121540614,-0.0018778800731524,0.0898760333657264,0,0,0
13210,446919.0283318602,2010-09-26 19:56:57,3271.649622373154,7,39,-1.0997490882873535,3.206160306930542,39.01997452706629,39.04706448947246,155.4249795273866,142.95824121533968,-0.0026873112656176,0.0898760333657264,0,0,0
13211,446949.04364623263,2010-09-26 19:57:27,3301.664936750581,7,39,-1.099929690361023,3.0679099559783936,39.01997452706629,39.05623536091164,155.4249795273866,142.9870657508625,-0.0046623228117823,0.0898760333657264,0,0,0
13212,446969.91850424965,2010-09-26 19:57:48,3322.539794757684,7,39,-1.099929690361023,2.867495536804199,39.01997452706629,39.06261344079208,155.4249795273866,143.00609729817938,-0.011170101352036,0.0898760333657264,0,0,0
13213,446979.4184130987,2010-09-26 19:57:58,3332.039703606695,7,39,-1.099929690361023,2.699620008468628,39.01997452706629,39.065516012161005,155.4249795273866,143.01418350601284,-0.0146992206573486,0.0898760333657264,0,0,0
13214,447039.43035888055,2010-09-26 19:58:58,60.01512092492413,8,39,0.0,3.3076627254486084,39.01997452706629,39.065516012161005,155.4249795273866,143.01418350601284,0.0014569759368896,0.0898760333657264,0,0,0
13215,447039.6307902164,2010-09-26 19:58:58,0.187612223974459,9,39,-1.9243103452026844e-05,3.3076627254486084,39.01997452706629,39.06551601316385,155.4249795273866,143.0141835093299,0.0,0.0867155864834785,0,0,0
13216,447044.4587379868,2010-09-26 19:59:03,5.015559979333028,9,39,0.0001613661734154,3.316566467285156,39.01997493186496,39.06551601383241,155.42498086835388,143.01418351154365,0.0012950897216796,0.0867155864834785,0,0,0
