Data_Point,Test_Time(s),Date_Time,Step_Time(s),Step_Index,Cycle_Index,Current(A),Voltage(V),Charge_Capacity(Ah),Discharge_Capacity(Ah),Charge_Energy(Wh),Discharge_Energy(Wh),dV/dt(V/s),Internal_Resistance(Ohm),Is_FC_Data,AC_Impedance(Ohm),ACI_Phase_Angle(Deg)
1,30.00071500013495,2010-09-21 15:48:03,30.000715581586345,1,1,0.0,3.671258211135864,0.0,0.0,0.0,0.0,0.0,0.0,0,0,0
2,60.01599356316344,2010-09-21 15:48:33,60.01599416967739,1,1,0.0,3.671258211135864,0.0,0.0,0.0,0.0,-3.237724376958795e-05,0.0,0,0,0
3,90.03123638196884,2010-09-21 15:49:03,90.03123705865796,1,1,0.0,3.671258211135864,0.0,0.0,0.0,0.0,0.0,0.0,0,0,0
4,120.01538074424236,2010-09-21 15:49:33,120.01538132569377,1,1,0.0,3.671420097351074,0.0,0.0,0.0,0.0,0.0,0.0,0,0,0
5,150.03136861381992,2010-09-21 15:50:03,30.01557637140401,2,1,0.5501165986061096,3.769846439361572,0.00458657072293,0.0,0.017234023190445,0.0,0.0005504131549969,0.0,0,0,0
6,180.04626986502004,2010-09-21 15:50:33,60.03047762761664,2,1,0.5501165986061096,3.7819879055023193,0.009173046482907,0.0,0.034555760625436,0.0,0.0002266406954731,0.0,0,0,0
7,210.0616335806024,2010-09-21 15:51:03,90.04584134319899,2,1,0.5501165986061096,3.787977695465088,0.013759561726858,0.0,0.051916966591732,0.0,0.0001295089750783,0.0,0,0,0
8,240.0769016674808,2010-09-21 15:51:33,120.06110942506488,2,1,0.5501165986061096,3.791701078414917,0.018346085854273,0.0,0.069299760585062,0.0,9.713172767078504e-05,0.0,0,0,0
9,270.0922243205648,2010-09-21 15:52:03,150.0764321483241,2,1,0.5499359965324402,3.794776916503906,0.022932597202893,0.0,0.086697852309276,0.0,3.237724376958795e-05,0.0,0,0,0
10,300.1073276662238,2010-09-21 15:52:33,180.09153539874532,2,1,0.550297200679779,3.7976908683776855,0.027519092604216,0.0,0.104109163632237,0.0,0.0001295089750783,0.0,0,0,0
11,330.1227070208436,2010-09-21 15:53:03,210.10691475336512,2,1,0.5501165986061096,3.800604820251465,0.032105508224769,0.0,0.121532878892487,0.0,9.713172767078504e-05,0.0,0,0,0
12,360.1378504916612,2010-09-21 15:53:33,240.1220582492452,2,1,0.5501165986061096,3.8030331134796143,0.036691957354002,0.0,0.138969268799911,0.0,6.47544875391759e-05,0.0,0,0,0
13,390.1532438913396,2010-09-21 15:54:03,270.13745162386107,2,1,0.550297200679779,3.805785179138184,0.041278442417741,0.0,0.156418272850954,0.0,6.47544875391759e-05,0.0,0,0,0
14,420.168759686536,2010-09-21 15:54:33,300.15296744913263,2,1,0.550297200679779,3.808699131011963,0.04586499424425,0.0,0.173879905195009,0.0,9.713172767078504e-05,0.0,0,0,0
15,450.1836790028294,2010-09-21 15:55:03,330.1678868305887,2,1,0.5501165986061096,3.811127424240112,0.050451414078213,0.0,0.191353256958723,0.0,6.47544875391759e-05,0.0,0,0,0
16,480.1989708490147,2010-09-21 15:55:33,360.18317860659874,2,1,0.5499359965324402,3.813717603683472,0.055037966935957,0.0,0.208839240400317,0.0,6.47544875391759e-05,0.0,0,0,0
17,510.2141839386114,2010-09-21 15:56:03,390.198391671133,2,1,0.550297200679779,3.816469669342041,0.059624480692214,0.0,0.226337343588833,0.0,9.713172767078504e-05,0.0,0,0,0
18,540.2313573214016,2010-09-21 15:56:33,420.21556507898566,2,1,0.550297200679779,3.8190598487854,0.06421123030429,0.0,0.243848049291341,0.0,9.713172767078504e-05,0.0,0,0,0
19,570.2447341774769,2010-09-21 15:57:03,450.2289419400735,2,1,0.5501165986061096,3.82165002822876,0.068797299607625,0.0,0.26136798242029,0.0,9.713172767078504e-05,0.0,0,0,0
20,600.2599954924516,2010-09-21 15:57:33,480.24420334026087,2,1,0.5501165986061096,3.824078321456909,0.07338379226884,0.0,0.278901341616029,0.0,6.47544875391759e-05,0.0,0,0,0
21,630.275267153251,2010-09-21 15:58:03,510.2594749058226,2,1,0.5499359965324402,3.8268303871154794,0.077970181982881,0.0,0.29644621906805,0.0,6.47544875391759e-05,0.0,0,0,0
22,660.2905512400677,2010-09-21 15:58:33,540.2747589776018,2,1,0.550297200679779,3.829420566558838,0.082556645679467,0.0,0.314003662725606,0.0,6.47544875391759e-05,0.0,0,0,0
23,690.3058186853447,2010-09-21 15:59:03,570.2900264429287,2,1,0.5501165986061096,3.832334518432617,0.087143145392406,0.0,0.331573809192002,0.0,9.713172767078504e-05,0.0,0,0,0
24,720.3210512134629,2010-09-21 15:59:33,600.3052589760595,2,1,0.5499359965324402,3.835086345672608,0.091729600880411,0.0,0.349156472437948,0.0,9.713172767078504e-05,0.0,0,0,0
25,750.3363225033365,2010-09-21 16:00:03,630.320530235858,2,1,0.5501165986061096,3.8378384113311768,0.096316052504963,0.0,0.366752340658156,0.0,6.47544875391759e-05,0.0,0,0,0
26,780.3516232467306,2010-09-21 16:00:33,660.3358310895273,2,1,0.5501165986061096,3.840914249420166,0.100902523405356,0.0,0.384361741117114,0.0,6.47544875391759e-05,0.0,0,0,0
27,810.3668611632992,2010-09-21 16:01:03,690.3510689008333,2,1,0.5499359965324402,3.843828201293945,0.105488974231816,0.0,0.401984724434531,0.0,6.47544875391759e-05,0.0,0,0,0
28,840.3821193805414,2010-09-21 16:01:33,720.366327113063,2,1,0.5501165986061096,3.846904039382935,0.110075363941518,0.0,0.419621147791469,0.0,9.713172767078504e-05,0.0,0,0,0
29,870.3973809311042,2010-09-21 16:02:03,750.3815886736508,2,1,0.5501165986061096,3.849817991256714,0.114661795734232,0.0,0.437271459006985,0.0,6.47544875391759e-05,0.0,0,0,0
30,900.4126768173743,2010-09-21 16:02:33,780.3968845699458,2,1,0.5501165986061096,3.852731943130493,0.119248280149636,0.0,0.454935524740088,0.0,6.47544875391759e-05,0.0,0,0,0
31,930.4279628390204,2010-09-21 16:03:03,810.4121706868299,2,1,0.5499359965324402,3.8554840087890634,0.123834711058569,0.0,0.472612634183886,0.0,6.47544875391759e-05,0.0,0,0,0
32,960.4432550761818,2010-09-21 16:03:33,840.427462903941,2,1,0.550297200679779,3.858559846878052,0.128421072154061,0.0,0.490302698650945,0.0,9.713172767078504e-05,0.0,0,0,0
33,990.4584530480422,2010-09-21 16:04:04,870.4426607805639,2,1,0.5501165986061096,3.861311912536621,0.133007517950872,0.0,0.508006061724043,0.0,6.47544875391759e-05,0.0,0,0,0
34,1020.4737489443372,2010-09-21 16:04:34,900.4579566768588,2,1,0.5501165986061096,3.8642258644104,0.137593987058966,0.0,0.525722260849847,0.0,9.713172767078504e-05,0.0,0,0,0
35,1050.4889957731525,2010-09-21 16:05:04,930.473203505674,2,1,0.5501165986061096,3.86681604385376,0.142180447634174,0.0,0.54345092886258,0.0,6.47544875391759e-05,0.0,0,0,0
36,1080.504267554252,2010-09-21 16:05:34,960.4884753820112,2,1,0.5501165986061096,3.869244337081909,0.146766912528086,0.0,0.56119185050507,0.0,3.237724376958795e-05,0.0,0,0,0
37,1110.5195479869474,2010-09-21 16:06:04,990.5037557445316,2,1,0.5501165986061096,3.8719964027404794,0.151353451626063,0.0,0.578944899173589,0.0,9.713172767078504e-05,0.0,0,0,0
38,1140.5196590545738,2010-09-21 16:06:34,1020.5038667971204,2,1,0.550297200679779,3.874424695968628,0.155937594539904,0.0,0.596700073721953,0.0,6.47544875391759e-05,0.0,0,0,0
39,1170.5344526219787,2010-09-21 16:07:04,1050.5186603795628,2,1,0.5501165986061096,3.876691102981568,0.160523947915402,0.0,0.614474743948884,0.0,3.237724376958795e-05,0.0,0,0,0
40,1200.5496969545627,2010-09-21 16:07:34,1080.5339046870845,2,1,0.5501165986061096,3.878957509994507,0.165110358299737,0.0,0.632260060839896,0.0,6.47544875391759e-05,0.0,0,0,0
41,1230.564957412398,2010-09-21 16:08:04,1110.549165149932,2,1,0.5501165986061096,3.881062030792236,0.169696797611468,0.0,0.650055311105882,0.0,6.47544875391759e-05,0.0,0,0,0
42,1260.5802500856478,2010-09-21 16:08:34,1140.5644578382194,2,1,0.5499359965324402,3.882842779159546,0.174283221299663,0.0,0.667859801783129,0.0,3.237724376958795e-05,0.0,0,0,0
43,1290.5980296666016,2010-09-21 16:09:04,1170.582237589599,2,1,0.5501165986061096,3.884623527526856,0.178870129156459,0.0,0.685674880621635,0.0,0.0,0.0,0,0,0
44,1320.6107720188577,2010-09-21 16:09:34,1200.5949797513797,2,1,0.5501165986061096,3.886566162109375,0.183456200534774,0.0,0.703494827900065,0.0,3.237724376958795e-05,0.0,0,0,0
45,1350.626035529313,2010-09-21 16:10:04,1230.6102432618345,2,1,0.5501165986061096,3.8880231380462646,0.188042688098935,0.0,0.721323922244689,0.0,3.237724376958795e-05,0.0,0,0,0
46,1380.6414211295223,2010-09-21 16:10:34,1260.6256288670568,2,1,0.5499359965324402,3.889642000198364,0.192629199025142,0.0,0.739160145008747,0.0,3.237724376958795e-05,0.0,0,0,0
47,1410.6568887645035,2010-09-21 16:11:04,1290.6410964970253,2,1,0.5501165986061096,3.890937089920044,0.197215655454819,0.0,0.757002411701848,0.0,3.237724376958795e-05,0.0,0,0,0
48,1440.6718155143524,2010-09-21 16:11:34,1320.6560232719364,2,1,0.5501165986061096,3.892232179641724,0.201801977651696,0.0,0.774850152064716,0.0,6.47544875391759e-05,0.0,0,0,0
49,1470.687116979548,2010-09-21 16:12:04,1350.6713247321195,2,1,0.5499359965324402,3.893365383148194,0.206388499148829,0.0,0.792704301582175,0.0,3.237724376958795e-05,0.0,0,0,0
50,1500.7023469913856,2010-09-21 16:12:34,1380.686554743957,2,1,0.5499359965324402,3.894498586654663,0.210974987774139,0.0,0.810563754322682,0.0,3.237724376958795e-05,0.0,0,0,0
51,1530.7176370280538,2010-09-21 16:13:04,1410.701844760575,2,1,0.5501165986061096,3.895469903945923,0.215561465590264,0.0,0.828427907133285,0.0,3.237724376958795e-05,0.0,0,0,0
52,1560.7328786839566,2010-09-21 16:13:34,1440.717086416478,2,1,0.5499359965324402,3.8966031074523926,0.220147903275808,0.0,0.846297102551823,0.0,3.237724376958795e-05,0.0,0,0,0
53,1590.7481402244944,2010-09-21 16:14:04,1470.7323479570157,2,1,0.5499359965324402,3.897574424743652,0.224734319245985,0.0,0.864171186644732,0.0,0.0,0.0,0,0,0
54,1620.7634080557343,2010-09-21 16:14:34,1500.747615788256,2,1,0.550297200679779,3.898707628250122,0.229320768444577,0.0,0.882050342987386,0.0,3.237724376958795e-05,0.0,0,0,0
55,1650.7786857215233,2010-09-21 16:15:04,1530.7628934540448,2,1,0.5501165986061096,3.899840831756592,0.233907181125373,0.0,0.89993424741668,0.0,3.237724376958795e-05,0.0,0,0,0
56,1680.7940894169014,2010-09-21 16:15:34,1560.778297159448,2,1,0.5501165986061096,3.900812149047852,0.238493716084595,0.0,0.917823456868427,0.0,3.237724376958795e-05,0.0,0,0,0
57,1710.8091985018866,2010-09-21 16:16:04,1590.7934062544582,2,1,0.5501165986061096,3.901945352554321,0.243079980958719,0.0,0.935716551093838,0.0,0.0,0.0,0,0,0
58,1740.824464277997,2010-09-21 16:16:34,1620.8086720205436,2,1,0.550297200679779,3.903078556060791,0.247666307812178,0.0,0.95361477590558,0.0,3.237724376958795e-05,0.0,0,0,0
59,1770.8397600289293,2010-09-21 16:17:04,1650.8239678867633,2,1,0.5499359965324402,3.904049873352051,0.252252588693356,0.0,0.971517740678554,0.0,3.237724376958795e-05,0.0,0,0,0
60,1800.8550048126392,2010-09-21 16:17:34,1680.8392125501732,2,1,0.5497553944587708,3.905183076858521,0.256838954533173,0.0,0.989426006300445,0.0,0.0,0.0,0,0,0
61,1830.870271095013,2010-09-21 16:18:04,1710.8544788275349,2,1,0.5501165986061096,3.90615439414978,0.261425390660804,0.0,1.007339302273304,0.0,-3.237724376958795e-05,0.0,0,0,0
62,1860.8857241435844,2010-09-21 16:18:34,1740.869931886131,2,1,0.5501165986061096,3.90728759765625,0.266011812443148,0.0,1.025257620936354,0.0,3.237724376958795e-05,0.0,0,0,0
63,1890.9009524712176,2010-09-21 16:19:04,1770.8851602338143,2,1,0.550297200679779,3.9085826873779297,0.270598233055966,0.0,1.043180956857302,0.0,6.47544875391759e-05,0.0,0,0,0
64,1920.916066548665,2010-09-21 16:19:34,1800.9002743012363,2,1,0.5501165986061096,3.9097158908844,0.275184632731992,0.0,1.061109278428671,0.0,6.47544875391759e-05,0.0,0,0,0
65,1950.931959705815,2010-09-21 16:20:04,1830.9161674583863,2,1,0.550297200679779,3.910687208175659,0.279771136268194,0.0,1.079043060502173,0.0,3.237724376958795e-05,0.0,0,0,0
66,1980.9466091033496,2010-09-21 16:20:34,1860.9308168358707,2,1,0.5501165986061096,3.911982297897339,0.284357506393994,0.0,1.096981507887512,0.0,6.47544875391759e-05,0.0,0,0,0
67,2010.961880598736,2010-09-21 16:21:04,1890.946088326245,2,1,0.5499359965324402,3.912953615188599,0.288943908462626,0.0,1.114925323877885,0.0,3.237724376958795e-05,0.0,0,0,0
68,2040.9771473171988,2010-09-21 16:21:34,1920.9613550447075,2,1,0.5499359965324402,3.914086580276489,0.29353036814632,0.0,1.132874679973293,0.0,3.237724376958795e-05,0.0,0,0,0
69,2070.9923825520737,2010-09-21 16:22:04,1950.976590284595,2,1,0.5501165986061096,3.915381669998169,0.29811687675329,0.0,1.150829675609837,0.0,6.47544875391759e-05,0.0,0,0,0
70,2101.008155774849,2010-09-21 16:22:34,1980.992363642708,2,1,0.5501165986061096,3.916514873504639,0.302703409510451,0.0,1.168789991194224,0.0,3.237724376958795e-05,0.0,0,0,0
71,2131.0229303097453,2010-09-21 16:23:04,2011.007138037255,2,1,0.550297200679779,3.917648077011109,0.307289746444368,0.0,1.186755173830372,0.0,0.0,0.0,0,0,0
72,2161.038183489413,2010-09-21 16:23:34,2041.0223912169224,2,1,0.5499359965324402,3.918781280517578,0.311876177693724,0.0,1.2047262211336,0.0,0.0,0.0,0,0,0
73,2191.0534442229364,2010-09-21 16:24:04,2071.0376519504457,2,1,0.5499359965324402,3.920076370239258,0.316462638077468,0.0,1.222703041001775,0.0,0.0,0.0,0,0,0
74,2221.0687166105504,2010-09-21 16:24:34,2101.0529243380597,2,1,0.5501165986061096,3.9213714599609375,0.321049071384576,0.0,1.240685338658913,0.0,3.237724376958795e-05,0.0,0,0,0
75,2251.0839934943874,2010-09-21 16:25:04,2131.0682012269085,2,1,0.5501165986061096,3.922666549682617,0.325635485759982,0.0,1.258673280458021,0.0,6.47544875391759e-05,0.0,0,0,0
76,2281.099239606413,2010-09-21 16:25:34,2161.0834473339223,2,1,0.550297200679779,3.923961639404297,0.330221925686821,0.0,1.276667096041639,0.0,6.47544875391759e-05,0.0,0,0,0
77,2311.1145234025043,2010-09-21 16:26:04,2191.098731160088,2,1,0.5501165986061096,3.925256729125977,0.334808373822173,0.0,1.294666779802815,0.0,3.237724376958795e-05,0.0,0,0,0
78,2341.129907193197,2010-09-21 16:26:34,2221.1141149457685,2,1,0.5501165986061096,3.926551818847656,0.33939489829965,0.0,1.31267259289979,0.0,9.713172767078504e-05,0.0,0,0,0
79,2371.1452544928025,2010-09-21 16:27:04,2251.129462255399,2,1,0.5501165986061096,3.927685022354126,0.343981366118737,0.0,1.330684130879109,0.0,3.237724376958795e-05,0.0,0,0,0
80,2401.1603075729918,2010-09-21 16:27:34,2281.1445153005,2,1,0.5499359965324402,3.929141998291016,0.3485678231804,0.0,1.34870165077413,0.0,6.47544875391759e-05,0.0,0,0,0
81,2431.175572196224,2010-09-21 16:28:04,2311.159779928745,2,1,0.550297200679779,3.9304370880126953,0.353154250898547,0.0,1.366725109223655,0.0,3.237724376958795e-05,0.0,0,0,0
82,2461.1908283132234,2010-09-21 16:28:34,2341.1750360407327,2,1,0.5499359965324402,3.931570291519165,0.357740760509467,0.0,1.384755008780566,0.0,0.0,0.0,0,0,0
83,2491.206108680756,2010-09-21 16:29:04,2371.1903164132777,2,1,0.5501165986061096,3.933027267456055,0.362327237516893,0.0,1.402790951642216,0.0,3.237724376958795e-05,0.0,0,0,0
84,2521.2213883716,2010-09-21 16:29:34,2401.2055961241717,2,1,0.5501165986061096,3.934484243392944,0.366913703829366,0.0,1.420833046699632,0.0,3.237724376958795e-05,0.0,0,0,0
85,2551.236671180226,2010-09-21 16:30:04,2431.2208789177603,2,1,0.5501165986061096,3.935779333114624,0.371500201562613,0.0,1.438881579006192,0.0,3.237724376958795e-05,0.0,0,0,0
86,2581.251898545457,2010-09-21 16:30:34,2461.236106282991,2,1,0.5499359965324402,3.937074422836304,0.376086657005908,0.0,1.45693607490879,0.0,3.237724376958795e-05,0.0,0,0,0
87,2611.2671709982333,2010-09-21 16:31:04,2491.251378815968,2,1,0.5501165986061096,3.938531398773194,0.380673148853896,0.0,1.474997212295978,0.0,0.0,0.0,0,0,0
88,2641.2824303984285,2010-09-21 16:31:34,2521.2666381259373,2,1,0.5501165986061096,3.940150260925293,0.38525960653316,0.0,1.493064599924996,0.0,6.47544875391759e-05,0.0,0,0,0
89,2671.297699427659,2010-09-21 16:32:04,2551.281907155168,2,1,0.5501165986061096,3.9414453506469727,0.38984605789596,0.0,1.511138506972002,0.0,6.47544875391759e-05,0.0,0,0,0
90,2701.312949464482,2010-09-21 16:32:34,2581.297157202016,2,1,0.5501165986061096,3.9429023265838623,0.394432523486513,0.0,1.529218936337283,0.0,6.47544875391759e-05,0.0,0,0,0
91,2731.3282420074065,2010-09-21 16:33:04,2611.3124497449403,2,1,0.5499359965324402,3.944197416305542,0.399019012603451,0.0,1.547306135240451,0.0,0.0,0.0,0,0,0
92,2761.343481041765,2010-09-21 16:33:34,2641.327688769274,2,1,0.5501165986061096,3.9458162784576416,0.403605539675492,0.0,1.565400165449995,0.0,6.47544875391759e-05,0.0,0,0,0
93,2791.358744782796,2010-09-21 16:34:04,2671.342952515317,2,1,0.5499359965324402,3.947111368179321,0.408192035598715,0.0,1.583500707270537,0.0,3.237724376958795e-05,0.0,0,0,0
94,2821.374020709243,2010-09-21 16:34:34,2701.358228441764,2,1,0.5501165986061096,3.948730230331421,0.412778502195341,0.0,1.601607927446743,0.0,9.713172767078504e-05,0.0,0,0,0
95,2851.389296490327,2010-09-21 16:35:04,2731.3735042228486,2,1,0.5501165986061096,3.950349092483521,0.417364916996664,0.0,1.619721746651961,0.0,6.47544875391759e-05,0.0,0,0,0
96,2881.4045525271263,2010-09-21 16:35:34,2761.388760279698,2,1,0.5499359965324402,3.9516441822052,0.421951373862471,0.0,1.637842684909555,0.0,3.237724376958795e-05,0.0,0,0,0
97,2911.4199311298694,2010-09-21 16:36:04,2791.404138882441,2,1,0.5499359965324402,3.9532630443573,0.426537858947788,0.0,1.65597060151616,0.0,6.47544875391759e-05,0.0,0,0,0
98,2941.4350886357206,2010-09-21 16:36:35,2821.4192963882924,2,1,0.5501165986061096,3.9548819065094,0.431124353687541,0.0,1.674105602442485,0.0,6.47544875391759e-05,0.0,0,0,0
99,2971.450549844661,2010-09-21 16:37:05,2851.434757582196,2,1,0.5501165986061096,3.956338882446289,0.435710873997624,0.0,1.692247842556117,0.0,6.47544875391759e-05,0.0,0,0,0
100,3001.465615035079,2010-09-21 16:37:35,2881.449822772613,2,1,0.5501165986061096,3.9577958583831783,0.440297438198909,0.0,1.710397307782055,0.0,3.237724376958795e-05,0.0,0,0,0
101,3031.4808895078977,2010-09-21 16:38:05,2911.4650972404197,2,1,0.5499359965324402,3.9594147205352783,0.444883904652125,0.0,1.728553632123548,0.0,0.0,0.0,0,0,0
102,3061.496127324216,2010-09-21 16:38:35,2941.480335051725,2,1,0.550297200679779,3.961195468902588,0.449470324246807,0.0,1.746717026854291,0.0,6.47544875391759e-05,0.0,0,0,0
103,3091.511403952415,2010-09-21 16:39:05,2971.495611679924,2,1,0.5499359965324402,3.9626524448394775,0.454056776257735,0.0,1.76488793854971,0.0,6.47544875391759e-05,0.0,0,0,0
104,3121.5267841040245,2010-09-21 16:39:35,3001.5109918666208,2,1,0.550297200679779,3.964433193206787,0.458643309013397,0.0,1.783066583407996,0.0,6.47544875391759e-05,0.0,0,0,0
105,3151.542079253455,2010-09-21 16:40:05,3031.5262869859766,2,1,0.5501165986061096,3.9658901691436768,0.4632298704585,0.0,1.801252840305308,0.0,3.237724376958795e-05,0.0,0,0,0
106,3181.5571829449773,2010-09-21 16:40:35,3061.5413906724866,2,1,0.5501165986061096,3.967509031295776,0.467816347210905,0.0,1.819446354804032,0.0,3.237724376958795e-05,0.0,0,0,0
107,3211.5724733575844,2010-09-21 16:41:05,3091.556681090106,2,1,0.5501165986061096,3.969289779663086,0.472402880052219,0.0,1.837647713706236,0.0,3.237724376958795e-05,0.0,0,0,0
108,3241.574593740771,2010-09-21 16:41:35,3121.558801503368,2,1,0.5499359965324402,3.9709086418151855,0.476987398704998,0.0,1.855848833960582,0.0,3.237724376958795e-05,0.0,0,0,0
109,3271.5873468599034,2010-09-21 16:42:05,3151.571554697688,2,1,0.5499359965324402,3.972689390182495,0.48157354122956,0.0,1.87406418596156,0.0,3.237724376958795e-05,0.0,0,0,0
110,3301.6026283753017,2010-09-21 16:42:35,3181.5868361128355,2,1,0.550297200679779,3.9744701385498047,0.486160062384364,0.0,1.892288844266019,0.0,3.237724376958795e-05,0.0,0,0,0
111,3331.6180429478304,2010-09-21 16:43:05,3211.6022506903773,2,1,0.5501165986061096,3.976250886917114,0.490746562332057,0.0,1.910521476309978,0.0,6.47544875391759e-05,0.0,0,0,0
112,3361.6334189340423,2010-09-21 16:43:35,3241.6176266966386,2,1,0.5501165986061096,3.977707862854004,0.495333134100539,0.0,1.928762451422643,0.0,0.0,0.0,0,0,0
113,3391.6484452273667,2010-09-21 16:44:05,3271.632652959888,2,1,0.5501165986061096,3.979812383651733,0.499919508093544,0.0,1.947010386951958,0.0,3.237724376958795e-05,0.0,0,0,0
114,3421.6637157453138,2010-09-21 16:44:35,3301.647923477835,2,1,0.5499359965324402,3.981431245803833,0.504505934875506,0.0,1.965267213487668,0.0,3.237724376958795e-05,0.0,0,0,0
115,3451.6789686693432,2010-09-21 16:45:05,3331.663176401865,2,1,0.5499359965324402,3.983211994171143,0.509092361344373,0.0,1.983532404102316,0.0,0.0,0.0,0,0,0
116,3481.6942573125334,2010-09-21 16:45:35,3361.678465050067,2,1,0.5499359965324402,3.985316514968872,0.51367876873944,0.0,2.00180598839171,0.0,6.47544875391759e-05,0.0,0,0,0
117,3511.7095286374943,2010-09-21 16:46:05,3391.693736370016,2,1,0.5501165986061096,3.986935377120972,0.518265195723579,0.0,2.020088222062861,0.0,0.0,0.0,0,0,0
118,3541.7247698573083,2010-09-21 16:46:35,3421.7089775898294,2,1,0.5497553944587708,3.988878011703491,0.522851625684164,0.0,2.038379119748391,0.0,3.237724376958795e-05,0.0,0,0,0
119,3571.7401736078245,2010-09-21 16:47:05,3451.7243813453583,2,1,0.5501165986061096,3.9909825325012207,0.527438001252104,0.0,2.056678575538493,0.0,6.47544875391759e-05,0.0,0,0,0
120,3601.7553294244585,2010-09-21 16:47:35,3481.7395371569805,2,1,0.5501165986061096,3.99292516708374,0.532024367400591,0.0,2.074986923752603,0.0,3.237724376958795e-05,0.0,0,0,0
121,3631.7705611004494,2010-09-21 16:48:05,3511.754768837984,2,1,0.5501165986061096,3.994705677032471,0.536610700080724,0.0,2.093304072415823,0.0,0.0,0.0,0,0,0
122,3661.7859301794206,2010-09-21 16:48:35,3541.770137937004,2,1,0.550297200679779,3.99697208404541,0.541197629735018,0.0,2.111632771957724,0.0,6.47544875391759e-05,0.0,0,0,0
123,3691.80104833204,2010-09-21 16:49:05,3571.785256064561,2,1,0.550297200679779,3.9989147186279297,0.545784825835905,0.0,2.129971710816635,0.0,9.713172767078504e-05,0.0,0,0,0
124,3721.816488909481,2010-09-21 16:49:35,3601.8006966420025,2,1,0.550297200679779,4.001019477844238,0.550371891262051,0.0,2.148319459149171,0.0,9.71794142969884e-05,0.0,0,0,0
125,3751.831616209935,2010-09-21 16:50:05,3631.815823942457,2,1,0.550297200679779,4.003123760223389,0.554959049124574,0.0,2.166677029680506,0.0,9.70840483205393e-05,0.0,0,0,0
126,3781.846870186592,2010-09-21 16:50:35,3661.831077919114,2,1,0.5501165986061096,4.005066394805908,0.559546187675876,0.0,2.185044044145641,0.0,6.47544875391759e-05,0.0,0,0,0
127,3811.86214010805,2010-09-21 16:51:05,3691.8463478706462,2,1,0.5501165986061096,4.007171154022217,0.564133356404756,0.0,2.203420861745554,0.0,6.47544875391759e-05,0.0,0,0,0
128,3841.877414570843,2010-09-21 16:51:35,3721.8616223133895,2,1,0.5501165986061096,4.009275436401367,0.56872022039144,0.0,2.221806189050377,0.0,6.47544875391759e-05,0.0,0,0,0
129,3871.892673555,2010-09-21 16:52:05,3751.876881292535,2,1,0.5501165986061096,4.011380195617676,0.573306664874449,0.0,2.240199634311074,0.0,3.24249267578125e-05,0.0,0,0,0
130,3901.9080947189823,2010-09-21 16:52:35,3781.892302481579,2,1,0.5499359965324402,4.013646602630615,0.57789314948873,0.0,2.258603065294976,0.0,6.47544875391759e-05,0.0,0,0,0
131,3931.923085092646,2010-09-21 16:53:05,3811.907292835193,2,1,0.5499359965324402,4.015750885009766,0.582478820990886,0.0,2.277012884579349,0.0,3.23295607813634e-05,0.0,0,0,0
132,3961.938556692524,2010-09-21 16:53:35,3841.922764425045,2,1,0.5499359965324402,4.017855644226074,0.58706433747357,0.0,2.295431939491422,0.0,6.47544875391759e-05,0.0,0,0,0
133,3991.953630930525,2010-09-21 16:54:05,3871.937838673072,2,1,0.5499359965324402,4.020122051239014,0.591650037999081,0.0,2.313861733974854,0.0,6.47544875391759e-05,0.0,0,0,0
134,4021.968996240086,2010-09-21 16:54:35,3901.953203967596,2,1,0.5499359965324402,4.022388458251953,0.596235596235991,0.0,2.332301264179567,0.0,9.71794142969884e-05,0.0,0,0,0
135,4051.9846556688153,2010-09-21 16:55:05,3931.968863431411,2,1,0.5499359965324402,4.024492740631104,0.600821260924089,0.0,2.350751528508036,0.0,3.23295607813634e-05,0.0,0,0,0
136,4081.999540895014,2010-09-21 16:55:35,3961.9837486425727,2,1,0.5501165986061096,4.026921272277832,0.605406782752976,0.0,2.36921158998366,0.0,3.24249267578125e-05,0.0,0,0,0
137,4112.014796024549,2010-09-21 16:56:05,3991.999003777121,2,1,0.5499359965324402,4.029187679290772,0.609992962775256,0.0,2.387684901432754,0.0,3.24249267578125e-05,0.0,0,0,0
138,4142.030105780439,2010-09-21 16:56:35,4022.0143136282486,2,1,0.5501165986061096,4.031454086303711,0.614579485567049,0.0,2.406170041888931,0.0,9.71794142969884e-05,0.0,0,0,0
139,4172.045326273516,2010-09-21 16:57:05,4052.029534101276,2,1,0.5501165986061096,4.033882141113281,0.619165984576263,0.0,2.424665679685337,0.0,0.0001295089750783,0.0,0,0,0
140,4202.060608290166,2010-09-21 16:57:35,4082.044816022687,2,1,0.5501165986061096,4.035986423492432,0.623752502693812,0.0,2.4431720509954,0.0,3.23295607813634e-05,0.0,0,0,0
141,4232.07585418164,2010-09-21 16:58:05,4112.060061914162,2,1,0.5501165986061096,4.03841495513916,0.628338961383098,0.0,2.461688893260782,0.0,6.47544875391759e-05,0.0,0,0,0
142,4262.091117085583,2010-09-21 16:58:35,4142.075324828129,2,1,0.5501165986061096,4.0406813621521,0.632925524839318,0.0,2.480216956134386,0.0,3.24249267578125e-05,0.0,0,0,0
143,4292.106624068782,2010-09-21 16:59:05,4172.090831811329,2,1,0.5501165986061096,4.04310941696167,0.637512069503443,0.0,2.498755875636941,0.0,3.23295607813634e-05,0.0,0,0,0
144,4322.121863574318,2010-09-21 16:59:35,4202.106071306838,2,1,0.5499359965324402,4.045699596405029,0.642098668739693,0.0,2.51730615272171,0.0,6.47544875391759e-05,0.0,0,0,0
145,4352.136952183191,2010-09-21 17:00:05,4232.1211599107,2,1,0.550297200679779,4.048128128051758,0.646685093014814,0.0,2.535866845670198,0.0,6.47544875391759e-05,0.0,0,0,0
146,4382.152185398024,2010-09-21 17:00:35,4262.136393130546,2,1,0.5497553944587708,4.050556182861328,0.651271664517121,0.0,2.554439503392157,0.0,6.47544875391759e-05,0.0,0,0,0
147,4412.167450036294,2010-09-21 17:01:05,4292.151657763802,2,1,0.550297200679779,4.053146362304688,0.655858205313799,0.0,2.573023447574385,0.0,6.47544875391759e-05,0.0,0,0,0
148,4442.182852879545,2010-09-21 17:01:35,4322.167060612067,2,1,0.550297200679779,4.055574893951416,0.66044472525657,0.0,2.591618823614922,0.0,6.47544875391759e-05,0.0,0,0,0
149,4472.198108495293,2010-09-21 17:02:05,4352.182316232827,2,1,0.5501165986061096,4.058165073394775,0.665031262916602,0.0,2.61022593863396,0.0,6.47544875391759e-05,0.0,0,0,0
150,4502.213256552559,2010-09-21 17:02:35,4382.197464285081,2,1,0.5501165986061096,4.060593128204346,0.66961783165604,0.0,2.62884494452878,0.0,0.0,0.0,0,0,0
151,4532.228537717082,2010-09-21 17:03:05,4412.21274544459,2,1,0.5501165986061096,4.063183307647705,0.674204385346188,0.0,2.647475304610245,0.0,6.47544875391759e-05,0.0,0,0,0
152,4562.243808410466,2010-09-21 17:03:35,4442.228016137975,2,1,0.5501165986061096,4.0659356117248535,0.678790886094511,0.0,2.666117576119102,0.0,6.47544875391759e-05,0.0,0,0,0
153,4592.2590606979065,2010-09-21 17:04:05,4472.243268440453,2,1,0.5499359965324402,4.068525791168213,0.683377425397015,0.0,2.684772151782488,0.0,3.24249267578125e-05,0.0,0,0,0
154,4622.274329235911,2010-09-21 17:04:35,4502.258536968432,2,1,0.5501165986061096,4.071115970611572,0.687963970552501,0.0,2.703439070892639,0.0,3.24249267578125e-05,0.0,0,0,0
155,4652.289576205077,2010-09-21 17:05:05,4532.2737839325855,2,1,0.5501165986061096,4.074029922485352,0.69255042386508,0.0,2.722117943280212,0.0,6.47544875391759e-05,0.0,0,0,0
156,4682.3048556051945,2010-09-21 17:05:35,4562.289063432954,2,1,0.5501165986061096,4.076943874359131,0.697136951043745,0.0,2.740809635019791,0.0,0.0001295089750783,0.0,0,0,0
157,4712.320144769687,2010-09-21 17:06:05,4592.3043524971945,2,1,0.550297200679779,4.079695701599121,0.701723564247967,0.0,2.759514364419128,0.0,9.70840483205393e-05,0.0,0,0,0
158,4742.335366801603,2010-09-21 17:06:35,4622.319574544151,2,1,0.5501165986061096,4.0822858810424805,0.706310049370662,0.0,2.778231218182341,0.0,6.47544875391759e-05,0.0,0,0,0
159,4772.350783920489,2010-09-21 17:07:05,4652.334991663036,2,1,0.5501165986061096,4.085038185119629,0.710896540013503,0.0,2.796960980365765,0.0,6.47544875391759e-05,0.0,0,0,0
160,4802.365922052982,2010-09-21 17:07:35,4682.350129790516,2,1,0.5501165986061096,4.087952136993408,0.715483015177073,0.0,2.815703594268781,0.0,9.71794142969884e-05,0.0,0,0,0
161,4832.381179317847,2010-09-21 17:08:05,4712.365387050368,2,1,0.550297200679779,4.090866088867188,0.720069597768161,0.0,2.834459716408248,0.0,9.71794142969884e-05,0.0,0,0,0
162,4862.396442657876,2010-09-21 17:08:35,4742.380650485636,2,1,0.5501165986061096,4.093617916107178,0.724656181824213,0.0,2.853228938835669,0.0,3.23295607813634e-05,0.0,0,0,0
163,4892.411679065678,2010-09-21 17:09:06,4772.3958867982,2,1,0.5501165986061096,4.096531867980957,0.729242700174968,0.0,2.872011166479741,0.0,6.47544875391759e-05,0.0,0,0,0
164,4922.427116154412,2010-09-21 17:09:36,4802.411323987183,2,1,0.5501165986061096,4.099607944488525,0.733829266856186,0.0,2.890806893872722,0.0,9.71794142969884e-05,0.0,0,0,0
165,4952.44209943537,2010-09-21 17:10:06,4832.426307167892,2,1,0.5501165986061096,4.102359771728516,0.738415795027369,0.0,2.909616019900191,0.0,6.47544875391759e-05,0.0,0,0,0
166,4982.457543506533,2010-09-21 17:10:36,4862.4417512340415,2,1,0.5501165986061096,4.105435848236084,0.743002405251745,0.0,2.928439247523513,0.0,6.47544875391759e-05,0.0,0,0,0
167,5012.472794074682,2010-09-21 17:11:06,4892.457001807204,2,1,0.5501165986061096,4.108511447906494,0.747588913679959,0.0,2.947275901173457,0.0,6.47544875391759e-05,0.0,0,0,0
168,5042.488065720444,2010-09-21 17:11:36,4922.472273447953,2,1,0.5501165986061096,4.111587524414063,0.752175456402813,0.0,2.96612664669536,0.0,9.71794142969884e-05,0.0,0,0,0
169,5072.503322108119,2010-09-21 17:12:06,4952.487529850666,2,1,0.5499359965324402,4.114501476287842,0.756762012549521,0.0,2.984991380965278,0.0,3.24249267578125e-05,0.0,0,0,0
170,5102.518717813553,2010-09-21 17:12:36,4982.502925551087,2,1,0.5499359965324402,4.117577075958252,0.761348588636045,0.0,3.003870335507609,0.0,6.47544875391759e-05,0.0,0,0,0
171,5132.533836126572,2010-09-21 17:13:06,5012.518043864106,2,1,0.5501165986061096,4.120814800262451,0.765935174481247,0.0,3.022763669138769,0.0,6.47544875391759e-05,0.0,0,0,0
172,5162.551671707311,2010-09-21 17:13:36,5042.535879525045,2,1,0.550297200679779,4.12405252456665,0.770522121372429,0.0,3.041672990890832,0.0,9.71794142969884e-05,0.0,0,0,0
173,5192.564675141268,2010-09-21 17:14:06,5072.548882903864,2,1,0.5499359965324402,4.1271281242370605,0.775108351930391,0.0,3.060593907251221,0.0,0.0001295089750783,0.0,0,0,0
174,5222.579689414588,2010-09-21 17:14:36,5102.563897172172,2,1,0.5501165986061096,4.13036584854126,0.779694892023227,0.0,3.079530728228846,0.0,6.47544875391759e-05,0.0,0,0,0
175,5252.595091546063,2010-09-21 17:15:06,5132.579299278585,2,1,0.5501165986061096,4.133603572845459,0.784281455321516,0.0,3.098482512701991,0.0,9.70840483205393e-05,0.0,0,0,0
176,5282.610419547496,2010-09-21 17:15:36,5162.594627280018,2,1,0.5501165986061096,4.136841297149658,0.788868029468367,0.0,3.117449298667202,0.0,6.47544875391759e-05,0.0,0,0,0
177,5312.625498056158,2010-09-21 17:16:06,5192.609705883919,2,1,0.550297200679779,4.140241146087647,0.793454538391429,0.0,3.136430895392845,0.0,6.47544875391759e-05,0.0,0,0,0
178,5342.640873315556,2010-09-21 17:16:36,5222.625081048078,2,1,0.550297200679779,4.143478870391846,0.798041216799877,0.0,3.155428520903608,0.0,6.47544875391759e-05,0.0,0,0,0
179,5372.656006230024,2010-09-21 17:17:06,5252.640213987607,2,1,0.5499359965324402,4.146878242492676,0.802627718017497,0.0,3.174440933945343,0.0,6.47544875391759e-05,0.0,0,0,0
180,5402.67145302298,2010-09-21 17:17:36,5282.6556607605135,2,1,0.5501165986061096,4.150278091430664,0.807214312279815,0.0,3.193469324348738,0.0,6.47544875391759e-05,0.0,0,0,0
181,5432.68667090955,2010-09-21 17:18:06,5312.670878652097,2,1,0.5501165986061096,4.153677463531494,0.811800844165516,0.0,3.212513106181198,0.0,3.23295607813634e-05,0.0,0,0,0
182,5462.701807513226,2010-09-21 17:18:36,5342.686015245748,2,1,0.550297200679779,4.157401084899902,0.816387335960675,0.0,3.231572385645356,0.0,9.71794142969884e-05,0.0,0,0,0
183,5492.717078176535,2010-09-21 17:19:06,5372.701285909057,2,1,0.5501165986061096,4.160800457000732,0.820973812924229,0.0,3.250647572497575,0.0,0.0001295089750783,0.0,0,0,0
184,5522.732450428426,2010-09-21 17:19:36,5402.716658160948,2,1,0.5499359965324402,4.164200305938721,0.825560379508835,0.0,3.269739242928741,0.0,6.47544875391759e-05,0.0,0,0,0
185,5552.747660274928,2010-09-21 17:20:06,5432.7318680074495,2,1,0.5501165986061096,4.167923450469971,0.830146855962919,0.0,3.288846630655499,0.0,9.70840483205393e-05,0.0,0,0,0
186,5582.762902036093,2010-09-21 17:20:36,5462.747109768615,2,1,0.5499359965324402,4.171323299407959,0.834733372607393,0.0,3.307970555606922,0.0,9.71794142969884e-05,0.0,0,0,0
187,5612.778161130525,2010-09-21 17:21:06,5492.76236886806,2,1,0.5501165986061096,4.174884796142578,0.839319912894691,0.0,3.327111033397885,0.0,9.71794142969884e-05,0.0,0,0,0
188,5642.793417833988,2010-09-21 17:21:36,5522.77762556651,2,1,0.550297200679779,4.178770065307617,0.843906372128872,0.0,3.346267792659182,0.0,0.0001295089750783,0.0,0,0,0
189,5672.808676276793,2010-09-21 17:22:06,5552.792884009316,2,1,0.5499359965324402,4.182169437408447,0.848492820987507,0.0,3.36544128479093,0.0,6.47544875391759e-05,0.0,0,0,0
190,5702.824085826786,2010-09-21 17:22:36,5582.808293559308,2,1,0.5499359965324402,4.185893058776856,0.853079402363603,0.0,3.384632217169118,0.0,6.47544875391759e-05,0.0,0,0,0
191,5732.839329833557,2010-09-21 17:23:06,5612.823537566079,2,1,0.5501165986061096,4.189778327941895,0.857665899412874,0.0,3.403839824717939,0.0,9.71794142969884e-05,0.0,0,0,0
192,5762.854483449699,2010-09-21 17:23:36,5642.838691212296,2,1,0.5501165986061096,4.1935014724731445,0.862252406673824,0.0,3.423064489565526,0.0,0.0001295089750783,0.0,0,0,0
193,5792.86975186239,2010-09-21 17:24:06,5672.853959594912,2,1,0.5501165986061096,4.1972246170043945,0.866838969220446,0.0,3.442306587469435,0.0,0.0001295089750783,0.0,0,0,0
194,5813.63513437682,2010-09-21 17:24:27,5693.61934220458,2,1,0.550297200679779,4.200138568878174,0.870012038684705,0.0,3.455628767404822,0.0,0.0001618385285837,0.0,0,0,0
195,5843.6509315966505,2010-09-21 17:24:57,30.01523128501529,3,1,0.0,4.116605758666992,0.870012038684705,0.0,3.455628767404822,0.0,-0.0004208564641885,0.0,0,0,0
196,5873.666693080124,2010-09-21 17:25:27,60.03099277851252,3,1,0.0,4.106245040893555,0.870012038684705,0.0,3.455628767404822,0.0,-0.0001619339018361,0.0,0,0,0
197,5903.681480617475,2010-09-21 17:25:57,90.04578030584035,3,1,0.0,4.100093364715576,0.870012038684705,0.0,3.455628767404822,0.0,-9.71794142969884e-05,0.0,0,0,0
198,5933.649856273633,2010-09-21 17:26:27,120.01415597202248,3,1,0.0,4.095722675323486,0.870012038684705,0.0,3.455628767404822,0.0,-9.70840483205393e-05,0.0,0,0,0
199,5933.650410822096,2010-09-21 17:26:27,2.666656385e-06,4,1,0.9985694289207458,4.199653148651123,0.870012039424383,0.0,3.455628770511213,0.0,0.0,0.0,0,0,0
200,5934.619153392589,2010-09-21 17:26:28,0.968745272237238,4,1,0.9485406875610352,4.199653148651123,0.870272606364766,0.0,3.456723072165163,0.0,0.0,0.0,0,0,0
201,5936.759870752461,2010-09-21 17:26:30,3.109462622083586,4,1,0.8985118865966797,4.199814796447754,0.870820764409671,0.0,3.459025194483679,0.0,3.23295607813634e-05,0.0,0,0,0
202,5939.962827745879,2010-09-21 17:26:33,6.312419615501772,4,1,0.8483025431632996,4.199653148651123,0.871596787125098,0.0,3.462284285373252,0.0,0.0,0.0,0,0,0
203,5944.246674285896,2010-09-21 17:26:38,10.596266255769208,4,1,0.7980931401252747,4.199814796447754,0.872575288063099,0.0,3.466393742568473,0.0,0.0,0.0,0,0,0
204,5949.853357113802,2010-09-21 17:26:43,16.20294898843652,4,1,0.7478837966918945,4.199653148651123,0.873777669891351,0.0,3.471443460030194,0.0,0.0,0.0,0,0,0
205,5957.025250462969,2010-09-21 17:26:50,23.37484233259174,4,1,0.6976743936538696,4.199653148651123,0.875215405870281,0.0,3.477481616872084,0.0,-3.23295607813634e-05,0.0,0,0,0
206,5966.493912490107,2010-09-21 17:27:00,32.843504364741214,4,1,0.6474649906158447,4.199653148651123,0.876981778826517,0.0,3.484899989107741,0.0,-6.47544875391759e-05,0.0,0,0,0
207,5979.603105226976,2010-09-21 17:27:13,45.95269710662384,4,1,0.597436249256134,4.199653148651123,0.879244118219847,0.0,3.494401289265791,0.0,-3.23295607813634e-05,0.0,0,0,0
208,5999.196630294934,2010-09-21 17:27:33,65.54622217458194,4,1,0.5474074482917786,4.199814796447754,0.882350029498631,0.0,3.507445411451433,0.0,3.23295607813634e-05,0.0,0,0,0
209,6031.5086124284135,2010-09-21 17:28:05,97.8582043230988,4,1,0.4971981048583984,4.199814796447754,0.887019026900215,0.0,3.527054135964995,0.0,0.0,0.0,0,0,0
210,6089.02356371528,2010-09-21 17:29:02,155.3731556099649,4,1,0.4471693336963653,4.199814796447754,0.89453116214375,0.0,3.558603420163266,0.0,0.0,0.0,0,0,0
211,6180.35072402274,2010-09-21 17:30:34,246.70031589236208,4,1,0.3971405625343323,4.199653148651123,0.905211813193593,0.0,3.603459783654503,0.0,0.0,0.0,0,0,0
212,6297.724161750761,2010-09-21 17:32:31,364.07375365045823,4,1,0.3471117913722992,4.199653148651123,0.917327083601575,0.0,3.65434123637297,0.0,-3.23295607813634e-05,0.0,0,0,0
213,6439.550598120391,2010-09-21 17:34:53,505.90019002008864,4,1,0.2969024181365967,4.199814796447754,0.929997033678763,0.0,3.707552227724929,0.0,0.0,0.0,0,0,0
214,6611.611016605763,2010-09-21 17:37:45,677.9606084954368,4,1,0.2468736320734024,4.199653148651123,0.942968712539399,0.0,3.762030511939473,0.0,-3.23295607813634e-05,0.0,0,0,0
215,6824.921064331818,2010-09-21 17:41:18,891.2706562114663,4,1,0.1966642588376999,4.199653148651123,0.956077984588023,0.0,3.81708662588245,0.0,0.0,0.0,0,0,0
216,7112.480021443609,2010-09-21 17:46:06,1178.829613313232,4,1,0.1466354876756668,4.199814796447754,0.969712985292895,0.0,3.874350696679028,0.0,0.0,0.0,0,0,0
217,7535.818494030183,2010-09-21 17:53:09,1602.1680859098287,4,1,0.0966067165136337,4.199814796447754,0.983829745143286,0.0,3.933638042538637,0.0,0.0,0.0,0,0,0
218,8264.106727645629,2010-09-21 18:05:18,2330.4563195252767,4,1,0.0498289167881011,4.199653148651123,0.998145668823623,0.0,3.993761904364893,0.0,-3.23295607813634e-05,0.0,0,0,0
219,8294.119776880334,2010-09-21 18:05:48,30.012753830908693,5,1,0.0,4.192044734954834,0.998145668823623,0.0,3.993761904364893,0.0,-3.23295607813634e-05,0.0,0,0,0
220,8324.119404009978,2010-09-21 18:06:18,60.01238097057655,5,1,0.0,4.190911293029785,0.998145668823623,0.0,3.993761904364893,0.0,3.23295607813634e-05,0.0,0,0,0
221,8324.307050630257,2010-09-21 18:06:18,0.187425798628114,6,1,-1.9243103452026844e-05,4.190587520599365,0.998145672523347,0.0,3.993761919868912,0.0,0.0,0.0931989923119545,0,0,0
222,8329.135149943928,2010-09-21 18:06:23,5.015525207537276,6,1,0.0007031940040178,4.190749645233154,0.998146676021594,1.66999e-10,3.993766125338277,6.99823e-10,-3.23295607813634e-05,0.0931989923119545,0,0,0
223,8359.150433763976,2010-09-21 18:06:53,30.01503837347841,7,1,-1.099568486213684,4.015265464782715,0.998146676021594,0.009167397263968,3.993766125338277,0.037009564262832,-0.0009388923645019,0.0931989923119545,0,0,0
224,8389.165707840808,2010-09-21 18:07:23,60.03031245030866,7,1,-1.099568486213684,3.987906694412232,0.998146676021594,0.018334868282669,3.993766125338277,0.073685046267971,-0.0005827903514727,0.0931989923119545,0,0,0
225,8419.180950248587,2010-09-21 18:07:53,90.04555485808807,7,1,-1.0993878841400146,3.969127893447876,0.998146676021594,0.027502201743687,3.993766125338277,0.110152987824743,-0.0004209041653666,0.0931989923119545,0,0,0
226,8449.196209819207,2010-09-21 18:08:23,120.06081442870858,7,1,-1.099568486213684,3.9547200202941895,0.998146676021594,0.036669523169265,3.993766125338277,0.14647082034275,-0.0003561496851034,0.0931989923119545,0,0,0
227,8479.21145720441,2010-09-21 18:08:53,150.07606181391242,7,1,-1.099568486213684,3.942740440368652,0.998146676021594,0.045836883516241,3.993766125338277,0.182668952249195,-0.0002913951757363,0.0931989923119545,0,0,0
228,8509.22672920105,2010-09-21 18:09:23,180.0913338105502,7,1,-1.0993878841400146,3.932379722595215,0.998146676021594,0.055004214624031,3.993766125338277,0.218764267499277,-0.0002266406954731,0.0931989923119545,0,0,0
229,8539.241972621356,2010-09-21 18:09:53,210.10657724088205,7,1,-1.0993878841400146,3.922342777252197,0.998146676021594,0.064171490707318,3.993766125338277,0.254766240586264,-0.0002590179501567,0.0931989923119545,0,0,0
230,8569.257235009007,2010-09-21 18:10:23,240.1218396285343,7,1,-1.0993878841400146,3.9131155014038086,0.998146676021594,0.073338846995092,3.993766125338277,0.290681665392099,-0.0002913475036621,0.0931989923119545,0,0,0
231,8599.272526258703,2010-09-21 18:10:53,270.13713087823066,7,1,-1.0993878841400146,3.904373645782471,0.998146676021594,0.08250616386687,3.993766125338277,0.326514632236116,-0.0001942634553415,0.0931989923119545,0,0,0
232,8629.28776271162,2010-09-21 18:11:23,300.1523673311458,7,1,-1.0993878841400146,3.8959555625915527,0.998146676021594,0.091673514806844,3.993766125338277,0.362268678802474,-0.0001942634553415,0.0931989923119545,0,0,0
233,8659.3030215855,2010-09-21 18:11:53,330.16762620502715,7,1,-1.0993878841400146,3.8876993656158447,0.998146676021594,0.100840802056952,3.993766125338277,0.397946075464186,-0.0002266406954731,0.0931989923119545,0,0,0
234,8689.31867860321,2010-09-21 18:12:23,360.1832832377743,7,1,-1.099568486213684,3.8796050548553462,0.998146676021594,0.110008250967123,3.993766125338277,0.433549041190016,-0.0001618862152099,0.0931989923119545,0,0,0
235,8719.333570721614,2010-09-21 18:12:53,390.1981753511649,7,1,-1.0993878841400146,3.8715107440948486,0.998146676021594,0.119175454176001,3.993766125338277,0.469077292806932,-0.0002266406954731,0.0931989923119545,0,0,0
236,8749.348962587463,2010-09-21 18:13:23,420.2135672922024,7,1,-1.099568486213684,3.8637402057647705,0.998146676021594,0.128342850966199,3.993766125338277,0.504533750246066,-0.0001942634553415,0.0931989923119545,0,0,0
237,8779.364075983207,2010-09-21 18:13:53,450.2286805927103,7,1,-1.099568486213684,3.8561315536499023,0.998146676021594,0.13751017785146,3.993766125338277,0.539918851515583,-0.0001942634553415,0.0931989923119545,0,0,0
238,8809.379381428338,2010-09-21 18:14:23,480.2439860428531,7,1,-1.0993878841400146,3.848522901535034,0.998146676021594,0.146677512609712,3.993766125338277,0.575234159677605,-0.0001942634553415,0.0931989923119545,0,0,0
239,8839.394744647681,2010-09-21 18:14:53,510.2593492571842,7,1,-1.099568486213684,3.841238021850586,0.998146676021594,0.155844937312299,3.993766125338277,0.610481132676466,-0.0001942634553415,0.0931989923119545,0,0,0
240,8869.409855492058,2010-09-21 18:15:23,540.2744601115862,7,1,-1.0993878841400146,3.833791255950928,0.998146676021594,0.165012273313001,3.993766125338277,0.645659951190727,-0.0001942634553415,0.0931989923119545,0,0,0
241,8899.425124375926,2010-09-21 18:15:53,570.2897289954541,7,1,-1.099568486213684,3.826668500900269,0.998146676021594,0.174179671815882,3.993766125338277,0.680772068824269,-0.0001618862152099,0.0931989923119545,0,0,0
242,8929.44061230657,2010-09-21 18:16:23,600.3052170163215,7,1,-1.0993878841400146,3.8195455074310303,0.998146676021594,0.18334711620525,3.993766125338277,0.715818801765015,-0.0001618862152099,0.0931989923119545,0,0,0
243,8959.456030979334,2010-09-21 18:16:53,630.3206357091354,7,1,-1.099568486213684,3.812260627746582,0.998146676021594,0.192514549541314,3.993766125338277,0.75080148462216,-0.0002590179501567,0.0931989923119545,0,0,0
244,8989.470913363439,2010-09-21 18:17:23,660.3355179729401,7,1,-1.0997490882873535,3.805461406707764,0.998146676021594,0.201681731983343,3.993766125338277,0.78571953155944,-0.0002590179501567,0.0931989923119545,0,0,0
245,9019.48618970091,2010-09-21 18:17:53,690.3507943204382,7,1,-1.0993878841400146,3.798985958099365,0.998146676021594,0.210849111694093,3.993766125338277,0.820576308044522,-0.0001942634553415,0.0931989923119545,0,0,0
246,9049.501459537156,2010-09-21 18:18:23,720.3660641466585,7,1,-1.0993878841400146,3.792510509490967,0.998146676021594,0.220016499469493,3.993766125338277,0.855372419222399,-0.0001295089750783,0.0931989923119545,0,0,0
247,9079.516832987036,2010-09-21 18:18:53,750.3814375965391,7,1,-1.0993878841400146,3.786035060882568,0.998146676021594,0.229183835381308,3.993766125338277,0.890108601812906,-0.0001618862152099,0.0931989923119545,0,0,0
248,9109.531963315048,2010-09-21 18:19:23,780.39656792455,7,1,-1.099568486213684,3.77955961227417,0.998146676021594,0.238351135985484,3.993766125338277,0.924785888216164,-0.0001618862152099,0.0931989923119545,0,0,0
249,9139.54722448466,2010-09-21 18:19:53,810.4118291041868,7,1,-1.0997490882873535,3.773246049880981,0.998146676021594,0.247518489319502,3.993766125338277,0.959405587533702,-0.0001618862152099,0.0931989923119545,0,0,0
250,9169.562480185625,2010-09-21 18:20:23,840.4270847951232,7,1,-1.099568486213684,3.767094373703003,0.998146676021594,0.256685791743904,3.993766125338277,0.993968415039411,-0.0001618862152099,0.0931989923119545,0,0,0
251,9199.577744823891,2010-09-21 18:20:53,870.4423494384058,7,1,-1.0993878841400146,3.761266469955444,0.998146676021594,0.265853192652153,3.993766125338277,1.028475987771696,-0.0001295089750783,0.0931989923119545,0,0,0
252,9229.593020244076,2010-09-21 18:21:23,900.4576248535768,7,1,-1.0993878841400146,3.7554385662078857,0.998146676021594,0.275020566959795,3.993766125338277,1.062929193062213,-0.0001295089750783,0.0931989923119545,0,0,0
253,9259.608259950111,2010-09-21 18:21:53,930.4728645596124,7,1,-1.0997490882873535,3.749610900878906,0.998146676021594,0.284187982322625,3.993766125338277,1.097329241559633,-0.0001295089750783,0.0931989923119545,0,0,0
254,9289.623526016949,2010-09-21 18:22:23,960.4881306264484,7,1,-1.0997490882873535,3.743782997131348,0.998146676021594,0.29335533751399,3.993766125338277,1.131676642808595,-0.0001618862152099,0.0931989923119545,0,0,0
255,9319.638810173938,2010-09-21 18:22:53,990.5034147884528,7,1,-1.099568486213684,3.738116979598999,0.998146676021594,0.30252265411177,3.993766125338277,1.165972220597345,-0.0001942634553415,0.0931989923119545,0,0,0
256,9349.654174531122,2010-09-21 18:23:23,1020.518779140624,7,1,-1.099568486213684,3.7327747344970703,0.998146676021594,0.31169006866142,3.993766125338277,1.200217513820643,-0.0001295089750783,0.0931989923119545,0,0,0
257,9379.669312317752,2010-09-21 18:23:53,1050.5339169322656,7,1,-1.099568486213684,3.7274324893951416,0.998146676021594,0.320857341537092,3.993766125338277,1.23441262032118,-0.0001295089750783,0.0931989923119545,0,0,0
258,9409.684572730474,2010-09-21 18:24:23,1080.549177344988,7,1,-1.0993878841400146,3.722252130508423,0.998146676021594,0.330024720865255,3.993766125338277,1.268559547935318,-0.0001295089750783,0.0931989923119545,0,0,0
259,9439.699865002724,2010-09-21 18:24:53,1110.5644696222496,7,1,-1.099568486213684,3.716909885406494,0.998146676021594,0.339192093431931,3.993766125338277,1.302658339998392,-0.0001295089750783,0.0931989923119545,0,0,0
260,9469.715103956882,2010-09-21 18:25:23,1140.5797085713957,7,1,-1.0993878841400146,3.7120532989501953,0.998146676021594,0.348359506249594,3.993766125338277,1.336710075156935,-0.0001295089750783,0.0931989923119545,0,0,0
261,9499.730433266584,2010-09-21 18:25:53,1170.5950379713208,7,1,-1.0993878841400146,3.7070348262786874,0.998146676021594,0.357526902637131,3.993766125338277,1.370715665657793,-9.713172767078504e-05,0.0931989923119545,0,0,0
262,9529.745622727196,2010-09-21 18:26:24,1200.6102273417107,7,1,-1.099568486213684,3.7020163536071777,0.998146676021594,0.366694221103019,3.993766125338277,1.404675450709062,-9.713172767078504e-05,0.0931989923119545,0,0,0
263,9559.760895846635,2010-09-21 18:26:54,1230.6255004661634,7,1,-1.099568486213684,3.697321653366089,0.998146676021594,0.375861620257094,3.993766125338277,1.438590282696733,-9.713172767078504e-05,0.0931989923119545,0,0,0
264,9589.776141261924,2010-09-21 18:27:24,1260.6407458764377,7,1,-1.099568486213684,3.69246506690979,0.998146676021594,0.385028979400256,3.993766125338277,1.472460867047728,-9.713172767078504e-05,0.0931989923119545,0,0,0
265,9619.79139986513,2010-09-21 18:27:54,1290.6560044796431,7,1,-1.099568486213684,3.687608480453491,0.998146676021594,0.394196401547854,3.993766125338277,1.50628835078249,-0.0001295089750783,0.0931989923119545,0,0,0
266,9649.806681024638,2010-09-21 18:28:24,1320.6712856341408,7,1,-1.0993878841400146,3.683075666427612,0.998146676021594,0.40336379058337,3.993766125338277,1.540073016347449,-9.713172767078504e-05,0.0931989923119545,0,0,0
267,9679.821929833395,2010-09-21 18:28:54,1350.6865344529228,7,1,-1.099568486213684,3.678380966186523,0.998146676021594,0.412531268122132,3.993766125338277,1.573815685738158,-0.0001295089750783,0.0931989923119545,0,0,0
268,9709.837184677215,2010-09-21 18:29:24,1380.7017892867195,7,1,-1.099568486213684,3.673848152160645,0.998146676021594,0.421698669662892,3.993766125338277,1.607516248760429,-0.0001295089750783,0.0931989923119545,0,0,0
269,9739.852458312947,2010-09-21 18:29:54,1410.717063022699,7,1,-1.0997490882873535,3.6693155765533447,0.998146676021594,0.430866155592547,3.993766125338277,1.641175866704655,-0.0001295089750783,0.0931989923119545,0,0,0
270,9769.867727903578,2010-09-21 18:30:24,1440.7323325130806,7,1,-1.099568486213684,3.664944648742676,0.998146676021594,0.44003363472589,3.993766125338277,1.674794751441465,-0.0001295089750783,0.0931989923119545,0,0,0
271,9799.885516527103,2010-09-21 18:30:54,1470.7501212368566,7,1,-1.0997490882873535,3.660735607147217,0.998146676021594,0.449201790145324,3.993766125338277,1.708376505161075,-9.713172767078504e-05,0.0931989923119545,0,0,0
272,9829.898299911783,2010-09-21 18:31:24,1500.7629047117612,7,1,-1.0993878841400146,3.656526565551758,0.998146676021594,0.458368435311918,3.993766125338277,1.7419134595715,-6.47544875391759e-05,0.0931989923119545,0,0,0
273,9859.913549221794,2010-09-21 18:31:54,1530.7781538413192,7,1,-1.099568486213684,3.652317523956299,0.998146676021594,0.467535832392441,3.993766125338277,1.775414570676467,-9.713172767078504e-05,0.0931989923119545,0,0,0
274,9889.928888401128,2010-09-21 18:32:24,1560.7934930106303,7,1,-1.099568486213684,3.64810848236084,0.998146676021594,0.47670324205357,3.993766125338277,1.808877492310036,-0.0001295089750783,0.0931989923119545,0,0,0
275,9919.944159264938,2010-09-21 18:32:54,1590.8087639045154,7,1,-1.099568486213684,3.643899440765381,0.998146676021594,0.485870550727796,3.993766125338277,1.842302203216251,-0.0001618862152099,0.0931989923119545,0,0,0
276,9949.95931507656,2010-09-21 18:33:24,1620.8239196910752,7,1,-1.0993878841400146,3.6403379440307617,0.998146676021594,0.495037245414971,3.993766125338277,1.875688253888516,-6.47544875391759e-05,0.0931989923119545,0,0,0
277,9979.974544501934,2010-09-21 18:33:54,1650.8391491114355,7,1,-1.099568486213684,3.636128902435303,0.998146676021594,0.504203962720464,3.993766125338277,1.909038454443798,-0.0001295089750783,0.0931989923119545,0,0,0
278,10009.9898072154,2010-09-21 18:34:24,1680.8544118249013,7,1,-1.0993878841400146,3.6324055194854736,0.998146676021594,0.513370631792332,3.993766125338277,1.942353354084427,-0.0001295089750783,0.0931989923119545,0,0,0
279,10040.00517683572,2010-09-21 18:34:54,1710.8697814502352,7,1,-1.099568486213684,3.628682136535645,0.998146676021594,0.522537413867486,3.993766125338277,1.975634045795739,-0.0001295089750783,0.0931989923119545,0,0,0
280,10070.020488671804,2010-09-21 18:35:24,1740.8850932863186,7,1,-1.099568486213684,3.6251206398010254,0.998146676021594,0.531704735879351,3.993766125338277,2.008882908037643,-6.47544875391759e-05,0.0931989923119545,0,0,0
281,10100.035601952262,2010-09-21 18:35:54,1770.9002065918387,7,1,-1.0997490882873535,3.621397256851196,0.998146676021594,0.540872109210875,3.993766125338277,2.042099217929104,-9.713172767078504e-05,0.0931989923119545,0,0,0
282,10130.050857783548,2010-09-21 18:36:24,1800.9154624131004,7,1,-1.099568486213684,3.618159532546997,0.998146676021594,0.550039507059569,3.993766125338277,2.075283479906162,-9.713172767078504e-05,0.0931989923119545,0,0,0
283,10160.066137800206,2010-09-21 18:36:54,1830.9307424197325,7,1,-1.0992072820663452,3.614921808242798,0.998146676021594,0.55920690301049,3.993766125338277,2.108436351530019,-3.237724376958795e-05,0.0931989923119545,0,0,0
284,10190.081380072648,2010-09-21 18:37:24,1860.9459846971863,7,1,-1.099568486213684,3.6113603115081783,0.998146676021594,0.568374301935543,3.993766125338277,2.141558702450309,-9.713172767078504e-05,0.0931989923119545,0,0,0
285,10220.096661232155,2010-09-21 18:37:54,1890.9612658416584,7,1,-1.099568486213684,3.60812258720398,0.998146676021594,0.577541786791143,3.993766125338277,2.174651036402227,-9.713172767078504e-05,0.0931989923119545,0,0,0
286,10250.112141894657,2010-09-21 18:38:24,1920.9767465041584,7,1,-1.0993878841400146,3.6047229766845694,0.998146676021594,0.586709243622185,3.993766125338277,2.207713362492687,-0.0001295089750783,0.0931989923119545,0,0,0
287,10280.127200914672,2010-09-21 18:38:54,1950.991805524174,7,1,-1.0993878841400146,3.601809024810791,0.998146676021594,0.59587658919295,3.993766125338277,2.24074564568757,-3.237724376958795e-05,0.0931989923119545,0,0,0
288,10310.14243415958,2010-09-21 18:39:24,1981.007038764069,7,1,-1.099568486213684,3.598571300506592,0.998146676021594,0.605044344942726,3.993766125338277,2.273750640625414,-6.47544875391759e-05,0.0931989923119545,0,0,0
289,10340.157812752295,2010-09-21 18:39:54,2011.022417366812,7,1,-1.0997490882873535,3.5953335762023926,0.998146676021594,0.614212677321711,3.993766125338277,2.306728889696034,-9.713172767078504e-05,0.0931989923119545,0,0,0
290,10370.172945070275,2010-09-21 18:40:24,2041.0375496898023,7,1,-1.0997490882873535,3.5924196243286133,0.998146676021594,0.623380910566769,3.993766125338277,2.339678698291558,-9.713172767078504e-05,0.0931989923119545,0,0,0
291,10400.188222114512,2010-09-21 18:40:54,2071.0528267240147,7,1,-1.0997490882873535,3.589344024658203,0.998146676021594,0.632549188139771,3.993766125338277,2.372600616832853,-9.713172767078504e-05,0.0931989923119545,0,0,0
292,10430.203487223958,2010-09-21 18:41:24,2101.0680918384737,7,1,-1.099568486213684,3.586268186569214,0.998146676021594,0.641717131039901,3.993766125338277,2.405493453781204,-9.713172767078504e-05,0.0931989923119545,0,0,0
293,10460.218736273317,2010-09-21 18:41:54,2131.083340887832,7,1,-1.0993878841400146,3.5833542346954346,0.998146676021594,0.650884555486324,3.993766125338277,2.438356751451483,-9.713172767078504e-05,0.0931989923119545,0,0,0
294,10490.234139703032,2010-09-21 18:42:24,2161.098744332584,7,1,-1.099568486213684,3.5802783966064453,0.998146676021594,0.660052028970671,3.993766125338277,2.471192408933953,-9.713172767078504e-05,0.0931989923119545,0,0,0
295,10520.249276356832,2010-09-21 18:42:54,2191.1138809913978,7,1,-1.0993878841400146,3.577364444732666,0.998146676021594,0.669219392572191,3.993766125338277,2.503999949573524,-6.47544875391759e-05,0.0931989923119545,0,0,0
296,10550.264536117927,2010-09-21 18:43:24,2221.129140752494,7,1,-1.099568486213684,3.574126720428467,0.998146676021594,0.678386865029636,3.993766125338277,2.536780092617568,-9.713172767078504e-05,0.0931989923119545,0,0,0
297,10580.279784650998,2010-09-21 18:43:54,2251.1443892905754,7,1,-1.0997490882873535,3.571050882339477,0.998146676021594,0.687554349115069,3.993766125338277,2.569532471150565,-9.713172767078504e-05,0.0931989923119545,0,0,0
298,10610.295460325278,2010-09-21 18:44:24,2281.1600650500677,7,1,-1.099568486213684,3.5681369304656982,0.998146676021594,0.696722019531689,3.993766125338277,2.602257505295106,-6.47544875391759e-05,0.0931989923119545,0,0,0
299,10640.3103183987,2010-09-21 18:44:54,2311.1749230132136,7,1,-1.099568486213684,3.565061092376709,0.998146676021594,0.705889397256979,3.993766125338277,2.63495333958278,-6.47544875391759e-05,0.0931989923119545,0,0,0
300,10670.325569137274,2010-09-21 18:45:24,2341.190173746776,7,1,-1.0997490882873535,3.56198525428772,0.998146676021594,0.715056846138872,3.993766125338277,2.667621017712095,-6.47544875391759e-05,0.0931989923119545,0,0,0
301,10700.340778602824,2010-09-21 18:45:54,2371.205383222351,7,1,-1.099568486213684,3.5587475299835205,0.998146676021594,0.72422426670714,3.993766125338277,2.700260024992358,-9.713172767078504e-05,0.0931989923119545,0,0,0
302,10730.356069100644,2010-09-21 18:46:24,2401.220673710145,7,1,-1.0993878841400146,3.5555098056793213,0.998146676021594,0.733391425697504,3.993766125338277,2.732868462714071,-6.47544875391759e-05,0.0931989923119545,0,0,0
303,10760.37148994884,2010-09-21 18:46:54,2431.236094568365,7,1,-1.099568486213684,3.552110195159912,0.998146676021594,0.742558566330612,3.993766125338277,2.765447508465279,-0.0001295089750783,0.0931989923119545,0,0,0
304,10790.386710978257,2010-09-21 18:47:24,2461.251315682993,7,1,-1.099568486213684,3.548872470855713,0.998146676021594,0.751725720077509,3.993766125338277,2.797996363023568,-6.47544875391759e-05,0.0931989923119545,0,0,0
305,10820.401852103216,2010-09-21 18:47:54,2491.2664567127176,7,1,-1.099568486213684,3.545472860336304,0.998146676021594,0.760892859788588,3.993766125338277,2.830514043716037,-6.47544875391759e-05,0.0931989923119545,0,0,0
306,10850.417238811193,2010-09-21 18:48:24,2521.281843450768,7,1,-1.099568486213684,3.5420732498168945,0.998146676021594,0.770060269905559,3.993766125338277,2.863001330074206,-9.713172767078504e-05,0.0931989923119545,0,0,0
307,10880.432724812015,2010-09-21 18:48:54,2551.297329416505,7,1,-1.0993878841400146,3.5385117530822754,0.998146676021594,0.779227821709705,3.993766125338277,2.895456852443157,-9.713172767078504e-05,0.0931989923119545,0,0,0
308,10910.447669185856,2010-09-21 18:49:24,2581.3122737953586,7,1,-1.099568486213684,3.5346264839172363,0.998146676021594,0.788395219853611,3.993766125338277,2.927878592141834,-0.0001618862152099,0.0931989923119545,0,0,0
309,10940.463046395122,2010-09-21 18:49:54,2611.327651014648,7,1,-1.0997490882873535,3.5309031009674072,0.998146676021594,0.797562749511744,3.993766125338277,2.960266857445079,-0.0001295089750783,0.0931989923119545,0,0,0
310,10970.47828180042,2010-09-21 18:50:24,2641.3428864099237,7,1,-1.0993878841400146,3.527179718017578,0.998146676021594,0.806730266517524,3.993766125338277,2.992620114462059,-9.713172767078504e-05,0.0931989923119545,0,0,0
311,11000.493439185972,2010-09-21 18:50:54,2671.358043795474,7,1,-1.099568486213684,3.522970676422119,0.998146676021594,0.815897766335837,3.993766125338277,3.024936473656785,-0.0001295089750783,0.0931989923119545,0,0,0
312,11030.508679523584,2010-09-21 18:51:24,2701.3732841581486,7,1,-1.099568486213684,3.51876163482666,0.998146676021594,0.82506517633264,3.993766125338277,3.057214100524895,-0.0001618862152099,0.0931989923119545,0,0,0
313,11060.523942071635,2010-09-21 18:51:54,2731.388546681139,7,1,-1.0993878841400146,3.514228820800781,0.998146676021594,0.834232613832128,3.993766125338277,3.089451519320537,-0.0001295089750783,0.0931989923119545,0,0,0
314,11090.539325972606,2010-09-21 18:52:24,2761.4039305871192,7,1,-1.0993878841400146,3.509210586547852,0.998146676021594,0.843400120957971,3.993766125338277,3.1216461509308,-0.0001618862152099,0.0931989923119545,0,0,0
315,11120.55448211004,2010-09-21 18:52:54,2791.4190867295674,7,1,-1.099568486213684,3.504030227661133,0.998146676021594,0.852567600404609,3.993766125338277,3.153794465980171,-0.0001942634553415,0.0931989923119545,0,0,0
316,11150.569729254645,2010-09-21 18:53:24,2821.4343338741705,7,1,-1.0997490882873535,3.498526096343994,0.998146676021594,0.861735070080165,3.993766125338277,3.185893040676048,-0.0001618862152099,0.0931989923119545,0,0,0
317,11180.584988298951,2010-09-21 18:53:54,2851.4495929084524,7,1,-1.0993878841400146,3.492374420166016,0.998146676021594,0.870902543638369,3.993766125338277,3.217937908342454,-0.0001618862152099,0.0931989923119545,0,0,0
318,11210.600265483536,2010-09-21 18:54:24,2881.4648700980524,7,1,-1.099568486213684,3.4855751991271973,0.998146676021594,0.880070001726375,3.993766125338277,3.249923818136828,-0.0001618862152099,0.0931989923119545,0,0,0
319,11240.615543525266,2010-09-21 18:54:54,2911.480148134767,7,1,-1.099568486213684,3.477966547012329,0.998146676021594,0.889237507198999,3.993766125338277,3.28184457200615,-0.0002266406954731,0.0931989923119545,0,0,0
320,11270.630772449387,2010-09-21 18:55:24,2941.495377058889,7,1,-1.099568486213684,3.469710350036621,0.998146676021594,0.898404936847749,3.993766125338277,3.313692361514224,-0.0002266406954731,0.0931989923119545,0,0,0
321,11300.646027468649,2010-09-21 18:55:54,2971.5106320731365,7,1,-1.0997490882873535,3.460320949554444,0.998146676021594,0.907572368954732,3.993766125338277,3.345459182751858,-0.0002590179501567,0.0931989923119545,0,0,0
322,11330.661336623038,2010-09-21 18:56:24,3001.525941332788,7,1,-1.0993878841400146,3.449474573135376,0.998146676021594,0.916739827085473,3.993766125338277,3.377133653521398,-0.0003237724304199,0.0931989923119545,0,0,0
323,11360.676572850389,2010-09-21 18:56:54,3031.5411774598906,7,1,-1.099568486213684,3.437171220779419,0.998146676021594,0.925907213338615,3.993766125338277,3.408700916786099,-0.0003237724304199,0.0931989923119545,0,0,0
324,11390.691835162854,2010-09-21 18:57:24,3061.5564398024303,7,1,-1.099568486213684,3.4219541549682617,0.998146676021594,0.935074667785086,3.993766125338277,3.440142249949401,-0.0003885269106831,0.0931989923119545,0,0,0
325,11420.707143745816,2010-09-21 18:57:54,3091.5717483653425,7,1,-1.0993878841400146,3.4030134677886963,0.998146676021594,0.944242107578869,3.993766125338277,3.471429777785429,-0.0005827903514727,0.0931989923119545,0,0,0
326,11450.722336349278,2010-09-21 18:58:25,3121.5869409637903,7,1,-1.0993878841400146,3.379378080368042,0.998146676021594,0.953409559343932,3.993766125338277,3.50252429417635,-0.0007122993702068,0.0931989923119545,0,0,0
327,11480.737607674237,2010-09-21 18:58:55,3151.602212313814,7,1,-1.099568486213684,3.347001075744629,0.998146676021594,0.962577069203732,3.993766125338277,3.533363446774766,-0.0009712696191854,0.0931989923119545,0,0,0
328,11510.75298256772,2010-09-21 18:59:25,3181.617587177223,7,1,-1.0993878841400146,3.30151104927063,0.998146676021594,0.971744539428129,3.993766125338277,3.56385029432041,-0.0014245987404137,0.0931989923119545,0,0,0
329,11540.768139677584,2010-09-21 18:59:55,3211.632744297111,7,1,-1.099568486213684,3.2362711429595947,0.998146676021594,0.980911999920699,3.993766125338277,3.593835684329518,-0.0020073889754712,0.0931989923119545,0,0,0
330,11570.783504661333,2010-09-21 19:00:25,3241.648109270834,7,1,-1.099568486213684,3.1383302211761475,0.998146676021594,0.990079489083469,3.993766125338277,3.623087465250199,-0.0031082152854651,0.0931989923119545,0,0,0
331,11600.79865066347,2010-09-21 19:00:55,3271.6632552829947,7,1,-1.0997490882873535,2.9689977169036865,0.998146676021594,0.999246887253016,3.993766125338277,3.651176774352068,-0.0062811849638819,0.0931989923119545,0,0,0
332,11617.87665310996,2010-09-21 19:01:12,3288.741257940012,7,1,-1.099568486213684,2.7684214115142822,0.998146676021594,1.004462963993838,3.993766125338277,3.666193285515901,-0.0116557599976658,0.0931989923119545,0,0,0
333,11622.251540060848,2010-09-21 19:01:16,3293.11614467035,7,1,-1.099568486213684,2.699620008468628,0.998146676021594,1.005799173080394,3.993766125338277,3.669847038443992,-0.0125946998596191,0.0931989923119545,0,0,0
334,11682.2665585635,2010-09-21 19:02:16,60.01489610373586,8,1,0.0,3.4028515815734863,0.998146676021594,1.005799173080394,3.993766125338277,3.669847038443992,0.0014569759368896,0.0931989923119545,0,0,0
335,11682.455083419432,2010-09-21 19:02:16,0.187653426823108,9,1,-1.9243103452026844e-05,3.4030134677886963,0.998146676021594,1.005799174083459,3.993766125338277,3.669847041857436,0.0,0.0884964689612388,0,0,0
336,11687.282965059756,2010-09-21 19:02:21,5.015535042085822,9,1,0.0008838032954372,3.412079095840454,0.998147590768434,1.005799174166465,3.993769243008692,3.669847042139907,0.0012950897216796,0.0884964689612388,0,0,0
