Data_Point,Test_Time(s),Date_Time,Step_Time(s),Step_Index,Cycle_Index,Current(A),Voltage(V),Charge_Capacity(Ah),Discharge_Capacity(Ah),Charge_Energy(Wh),Discharge_Energy(Wh),dV/dt(V/s),Internal_Resistance(Ohm),Is_FC_Data,AC_Impedance(Ohm),ACI_Phase_Angle(Deg)
12527,423796.0154823413,2010-09-26 13:31:32,30.015532857787324,1,38,0.0,3.3570377826690674,36.985956736061,37.0293416491987,147.33516981733996,135.53426527257508,0.0008418083307333,0.0897949114441871,0,0,0
12528,423826.03094261285,2010-09-26 13:32:02,60.03099313941338,1,38,0.0,3.383587121963501,36.985956736061,37.0293416491987,147.33516981733996,135.53426527257508,0.0006151676061563,0.0897949114441871,0,0,0
12529,423856.046202384,2010-09-26 13:32:32,90.04625289549683,1,38,0.0,3.403499126434326,36.985956736061,37.0293416491987,147.33516981733996,135.53426527257508,0.0004856586456298,0.0897949114441871,0,0,0
12530,423886.01486052526,2010-09-26 13:33:02,120.01491103678026,1,38,0.0,3.4192020893096924,36.985956736061,37.0293416491987,147.33516981733996,135.53426527257508,0.0003885269106831,0.0897949114441871,0,0,0
12531,423916.0413783798,2010-09-26 13:33:32,30.01543335441159,2,38,0.5501165986061096,3.5660324096679688,36.990543716492525,37.0293416491987,147.35136228686378,135.53426527257508,0.0015864849556237,0.0897949114441871,0,0,0
12532,423946.0569268666,2010-09-26 13:34:02,60.03098185123636,2,38,0.5501165986061096,3.6152455806732178,36.995130703223765,37.0293416491987,147.3678393318087,135.53426527257508,0.0011332035064697,0.0897949114441871,0,0,0
12533,423976.0723155044,2010-09-26 13:34:32,90.04637050907843,2,38,0.550297200679779,3.651508092880249,36.99971768771596,37.0293416491987,147.38450891714487,135.53426527257508,0.0008418083307333,0.0897949114441871,0,0,0
12534,424006.08760763134,2010-09-26 13:35:02,120.06166260588932,2,38,0.5501165986061096,3.679999828338623,37.00430458329916,37.0293416491987,147.40132530228686,135.53426527257508,0.0006799221155233,0.0897949114441871,0,0,0
12535,424036.10326790216,2010-09-26 13:35:32,150.07732289175672,2,38,0.550297200679779,3.7033114433288574,37.00889154977581,37.0293416491987,147.4182605118556,135.53426527257508,0.0005827903514727,0.0897949114441871,0,0,0
12536,424066.1189306541,2010-09-26 13:36:02,180.09298572398023,2,38,0.550297200679779,3.7227377891540527,37.013478855047225,37.0293416491987,147.43529506549672,135.53426527257508,0.0004856586456298,0.0897949114441871,0,0,0
12537,424096.1339892933,2010-09-26 13:36:32,210.10804426780692,2,38,0.550297200679779,3.738764524459839,37.018066380656414,37.0293416491987,147.45241158484484,135.53426527257508,0.0003885269106831,0.0897949114441871,0,0,0
12538,424126.1492803024,2010-09-26 13:37:02,240.1233352769027,2,38,0.5499359965324402,3.750582218170166,37.02265400439048,37.0293416491987,147.46959284239747,135.53426527257508,0.0002266406954731,0.0897949114441871,0,0,0
12539,424156.1647226091,2010-09-26 13:37:32,270.1387775836607,2,38,0.550297200679779,3.7575430870056152,37.02724160819916,37.0293416491987,147.4868171207754,135.53426527257508,9.713172767078504e-05,0.0897949114441871,0,0,0
12540,424186.1801266352,2010-09-26 13:38:02,300.15418163993974,2,38,0.550297200679779,3.761914014816284,37.03182896866192,37.0293416491987,147.50406527372414,135.53426527257508,0.0001295089750783,0.0897949114441871,0,0,0
12541,424216.19553352863,2010-09-26 13:38:32,330.16958853330044,2,38,0.5501165986061096,3.765313625335693,37.03641594156315,37.0293416491987,147.52132894196745,135.53426527257508,6.47544875391759e-05,0.0897949114441871,0,0,0
12542,424246.2109918654,2010-09-26 13:39:03,360.1850468550344,2,38,0.5501165986061096,3.7685513496398926,37.04100284740167,37.0293416491987,147.53860724017824,135.53426527257508,9.713172767078504e-05,0.0897949114441871,0,0,0
12543,424276.2263785132,2010-09-26 13:39:33,390.20043351789656,2,38,0.5501165986061096,3.771627187728882,37.04558981718086,37.0293416491987,147.55590023733382,135.53426527257508,9.713172767078504e-05,0.0897949114441871,0,0,0
12544,424306.2418234716,2010-09-26 13:40:03,420.21587844118585,2,38,0.5501165986061096,3.774541139602661,37.05017667351774,37.0293416491987,147.57320702796017,135.53426527257508,6.47544875391759e-05,0.0897949114441871,0,0,0
12545,424336.257212761,2010-09-26 13:40:33,450.23126776067954,2,38,0.550297200679779,3.777778863906861,37.05476350772745,37.0293416491987,147.5905277531723,135.53426527257508,9.713172767078504e-05,0.0897949114441871,0,0,0
12546,424366.2726155692,2010-09-26 13:41:03,480.2466705638305,2,38,0.5501165986061096,3.78069281578064,37.05935038992811,37.0293416491987,147.6078624187601,135.53426527257508,9.713172767078504e-05,0.0897949114441871,0,0,0
12547,424396.2880572745,2010-09-26 13:41:33,510.2621122540495,2,38,0.5501165986061096,3.783444881439209,37.06393732803234,37.0293416491987,147.6252106948324,135.53426527257508,3.237724376958795e-05,0.0897949114441871,0,0,0
12548,424426.30362284393,2010-09-26 13:42:03,540.2776779087029,2,38,0.5501165986061096,3.7865207195281982,37.06852422637142,37.0293416491987,147.6425721911561,135.53426527257508,9.713172767078504e-05,0.0897949114441871,0,0,0
12549,424456.3189010661,2010-09-26 13:42:33,570.2929560657178,2,38,0.550297200679779,3.789272785186768,37.07311109848039,37.0293416491987,147.6599466852561,135.53426527257508,9.713172767078504e-05,0.0897949114441871,0,0,0
12550,424486.334290977,2010-09-26 13:43:03,600.3083459716755,2,38,0.5501165986061096,3.792024850845337,37.077698017746975,37.0293416491987,147.67733428720226,135.53426527257508,6.47544875391759e-05,0.0897949114441871,0,0,0
12551,424516.3498833183,2010-09-26 13:43:33,630.3239383881304,2,38,0.5501165986061096,3.794938802719116,37.08228495302034,37.0293416491987,147.69473485651275,135.53426527257508,6.47544875391759e-05,0.0897949114441871,0,0,0
12552,424546.3651335005,2010-09-26 13:44:03,660.3391884700657,2,38,0.5499359965324402,3.7976908683776855,37.08687181370192,37.0293416491987,147.71214801375763,135.53426527257508,6.47544875391759e-05,0.0897949114441871,0,0,0
12553,424576.3805410606,2010-09-26 13:44:33,690.3545960300904,2,38,0.550297200679779,3.800604820251465,37.091458712230704,37.0293416491987,147.72957431051134,135.53426527257508,9.713172767078504e-05,0.0897949114441871,0,0,0
12554,424606.3960863093,2010-09-26 13:45:03,720.3701412788075,2,38,0.5499359965324402,3.803518772125244,37.09604573126973,37.0293416491987,147.74701419468218,135.53426527257508,9.713172767078504e-05,0.0897949114441871,0,0,0
12555,424636.4114277692,2010-09-26 13:45:33,750.3854827438489,2,38,0.550297200679779,3.8065946102142334,37.100632654909774,37.0293416491987,147.76446725436622,135.53426527257508,9.713172767078504e-05,0.0897949114441871,0,0,0
12556,424666.42681816645,2010-09-26 13:46:03,780.4008731660954,2,38,0.550297200679779,3.809670448303223,37.105219576722895,37.0293416491987,147.78193426880665,135.53426527257508,6.47544875391759e-05,0.0897949114441871,0,0,0
12557,424696.44223005726,2010-09-26 13:46:33,810.4162850268556,2,38,0.5501165986061096,3.812746286392212,37.10980657118736,37.0293416491987,147.7994160722458,135.53426527257508,9.713172767078504e-05,0.0897949114441871,0,0,0
12558,424726.4577233764,2010-09-26 13:47:03,840.4317784411859,2,38,0.550297200679779,3.816307783126831,37.11439344449922,37.0293416491987,147.81691276389424,135.53426527257508,0.0001295089750783,0.0897949114441871,0,0,0
12559,424756.47307428496,2010-09-26 13:47:33,870.447129279625,2,38,0.5501165986061096,3.81970739364624,37.11898032887366,37.0293416491987,147.83442492593025,135.53426527257508,0.0001295089750783,0.0897949114441871,0,0,0
12560,424786.48850758426,2010-09-26 13:48:03,900.4625626490741,2,38,0.5501165986061096,3.82294511795044,37.12356728313315,37.0293416491987,147.85195297939876,135.53426527257508,9.713172767078504e-05,0.0897949114441871,0,0,0
12561,424816.50389490376,2010-09-26 13:48:33,930.4779498984002,2,38,0.5501165986061096,3.8263447284698486,37.12815416676773,37.0293416491987,147.86949647612784,135.53426527257508,9.713172767078504e-05,0.0897949114441871,0,0,0
12562,424846.5193074662,2010-09-26 13:49:03,960.493362440862,2,38,0.5501165986061096,3.829906225204468,37.132741066453264,37.0293416491987,147.88705561958994,135.53426527257508,0.0001295089750783,0.0897949114441871,0,0,0
12563,424876.5347614873,2010-09-26 13:49:33,990.508816456848,2,38,0.550297200679779,3.832982063293457,37.137328026472616,37.0293416491987,147.9046302682748,135.53426527257508,6.47544875391759e-05,0.0897949114441871,0,0,0
12564,424906.5501600699,2010-09-26 13:50:03,1020.5242150645264,2,38,0.5501165986061096,3.836381435394287,37.14191490093608,37.0293416491987,147.922219569048,135.53426527257508,9.713172767078504e-05,0.0897949114441871,0,0,0
12565,424936.5655942564,2010-09-26 13:50:33,1050.539649251015,2,38,0.5499359965324402,3.839457273483277,37.14650188390209,37.0293416491987,147.93982407225676,135.53426527257508,6.47544875391759e-05,0.0897949114441871,0,0,0
12566,424966.58098682907,2010-09-26 13:51:03,1080.5550418286414,2,38,0.5501165986061096,3.8425331115722656,37.15108881253592,37.0293416491987,147.95744277013185,135.53426527257508,6.47544875391759e-05,0.0897949114441871,0,0,0
12567,424996.59661918017,2010-09-26 13:51:33,1110.5706741547167,2,38,0.5501165986061096,3.845608949661255,37.15567578219064,37.0293416491987,147.9750756230981,135.53426527257508,6.47544875391759e-05,0.0897949114441871,0,0,0
12568,425026.6119511765,2010-09-26 13:52:03,1140.586006156136,2,38,0.5501165986061096,3.848684787750244,37.16026268723155,37.0293416491987,147.9927220147584,135.53426527257508,9.713172767078504e-05,0.0897949114441871,0,0,0
12569,425056.62724773446,2010-09-26 13:52:33,1170.6013027040574,2,38,0.5499359965324402,3.851274967193604,37.16484954548058,37.0293416491987,148.01038154588286,135.53426527257508,3.237724376958795e-05,0.0897949114441871,0,0,0
12570,425086.6427402566,2010-09-26 13:53:03,1200.616795346461,2,38,0.5501165986061096,3.854188919067383,37.169436476561806,37.0293416491987,148.02805415627788,135.53426527257508,6.47544875391759e-05,0.0897949114441871,0,0,0
12571,425116.6581899618,2010-09-26 13:53:33,1230.632245151937,2,38,0.5501165986061096,3.856779098510742,37.174023303891886,37.0293416491987,148.04573866031643,135.53426527257508,3.237724376958795e-05,0.0897949114441871,0,0,0
12572,425146.6735127853,2010-09-26 13:54:03,1260.6475677599085,2,38,0.550297200679779,3.859207391738892,37.17861022432942,37.0293416491987,148.06343518685304,135.53426527257508,6.47544875391759e-05,0.0897949114441871,0,0,0
12573,425176.6889044106,2010-09-26 13:54:33,1290.662959380145,2,38,0.5501165986061096,3.861635684967041,37.18319702716615,37.0293416491987,148.0811421880811,135.53426527257508,9.713172767078504e-05,0.0897949114441871,0,0,0
12574,425206.7043155997,2010-09-26 13:55:03,1320.6783705742407,2,38,0.5501165986061096,3.8637402057647705,37.187783492768204,37.0293416491987,148.09885821934182,135.53426527257508,6.47544875391759e-05,0.0897949114441871,0,0,0
12575,425236.7197918662,2010-09-26 13:55:33,1350.6938468357555,2,38,0.5501165986061096,3.8658447265625,37.19236956487631,37.0293416491987,148.11658237212157,135.53426527257508,9.713172767078504e-05,0.0897949114441871,0,0,0
12576,425266.73523467424,2010-09-26 13:56:03,1380.709289648777,2,38,0.5501165986061096,3.8676254749298096,37.19695582920737,37.0293416491987,148.13431652522715,135.53426527257508,3.237724376958795e-05,0.0897949114441871,0,0,0
12577,425296.7506690512,2010-09-26 13:56:33,1410.7247240457912,2,38,0.5501165986061096,3.869568109512329,37.20154271366207,37.0293416491987,148.1520617713966,135.53426527257508,6.47544875391759e-05,0.0897949114441871,0,0,0
12578,425326.7664730708,2010-09-26 13:57:03,1440.7405281456404,2,38,0.550297200679779,3.871348857879639,37.206129614438055,37.0293416491987,148.16981507899092,135.53426527257508,6.47544875391759e-05,0.0897949114441871,0,0,0
12579,425356.78150014114,2010-09-26 13:57:33,1470.7555551206665,2,38,0.5501165986061096,3.8729677200317374,37.21071644656176,37.0293416491987,148.18757551689257,135.53426527257508,6.47544875391759e-05,0.0897949114441871,0,0,0
12580,425386.7969214855,2010-09-26 13:58:03,1500.7709764550746,2,38,0.550297200679779,3.874100923538208,37.21530323966462,37.0293416491987,148.2053427319995,135.53426527257508,0.0,0.0897949114441871,0,0,0
12581,425416.8123273312,2010-09-26 13:58:33,1530.7863823058326,2,38,0.550297200679779,3.8755578994750977,37.21989011895496,37.0293416491987,148.22311668231387,135.53426527257508,3.237724376958795e-05,0.0897949114441871,0,0,0
12582,425446.8277470867,2010-09-26 13:59:03,1560.8018020562868,2,38,0.5499359965324402,3.876852989196777,37.22447697301895,37.0293416491987,148.24089677890774,135.53426527257508,0.0,0.0897949114441871,0,0,0
12583,425476.8431879599,2010-09-26 13:59:33,1590.8172429394913,2,38,0.550297200679779,3.878309965133667,37.229063831963394,37.0293416491987,148.2586827858914,135.53426527257508,3.237724376958795e-05,0.0897949114441871,0,0,0
12584,425506.8586045174,2010-09-26 14:00:03,1620.832659507,2,38,0.5501165986061096,3.8794431686401367,37.233650727569696,37.0293416491987,148.27647469686303,135.53426527257508,6.47544875391759e-05,0.0897949114441871,0,0,0
12585,425536.8740136864,2010-09-26 14:00:33,1650.8480686710288,2,38,0.5501165986061096,3.8805763721466064,37.238237549621886,37.0293416491987,148.29427181694234,135.53426527257508,0.0,0.0897949114441871,0,0,0
12586,425566.8895539327,2010-09-26 14:01:03,1680.8636089022214,2,38,0.5501165986061096,3.881871461868286,37.24282444740836,37.0293416491987,148.3120747474768,135.53426527257508,3.237724376958795e-05,0.0897949114441871,0,0,0
12587,425596.90504564776,2010-09-26 14:01:33,1710.8791007376103,2,38,0.5501165986061096,3.882842779159546,37.2474113327848,37.0293416491987,148.32988299415186,135.53426527257508,-3.237724376958795e-05,0.0897949114441871,0,0,0
12588,425626.9202879302,2010-09-26 14:02:03,1740.8943429047897,2,38,0.5501165986061096,3.8841378688812256,37.25199820287983,37.0293416491987,148.34769661277244,135.53426527257508,0.0,0.0897949114441871,0,0,0
12589,425656.935691786,2010-09-26 14:02:33,1770.9097467555553,2,38,0.5501165986061096,3.885432958602905,37.25658509150193,37.0293416491987,148.36551550490364,135.53426527257508,6.47544875391759e-05,0.0897949114441871,0,0,0
12590,425686.95110376703,2010-09-26 14:03:03,1800.925158741628,2,38,0.5501165986061096,3.886566162109375,37.261171974779565,37.0293416491987,148.38333976130008,135.53426527257508,3.237724376958795e-05,0.0897949114441871,0,0,0
12591,425716.9667000431,2010-09-26 14:03:33,1830.9407550327544,2,38,0.5501165986061096,3.8876993656158447,37.265758783010014,37.0293416491987,148.40116904417113,135.53426527257508,3.237724376958795e-05,0.0897949114441871,0,0,0
12592,425746.98197645583,2010-09-26 14:04:03,1860.9560314353907,2,38,0.5501165986061096,3.888670682907105,37.27034558822628,37.0293416491987,148.41900370831618,135.53426527257508,0.0,0.0897949114441871,0,0,0
12593,425776.9973753743,2010-09-26 14:04:33,1890.971430358857,2,38,0.550297200679779,3.889965772628784,37.27493250195947,37.0293416491987,148.436844140589,135.53426527257508,3.237724376958795e-05,0.0897949114441871,0,0,0
12594,425807.01278303954,2010-09-26 14:05:03,1920.9868380191324,2,38,0.550297200679779,3.891098976135254,37.27951938369196,37.0293416491987,148.45468985070758,135.53426527257508,3.237724376958795e-05,0.0897949114441871,0,0,0
12595,425837.02822005306,2010-09-26 14:05:33,1951.0022750226528,2,38,0.5501165986061096,3.8923940658569336,37.28410633397434,37.0293416491987,148.47254126850387,135.53426527257508,3.237724376958795e-05,0.0897949114441871,0,0,0
12596,425867.0436274076,2010-09-26 14:06:03,1981.0176823771644,2,38,0.5504778623580933,3.893689155578613,37.28869323872001,37.0293416491987,148.4903979501768,135.53426527257508,3.237724376958795e-05,0.0897949114441871,0,0,0
12597,425897.0590585866,2010-09-26 14:06:33,2011.033113556146,2,38,0.5501165986061096,3.894660472869873,37.29328019567981,37.0293416491987,148.50826036245647,135.53426527257508,6.47544875391759e-05,0.0897949114441871,0,0,0
12598,425927.0745161814,2010-09-26 14:07:03,2041.0485712613408,2,38,0.550297200679779,3.8959555625915527,37.29786708929703,37.0293416491987,148.52612751831256,135.53426527257508,3.237724376958795e-05,0.0897949114441871,0,0,0
12599,425957.0900894652,2010-09-26 14:07:33,2071.0641444397747,2,38,0.550297200679779,3.8970887660980233,37.30245399354517,37.0293416491987,148.54400047579156,135.53426527257508,3.237724376958795e-05,0.0897949114441871,0,0,0
12600,425987.105436439,2010-09-26 14:08:03,2101.079491433617,2,38,0.5501165986061096,3.898383855819702,37.30704079396286,37.0293416491987,148.56187865928837,135.53426527257508,6.47544875391759e-05,0.0897949114441871,0,0,0
12601,426017.1207303102,2010-09-26 14:08:33,2131.094785284807,2,38,0.550297200679779,3.899678945541382,37.31162767626842,37.0293416491987,148.57976291715556,135.53426527257508,3.237724376958795e-05,0.0897949114441871,0,0,0
12602,426047.1361523464,2010-09-26 14:09:03,2161.1102073460293,2,38,0.5501165986061096,3.9009740352630615,37.316214637346775,37.0293416491987,148.59765316408678,135.53426527257508,6.47544875391759e-05,0.0897949114441871,0,0,0
12603,426077.1515845579,2010-09-26 14:09:33,2191.1256395325254,2,38,0.5501165986061096,3.9021072387695312,37.32080151141327,37.0293416491987,148.6155489137138,135.53426527257508,3.237724376958795e-05,0.0897949114441871,0,0,0
12604,426107.1671279019,2010-09-26 14:10:03,2221.1411828815008,2,38,0.550297200679779,3.903564214706421,37.32538843612834,37.0293416491987,148.63345071965202,135.53426527257508,9.713172767078504e-05,0.0897949114441871,0,0,0
12605,426137.1824386603,2010-09-26 14:10:33,2251.156493654931,2,38,0.550297200679779,3.90469741821289,37.329975322966426,37.0293416491987,148.65135836127428,135.53426527257508,3.237724376958795e-05,0.0897949114441871,0,0,0
12606,426167.1978342103,2010-09-26 14:11:04,2281.1718892099893,2,38,0.5499359965324402,3.90583062171936,37.334562252473766,37.0293416491987,148.66927202084693,135.53426527257508,-3.237724376958795e-05,0.0897949114441871,0,0,0
12607,426197.2132656751,2010-09-26 14:11:34,2311.18732064461,2,38,0.5501165986061096,3.90744948387146,37.33914916210458,37.0293416491987,148.6871916688829,135.53426527257508,6.47544875391759e-05,0.0897949114441871,0,0,0
12608,426227.2286754857,2010-09-26 14:12:04,2341.2027304602643,2,38,0.5499359965324402,3.90842080116272,37.34373603356822,37.0293416491987,148.70511727214486,135.53426527257508,-6.47544875391759e-05,0.0897949114441871,0,0,0
12609,426257.2440973865,2010-09-26 14:12:34,2371.218152361086,2,38,0.5501165986061096,3.910201549530029,37.34832295511799,37.0293416491987,148.72304925297578,135.53426527257508,9.713172767078504e-05,0.0897949114441871,0,0,0
12610,426287.2595210417,2010-09-26 14:13:04,2401.2335760363367,2,38,0.5501165986061096,3.911334753036499,37.35290988630573,37.0293416491987,148.740987421656,135.53426527257508,0.0,0.0897949114441871,0,0,0
12611,426317.2749789324,2010-09-26 14:13:34,2431.24903391697,2,38,0.5501165986061096,3.9126298427581783,37.35749678479228,37.0293416491987,148.7589317214712,135.53426527257508,0.0,0.0897949114441871,0,0,0
12612,426347.29051391047,2010-09-26 14:14:04,2461.2645688950493,2,38,0.550297200679779,3.914248466491699,37.36208364292277,37.0293416491987,148.77688218783945,135.53426527257508,3.237724376958795e-05,0.0897949114441871,0,0,0
12613,426377.3057852003,2010-09-26 14:14:34,2491.2798401698856,2,38,0.5501165986061096,3.915381669998169,37.36667052736923,37.0293416491987,148.79483919283155,135.53426527257508,0.0,0.0897949114441871,0,0,0
12614,426407.3211778381,2010-09-26 14:15:04,2521.29523284275,2,38,0.5501165986061096,3.9168386459350586,37.37125745918774,37.0293416491987,148.81280271607457,135.53426527257508,3.237724376958795e-05,0.0897949114441871,0,0,0
12615,426437.33661271125,2010-09-26 14:15:34,2551.310667685877,2,38,0.5501165986061096,3.918457508087158,37.37584440429071,37.0293416491987,148.8307728475654,135.53426527257508,6.47544875391759e-05,0.0897949114441871,0,0,0
12616,426467.35204431135,2010-09-26 14:16:04,2581.3260992959345,2,38,0.5501165986061096,3.919752597808838,37.380431358063085,37.0293416491987,148.8487495475422,135.53426527257508,3.237724376958795e-05,0.0897949114441871,0,0,0
12617,426497.3674939264,2010-09-26 14:16:34,2611.341548986123,2,38,0.550297200679779,3.9213714599609375,37.38501827245591,37.0293416491987,148.86673274632685,135.53426527257508,6.47544875391759e-05,0.0897949114441871,0,0,0
12618,426527.38304618245,2010-09-26 14:17:04,2641.357101162132,2,38,0.5501165986061096,3.922828435897827,37.38960512217677,37.0293416491987,148.88472233097198,135.53426527257508,6.47544875391759e-05,0.0897949114441871,0,0,0
12619,426557.3983388608,2010-09-26 14:17:34,2671.372393860444,2,38,0.5501165986061096,3.924285411834717,37.39419201260744,37.0293416491987,148.9027187839909,135.53426527257508,3.237724376958795e-05,0.0897949114441871,0,0,0
12620,426587.4137450224,2010-09-26 14:18:04,2701.3877999919027,2,38,0.550297200679779,3.925580501556397,37.39877887481251,37.0293416491987,148.9207219460784,135.53426527257508,0.0,0.0897949114441871,0,0,0
12621,426617.4292279154,2010-09-26 14:18:34,2731.403282985221,2,38,0.550297200679779,3.927199363708496,37.40336656325985,37.0293416491987,148.93873517271285,135.53426527257508,3.237724376958795e-05,0.0897949114441871,0,0,0
12622,426647.444625691,2010-09-26 14:19:04,2761.4186806655844,2,38,0.5501165986061096,3.9286563396453857,37.4079542053503,37.0293416491987,148.95675513724046,135.53426527257508,3.237724376958795e-05,0.0897949114441871,0,0,0
12623,426677.4602102679,2010-09-26 14:19:34,2791.434265257508,2,38,0.5501165986061096,3.930275201797485,37.41254107989479,37.0293416491987,148.9747790758412,135.53426527257508,6.47544875391759e-05,0.0897949114441871,0,0,0
12624,426707.475505693,2010-09-26 14:20:04,2821.449560667589,2,38,0.5499359965324402,3.931570291519165,37.41712789527264,37.0293416491987,148.99280986498223,135.53426527257508,-3.237724376958795e-05,0.0897949114441871,0,0,0
12625,426737.4909178494,2010-09-26 14:20:34,2851.464972824088,2,38,0.550297200679779,3.933512926101685,37.42171474494075,37.0293416491987,149.01084791422656,135.53426527257508,6.47544875391759e-05,0.0897949114441871,0,0,0
12626,426767.5063522465,2010-09-26 14:21:04,2881.480407256189,2,38,0.5501165986061096,3.934969902038574,37.42630153665202,37.0293416491987,149.0288929124136,135.53426527257508,3.237724376958795e-05,0.0897949114441871,0,0,0
12627,426797.5218892096,2010-09-26 14:21:34,2911.495944199174,2,38,0.5501165986061096,3.936426877975464,37.430888440942354,37.0293416491987,149.04694562412325,135.53426527257508,6.47544875391759e-05,0.0897949114441871,0,0,0
12628,426827.53729629336,2010-09-26 14:22:04,2941.511351298048,2,38,0.5501165986061096,3.938207626342773,37.43547522876731,37.0293416491987,149.0650051595311,135.53426527257508,6.47544875391759e-05,0.0897949114441871,0,0,0
12629,426857.5525936884,2010-09-26 14:22:34,2971.5266486680216,2,38,0.5501165986061096,3.939826488494873,37.44006201981142,37.0293416491987,149.08307214907862,135.53426527257508,6.47544875391759e-05,0.0897949114441871,0,0,0
12630,426887.56803075713,2010-09-26 14:23:04,3001.542085731692,2,38,0.5501165986061096,3.9414453506469727,37.444648842429714,37.0293416491987,149.10114676803968,135.53426527257508,6.47544875391759e-05,0.0897949114441871,0,0,0
12631,426917.5836633188,2010-09-26 14:23:34,3031.5577183184178,2,38,0.5501165986061096,3.9429023265838623,37.44923569610418,37.0293416491987,149.11922898327057,135.53426527257508,0.0,0.0897949114441871,0,0,0
12632,426947.59885823296,2010-09-26 14:24:04,3061.5729132075835,2,38,0.5501165986061096,3.944683074951172,37.453822469151504,37.0293416491987,149.13731854872842,135.53426527257508,3.237724376958795e-05,0.0897949114441871,0,0,0
12633,426977.6144306093,2010-09-26 14:24:34,3091.588485599053,2,38,0.5501165986061096,3.9464638233184814,37.458409316150814,37.0293416491987,149.15541614214953,135.53426527257508,6.47544875391759e-05,0.0897949114441871,0,0,0
12634,427007.6297059796,2010-09-26 14:25:04,3121.6037609540736,2,38,0.5499359965324402,3.947920799255371,37.46299610902764,37.0293416491987,149.17352115563835,135.53426527257508,3.237724376958795e-05,0.0897949114441871,0,0,0
12635,427037.6451344568,2010-09-26 14:25:34,3151.619189431311,2,38,0.5501165986061096,3.94986343383789,37.46758291312605,37.0293416491987,149.19163409364543,135.53426527257508,9.713172767078504e-05,0.0897949114441871,0,0,0
12636,427067.6605270845,2010-09-26 14:26:04,3181.634582059063,2,38,0.5501165986061096,3.9514822959899902,37.4721697505718,37.0293416491987,149.20975517400993,135.53426527257508,3.237724376958795e-05,0.0897949114441871,0,0,0
12637,427097.6759409452,2010-09-26 14:26:34,3211.6499959298403,2,38,0.550297200679779,3.9534249305725098,37.47675651710515,37.0293416491987,149.22788395325247,135.53426527257508,9.713172767078504e-05,0.0897949114441871,0,0,0
12638,427127.6914136879,2010-09-26 14:27:04,3241.665468682596,2,38,0.5501165986061096,3.95504379272461,37.48134331704494,37.0293416491987,149.24602097003574,135.53426527257508,3.237724376958795e-05,0.0897949114441871,0,0,0
12639,427157.706835659,2010-09-26 14:27:34,3271.6808906385554,2,38,0.5499359965324402,3.956824541091919,37.48593008112282,37.0293416491987,149.2641659834068,135.53426527257508,6.47544875391759e-05,0.0897949114441871,0,0,0
12640,427187.7222624219,2010-09-26 14:28:04,3301.696317421564,2,38,0.5501165986061096,3.9587671756744394,37.49051689277243,37.0293416491987,149.2823193066751,135.53426527257508,6.47544875391759e-05,0.0897949114441871,0,0,0
12641,427217.7376884029,2010-09-26 14:28:34,3331.711743387533,2,38,0.5501165986061096,3.960547924041748,37.49510361726546,37.0293416491987,149.30048063983278,135.53426527257508,6.47544875391759e-05,0.0897949114441871,0,0,0
12642,427247.753483776,2010-09-26 14:29:04,3361.7275387605987,2,38,0.5501165986061096,3.962166786193848,37.49969046603696,37.0293416491987,149.3186508781191,135.53426527257508,3.237724376958795e-05,0.0897949114441871,0,0,0
12643,427277.76865679055,2010-09-26 14:29:34,3391.742711770149,2,38,0.5501165986061096,3.964109420776367,37.504277155458425,37.0293416491987,149.33682896335208,135.53426527257508,3.237724376958795e-05,0.0897949114441871,0,0,0
12644,427307.7839357998,2010-09-26 14:30:04,3421.757990784304,2,38,0.550297200679779,3.966052055358887,37.50886392228874,37.0293416491987,149.3550159726444,135.53426527257508,6.47544875391759e-05,0.0897949114441871,0,0,0
12645,427337.7993588886,2010-09-26 14:30:34,3451.773413863066,2,38,0.550297200679779,3.9679946899414062,37.513450713544415,37.0293416491987,149.37321172119917,135.53426527257508,3.237724376958795e-05,0.0897949114441871,0,0,0
12646,427367.81477998727,2010-09-26 14:31:04,3481.788834966898,2,38,0.5501165986061096,3.969775438308716,37.51803747967965,37.0293416491987,149.39141615506793,135.53426527257508,6.47544875391759e-05,0.0897949114441871,0,0,0
12647,427397.8302261236,2010-09-26 14:31:34,3511.804281098203,2,38,0.5501165986061096,3.971879959106445,37.522624301699175,37.0293416491987,149.40962966016482,135.53426527257508,6.47544875391759e-05,0.0897949114441871,0,0,0
12648,427427.8456255584,2010-09-26 14:32:04,3541.8196805329458,2,38,0.5501165986061096,3.973822593688965,37.52721109551629,37.0293416491987,149.42785201524205,135.53426527257508,6.47544875391759e-05,0.0897949114441871,0,0,0
12649,427457.8610454693,2010-09-26 14:32:34,3571.83510046385,2,38,0.5501165986061096,3.975765228271485,37.53179791059698,37.0293416491987,149.44608357495065,135.53426527257508,3.237724376958795e-05,0.0897949114441871,0,0,0
12650,427487.876694883,2010-09-26 14:33:04,3601.850749942742,2,38,0.5501165986061096,3.977707862854004,37.536384764954754,37.0293416491987,149.46432450070756,135.53426527257508,3.237724376958795e-05,0.0897949114441871,0,0,0
12651,427517.89190862415,2010-09-26 14:33:34,3631.8659636087777,2,38,0.550297200679779,3.979974269866944,37.540971546328485,37.0293416491987,149.4825741012564,135.53426527257508,9.713172767078504e-05,0.0897949114441871,0,0,0
12652,427547.9073167757,2010-09-26 14:34:04,3661.881371755266,2,38,0.5501165986061096,3.981755018234253,37.54555825487975,37.0293416491987,149.50083320895746,135.53426527257508,3.237724376958795e-05,0.0897949114441871,0,0,0
12653,427577.9227634282,2010-09-26 14:34:34,3691.896818412885,2,38,0.550297200679779,3.984021425247192,37.55014499285542,37.0293416491987,149.51910190729853,135.53426527257508,6.47544875391759e-05,0.0897949114441871,0,0,0
12654,427607.93819173006,2010-09-26 14:35:04,3721.9122467347343,2,38,0.5501165986061096,3.986125946044922,37.55473170432931,37.0293416491987,149.5373801070883,135.53426527257508,6.47544875391759e-05,0.0897949114441871,0,0,0
12655,427637.954427322,2010-09-26 14:35:34,3751.928482421892,2,38,0.5501165986061096,3.9880685806274414,37.55931862912916,37.0293416491987,149.55566887661,135.53426527257508,3.237724376958795e-05,0.0897949114441871,0,0,0
12656,427667.9690242786,2010-09-26 14:36:04,3781.943079253213,2,38,0.5501165986061096,3.990334987640381,37.563905198552334,37.0293416491987,149.57396588730032,135.53426527257508,6.47544875391759e-05,0.0897949114441871,0,0,0
12657,427697.9844486056,2010-09-26 14:36:34,3811.9585035851023,2,38,0.5501165986061096,3.9924395084381104,37.56849189489039,37.0293416491987,149.59227326596385,135.53426527257508,3.237724376958795e-05,0.0897949114441871,0,0,0
12658,427727.999976175,2010-09-26 14:37:04,3841.9740311597034,2,38,0.5501165986061096,3.994705677032471,37.57307862118744,37.0293416491987,149.61059068770902,135.53426527257508,6.47544875391759e-05,0.0897949114441871,0,0,0
12659,427758.0152766178,2010-09-26 14:37:34,3871.9893315973327,2,38,0.5501165986061096,3.9968101978302,37.57766533029288,37.0293416491987,149.62891803849473,135.53426527257508,3.237724376958795e-05,0.0897949114441871,0,0,0
12660,427788.03069318034,2010-09-26 14:38:04,3902.0047481548177,2,38,0.5501165986061096,3.9989147186279297,37.58225208674132,37.0293416491987,149.64725561552146,135.53426527257508,6.47544875391759e-05,0.0897949114441871,0,0,0
12661,427818.0461269155,2010-09-26 14:38:34,3932.0201819202543,2,38,0.550297200679779,4.001343250274658,37.58683879838204,37.0293416491987,149.66560313771728,135.53426527257508,9.71794142969884e-05,0.0897949114441871,0,0,0
12662,427848.06153242046,2010-09-26 14:39:04,3962.0355873950753,2,38,0.5501165986061096,4.003447532653809,37.591425481429575,37.0293416491987,149.68396074298272,135.53426527257508,3.23295607813634e-05,0.0897949114441871,0,0,0
12663,427878.07697241154,2010-09-26 14:39:34,3992.051027386052,2,38,0.550297200679779,4.005876064300537,37.596012212043846,37.0293416491987,149.70232876111183,135.53426527257508,6.47544875391759e-05,0.0897949114441871,0,0,0
12664,427908.092525204,2010-09-26 14:40:04,4022.066580183612,2,38,0.5501165986061096,4.007980346679688,37.60059896859771,37.0293416491987,149.72070724068942,135.53426527257508,3.23295607813634e-05,0.0897949114441871,0,0,0
12665,427938.10779240873,2010-09-26 14:40:34,4052.0818473882887,2,38,0.5499359965324402,4.010246753692627,37.60518563291088,37.0293416491987,149.7390957177475,135.53426527257508,3.23295607813634e-05,0.0897949114441871,0,0,0
12666,427968.1232115827,2010-09-26 14:41:04,4082.097266567316,2,38,0.550297200679779,4.012513160705566,37.60977231790327,37.0293416491987,149.7574947797543,135.53426527257508,3.23295607813634e-05,0.0897949114441871,0,0,0
12667,427998.1387739944,2010-09-26 14:41:34,4112.112828968849,2,38,0.5501165986061096,4.014779567718506,37.61435908140814,37.0293416491987,149.77590472770277,135.53426527257508,6.47544875391759e-05,0.0897949114441871,0,0,0
12668,428028.1540849581,2010-09-26 14:42:04,4142.12813996283,2,38,0.550297200679779,4.017208099365234,37.61894578484264,37.0293416491987,149.79432507150997,135.53426527257508,6.47544875391759e-05,0.0897949114441871,0,0,0
12669,428058.16948974127,2010-09-26 14:42:34,4172.143544715848,2,38,0.5501165986061096,4.019312381744385,37.62353257364308,37.0293416491987,149.81275648744693,135.53426527257508,3.23295607813634e-05,0.0897949114441871,0,0,0
12670,428088.18490281503,2010-09-26 14:43:05,4202.158957789637,2,38,0.550297200679779,4.022064685821533,37.62811924391162,37.0293416491987,149.83119821158988,135.53426527257508,6.47544875391759e-05,0.0897949114441871,0,0,0
12671,428118.2003418887,2010-09-26 14:43:35,4232.174396868337,2,38,0.5501165986061096,4.024331092834473,37.63270592573473,37.0293416491987,149.84965099530208,135.53426527257508,3.24249267578125e-05,0.0897949114441871,0,0,0
12672,428148.2157406669,2010-09-26 14:44:05,4262.189795641428,2,38,0.5501165986061096,4.026759147644043,37.63729269125612,37.0293416491987,149.86811511361094,135.53426527257508,6.47544875391759e-05,0.0897949114441871,0,0,0
12673,428178.2311685175,2010-09-26 14:44:35,4292.205223492102,2,38,0.5501165986061096,4.029025554656982,37.64187943888832,37.0293416491987,149.88659026546395,135.53426527257508,3.23295607813634e-05,0.0897949114441871,0,0,0
12674,428208.2467126584,2010-09-26 14:45:05,4322.220767633054,2,38,0.5499359965324402,4.031454086303711,37.64646615712517,37.0293416491987,149.90507648396073,135.53426527257508,3.24249267578125e-05,0.0897949114441871,0,0,0
12675,428238.2624372949,2010-09-26 14:45:35,4352.236492309649,2,38,0.5501165986061096,4.03404426574707,37.65105291161089,37.0293416491987,149.92357421090455,135.53426527257508,6.47544875391759e-05,0.0897949114441871,0,0,0
12676,428268.2774332375,2010-09-26 14:46:05,4382.251488212114,2,38,0.5501165986061096,4.036633968353272,37.65563959534866,37.0293416491987,149.9420830958097,135.53426527257508,9.70840483205393e-05,0.0897949114441871,0,0,0
12677,428298.29285205074,2010-09-26 14:46:35,4412.266907025229,2,38,0.5499359965324402,4.0390625,37.66022635257462,37.0293416491987,149.96060387617763,135.53426527257508,6.47544875391759e-05,0.0897949114441871,0,0,0
12678,428328.3083992292,2010-09-26 14:47:05,4442.282454213788,2,38,0.5501165986061096,4.04181432723999,37.664813068246175,37.0293416491987,149.9791360428931,135.53426527257508,6.47544875391759e-05,0.0897949114441871,0,0,0
12679,428358.32371555147,2010-09-26 14:47:35,4472.297770526044,2,38,0.5501165986061096,4.044242858886719,37.669399772341,37.0293416491987,149.997679963774,135.53426527257508,6.47544875391759e-05,0.0897949114441871,0,0,0
12680,428388.3391169511,2010-09-26 14:48:05,4502.313171935717,2,38,0.5501165986061096,4.046833038330078,37.673986486475314,37.0293416491987,150.0162358008599,135.53426527257508,3.24249267578125e-05,0.0897949114441871,0,0,0
12681,428418.35453784943,2010-09-26 14:48:35,4532.328592824011,2,38,0.550297200679779,4.049584865570068,37.67857322240451,37.0293416491987,150.03480377710238,135.53426527257508,6.47544875391759e-05,0.0897949114441871,0,0,0
12682,428448.3701046871,2010-09-26 14:49:05,4562.344159661617,2,38,0.5501165986061096,4.052337169647217,37.683159997378255,37.0293416491987,150.0533840076043,135.53426527257508,9.71794142969884e-05,0.0897949114441871,0,0,0
12683,428478.3854062976,2010-09-26 14:49:35,4592.359461272175,2,38,0.550297200679779,4.054927349090576,37.68774674275518,37.0293416491987,150.07197638194643,135.53426527257508,9.71794142969884e-05,0.0897949114441871,0,0,0
12684,428508.4009299925,2010-09-26 14:50:05,4622.374984967091,2,38,0.5501165986061096,4.057679176330566,37.69233354425857,37.0293416491987,150.09058134170394,135.53426527257508,9.70840483205393e-05,0.0897949114441871,0,0,0
12685,428538.4162339439,2010-09-26 14:50:35,4652.390288918492,2,38,0.550297200679779,4.060269355773926,37.69692028233343,37.0293416491987,150.1091986070669,135.53426527257508,9.70840483205393e-05,0.0897949114441871,0,0,0
12686,428568.4316473135,2010-09-26 14:51:05,4682.405702293032,2,38,0.5501165986061096,4.063021659851074,37.70150708164415,37.0293416491987,150.12782831108916,135.53426527257508,9.71794142969884e-05,0.0897949114441871,0,0,0
12687,428598.4472261159,2010-09-26 14:51:35,4712.421281190742,2,38,0.5501165986061096,4.065611839294434,37.70609380827496,37.0293416491987,150.14647042953595,135.53426527257508,6.47544875391759e-05,0.0897949114441871,0,0,0
12688,428628.4624686992,2010-09-26 14:52:05,4742.436523703784,2,38,0.5501165986061096,4.068525791168213,37.71068045524922,37.0293416491987,150.16512493626757,135.53426527257508,6.47544875391759e-05,0.0897949114441871,0,0,0
12689,428658.4779475722,2010-09-26 14:52:35,4772.4520025617785,2,38,0.5499359965324402,4.071277618408203,37.71526721061864,37.0293416491987,150.18379284650513,135.53426527257508,3.23295607813634e-05,0.0897949114441871,0,0,0
12690,428688.4934311519,2010-09-26 14:53:05,4802.467486126524,2,38,0.5501165986061096,4.074353694915772,37.719853915731015,37.0293416491987,150.20247360606808,135.53426527257508,6.47544875391759e-05,0.0897949114441871,0,0,0
12691,428718.50874786027,2010-09-26 14:53:35,4832.4828028397815,2,38,0.5501165986061096,4.077267646789551,37.724440634065445,37.0293416491987,150.22116762403286,135.53426527257508,9.71794142969884e-05,0.0897949114441871,0,0,0
12692,428748.5242769386,2010-09-26 14:54:05,4862.498331938184,2,38,0.5501165986061096,4.080019474029541,37.7290274248173,37.0293416491987,150.23987533736909,135.53426527257508,9.70840483205393e-05,0.0897949114441871,0,0,0
12693,428778.53957184736,2010-09-26 14:54:35,4892.513626831977,2,38,0.5499359965324402,4.08293342590332,37.7336142304896,37.0293416491987,150.25859654585568,135.53426527257508,6.47544875391759e-05,0.0897949114441871,0,0,0
12694,428808.554992851,2010-09-26 14:55:05,4922.529047830546,2,38,0.5501165986061096,4.086009502410889,37.73820107108567,37.0293416491987,150.27733151225215,135.53426527257508,6.47544875391759e-05,0.0897949114441871,0,0,0
12695,428838.5706302998,2010-09-26 14:55:35,4952.544685304471,2,38,0.5501165986061096,4.088923454284668,37.74278788385091,37.0293416491987,150.29608002906448,135.53426527257508,6.47544875391759e-05,0.0897949114441871,0,0,0
12696,428868.5858673893,2010-09-26 14:56:05,4982.559922368913,2,38,0.5499359965324402,4.091999053955078,37.747374729401045,37.0293416491987,150.31484244595347,135.53426527257508,9.70840483205393e-05,0.0897949114441871,0,0,0
12697,428898.6012837012,2010-09-26 14:56:35,5012.575338675772,2,38,0.5499359965324402,4.094913005828857,37.751961553196224,37.0293416491987,150.33361863451915,135.53426527257508,6.47544875391759e-05,0.0897949114441871,0,0,0
12698,428928.6166762637,2010-09-26 14:57:05,5042.590731238361,2,38,0.550297200679779,4.098150730133057,37.75654838673243,37.0293416491987,150.3524088944524,135.53426527257508,9.70840483205393e-05,0.0897949114441871,0,0,0
12699,428958.63217367313,2010-09-26 14:57:35,5072.606228672726,2,38,0.5501165986061096,4.101226806640625,37.76113526873969,37.0293416491987,150.3712134476665,135.53426527257508,6.47544875391759e-05,0.0897949114441871,0,0,0
12700,428988.6475266268,2010-09-26 14:58:05,5102.621581601382,2,38,0.5499359965324402,4.104302406311035,37.76572209721026,37.0293416491987,150.3900319496956,135.53426527257508,6.47544875391759e-05,0.0897949114441871,0,0,0
12701,429018.66294417175,2010-09-26 14:58:35,5132.636999146331,2,38,0.5501165986061096,4.107540130615234,37.77030894079397,37.0293416491987,150.4088649197095,135.53426527257508,9.70840483205393e-05,0.0897949114441871,0,0,0
12702,429048.67836844845,2010-09-26 14:59:05,5162.652423423083,2,38,0.5499359965324402,4.110454082489014,37.774895734931725,37.0293416491987,150.42771218785805,135.53426527257508,6.47544875391759e-05,0.0897949114441871,0,0,0
12703,429078.6938440182,2010-09-26 14:59:35,5192.667899118183,2,38,0.5501165986061096,4.113853931427002,37.77948258620939,37.0293416491987,150.44657428446948,135.53426527257508,9.71794142969884e-05,0.0897949114441871,0,0,0
12704,429108.70927033015,2010-09-26 15:00:05,5222.683325304703,2,38,0.5501165986061096,4.117091178894043,37.78406941558901,37.0293416491987,150.46545102279666,135.53426527257508,0.0001295089750783,0.0897949114441871,0,0,0
12705,429138.7246488376,2010-09-26 15:00:35,5252.698703802183,2,38,0.550297200679779,4.120328903198242,37.78865619044512,37.0293416491987,150.48434241376853,135.53426527257508,9.70840483205393e-05,0.0897949114441871,0,0,0
12706,429168.7404484362,2010-09-26 15:01:05,5282.714503420846,2,38,0.5501165986061096,4.123566627502441,37.79324309044154,37.0293416491987,150.5032493108955,135.53426527257508,9.70840483205393e-05,0.0897949114441871,0,0,0
12707,429198.7554936468,2010-09-26 15:01:35,5312.729548716604,2,38,0.550297200679779,4.126804351806641,37.79782980624408,37.0293416491987,150.52217052154234,135.53426527257508,9.70840483205393e-05,0.0897949114441871,0,0,0
12708,429228.77102467,2010-09-26 15:02:05,5342.745079644575,2,38,0.5499359965324402,4.130204200744629,37.802416694826896,37.0293416491987,150.54110771365316,135.53426527257508,6.47544875391759e-05,0.0897949114441871,0,0,0
12709,429258.7863120801,2010-09-26 15:02:35,5372.760367059699,2,38,0.5501165986061096,4.133603572845459,37.807003485224094,37.0293416491987,150.56005980412107,135.53426527257508,9.70840483205393e-05,0.0897949114441871,0,0,0
12710,429288.8017530536,2010-09-26 15:03:05,5402.775808048166,2,38,0.5501165986061096,4.136841297149658,37.81159031885631,37.0293416491987,150.57902749552557,135.53426527257508,6.47544875391759e-05,0.0897949114441871,0,0,0
12711,429318.8171739469,2010-09-26 15:03:35,5432.791228921423,2,38,0.5501165986061096,4.140241146087647,37.816177244497545,37.0293416491987,150.59801115923207,135.53426527257508,6.47544875391759e-05,0.0897949114441871,0,0,0
12712,429348.8325778978,2010-09-26 15:04:05,5462.806632872439,2,38,0.550297200679779,4.143640518188477,37.82076417824618,37.0293416491987,150.61701040853816,135.53426527257508,6.47544875391759e-05,0.0897949114441871,0,0,0
12713,429378.8479997536,2010-09-26 15:04:35,5492.822054758224,2,38,0.5501165986061096,4.147364139556885,37.82535093693605,37.0293416491987,150.6360249368389,135.53426527257508,9.71794142969884e-05,0.0897949114441871,0,0,0
12714,429408.8635478043,2010-09-26 15:05:05,5522.837602778859,2,38,0.5501165986061096,4.150763511657715,37.82993774757229,37.0293416491987,150.65505563077627,135.53426527257508,0.0001295089750783,0.0897949114441871,0,0,0
12715,429438.8788528083,2010-09-26 15:05:35,5552.852907782889,2,38,0.5501165986061096,4.154325008392334,37.834524516706,37.0293416491987,150.6741020913111,135.53426527257508,9.70840483205393e-05,0.0897949114441871,0,0,0
12716,429468.8942756916,2010-09-26 15:06:05,5582.868330776438,2,38,0.5501165986061096,4.157724857330322,37.83911133179952,37.0293416491987,150.6931647966698,135.53426527257508,9.71794142969884e-05,0.0897949114441871,0,0,0
12717,429498.9097024796,2010-09-26 15:06:35,5612.883757454184,2,38,0.5501165986061096,4.161124229431152,37.84369813353186,37.0293416491987,150.71224365865942,135.53426527257508,6.47544875391759e-05,0.0897949114441871,0,0,0
12718,429528.9251024907,2010-09-26 15:07:05,5642.8991574653655,2,38,0.5499359965324402,4.164685726165772,37.848284973213445,37.0293416491987,150.7313389688948,135.53426527257508,6.47544875391759e-05,0.0897949114441871,0,0,0
12719,429558.9405646722,2010-09-26 15:07:35,5672.914619651746,2,38,0.550297200679779,4.1685709953308105,37.85287176012109,37.0293416491987,150.75045050709997,135.53426527257508,9.70840483205393e-05,0.0897949114441871,0,0,0
12720,429588.9559704026,2010-09-26 15:08:05,5702.930025392228,2,38,0.550297200679779,4.17213249206543,37.85745861680839,37.0293416491987,150.7695789167593,135.53426527257508,0.0001295089750783,0.0897949114441871,0,0,0
12721,429618.9713802984,2010-09-26 15:08:35,5732.945435273046,2,38,0.5501165986061096,4.175693988800049,37.86204548230848,37.0293416491987,150.78872397919088,135.53426527257508,0.0001295089750783,0.0897949114441871,0,0,0
12722,429648.98678458034,2010-09-26 15:09:05,5762.960839559902,2,38,0.5501165986061096,4.179255485534668,37.86663230155072,37.0293416491987,150.80788568731944,135.53426527257508,6.47544875391759e-05,0.0897949114441871,0,0,0
12723,429679.0022179648,2010-09-26 15:09:35,5792.976273034614,2,38,0.550297200679779,4.183140754699707,37.871219078971,37.0293416491987,150.82706409615926,135.53426527257508,9.70840483205393e-05,0.0897949114441871,0,0,0
12724,429709.0176513442,2010-09-26 15:10:05,5822.991706328875,2,38,0.5501165986061096,4.186864376068115,37.87580588379865,37.0293416491987,150.84625968598732,135.53426527257508,9.71794142969884e-05,0.0897949114441871,0,0,0
12725,429739.0330465034,2010-09-26 15:10:35,5853.0071014779205,2,38,0.5501165986061096,4.190587520599365,37.88039270350647,37.0293416491987,150.8654725967909,135.53426527257508,9.70840483205393e-05,0.0897949114441871,0,0,0
12726,429769.0484607851,2010-09-26 15:11:05,5883.022515789799,2,38,0.5501165986061096,4.194472789764404,37.88497945939263,37.0293416491987,150.88470259991522,135.53426527257508,0.0001295089750783,0.0897949114441871,0,0,0
12727,429799.0640607354,2010-09-26 15:11:35,5913.038115735047,2,38,0.550297200679779,4.198195934295654,37.88956631472405,37.0293416491987,150.90395040319285,135.53426527257508,9.70840483205393e-05,0.0897949114441871,0,0,0
12728,429812.64202692296,2010-09-26 15:11:49,5926.616081897506,2,38,0.550297200679779,4.200138568878174,37.891641230365565,37.0293416491987,150.9126631508324,135.53426527257508,0.0001618385285837,0.0897949114441871,0,0,0
12729,429842.6619191709,2010-09-26 15:12:19,30.01538821674102,3,38,0.0,4.1234049797058105,37.891641230365565,37.0293416491987,150.9126631508324,135.53426527257508,-0.0003561019839253,0.0897949114441871,0,0,0
12730,429872.6774677378,2010-09-26 15:12:49,60.03093679376597,3,38,0.0,4.114015579223633,37.891641230365565,37.0293416491987,150.9126631508324,135.53426527257508,-0.0001942634553415,0.0897949114441871,0,0,0
12731,429902.69271430105,2010-09-26 15:13:19,90.04618335691784,3,38,0.0,4.108511447906494,37.891641230365565,37.0293416491987,150.9126631508324,135.53426527257508,-0.0001619339018361,0.0897949114441871,0,0,0
12732,429932.66128804674,2010-09-26 15:13:49,120.01475708749918,3,38,0.0,4.105273723602295,37.891641230365565,37.0293416491987,150.9126631508324,135.53426527257508,-0.0001295089750783,0.0897949114441871,0,0,0
12733,429932.666763445,2010-09-26 15:13:49,2.561393633e-06,4,38,0.990261435508728,4.199653148651123,37.891641231070125,37.0293416491987,150.91266315379136,135.53426527257508,0.0,0.0897949114441871,0,0,0
12734,429933.55741468753,2010-09-26 15:13:50,0.890653854043362,4,38,0.9396908283233644,4.199653148651123,37.89187843249443,37.0293416491987,150.91365930332825,135.53426527257508,0.0,0.0897949114441871,0,0,0
12735,429935.6046912448,2010-09-26 15:13:52,2.937930406283377,4,38,0.8891202211380005,4.199653148651123,37.8923972378853,37.0293416491987,150.91583806946088,135.53426527257508,0.0,0.0897949114441871,0,0,0
12736,429938.6666936037,2010-09-26 15:13:55,5.999932775273663,4,38,0.8390914797782898,4.199653148651123,37.89313103074438,37.0293416491987,150.91891968552926,135.53426527257508,0.0,0.0897949114441871,0,0,0
12737,429942.8697963248,2010-09-26 15:13:59,10.203035491284012,4,38,0.7890626788139343,4.199653148651123,37.89408036521529,37.0293416491987,150.92290651534597,135.53426527257508,0.0,0.0897949114441871,0,0,0
12738,429948.3384906021,2010-09-26 15:14:05,15.671729743475058,4,38,0.7390339374542236,4.199653148651123,37.8952395370542,37.0293416491987,150.92777458828627,135.53426527257508,0.0,0.0897949114441871,0,0,0
12739,429955.4321928142,2010-09-26 15:14:12,22.76543195553516,4,38,0.6888245344161987,4.199653148651123,37.89664426731865,37.0293416491987,150.93367390813555,135.53426527257508,0.0,0.0897949114441871,0,0,0
12740,429964.854009092,2010-09-26 15:14:21,32.18724824350012,4,38,0.638795793056488,4.199653148651123,37.89837849508914,37.0293416491987,150.9409570087619,135.53426527257508,0.0,0.0897949114441871,0,0,0
12741,429977.7757965114,2010-09-26 15:14:34,45.10903568291621,4,38,0.5887669920921326,4.199491024017334,37.90057683487595,37.0293416491987,150.95018921481164,135.53426527257508,-3.24249267578125e-05,0.0897949114441871,0,0,0
12742,429996.9788135312,2010-09-26 15:14:54,64.31205268767039,4,38,0.5387382507324219,4.199491024017334,37.903575815869225,37.0293416491987,150.9627838126578,135.53426527257508,-3.24249267578125e-05,0.0897949114441871,0,0,0
12743,430028.3691264616,2010-09-26 15:15:25,95.70236563306098,4,38,0.4887094497680664,4.199491024017334,37.90803833925387,37.0293416491987,150.98152471405254,135.53426527257508,0.0,0.0897949114441871,0,0,0
12744,430081.9938577057,2010-09-26 15:16:19,149.32709697244275,4,38,0.4386806786060333,4.199653148651123,37.91491564439244,37.0293416491987,151.01040680953267,135.53426527257508,0.0,0.0897949114441871,0,0,0
12745,430163.6339193947,2010-09-26 15:17:40,230.96715856117768,4,38,0.3886519074440002,4.199491024017334,37.92427092770307,37.0293416491987,151.04969541369456,135.53426527257508,3.23295607813634e-05,0.0897949114441871,0,0,0
12746,430269.32069009374,2010-09-26 15:19:26,336.6539292453085,4,38,0.3386231362819671,4.199491024017334,37.93493179811098,37.0293416491987,151.0944671302731,135.53426527257508,-3.24249267578125e-05,0.0897949114441871,0,0,0
12747,430396.17919729446,2010-09-26 15:21:33,463.5124364359498,4,38,0.2885943949222564,4.199653148651123,37.945970433068446,37.0293416491987,151.14082530341787,135.53426527257508,0.0,0.0897949114441871,0,0,0
12748,430551.2562270187,2010-09-26 15:24:08,618.5894661751835,4,38,0.2385656088590622,4.199653148651123,37.9572989652745,37.0293416491987,151.18840087637383,135.53426527257508,3.24249267578125e-05,0.0897949114441871,0,0,0
12749,430743.9269064161,2010-09-26 15:27:21,811.2601455675899,4,38,0.1885368376970291,4.199653148651123,37.96868199263754,37.0293416491987,151.23620532905684,135.53426527257508,-3.23295607813634e-05,0.0897949114441871,0,0,0
12750,431002.3937638213,2010-09-26 15:31:39,1069.7270029627805,4,38,0.138508066534996,4.199491024017334,37.980340548630295,37.0293416491987,151.2851669269155,135.53426527257508,-3.24249267578125e-05,0.0897949114441871,0,0,0
12751,431397.3285686233,2010-09-26 15:38:14,1464.6618077647668,4,38,0.0882986932992935,4.199491024017334,37.99259228319367,37.0293416491987,151.33661964659547,135.53426527257508,-3.24249267578125e-05,0.0897949114441871,0,0,0
12752,431940.4342298434,2010-09-26 15:47:17,2007.767468984889,4,38,0.0498289167881011,4.199653148651123,38.00277253268028,37.0293416491987,151.37937289924298,135.53426527257508,0.0,0.0897949114441871,0,0,0
12753,431970.4533632428,2010-09-26 15:47:47,30.015542231184764,5,38,0.0,4.192530155181885,38.00277253268028,37.0293416491987,151.37937289924298,135.53426527257508,-3.24249267578125e-05,0.0897949114441871,0,0,0
12754,432000.4531722665,2010-09-26 15:48:17,60.0153512548631,5,38,0.0,4.191397190093994,38.00277253268028,37.0293416491987,151.37937289924298,135.53426527257508,-3.23295607813634e-05,0.0897949114441871,0,0,0
12755,432000.6288419621,2010-09-26 15:48:18,0.18743250035666,6,38,-1.9243103452026844e-05,4.191397190093994,38.00277253268028,37.029341650200585,151.37937289924298,135.5342652767744,0.0,0.0889859497547149,0,0,0
12756,432005.457088348,2010-09-26 15:48:22,5.015678896167742,6,38,0.0005225847125984,4.191397190093994,38.0027733359071,37.02934165028537,151.37937626597184,135.53426527712975,-3.23295607813634e-05,0.0889859497547149,0,0,0
12757,432035.4763634436,2010-09-26 15:48:52,30.015401570072992,7,38,-1.099929690361023,4.032749176025391,38.0027733359071,37.038511807407545,151.37937626597184,135.57142665619034,-0.000841712928377,0.0889859497547149,0,0,0
12758,432065.4919066322,2010-09-26 15:49:22,60.03094474862253,7,38,-1.099929690361023,4.009113788604736,38.0027733359071,37.0476819581847,151.37937626597184,135.6082919482142,-0.0004856109735555,0.0889859497547149,0,0,0
12759,432095.5072289996,2010-09-26 15:49:52,90.04626714606844,7,38,-1.0997490882873535,3.99308705329895,38.0027733359071,37.056851979357845,151.37937626597184,135.64497816196786,-0.0003561019839253,0.0889859497547149,0,0,0
12760,432125.5226402588,2010-09-26 15:50:22,120.06167837525209,7,38,-1.099929690361023,3.979974269866944,38.0027733359071,37.066022057566094,151.37937626597184,135.6815330660811,-0.0003561496851034,0.0889859497547149,0,0,0
12761,432155.5381663497,2010-09-26 15:50:52,150.07720456639842,7,38,-1.099929690361023,3.969127893447876,38.0027733359071,37.0751920634916,151.37937626597184,135.71797862462262,-0.0002266406954731,0.0889859497547149,0,0,0
12762,432185.55345590017,2010-09-26 15:51:23,180.09249402161552,7,38,-1.099929690361023,3.9590909481048575,38.0027733359071,37.08436194693618,151.37937626597184,135.75432785799055,-0.0002266406954731,0.0889859497547149,0,0,0
12763,432215.56889147015,2010-09-26 15:51:53,210.10792958654488,7,38,-1.099929690361023,3.9497015476226807,38.0027733359071,37.09353190496906,151.37937626597184,135.7905890560732,-0.0002590179501567,0.0889859497547149,0,0,0
12764,432245.584295371,2010-09-26 15:52:23,240.12333348743596,7,38,-1.1001102924346924,3.940797805786133,38.0027733359071,37.102701846103535,151.37937626597184,135.82676671861068,-0.0002266406954731,0.0889859497547149,0,0,0
12765,432275.5997284799,2010-09-26 15:52:53,270.13876659623446,7,38,-1.0997490882873535,3.932379722595215,38.0027733359071,37.11187181689422,151.37937626597184,135.86286426269098,-0.0002266406954731,0.0889859497547149,0,0,0
12766,432305.6151519846,2010-09-26 15:53:23,300.15419010105995,7,38,-1.099929690361023,3.923799753189087,38.0027733359071,37.12104174685022,151.37937626597184,135.89888386164753,-0.0002266406954731,0.0889859497547149,0,0,0
12767,432335.6305527678,2010-09-26 15:53:53,330.1695909092311,7,38,-1.099929690361023,3.915543556213379,38.0027733359071,37.130212067551874,151.37937626597184,135.93482870940332,-0.0002266406954731,0.0889859497547149,0,0,0
12768,432365.6459907337,2010-09-26 15:54:23,360.18502896537893,7,38,-1.099929690361023,3.90744948387146,38.0027733359071,37.13938291223413,151.37937626597184,135.9707008819987,-0.0002590179501567,0.0889859497547149,0,0,0
12769,432395.661224169,2010-09-26 15:54:53,390.2002622854741,7,38,-1.099929690361023,3.899678945541382,38.0027733359071,37.14855350656689,151.37937626597184,136.00649886335268,-0.0001942634553415,0.0889859497547149,0,0,0
12770,432425.6766390323,2010-09-26 15:55:23,420.2156771537415,7,38,-1.0997490882873535,3.891908407211304,38.0027733359071,37.15772425833407,151.37937626597184,136.0422254056312,-0.0001942634553415,0.0889859497547149,0,0,0
12771,432455.6927517376,2010-09-26 15:55:53,450.2317898639296,7,38,-1.099929690361023,3.8841378688812256,38.0027733359071,37.1668952977563,151.37937626597184,136.07788204365832,-0.0001618862152099,0.0889859497547149,0,0,0
12772,432485.7074894104,2010-09-26 15:56:23,480.24652753180055,7,38,-1.099929690361023,3.876529216766357,38.0027733359071,37.17606592249982,151.37937626597184,136.11346674364069,-0.0002266406954731,0.0889859497547149,0,0,0
12773,432515.72294612805,2010-09-26 15:56:53,510.2619842545431,7,38,-1.099929690361023,3.868920564651489,38.0027733359071,37.18523678970173,151.37937626597184,136.14898281556245,-0.0001942634553415,0.0889859497547149,0,0,0
12774,432545.7384484848,2010-09-26 15:57:23,540.277486611195,7,38,-1.099929690361023,3.861473798751831,38.0027733359071,37.19440771275031,151.37937626597184,136.18443059929498,-0.0002266406954731,0.0889859497547149,0,0,0
12775,432575.7537564762,2010-09-26 15:57:53,570.2927945976688,7,38,-1.099929690361023,3.854188919067383,38.0027733359071,37.20357855150914,151.37937626597184,136.21981055968934,-0.0002266406954731,0.0889859497547149,0,0,0
12776,432605.7691617706,2010-09-26 15:58:23,600.3081998970507,7,38,-1.1001102924346924,3.846904039382935,38.0027733359071,37.21274943999032,151.37937626597184,136.2551238411999,-0.0002266406954731,0.0889859497547149,0,0,0
12777,432635.7845844734,2010-09-26 15:58:53,630.3236225898493,7,38,-1.099929690361023,3.839942932128906,38.0027733359071,37.22192026141456,151.37937626597184,136.29037113559244,-0.0001618862152099,0.0889859497547149,0,0,0
12778,432665.79999798327,2010-09-26 15:59:23,660.3390361047384,7,38,-1.099929690361023,3.832820177078247,38.0027733359071,37.23109110400512,151.37937626597184,136.3255538291546,-0.0002265930233988,0.0889859497547149,0,0,0
12779,432695.8154260244,2010-09-26 15:59:53,690.3544641408747,7,38,-1.099929690361023,3.8260209560394287,38.0027733359071,37.24026194951912,151.37937626597184,136.36067326638616,-0.0001942634553415,0.0889859497547149,0,0,0
12780,432725.83085585,2010-09-26 16:00:23,720.369893996553,7,38,-1.1001102924346924,3.8192217350006095,38.0027733359071,37.24943278182934,151.37937626597184,136.39573040528887,-0.0001942634553415,0.0889859497547149,0,0,0
12781,432755.846256964,2010-09-26 16:00:53,750.3852950854248,7,38,-1.099929690361023,3.812746286392212,38.0027733359071,37.25860363312346,151.37937626597184,136.43072623070506,-0.0001618862152099,0.0889859497547149,0,0,0
12782,432785.86179840827,2010-09-26 16:01:23,780.4008365246326,7,38,-1.1001102924346924,3.8059470653533936,38.0027733359071,37.26777446524196,151.37937626597184,136.46566075241972,-0.0001942634553415,0.0889859497547149,0,0,0
12783,432815.87710262026,2010-09-26 16:01:53,810.4161407366851,7,38,-1.099929690361023,3.799633502960205,38.0027733359071,37.27694528110614,151.37937626597184,136.50053590710567,-0.0001618862152099,0.0889859497547149,0,0,0
12784,432845.8925145111,2010-09-26 16:02:23,840.4315526375452,7,38,-1.099929690361023,3.7934818267822266,38.0027733359071,37.286116170716895,151.37937626597184,136.5353531074586,-0.0001295089750783,0.0889859497547149,0,0,0
12785,432875.9079455497,2010-09-26 16:02:53,870.4469836661513,7,38,-1.099929690361023,3.787006378173828,38.0027733359071,37.295287003366006,151.37937626597184,136.5701130484893,-0.0002266406954731,0.0889859497547149,0,0,0
12786,432905.9233797863,2010-09-26 16:03:23,900.4624179127899,7,38,-1.099929690361023,3.7811784744262695,38.0027733359071,37.30445791272493,151.37937626597184,136.60481752521113,-0.0001618862152099,0.0889859497547149,0,0,0
12787,432935.9390049495,2010-09-26 16:03:53,930.478043096036,7,38,-1.099929690361023,3.775188684463501,38.0027733359071,37.31362888897574,151.37937626597184,136.6394677381342,-0.0001942634553415,0.0889859497547149,0,0,0
12788,432965.95419922215,2010-09-26 16:04:23,960.4932373436,7,38,-1.099929690361023,3.7696845531463614,38.0027733359071,37.32279971945093,151.37937626597184,136.67406405213768,-9.713172767078504e-05,0.0889859497547149,0,0,0
12789,432995.96961854654,2010-09-26 16:04:53,990.508656662978,7,38,-1.099929690361023,3.763856649398804,38.0027733359071,37.33197063723096,151.37937626597184,136.70860804611942,-0.0001295089750783,0.0889859497547149,0,0,0
12790,433025.9850467832,2010-09-26 16:05:23,1020.5240849948524,7,38,-1.099929690361023,3.758190631866455,38.0027733359071,37.341141460893525,151.37937626597184,136.7431000537777,-0.0001618862152099,0.0889859497547149,0,0,0
12791,433056.00046913006,2010-09-26 16:05:53,1050.53950724655,7,38,-1.099929690361023,3.753010272979736,38.0027733359071,37.350312373516445,151.37937626597184,136.77754175780353,-9.713172767078504e-05,0.0889859497547149,0,0,0
12792,433086.01588910114,2010-09-26 16:06:23,1080.5549272225671,7,38,-1.099929690361023,3.7475063800811768,38.0027733359071,37.359483289460826,151.37937626597184,136.81193377418805,-0.0001295089750783,0.0889859497547149,0,0,0
12793,433116.0313088717,2010-09-26 16:06:53,1110.5703469880586,7,38,-1.099929690361023,3.742164134979248,38.0027733359071,37.36865421861984,151.37937626597184,136.84627689357634,-0.0001295089750783,0.0889859497547149,0,0,0
12794,433146.046738597,2010-09-26 16:07:23,1140.5857767134116,7,38,-1.1001102924346924,3.736983776092529,38.0027733359071,37.37782513853338,151.37937626597184,136.88057207847163,-0.0001295089750783,0.0889859497547149,0,0,0
12795,433176.0622780663,2010-09-26 16:07:53,1170.6013162127772,7,38,-1.0997490882873535,3.731965303421021,38.0027733359071,37.38699611721894,151.37937626597184,136.91482022976777,-9.713172767078504e-05,0.0889859497547149,0,0,0
12796,433206.07755708543,2010-09-26 16:08:23,1200.6165952018694,7,38,-1.099929690361023,3.726946830749512,38.0027733359071,37.396166917358656,151.37937626597184,136.9490213892286,-0.0001295089750783,0.0889859497547149,0,0,0
12797,433236.0930243144,2010-09-26 16:08:53,1230.6320625260746,7,38,-1.099929690361023,3.721928358078003,38.0027733359071,37.40533784740242,151.37937626597184,136.98317772828327,-0.0001295089750783,0.0889859497547149,0,0,0
12798,433266.1087932064,2010-09-26 16:09:23,1260.647831342852,7,38,-1.099929690361023,3.717071771621704,38.0027733359071,37.4145087884736,151.37937626597184,137.01728911109336,-0.0001295089750783,0.0889859497547149,0,0,0
12799,433296.123840808,2010-09-26 16:09:53,1290.6628789243148,7,38,-1.099929690361023,3.712215185165405,38.0027733359071,37.42367957754379,151.37937626597184,137.05135566802554,-0.0001618862152099,0.0889859497547149,0,0,0
12800,433326.13925790176,2010-09-26 16:10:23,1320.6782960181376,7,38,-1.099929690361023,3.7076823711395264,38.0027733359071,37.43285046143417,151.37937626597184,137.08537880377983,-9.713172767078504e-05,0.0889859497547149,0,0,0
12801,433356.15468673984,2010-09-26 16:10:53,1350.6937248663007,7,38,-1.099929690361023,3.702825784683228,38.0027733359071,37.44202133101701,151.37937626597184,137.11935893478554,-0.0001618862152099,0.0889859497547149,0,0,0
12802,433386.1700797686,2010-09-26 16:11:23,1380.7091178950534,7,38,-1.099929690361023,3.6981310844421382,38.0027733359071,37.45119223713722,151.37937626597184,137.1532965537788,-0.0001295089750783,0.0889859497547149,0,0,0
12803,433416.1855228723,2010-09-26 16:11:53,1410.724560988776,7,38,-1.099929690361023,3.6937601566314697,38.0027733359071,37.46036321457843,151.37937626597184,137.1871925902078,-0.0001295089750783,0.0889859497547149,0,0,0
12804,433446.2009222369,2010-09-26 16:12:23,1440.7399603683812,7,38,-1.099929690361023,3.689389228820801,38.0027733359071,37.46953412569411,151.37937626597184,137.22104717203104,-9.713172767078504e-05,0.0889859497547149,0,0,0
12805,433476.2163498621,2010-09-26 16:12:53,1470.755387978454,7,38,-1.099929690361023,3.684856414794922,38.0027733359071,37.47870504600858,151.37937626597184,137.2548611771457,-0.0001618862152099,0.0889859497547149,0,0,0
12806,433506.2319021183,2010-09-26 16:13:23,1500.7709402396752,7,38,-1.099929690361023,3.680485486984253,38.0027733359071,37.487876010907854,151.37937626597184,137.28863572344574,-0.0001295089750783,0.0889859497547149,0,0,0
12807,433536.2471988266,2010-09-26 16:13:53,1530.7862369530096,7,38,-1.0997490882873535,3.676438331604004,38.0027733359071,37.49704687003409,151.37937626597184,137.32237041257653,-9.713172767078504e-05,0.0889859497547149,0,0,0
12808,433566.2626232537,2010-09-26 16:14:23,1560.8016613751247,7,38,-1.1001102924346924,3.672067642211914,38.0027733359071,37.506217783540016,151.37937626597184,137.35606665182326,-0.0001294612884521,0.0889859497547149,0,0,0
12809,433596.2780290994,2010-09-26 16:14:53,1590.817067215858,7,38,-1.0997490882873535,3.668020486831665,38.0027733359071,37.51538870975772,151.37937626597184,137.3897248447478,-0.0001295089750783,0.0889859497547149,0,0,0
12810,433626.2934469652,2010-09-26 16:15:23,1620.8324850916324,7,38,-1.099929690361023,3.664135217666626,38.0027733359071,37.52455961225177,151.37937626597184,137.423345532928,-9.713172767078504e-05,0.0889859497547149,0,0,0
12811,433656.3088813672,2010-09-26 16:15:53,1650.847919483634,7,38,-1.099929690361023,3.659926176071167,38.0027733359071,37.53373056473895,151.37937626597184,137.45692983318318,-0.0001295089750783,0.0889859497547149,0,0,0
12812,433686.30951844784,2010-09-26 16:16:23,1680.8485565793076,7,38,-1.099929690361023,3.656202793121338,38.0027733359071,37.542897009290094,151.37937626597184,137.49046169727737,-6.47544875391759e-05,0.0889859497547149,0,0,0
12813,433716.3242548375,2010-09-26 16:16:53,1710.8632929639757,7,38,-1.099929690361023,3.652479410171509,38.0027733359071,37.55206780457141,151.37937626597184,137.52397430180528,-6.47544875391759e-05,0.0889859497547149,0,0,0
12814,433746.3394695713,2010-09-26 16:17:23,1740.8785077177265,7,38,-1.099568486213684,3.64875602722168,38.0027733359071,37.56123859697701,151.37937626597184,137.55745219962128,-3.237724376958795e-05,0.0889859497547149,0,0,0
12815,433776.3550350705,2010-09-26 16:17:53,1770.8940731869166,7,38,-1.0997490882873535,3.6450326442718506,38.0027733359071,37.57040877490415,151.37937626597184,137.5908937848879,-6.47544875391759e-05,0.0889859497547149,0,0,0
12816,433806.3703095683,2010-09-26 16:18:23,1800.9093476998355,7,38,-1.099929690361023,3.641471147537232,38.0027733359071,37.5795789256479,151.37937626597184,137.62430217166497,-6.47544875391759e-05,0.0889859497547149,0,0,0
12817,433836.385745419,2010-09-26 16:18:53,1830.924783530428,7,38,-1.099929690361023,3.637909650802612,38.0027733359071,37.58874907840826,151.37937626597184,137.65767831611834,-9.713172767078504e-05,0.0889859497547149,0,0,0
12818,433866.4011655453,2010-09-26 16:19:23,1860.9402036618328,7,38,-1.099929690361023,3.634510040283203,38.0027733359071,37.59791917531677,151.37937626597184,137.6910229538183,-0.0001295089750783,0.0889859497547149,0,0,0
12819,433896.4165828448,2010-09-26 16:19:53,1890.9556209611685,7,38,-1.0997490882873535,3.631272315979004,38.0027733359071,37.60708929313585,151.37937626597184,137.7243369375882,-9.713172767078504e-05,0.0889859497547149,0,0,0
12820,433926.4322293112,2010-09-26 16:20:23,1920.9712674275404,7,38,-1.099929690361023,3.6280345916748047,38.0027733359071,37.61625948865948,151.37937626597184,137.7576211141677,-6.47544875391759e-05,0.0889859497547149,0,0,0
12821,433956.4474386714,2010-09-26 16:20:53,1950.986476787828,7,38,-1.099929690361023,3.624958753585816,38.0027733359071,37.62543014353185,151.37937626597184,137.79087781384064,-6.47544875391759e-05,0.0889859497547149,0,0,0
12822,433986.46285180526,2010-09-26 16:21:23,1981.0018899217664,7,38,-1.099929690361023,3.621882915496826,38.0027733359071,37.63460098311393,151.37937626597184,137.82410678649066,-6.47544875391759e-05,0.0889859497547149,0,0,0
12823,434016.47826890415,2010-09-26 16:21:53,2011.0173070206013,7,38,-1.099929690361023,3.618807077407837,38.0027733359071,37.64377178736955,151.37937626597184,137.85730753732125,-9.713172767078504e-05,0.0889859497547149,0,0,0
12824,434046.4937047247,2010-09-26 16:22:23,2041.032742841169,7,38,-1.1001102924346924,3.615731239318848,38.0027733359071,37.65294259733205,151.37937626597184,137.89048081773882,-0.0001295089750783,0.0889859497547149,0,0,0
12825,434076.5091268712,2010-09-26 16:22:53,2071.048164987604,7,38,-1.099929690361023,3.613141059875488,38.0027733359071,37.66211337993916,151.37937626597184,137.92362701499,-3.237724376958795e-05,0.0889859497547149,0,0,0
12826,434106.5245370577,2010-09-26 16:23:23,2101.063575174185,7,38,-1.099929690361023,3.609903335571289,38.0027733359071,37.67128414951826,151.37937626597184,137.95674661589086,-9.713172767078504e-05,0.0889859497547149,0,0,0
12827,434136.5400958102,2010-09-26 16:23:54,2131.079134021847,7,38,-1.1001102924346924,3.60715126991272,38.0027733359071,37.68045494292462,151.37937626597184,137.98984022901564,-6.47544875391759e-05,0.0889859497547149,0,0,0
12828,434166.55551111954,2010-09-26 16:24:24,2161.0945492460023,7,38,-1.0997490882873535,3.60456109046936,38.0027733359071,37.68962562634036,151.37937626597184,138.0229073884604,-3.237724376958795e-05,0.0889859497547149,0,0,0
12829,434196.5707908104,2010-09-26 16:24:54,2191.109828926821,7,38,-1.1001102924346924,3.601485252380371,38.0027733359071,37.69879627720078,151.37937626597184,138.0559489064311,-6.47544875391759e-05,0.0889859497547149,0,0,0
12830,434226.58635643503,2010-09-26 16:25:24,2221.1253945614244,7,38,-1.099929690361023,3.598895072937012,38.0027733359071,37.70796703979588,151.37937626597184,138.08896526129183,-3.237724376958795e-05,0.0889859497547149,0,0,0
12831,434256.6016267674,2010-09-26 16:25:54,2251.140664888896,7,38,-1.1001102924346924,3.5959811210632324,38.0027733359071,37.71713775062178,151.37937626597184,138.12195588133184,-9.713172767078504e-05,0.0889859497547149,0,0,0
12832,434286.6172334295,2010-09-26 16:26:24,2281.1562715559226,7,38,-1.0997490882873535,3.593229055404663,38.0027733359071,37.72630852285746,151.37937626597184,138.15492112400094,-9.713172767078504e-05,0.0889859497547149,0,0,0
12833,434316.63246931095,2010-09-26 16:26:54,2311.1715074323984,7,38,-1.099929690361023,3.590477228164673,38.0027733359071,37.73547926469522,151.37937626597184,138.1878605461634,-9.713172767078504e-05,0.0889859497547149,0,0,0
12834,434346.64804231393,2010-09-26 16:27:24,2341.187080440407,7,38,-1.0997490882873535,3.5875632762908936,38.0027733359071,37.74465012428304,151.37937626597184,138.22077446782487,-6.47544875391759e-05,0.0889859497547149,0,0,0
12835,434376.6633093532,2010-09-26 16:27:54,2371.2023474696457,7,38,-1.099929690361023,3.5846493244171143,38.0027733359071,37.75382084193624,151.37937626597184,138.25366178033568,-6.47544875391759e-05,0.0889859497547149,0,0,0
12836,434406.6787482566,2010-09-26 16:28:24,2401.217786372908,7,38,-1.1001102924346924,3.581735372543335,38.0027733359071,37.76299159238822,151.37937626597184,138.28652263674806,-6.47544875391759e-05,0.0889859497547149,0,0,0
12837,434436.6941597413,2010-09-26 16:28:54,2431.233197857729,7,38,-1.0997490882873535,3.578821420669556,38.0027733359071,37.7721623271365,151.37937626597184,138.3193565806779,-3.237724376958795e-05,0.0889859497547149,0,0,0
12838,434466.7096674012,2010-09-26 16:29:24,2461.248705507594,7,38,-1.099929690361023,3.5757455825805664,38.0027733359071,37.78133324432164,151.37937626597184,138.35216347797493,-9.713172767078504e-05,0.0889859497547149,0,0,0
12839,434496.7251192366,2010-09-26 16:29:54,2491.2641573531623,7,38,-1.099929690361023,3.572669744491577,38.0027733359071,37.790504039836925,151.37937626597184,138.38494199091542,-6.47544875391759e-05,0.0889859497547149,0,0,0
12840,434526.7404298347,2010-09-26 16:30:24,2521.279467951155,7,38,-1.0997490882873535,3.569593906402588,38.0027733359071,37.79967482091314,151.37937626597184,138.41769178222572,-6.47544875391759e-05,0.0889859497547149,0,0,0
12841,434556.755853916,2010-09-26 16:30:54,2551.2948920424446,7,38,-1.099929690361023,3.5663561820983887,38.0027733359071,37.80884553990904,151.37937626597184,138.4504117772371,-6.47544875391759e-05,0.0889859497547149,0,0,0
12842,434586.77126882935,2010-09-26 16:31:24,2581.3103069457998,7,38,-1.0997490882873535,3.563118457794189,38.0027733359071,37.81801631369195,151.37937626597184,138.48310133128157,-6.47544875391759e-05,0.0889859497547149,0,0,0
12843,434616.7867058279,2010-09-26 16:31:54,2611.3257439443078,7,38,-1.099929690361023,3.5593950748443604,38.0027733359071,37.82718703136337,151.37937626597184,138.51575939606687,-9.713172767078504e-05,0.0889859497547149,0,0,0
12844,434646.8021089267,2010-09-26 16:32:24,2641.3411470482088,7,38,-1.099929690361023,3.5555098056793213,38.0027733359071,37.836357819040586,151.37937626597184,138.5483844419768,-0.0001295089750783,0.0889859497547149,0,0,0
12845,434676.8175267324,2010-09-26 16:32:54,2671.3565648588205,7,38,-1.099929690361023,3.551786422729492,38.0027733359071,37.84552853128043,151.37937626597184,138.580974498105,-9.713172767078504e-05,0.0889859497547149,0,0,0
12846,434706.8329444427,2010-09-26 16:33:24,2701.37198256417,7,38,-1.1001102924346924,3.547577381134033,38.0027733359071,37.8546993505953,151.37937626597184,138.6135286540261,-0.0001295089750783,0.0889859497547149,0,0,0
12847,434736.84848869394,2010-09-26 16:33:54,2731.3875268204097,7,38,-1.099929690361023,3.543530225753784,38.0027733359071,37.86387016827308,151.37937626597184,138.64604526644223,-0.0001295089750783,0.0889859497547149,0,0,0
12848,434766.8638075676,2010-09-26 16:34:24,2761.40284569406,7,38,-1.1001102924346924,3.539321184158325,38.0027733359071,37.87304093155219,151.37937626597184,138.67852269059023,-9.713172767078504e-05,0.0889859497547149,0,0,0
12849,434796.87933296175,2010-09-26 16:34:54,2791.4183710882166,7,38,-1.099929690361023,3.5347883701324463,38.0027733359071,37.8822117639265,151.37937626597184,138.71096023636056,-9.713172767078504e-05,0.0889859497547149,0,0,0
12850,434826.8946478605,2010-09-26 16:35:24,2821.433685976919,7,38,-1.099929690361023,3.5300936698913574,38.0027733359071,37.891382551305966,151.37937626597184,138.74335580107154,-0.0001618862152099,0.0889859497547149,0,0,0
12851,434856.9101761569,2010-09-26 16:35:54,2851.4492142783333,7,38,-1.1001102924346924,3.5252370834350586,38.0027733359071,37.90055343430444,151.37937626597184,138.7757077364615,-9.713172767078504e-05,0.0889859497547149,0,0,0
12852,434886.92566437327,2010-09-26 16:36:24,2881.464702489676,7,38,-1.099929690361023,3.51989483833313,38.0027733359071,37.90972420573187,151.37937626597184,138.80801245551623,-0.0001618862152099,0.0889859497547149,0,0,0
12853,434916.94101601874,2010-09-26 16:36:54,2911.4800541451546,7,38,-1.099929690361023,3.514228820800781,38.0027733359071,37.9188949931049,151.37937626597184,138.84026677789709,-0.0001295089750783,0.0889859497547149,0,0,0
12854,434946.9563105666,2010-09-26 16:37:24,2941.495348683058,7,38,-1.099929690361023,3.507915496826172,38.0027733359071,37.92806574214712,151.37937626597184,138.87246627059793,-0.0001942634553415,0.0889859497547149,0,0,0
12855,434976.97175736463,2010-09-26 16:37:54,2971.510795481028,7,38,-1.1001102924346924,3.500954389572144,38.0027733359071,37.93723649821382,151.37937626597184,138.90460559841398,-0.0002266406954731,0.0889859497547149,0,0,0
12856,435006.9871716464,2010-09-26 16:38:24,3001.526209762831,7,38,-1.099929690361023,3.493183851242065,38.0027733359071,37.94640729618848,151.37937626597184,138.9366777021131,-0.0002266406954731,0.0889859497547149,0,0,0
12857,435037.0025799382,2010-09-26 16:38:54,3031.5416180546827,7,38,-1.099929690361023,3.4844419956207275,38.0027733359071,37.9555780576135,151.37937626597184,138.96867372728482,-0.0002266406954731,0.0889859497547149,0,0,0
12858,435067.01803670113,2010-09-26 16:39:24,3061.5570748225377,7,38,-1.0997490882873535,3.4742431640625,38.0027733359071,37.96474882919061,151.37937626597184,139.0005816607095,-0.0002266406954731,0.0889859497547149,0,0,0
12859,435097.03341134393,2010-09-26 16:39:54,3091.572449460384,7,38,-1.1001102924346924,3.461616039276123,38.0027733359071,37.973919580834966,151.37937626597184,139.03238580357058,-0.0003237724304199,0.0889859497547149,0,0,0
12860,435127.0489766327,2010-09-26 16:40:24,3121.588014754136,7,38,-1.099929690361023,3.446074962615967,38.0027733359071,37.98309038989908,151.37937626597184,139.06406270963484,-0.0004532813909463,0.0889859497547149,0,0,0
12861,435157.0642523586,2010-09-26 16:40:54,3151.603290485096,7,38,-1.099929690361023,3.425191879272461,38.0027733359071,37.99226114943082,151.37937626597184,139.0955743439077,-0.0006151676061563,0.0889859497547149,0,0,0
12862,435187.0798276874,2010-09-26 16:41:24,3181.6188658088845,7,38,-1.099929690361023,3.396214246749878,38.0027733359071,38.00143200356117,151.37937626597184,139.12686076166543,-0.0009065627818927,0.0889859497547149,0,0,0
12863,435217.0954847152,2010-09-26 16:41:54,3211.6345228516566,7,38,-1.0997490882873535,3.354285717010498,38.0027733359071,38.01060288953351,151.37937626597184,139.1578266280588,-0.0012950897216796,0.0889859497547149,0,0,0
12864,435247.110667434,2010-09-26 16:42:24,3241.649705555405,7,38,-1.099929690361023,3.2939023971557617,38.0027733359071,38.01977354912085,151.37937626597184,139.18832825616232,-0.0019102573860436,0.0889859497547149,0,0,0
12865,435277.12596214726,2010-09-26 16:42:54,3271.6650002637352,7,38,-1.099929690361023,3.206807851791382,38.0027733359071,38.028944288117295,151.37937626597184,139.21816274824062,-0.0027520656585693,0.0889859497547149,0,0,0
12866,435307.14136540657,2010-09-26 16:43:24,3301.680403528037,7,38,-1.099929690361023,3.0690431594848637,38.0027733359071,38.03811504761389,151.37937626597184,139.24699630916217,-0.0046623228117823,0.0889859497547149,0,0,0
12867,435328.1256074682,2010-09-26 16:43:45,3322.6646455845557,7,38,-1.099929690361023,2.8689522743225098,38.0027733359071,38.04452649106024,151.37937626597184,139.2661358802583,-0.0111377714201807,0.0889859497547149,0,0,0
12868,435337.688046066,2010-09-26 16:43:55,3332.227084187453,7,38,-1.0997490882873535,2.699943780899048,38.0027733359071,38.04744813701869,151.37937626597184,139.27427776004387,-0.0146668432280421,0.0889859497547149,0,0,0
12869,435397.71458662034,2010-09-26 16:44:55,60.01522551599955,8,38,0.0,3.3081483840942383,38.0027733359071,38.04744813701869,151.37937626597184,139.27427776004387,0.0013922214275225,0.0889859497547149,0,0,0
12870,435397.89819700783,2010-09-26 16:44:55,0.187518484987527,9,38,0.0019674589857459,3.309119701385498,38.00277343838902,38.04744813701869,151.37937660509678,139.27427776004387,0.0,0.0867155864834785,0,0,0
12871,435402.7263868826,2010-09-26 16:45:00,5.015708359713284,9,38,0.0003419754502829,3.317214012145996,38.002773950196215,38.04744813726998,151.3793783009412,139.2742777608769,0.0012627125252038,0.0867155864834785,0,0,0
