Data_Point,Test_Time(s),Date_Time,Step_Time(s),Step_Index,Cycle_Index,Current(A),Voltage(V),Charge_Capacity(Ah),Discharge_Capacity(Ah),Charge_Energy(Wh),Discharge_Energy(Wh),dV/dt(V/s),Internal_Resistance(Ohm),Is_FC_Data,AC_Impedance(Ohm),ACI_Phase_Angle(Deg)
4685,158349.37938686658,2010-09-23 11:46:59,30.015292136910983,1,15,0.0,3.4308578968048096,13.845736459569132,13.861250419422264,55.19605900799086,50.61592432587111,0.0008094310760498,0.0891468673944473,0,0,0
4686,158379.39467953984,2010-09-23 11:47:29,60.03058481016075,1,15,0.0,3.4561119079589844,13.845736459569132,13.861250419422264,55.19605900799086,50.61592432587111,0.0005504131549969,0.0891468673944473,0,0,0
4687,158409.40992871448,2010-09-23 11:47:59,90.0458339948564,1,15,0.0,3.47505259513855,13.845736459569132,13.861250419422264,55.19605900799086,50.61592432587111,0.0004532813909463,0.0891468673944473,0,0,0
4688,158439.37842817468,2010-09-23 11:48:29,120.0143334500349,1,15,0.0,3.490108013153076,13.845736459569132,13.861250419422264,55.19605900799086,50.61592432587111,0.0003885269106831,0.0891468673944473,0,0,0
4689,158469.39617700205,2010-09-23 11:48:59,30.01528989631812,2,15,0.5499359965324402,3.630139112472534,13.850322689025717,13.861250419422264,55.21256658393643,50.61592432587111,0.0014245987404137,0.0891468673944473,0,0,0
4690,158499.41178346353,2010-09-23 11:49:29,60.03089628264398,2,15,0.5501165986061096,3.6707725524902335,13.854908973940192,13.861250419422264,55.2293146856314,50.61592432587111,0.0009065627818927,0.0891468673944473,0,0,0
4691,158529.4267207948,2010-09-23 11:49:59,90.045833618918,2,15,0.550297200679779,3.699911832809448,13.859495065140052,13.861250419422264,55.24621926748189,50.61592432587111,0.0006799221155233,0.0891468673944473,0,0,0
4692,158559.44201050565,2010-09-23 11:50:29,120.0611233047106,2,15,0.5499359965324402,3.7227377891540527,13.864081173737176,13.861250419422264,55.26324197342786,50.61592432587111,0.0005504131549969,0.0891468673944473,0,0,0
4693,158589.45729417642,2010-09-23 11:50:59,150.07640697548882,2,15,0.5499359965324402,3.740545272827149,13.86866736888131,13.861250419422264,55.280358084365794,50.61592432587111,0.0003885269106831,0.0891468673944473,0,0,0
4694,158619.47258867422,2010-09-23 11:51:29,180.09170159860577,2,15,0.5497553944587708,3.754467248916626,13.873253504535786,13.861250419422264,55.29754746586964,50.61592432587111,0.0002913951757363,0.0891468673944473,0,0,0
4695,158649.48784527744,2010-09-23 11:51:59,210.10695810658143,2,15,0.5499359965324402,3.763856649398804,13.877839626849616,13.861250419422264,55.314789922464456,50.61592432587111,0.0001618862152099,0.0891468673944473,0,0,0
4696,158679.50311460742,2010-09-23 11:52:29,240.1222274365628,2,15,0.5501165986061096,3.769522666931152,13.882425765611128,13.861250419422264,55.33206533381927,50.61592432587111,0.0001618862152099,0.0891468673944473,0,0,0
4697,158709.51836444877,2010-09-23 11:52:59,270.13747724782246,2,15,0.5499359965324402,3.773246049880981,13.887011785793517,13.861250419422264,55.349361238397535,50.61592432587111,6.47544875391759e-05,0.0891468673944473,0,0,0
4698,158739.53376630956,2010-09-23 11:53:29,300.1528791036086,2,15,0.5499359965324402,3.7769694328308105,13.891597825103528,13.861250419422264,55.36667407023943,50.61592432587111,9.713172767078504e-05,0.0891468673944473,0,0,0
4699,158769.54897419616,2010-09-23 11:53:59,330.1680870253055,2,15,0.5501165986061096,3.7802071571350098,13.89618395358003,13.861250419422264,55.38400301089846,50.61592432587111,6.47544875391759e-05,0.0891468673944473,0,0,0
4700,158799.56427375157,2010-09-23 11:54:29,360.1833866709594,2,15,0.5501165986061096,3.783606767654419,13.90077007446794,13.861250419422264,55.40134745042986,50.61592432587111,9.713172767078504e-05,0.0891468673944473,0,0,0
4701,158829.57966051972,2010-09-23 11:54:59,390.1987734390845,2,15,0.5499359965324402,3.787006378173828,13.90535623515933,13.861250419422264,55.41870749694176,50.61592432587111,0.0001295089750783,0.0891468673944473,0,0,0
4702,158859.59494678697,2010-09-23 11:55:29,420.2140596010812,2,15,0.5501165986061096,3.7902441024780273,13.90994236717443,13.861250419422264,55.43608268924306,50.61592432587111,6.47544875391759e-05,0.0891468673944473,0,0,0
4703,158889.61009240814,2010-09-23 11:55:59,450.2292052373039,2,15,0.5499359965324402,3.793643712997437,13.91452850584017,13.861250419422264,55.45347297218879,50.61592432587111,9.713172767078504e-05,0.0891468673944473,0,0,0
4704,158919.62538460523,2010-09-23 11:56:29,480.24449742935246,2,15,0.5501165986061096,3.796881437301636,13.919114681948932,13.861250419422264,55.47087832865428,50.61592432587111,0.0001295089750783,0.0891468673944473,0,0,0
4705,158949.64065174473,2010-09-23 11:56:59,510.2597645438035,2,15,0.5501165986061096,3.800281047821045,13.923700928434394,13.861250419422264,55.488298724623206,50.61592432587111,0.0001618862152099,0.0891468673944473,0,0,0
4706,158979.65592037296,2010-09-23 11:57:29,540.2750332021084,2,15,0.5501165986061096,3.803194999694824,13.92828705488137,13.861250419422264,55.50573320410237,50.61592432587111,9.713172767078504e-05,0.0891468673944473,0,0,0
4707,159009.67122430433,2010-09-23 11:57:59,570.2903372086478,2,15,0.5501165986061096,3.806432723999024,13.9328732821232,13.861250419422264,55.52318259683501,50.61592432587111,0.0001295089750783,0.0891468673944473,0,0,0
4708,159039.68839729612,2010-09-23 11:58:29,600.307510210487,2,15,0.5501165986061096,3.8093466758728023,13.937459772322654,13.861250419422264,55.54064735721683,50.61592432587111,6.47544875391759e-05,0.0891468673944473,0,0,0
4709,159069.7017898163,2010-09-23 11:58:59,630.3209027356748,2,15,0.5501165986061096,3.812746286392212,13.942045696904325,13.861250419422264,55.5581243513536,50.61592432587111,0.0001295089750783,0.0891468673944473,0,0,0
4710,159099.71716251932,2010-09-23 11:59:29,660.3362753284159,2,15,0.5501165986061096,3.815822124481201,13.946631888510796,13.861250419422264,55.57561712530898,50.61592432587111,6.47544875391759e-05,0.0891468673944473,0,0,0
4711,159129.7324015687,2010-09-23 11:59:59,690.3515144931001,2,15,0.550297200679779,3.8190598487854,13.951218017863573,13.861250419422264,55.59312424936941,50.61592432587111,9.713172767078504e-05,0.0891468673944473,0,0,0
4712,159159.74759805188,2010-09-23 12:00:29,720.3667108609568,2,15,0.5501165986061096,3.8222975730896,13.955804048399132,13.861250419422264,55.610645830150894,50.61592432587111,9.713172767078504e-05,0.0891468673944473,0,0,0
4713,159189.76285908613,2010-09-23 12:00:59,750.3819718952308,2,15,0.5499359965324402,3.825697183609009,13.960390188784192,13.861250419422264,55.62818287528891,50.61592432587111,0.0001295089750783,0.0891468673944473,0,0,0
4714,159219.7781639097,2010-09-23 12:01:29,780.3972767087846,2,15,0.5501165986061096,3.828934907913208,13.964976251580794,13.861250419422264,55.64573504676179,50.61592432587111,6.47544875391759e-05,0.0891468673944473,0,0,0
4715,159249.7934160117,2010-09-23 12:01:59,810.4125288358248,2,15,0.5501165986061096,3.832496404647827,13.969562382190082,13.861250419422264,55.66330316730625,50.61592432587111,9.713172767078504e-05,0.0891468673944473,0,0,0
4716,159279.8087201385,2010-09-23 12:02:29,840.4278329626645,2,15,0.550297200679779,3.835895776748657,13.97414848232367,13.861250419422264,55.68088682955716,50.61592432587111,9.713172767078504e-05,0.0891468673944473,0,0,0
4717,159309.82396852123,2010-09-23 12:02:59,870.4430813303206,2,15,0.5499359965324402,3.8392953872680655,13.978734556160262,13.861250419422264,55.69848617395536,50.61592432587111,9.713172767078504e-05,0.0891468673944473,0,0,0
4718,159339.83924420708,2010-09-23 12:03:30,900.4583570312049,2,15,0.5501165986061096,3.842694997787476,13.983320636013152,13.861250419422264,55.71610115563154,50.61592432587111,9.713172767078504e-05,0.0891468673944473,0,0,0
4719,159369.8545194919,2010-09-23 12:04:00,930.4736323160504,2,15,0.5501165986061096,3.8460946083068848,13.98790680567582,13.861250419422264,55.73373175950173,50.61592432587111,0.0001295089750783,0.0891468673944473,0,0,0
4720,159399.86987588924,2010-09-23 12:04:30,960.4889886883028,2,15,0.5501165986061096,3.849170446395874,13.992492940253069,13.861250419422264,55.75137734543447,50.61592432587111,6.47544875391759e-05,0.0891468673944473,0,0,0
4721,159429.88508681342,2010-09-23 12:05:00,990.5041996124944,2,15,0.5499359965324402,3.852408170700073,13.99707910489548,13.861250419422264,55.76903786772239,50.61592432587111,9.713172767078504e-05,0.0891468673944473,0,0,0
4722,159459.90034260962,2010-09-23 12:05:30,1020.5194554187184,2,15,0.5501165986061096,3.8554840087890634,14.00166526778392,13.861250419422264,55.78671275129727,50.61592432587111,6.47544875391759e-05,0.0891468673944473,0,0,0
4723,159489.91575155308,2010-09-23 12:06:00,1050.5348643772338,2,15,0.5501165986061096,3.858559846878052,14.0062514374999,13.861250419422264,55.80440175221614,50.61592432587111,6.47544875391759e-05,0.0891468673944473,0,0,0
4724,159519.93116577977,2010-09-23 12:06:30,1080.5502787091625,2,15,0.5501165986061096,3.861473798751831,14.010837576599176,13.861250419422264,55.82210424062912,50.61592432587111,6.47544875391759e-05,0.0891468673944473,0,0,0
4725,159549.94629560152,2010-09-23 12:07:00,1110.5654084005844,2,15,0.5501165986061096,3.8642258644104,14.015423714727143,13.861250419422264,55.83981991221649,50.61592432587111,6.47544875391759e-05,0.0891468673944473,0,0,0
4726,159579.96156889136,2010-09-23 12:07:30,1140.5806816904503,2,15,0.5501165986061096,3.86713981628418,14.020009851432643,13.861250419422264,55.85754819039527,50.61592432587111,0.0001295089750783,0.0891468673944473,0,0,0
4727,159609.97684607093,2010-09-23 12:08:00,1170.5959588700257,2,15,0.5501165986061096,3.869568109512329,14.0245960446497,13.861250419422264,55.87528881555088,50.61592432587111,9.713172767078504e-05,0.0891468673944473,0,0,0
4728,159639.99203078472,2010-09-23 12:08:30,1200.6111436138667,2,15,0.5501165986061096,3.8719964027404794,14.02918219723358,13.861250419422264,55.89304078109724,50.61592432587111,6.47544875391759e-05,0.0891468673944473,0,0,0
4729,159670.00734957817,2010-09-23 12:09:00,1230.626462477492,2,15,0.5501165986061096,3.874100923538208,14.033768395315391,13.861250419422264,55.9108037558427,50.61592432587111,0.0,0.0891468673944473,0,0,0
4730,159700.02269300312,2010-09-23 12:09:30,1260.6418059024256,2,15,0.5501165986061096,3.876367330551148,14.038354571146016,13.861250419422264,55.92857681365546,50.61592432587111,3.237724376958795e-05,0.0891468673944473,0,0,0
4731,159730.03783169197,2010-09-23 12:10:00,1290.6569445010814,2,15,0.5501165986061096,3.878471851348877,14.042940695512112,13.861250419422264,55.94635925350255,50.61592432587111,6.47544875391759e-05,0.0891468673944473,0,0,0
4732,159760.05331923667,2010-09-23 12:10:30,1320.6724320357353,2,15,0.550297200679779,3.8802525997161865,14.047526900120978,13.861250419422264,55.96415090758413,50.61592432587111,3.237724376958795e-05,0.0891468673944473,0,0,0
4733,159790.0533434976,2010-09-23 12:11:00,1350.672456296679,2,15,0.5499359965324402,3.882033348083496,14.052110678732454,13.861250419422264,55.98194144540796,50.61592432587111,3.237724376958795e-05,0.0891468673944473,0,0,0
4734,159820.0680283386,2010-09-23 12:11:30,1380.6871411477111,2,15,0.5501165986061096,3.883652210235596,14.056696759511366,13.861250419422264,55.99974864653381,50.61592432587111,0.0,0.0891468673944473,0,0,0
4735,159850.08331243545,2010-09-23 12:12:00,1410.7024252595904,2,15,0.5499359965324402,3.885109186172485,14.061283010408165,13.861250419422264,56.01756370386115,50.61592432587111,3.237724376958795e-05,0.0891468673944473,0,0,0
4736,159880.0985821564,2010-09-23 12:12:30,1440.7176949805475,2,15,0.5499359965324402,3.886566162109375,14.06586914034398,13.861250419422264,56.03538506173342,50.61592432587111,0.0,0.0891468673944473,0,0,0
4737,159910.11387952638,2010-09-23 12:13:00,1470.7329924307214,2,15,0.5499359965324402,3.8880231380462646,14.070455283622744,13.861250419422264,56.053212847466966,50.61592432587111,6.47544875391759e-05,0.0891468673944473,0,0,0
4738,159940.12925434468,2010-09-23 12:13:30,1500.7483671587925,2,15,0.5499359965324402,3.889318227767944,14.07504144545803,13.861250419422264,56.071046820070414,50.61592432587111,6.47544875391759e-05,0.0891468673944473,0,0,0
4739,159970.14440536938,2010-09-23 12:14:00,1530.7635181784533,2,15,0.5501165986061096,3.890613317489624,14.079627672919532,13.861250419422264,56.088886855960986,50.61592432587111,3.237724376958795e-05,0.0891468673944473,0,0,0
4740,160000.15970515035,2010-09-23 12:14:30,1560.7788179594447,2,15,0.5501165986061096,3.8917465209960938,14.084213883418665,13.861250419422264,56.10673249860665,50.61592432587111,6.47544875391759e-05,0.0891468673944473,0,0,0
4741,160030.17501119195,2010-09-23 12:15:00,1590.7941239910392,2,15,0.5499359965324402,3.892879724502564,14.08880014365876,13.861250419422264,56.124583832945774,50.61592432587111,3.237724376958795e-05,0.0891468673944473,0,0,0
4742,160060.1902334745,2010-09-23 12:15:30,1620.809346283608,2,15,0.550297200679779,3.894336700439453,14.09338637817982,13.861250419422264,56.14244048855922,50.61592432587111,9.713172767078504e-05,0.0891468673944473,0,0,0
4743,160090.20562842808,2010-09-23 12:16:00,1650.8247412371652,2,15,0.5499359965324402,3.894984245300293,14.097972682976769,13.861250419422264,56.16030253022626,50.61592432587111,3.237724376958795e-05,0.0891468673944473,0,0,0
4744,160120.22090913643,2010-09-23 12:16:30,1680.8400219455486,2,15,0.5501165986061096,3.8962793350219727,14.102558898252088,13.861250419422264,56.17816934013834,50.61592432587111,0.0,0.0891468673944473,0,0,0
4745,160150.2361938699,2010-09-23 12:17:00,1710.8553066689544,2,15,0.550297200679779,3.897574424743652,14.107145098379943,13.861250419422264,56.19604154003056,50.61592432587111,3.237724376958795e-05,0.0891468673944473,0,0,0
4746,160180.25145513975,2010-09-23 12:17:30,1740.8705679438292,2,15,0.5501165986061096,3.898707628250122,14.11173121872829,13.861250419422264,56.2139187122313,50.61592432587111,3.237724376958795e-05,0.0891468673944473,0,0,0
4747,160210.26663734225,2010-09-23 12:18:00,1770.8857501413142,2,15,0.5499359965324402,3.899840831756592,14.116317469291957,13.861250419422264,56.23180184444436,50.61592432587111,6.47544875391759e-05,0.0891468673944473,0,0,0
4748,160240.2819070281,2010-09-23 12:18:30,1800.9010198321964,2,15,0.5497553944587708,3.900812149047852,14.120903640206224,13.861250419422264,56.24968997596172,50.61592432587111,0.0,0.0891468673944473,0,0,0
4749,160270.29717841826,2010-09-23 12:19:00,1830.916291247383,2,15,0.5501165986061096,3.902269124984741,14.125489786337004,13.861250419422264,56.26758347386609,50.61592432587111,0.0,0.0891468673944473,0,0,0
4750,160300.29868498424,2010-09-23 12:19:30,1860.9177977833128,2,15,0.5501165986061096,3.903402328491211,14.130073939516512,13.861250419422264,56.285474677882114,50.61592432587111,3.237724376958795e-05,0.0891468673944473,0,0,0
4751,160330.3121128727,2010-09-23 12:20:00,1890.9312257720237,2,15,0.5499359965324402,3.9045355319976807,14.134659851797895,13.861250419422264,56.303378275868646,50.61592432587111,3.237724376958795e-05,0.0891468673944473,0,0,0
4752,160360.32752158062,2010-09-23 12:20:30,1920.946634379663,2,15,0.5499359965324402,3.90583062171936,14.139246084482808,13.861250419422264,56.32128854284527,50.61592432587111,3.237724376958795e-05,0.0891468673944473,0,0,0
4753,160390.34263586858,2010-09-23 12:21:00,1950.9617486726484,2,15,0.5501165986061096,3.90712571144104,14.14383216532122,13.861250419422264,56.33920383382016,50.61592432587111,6.47544875391759e-05,0.0891468673944473,0,0,0
4754,160420.35793565458,2010-09-23 12:21:30,1980.9770484837152,2,15,0.5501165986061096,3.9082589149475098,14.148418303308308,13.861250419422264,56.35712502096888,50.61592432587111,0.0,0.0891468673944473,0,0,0
4755,160450.37321249832,2010-09-23 12:22:00,2010.9923253023896,2,15,0.5501165986061096,3.9097158908844,14.153004474080026,13.861250419422264,56.37505205170859,50.61592432587111,6.47544875391759e-05,0.0891468673944473,0,0,0
4756,160480.3888077769,2010-09-23 12:22:30,2041.0079205809889,2,15,0.5501165986061096,3.910849094390869,14.157590752231952,13.861250419422264,56.39298522567866,50.61592432587111,3.237724376958795e-05,0.0891468673944473,0,0,0
4757,160510.40374931364,2010-09-23 12:23:00,2071.0228621127358,2,15,0.5501165986061096,3.912144184112549,14.162176891281613,13.861250419422264,56.41092371604146,50.61592432587111,3.237724376958795e-05,0.0891468673944473,0,0,0
4758,160540.41915236245,2010-09-23 12:23:30,2101.038265171524,2,15,0.5499359965324402,3.913439273834229,14.16676309300084,13.861250419422264,56.42886830969021,50.61592432587111,3.237724376958795e-05,0.0891468673944473,0,0,0
4759,160570.43430231942,2010-09-23 12:24:00,2131.0534151285324,2,15,0.5499359965324402,3.914572238922119,14.17134924376826,13.861250419422264,56.44681864624391,50.61592432587111,0.0,0.0891468673944473,0,0,0
4760,160600.44955655673,2010-09-23 12:24:30,2161.068669360828,2,15,0.5501165986061096,3.915867328643799,14.175935401393808,13.861250419422264,56.46477490884303,50.61592432587111,3.237724376958795e-05,0.0891468673944473,0,0,0
4761,160630.46484624757,2010-09-23 12:25:00,2191.083959051633,2,15,0.5501165986061096,3.9174861907958975,14.18052156898997,13.861250419422264,56.4827372261257,50.61592432587111,9.713172767078504e-05,0.0891468673944473,0,0,0
4762,160660.48012232437,2010-09-23 12:25:30,2221.099235133468,2,15,0.5501165986061096,3.918619394302368,14.18510774135934,13.861250419422264,56.50070561704547,50.61592432587111,3.237724376958795e-05,0.0891468673944473,0,0,0
4763,160690.49551006494,2010-09-23 12:26:00,2251.1146228790326,2,15,0.550297200679779,3.920076370239258,14.189693865259851,13.861250419422264,56.51867996501476,50.61592432587111,6.47544875391759e-05,0.0891468673944473,0,0,0
4764,160720.51079106404,2010-09-23 12:26:30,2281.129903868117,2,15,0.5501165986061096,3.9213714599609375,14.194280012244034,13.861250419422264,56.5366606093274,50.61592432587111,6.47544875391759e-05,0.0891468673944473,0,0,0
4765,160750.52594330173,2010-09-23 12:27:00,2311.1450561308807,2,15,0.5499359965324402,3.9225046634674072,14.198866214948922,13.861250419422264,56.55464778769844,50.61592432587111,0.0,0.0891468673944473,0,0,0
4766,160780.54145581374,2010-09-23 12:27:30,2341.1605686128064,2,15,0.5501165986061096,3.924123525619507,14.20345241549768,13.861250419422264,56.57264124531134,50.61592432587111,6.47544875391759e-05,0.0891468673944473,0,0,0
4767,160810.55658144504,2010-09-23 12:28:00,2371.1756942691563,2,15,0.5499359965324402,3.9254186153411865,14.208038566394098,13.861250419422264,56.5906409322812,50.61592432587111,0.0,0.0891468673944473,0,0,0
4768,160840.5717732916,2010-09-23 12:28:30,2401.1908861057022,2,15,0.550297200679779,3.926875591278076,14.212624725388428,13.861250419422264,56.60864696962111,50.61592432587111,6.47544875391759e-05,0.0891468673944473,0,0,0
4769,160870.5870381905,2010-09-23 12:29:00,2431.206150994598,2,15,0.5501165986061096,3.928332567214966,14.217210850877306,13.861250419422264,56.62665943316451,50.61592432587111,6.47544875391759e-05,0.0891468673944473,0,0,0
4770,160900.60233275848,2010-09-23 12:29:30,2461.221445562577,2,15,0.5501165986061096,3.929789543151856,14.221797066358096,13.861250419422264,56.64467875687809,50.61592432587111,3.237724376958795e-05,0.0891468673944473,0,0,0
4771,160930.61763988785,2010-09-23 12:30:00,2491.236752882387,2,15,0.5501165986061096,3.931084632873535,14.226383255758597,13.861250419422264,56.66270466162873,50.61592432587111,0.0,0.0891468673944473,0,0,0
4772,160960.63286265658,2010-09-23 12:30:30,2521.251975460669,2,15,0.550297200679779,3.9327034950256343,14.230969445470215,13.861250419422264,56.68073712981359,50.61592432587111,3.237724376958795e-05,0.0891468673944473,0,0,0
4773,160990.6481668937,2010-09-23 12:31:00,2551.267279798034,2,15,0.5501165986061096,3.934160470962525,14.235555659065916,13.861250419422264,56.69877647756152,50.61592432587111,3.237724376958795e-05,0.0891468673944473,0,0,0
4774,161020.66344025874,2010-09-23 12:31:30,2581.282553057825,2,15,0.5501165986061096,3.935617446899414,14.24014182241792,13.861250419422264,56.71682241169573,50.61592432587111,3.237724376958795e-05,0.0891468673944473,0,0,0
4775,161050.67868332317,2010-09-23 12:32:00,2611.297796152319,2,15,0.5501165986061096,3.937074422836304,14.244728046819436,13.861250419422264,56.734875283634615,50.61592432587111,3.237724376958795e-05,0.0891468673944473,0,0,0
4776,161080.693958603,2010-09-23 12:32:30,2641.3130714020767,2,15,0.5501165986061096,3.938855171203613,14.249314188964943,13.861250419422264,56.75293492248458,50.61592432587111,6.47544875391759e-05,0.0891468673944473,0,0,0
4777,161110.70923824373,2010-09-23 12:33:00,2671.328351067858,2,15,0.5501165986061096,3.940150260925293,14.2539002242826,13.861250419422264,56.7710010802755,50.61592432587111,3.237724376958795e-05,0.0891468673944473,0,0,0
4778,161140.72451391452,2010-09-23 12:33:30,2701.343626728642,2,15,0.5499359965324402,3.9417691230773926,14.258486268272163,13.861250419422264,56.78907432042869,50.61592432587111,6.47544875391759e-05,0.0891468673944473,0,0,0
4779,161170.73987030183,2010-09-23 12:34:00,2731.358983105906,2,15,0.5499359965324402,3.943064212799072,14.26307238202966,13.861250419422264,56.80715489120768,50.61592432587111,-3.237724376958795e-05,0.0891468673944473,0,0,0
4780,161200.7550746897,2010-09-23 12:34:30,2761.37418748877,2,15,0.5497553944587708,3.944844961166382,14.267658442513891,13.861250419422264,56.8252424036608,50.61592432587111,6.47544875391759e-05,0.0891468673944473,0,0,0
4781,161230.77033374403,2010-09-23 12:35:00,2791.3894465681647,2,15,0.5501165986061096,3.9464638233184814,14.272244560957,13.861250419422264,56.8433373829207,50.61592432587111,3.237724376958795e-05,0.0891468673944473,0,0,0
4782,161260.78563021173,2010-09-23 12:35:30,2821.4047430208484,2,15,0.5499359965324402,3.947920799255371,14.27683063705174,13.861250419422264,56.86143929660949,50.61592432587111,3.237724376958795e-05,0.0891468673944473,0,0,0
4783,161290.80088425858,2010-09-23 12:36:00,2851.419997057656,2,15,0.5501165986061096,3.9497015476226807,14.281416772241531,13.861250419422264,56.87954876745578,50.61592432587111,6.47544875391759e-05,0.0891468673944473,0,0,0
4784,161320.81615613494,2010-09-23 12:36:31,2881.435268964068,2,15,0.5501165986061096,3.95132040977478,14.286002915633087,13.861250419422264,56.89766563070864,50.61592432587111,9.713172767078504e-05,0.0891468673944473,0,0,0
4785,161350.83142968043,2010-09-23 12:37:01,2911.4505424945346,2,15,0.5499359965324402,3.95277738571167,14.29058913025916,13.861250419422264,56.915790240152496,50.61592432587111,3.237724376958795e-05,0.0891468673944473,0,0,0
4786,161380.84675624326,2010-09-23 12:37:31,2941.4658690423403,2,15,0.5499359965324402,3.95455813407898,14.295175276410744,13.861250419422264,56.93392211717236,50.61592432587111,6.47544875391759e-05,0.0891468673944473,0,0,0
4787,161410.86214784847,2010-09-23 12:38:01,2971.4812606776145,2,15,0.5501165986061096,3.956176996231079,14.299761469858472,13.861250419422264,56.95206176130178,50.61592432587111,3.237724376958795e-05,0.0891468673944473,0,0,0
4788,161440.87741778497,2010-09-23 12:38:31,3001.49653061411,2,15,0.5501165986061096,3.9577958583831783,14.30434766859664,13.861250419422264,56.97020898462856,50.61592432587111,3.237724376958795e-05,0.0891468673944473,0,0,0
4789,161470.892529682,2010-09-23 12:39:01,3031.511642491064,2,15,0.5501165986061096,3.959576606750488,14.308933816230898,13.861250419422264,56.98836378339321,50.61592432587111,6.47544875391759e-05,0.0891468673944473,0,0,0
4790,161500.9078224956,2010-09-23 12:39:31,3061.5269353247145,2,15,0.5499359965324402,3.961033582687378,14.313519997486251,13.861250419422264,57.00652649273449,50.61592432587111,3.237724376958795e-05,0.0891468673944473,0,0,0
4791,161530.92310435182,2010-09-23 12:40:01,3091.5422171508885,2,15,0.5501165986061096,3.9629762172698975,14.318106170197924,13.861250419422264,57.02469701928335,50.61592432587111,6.47544875391759e-05,0.0891468673944473,0,0,0
4792,161560.93835418814,2010-09-23 12:40:31,3121.557467017285,2,15,0.5501165986061096,3.964595079421997,14.322692279317902,13.861250419422264,57.04287523772646,50.61592432587111,6.47544875391759e-05,0.0891468673944473,0,0,0
4793,161590.95375740234,2010-09-23 12:41:01,3151.572870201388,2,15,0.5499359965324402,3.9662139415740967,14.327278528497768,13.861250419422264,57.06106198396753,50.61592432587111,0.0,0.0891468673944473,0,0,0
4794,161620.96894639678,2010-09-23 12:41:31,3181.588059225914,2,15,0.5499359965324402,3.968156576156616,14.331864722325722,13.861250419422264,57.079256533984335,50.61592432587111,6.47544875391759e-05,0.0891468673944473,0,0,0
4795,161650.98423536078,2010-09-23 12:42:01,3211.603348255067,2,15,0.5499359965324402,3.969937324523926,14.336450943615109,13.861250419422264,57.097459346997134,50.61592432587111,6.47544875391759e-05,0.0891468673944473,0,0,0
4796,161680.99968451462,2010-09-23 12:42:31,3241.6187974139293,2,15,0.5501165986061096,3.9717180728912354,14.34103718780773,13.861250419422264,57.1156704275036,50.61592432587111,6.47544875391759e-05,0.0891468673944473,0,0,0
4797,161711.01481417095,2010-09-23 12:43:01,3271.6339270903136,2,15,0.5499359965324402,3.973336935043335,14.345623906498172,13.861250419422264,57.13389170080789,50.61592432587111,0.0,0.0891468673944473,0,0,0
4798,161741.03017657326,2010-09-23 12:43:31,3301.6492894023927,2,15,0.5501165986061096,3.9752795696258554,14.350210977295122,13.861250419422264,57.15212278217929,50.61592432587111,3.237724376958795e-05,0.0891468673944473,0,0,0
4799,161771.04526165331,2010-09-23 12:44:01,3331.6643744774456,2,15,0.5501165986061096,3.977222204208374,14.354797880323831,13.861250419422264,57.17036170064698,50.61592432587111,3.237724376958795e-05,0.0891468673944473,0,0,0
4800,161801.06055028646,2010-09-23 12:44:31,3361.679663090561,2,15,0.5504778623580933,3.9791648387908936,14.359384954074397,13.861250419422264,57.1886094453342,50.61592432587111,6.47544875391759e-05,0.0891468673944473,0,0,0
4801,161831.0758220676,2010-09-23 12:45:01,3391.6949348967228,2,15,0.550297200679779,3.981107473373413,14.36397191185578,13.861250419422264,57.206865991269545,50.61592432587111,6.47544875391759e-05,0.0891468673944473,0,0,0
4802,161861.0910846457,2010-09-23 12:45:31,3421.710197565076,2,15,0.550297200679779,3.9830501079559326,14.368558852052466,13.861250419422264,57.225131296173366,50.61592432587111,9.713172767078504e-05,0.0891468673944473,0,0,0
4803,161891.10635088797,2010-09-23 12:46:01,3451.7254636970742,2,15,0.550297200679779,3.984992742538452,14.373145501470974,13.861250419422264,57.243404226264985,50.61592432587111,6.47544875391759e-05,0.0891468673944473,0,0,0
4804,161921.12162381192,2010-09-23 12:46:31,3481.740736611002,2,15,0.550297200679779,3.986935377120972,14.377731707571549,13.861250419422264,57.261684373906846,50.61592432587111,6.47544875391759e-05,0.0891468673944473,0,0,0
4805,161951.13690930227,2010-09-23 12:47:01,3511.7560221113467,2,15,0.5501165986061096,3.988878011703491,14.382318008326076,13.861250419422264,57.27997393640488,50.61592432587111,6.47544875391759e-05,0.0891468673944473,0,0,0
4806,161981.15218633146,2010-09-23 12:47:31,3541.771299130522,2,15,0.5499359965324402,3.9908206462860103,14.386904189493274,13.861250419422264,57.29827212955042,50.61592432587111,6.47544875391759e-05,0.0891468673944473,0,0,0
4807,162011.1674539321,2010-09-23 12:48:01,3571.7865667362,2,15,0.550297200679779,3.99308705329895,14.391490432239507,13.861250419422264,57.31657983925739,50.61592432587111,6.47544875391759e-05,0.0891468673944473,0,0,0
4808,162041.18274687105,2010-09-23 12:48:31,3601.8018596801244,2,15,0.5501165986061096,3.99502944946289,14.396076705885545,13.861250419422264,57.33489698683826,50.61592432587111,9.713172767078504e-05,0.0891468673944473,0,0,0
4809,162071.19799742417,2010-09-23 12:49:01,3631.817110228224,2,15,0.5499359965324402,3.99697208404541,14.400662984642928,13.861250419422264,57.35322370462024,50.61592432587111,3.237724376958795e-05,0.0891468673944473,0,0,0
4810,162101.21328174655,2010-09-23 12:49:31,3661.832394545615,2,15,0.5501165986061096,3.9992384910583496,14.405249266383173,13.861250419422264,57.37155981605979,50.61592432587111,0.0001295089750783,0.0891468673944473,0,0,0
4811,162131.22857628946,2010-09-23 12:50:01,3691.8476890885327,2,15,0.5501165986061096,4.001181125640869,14.409835479626738,13.861250419422264,57.389905315067566,50.61592432587111,6.47544875391759e-05,0.0891468673944473,0,0,0
4812,162161.24382763956,2010-09-23 12:50:31,3721.862940438634,2,15,0.5501165986061096,4.003285884857178,14.414421748673035,13.861250419422264,57.408260765392114,50.61592432587111,3.24249267578125e-05,0.0891468673944473,0,0,0
4813,162191.259103957,2010-09-23 12:51:01,3751.878216781118,2,15,0.5501165986061096,4.005390167236328,14.41900803436523,13.861250419422264,57.42662604049665,50.61592432587111,6.47544875391759e-05,0.0891468673944473,0,0,0
4814,162221.27439282072,2010-09-23 12:51:31,3781.893505715034,2,15,0.5501165986061096,4.007656574249268,14.42359427768614,13.861250419422264,57.44500111914978,50.61592432587111,6.47544875391759e-05,0.0891468673944473,0,0,0
4815,162251.28969014558,2010-09-23 12:52:01,3811.9088038017976,2,15,0.5501165986061096,4.010085105895996,14.428180563361922,13.861250419422264,57.463386373651566,50.61592432587111,9.71794142969884e-05,0.0891468673944473,0,0,0
4816,162281.30491668376,2010-09-23 12:52:31,3841.9240295780623,2,15,0.5501165986061096,4.012027740478516,14.43276683139264,13.861250419422264,57.48178159734948,50.61592432587111,9.71794142969884e-05,0.0891468673944473,0,0,0
4817,162311.32019227438,2010-09-23 12:53:01,3871.939305073433,2,15,0.5501165986061096,4.014294147491455,14.437353083448953,13.861250419422264,57.500186897830304,50.61592432587111,6.47544875391759e-05,0.0891468673944473,0,0,0
4818,162341.3354715542,2010-09-23 12:53:31,3901.954584363277,2,15,0.5501165986061096,4.0165605545043945,14.441939292844973,13.861250419422264,57.51860228542188,50.61592432587111,6.47544875391759e-05,0.0891468673944473,0,0,0
4819,162371.35086479344,2010-09-23 12:54:01,3931.9699776025545,2,15,0.5501165986061096,4.018826961517334,14.446525644418635,13.861250419422264,57.537028598313775,50.61592432587111,6.47544875391759e-05,0.0891468673944473,0,0,0
4820,162401.36650394156,2010-09-23 12:54:31,3961.985616750658,2,15,0.5501165986061096,4.020931243896484,14.451111927013622,13.861250419422264,57.55546490158414,50.61592432587111,6.47544875391759e-05,0.0891468673944473,0,0,0
4821,162431.3814235085,2010-09-23 12:55:01,3992.000536307553,2,15,0.5499359965324402,4.023359775543213,14.455698107882952,13.861250419422264,57.57391138102622,50.61592432587111,6.47544875391759e-05,0.0891468673944473,0,0,0
4822,162461.39678320906,2010-09-23 12:55:31,4022.0158961033503,2,15,0.5501165986061096,4.025787830352783,14.46028436702394,13.861250419422264,57.59236876523926,50.61592432587111,9.70840483205393e-05,0.0891468673944473,0,0,0
4823,162491.4118516526,2010-09-23 12:56:01,4052.030964561925,2,15,0.5501165986061096,4.028054237365723,14.46487058065715,13.861250419422264,57.6108366509381,50.61592432587111,9.70840483205393e-05,0.0891468673944473,0,0,0
4824,162521.42710740367,2010-09-23 12:56:31,4082.046220308,2,15,0.5499359965324402,4.030320644378662,14.469456861070348,13.861250419422264,57.6293155626554,50.61592432587111,6.47544875391759e-05,0.0891468673944473,0,0,0
4825,162551.44239030752,2010-09-23 12:57:01,4112.061503116626,2,15,0.5499359965324402,4.032749176025391,14.47404314047784,13.861250419422264,57.6478053253477,50.61592432587111,6.47544875391759e-05,0.0891468673944473,0,0,0
4826,162581.4576803442,2010-09-23 12:57:31,4142.076793173344,2,15,0.5501165986061096,4.035177230834961,14.478629420141235,13.861250419422264,57.6663060034299,50.61592432587111,9.71794142969884e-05,0.0891468673944473,0,0,0
4827,162611.47306657597,2010-09-23 12:58:01,4172.09217938508,2,15,0.5499359965324402,4.0374436378479,14.483215653562835,13.861250419422264,57.68481748232332,50.61592432587111,6.47544875391759e-05,0.0891468673944473,0,0,0
4828,162641.48844839173,2010-09-23 12:58:31,4202.107561200844,2,15,0.5501165986061096,4.039871692657471,14.48780195726591,13.861250419422264,57.70334035021916,50.61592432587111,6.47544875391759e-05,0.0891468673944473,0,0,0
4829,162671.5036601029,2010-09-23 12:59:01,4232.122772911999,2,15,0.5501165986061096,4.04246187210083,14.49238825775704,13.861250419422264,57.72187430658779,50.61592432587111,9.70840483205393e-05,0.0891468673944473,0,0,0
4830,162701.52084633277,2010-09-23 12:59:31,4262.139959151883,2,15,0.5499359965324402,4.044890403747559,14.496974766932624,13.861250419422264,57.74042044938461,50.61592432587111,9.71794142969884e-05,0.0891468673944473,0,0,0
4831,162731.53405802156,2010-09-23 13:00:01,4292.1531710111,2,15,0.550297200679779,4.047318458557129,14.501560735614603,13.861250419422264,57.75897580414299,50.61592432587111,3.23295607813634e-05,0.0891468673944473,0,0,0
4832,162761.54932870492,2010-09-23 13:00:31,4322.1684415039845,2,15,0.5501165986061096,4.050070762634277,14.50614705618244,13.861250419422264,57.7775441510729,50.61592432587111,6.47544875391759e-05,0.0891468673944473,0,0,0
4833,162791.56460367897,2010-09-23 13:01:01,4352.183716483068,2,15,0.5501165986061096,4.052498817443848,14.510733348902471,13.861250419422264,57.79612396079438,50.61592432587111,9.70840483205393e-05,0.0891468673944473,0,0,0
4834,162821.57986055288,2010-09-23 13:01:31,4382.198973361969,2,15,0.5497553944587708,4.054927349090576,14.515319668911635,13.861250419422264,57.814715660282886,50.61592432587111,0.0,0.0891468673944473,0,0,0
4835,162851.59527014298,2010-09-23 13:02:01,4412.214382942036,2,15,0.5499359965324402,4.057517528533936,14.519906033302965,13.861250419422264,57.833319380933794,50.61592432587111,3.24249267578125e-05,0.0891468673944473,0,0,0
4836,162881.610545508,2010-09-23 13:02:31,4442.229658312094,2,15,0.5499359965324402,4.060107707977295,14.524492378984228,13.861250419422264,57.85193512475243,50.61592432587111,0.0,0.0891468673944473,0,0,0
4837,162911.62579367016,2010-09-23 13:03:01,4472.244906469225,2,15,0.5501165986061096,4.062859535217285,14.52907866315162,13.861250419422264,57.87056235425111,50.61592432587111,6.47544875391759e-05,0.0891468673944473,0,0,0
4838,162941.64095672985,2010-09-23 13:03:31,4502.260069538965,2,15,0.5501165986061096,4.065611839294434,14.53366490320782,13.861250419422264,57.889201784621385,50.61592432587111,6.47544875391759e-05,0.0891468673944473,0,0,0
4839,162971.6562182654,2010-09-23 13:04:01,4532.275331064465,2,15,0.550297200679779,4.068202018737793,14.538251137461293,13.861250419422264,57.90785357451518,50.61592432587111,3.24249267578125e-05,0.0891468673944473,0,0,0
4840,163001.67149304398,2010-09-23 13:04:31,4562.290605853072,2,15,0.5499359965324402,4.070953845977783,14.542837394459053,13.861250419422264,57.9265179889673,50.61592432587111,6.47544875391759e-05,0.0891468673944473,0,0,0
4841,163031.68676101055,2010-09-23 13:05:01,4592.3058738196505,2,15,0.5499359965324402,4.0738677978515625,14.547423659098756,13.861250419422264,57.94519491528182,50.61592432587111,6.47544875391759e-05,0.0891468673944473,0,0,0
4842,163061.70204720262,2010-09-23 13:05:31,4622.321160001696,2,15,0.5501165986061096,4.076620101928711,14.552009943023569,13.861250419422264,57.96388464200957,50.61592432587111,9.71794142969884e-05,0.0891468673944473,0,0,0
4843,163091.71725712935,2010-09-23 13:06:01,4652.336369928398,2,15,0.5499359965324402,4.07921028137207,14.556596097618996,13.861250419422264,57.98258664138283,50.61592432587111,6.47544875391759e-05,0.0891468673944473,0,0,0
4844,163121.73253958707,2010-09-23 13:06:31,4682.351652381136,2,15,0.5497553944587708,4.08212423324585,14.56118124864771,13.861250419422264,58.00129751251658,50.61592432587111,9.71794142969884e-05,0.0891468673944473,0,0,0
4845,163151.747903047,2010-09-23 13:07:01,4712.367015846094,2,15,0.5501165986061096,4.085038185119629,14.565766486037813,13.861250419422264,58.020021763625294,50.61592432587111,9.71794142969884e-05,0.0891468673944473,0,0,0
4846,163181.7631215301,2010-09-23 13:07:31,4742.382234329152,2,15,0.5499359965324402,4.087790012359619,14.570351692020658,13.861250419422264,58.03875900199953,50.61592432587111,9.70840483205393e-05,0.0891468673944473,0,0,0
4847,163211.77837651427,2010-09-23 13:08:01,4772.397489313324,2,15,0.5501165986061096,4.090866088867188,14.574936865607864,13.861250419422264,58.05750934820013,50.61592432587111,9.71794142969884e-05,0.0891468673944473,0,0,0
4848,163241.79364750837,2010-09-23 13:08:32,4802.41276030746,2,15,0.5499359965324402,4.093780040740967,14.579522069714764,13.861250419422264,58.07627316931072,50.61592432587111,9.71794142969884e-05,0.0891468673944473,0,0,0
4849,163271.80891996116,2010-09-23 13:09:02,4832.428032765249,2,15,0.5499359965324402,4.096693992614746,14.584107237973218,13.861250419422264,58.09505040028424,50.61592432587111,9.71794142969884e-05,0.0891468673944473,0,0,0
4850,163301.82425510543,2010-09-23 13:09:32,4862.443367914525,2,15,0.5501165986061096,4.099769592285156,14.588693549292037,13.861250419422264,58.11384585565624,50.61592432587111,0.0001295089750783,0.0891468673944473,0,0,0
4851,163331.83950128264,2010-09-23 13:10:02,4892.458614267152,2,15,0.550297200679779,4.102845668792725,14.593279927669816,13.861250419422264,58.132655248655375,50.61592432587111,0.0001295089750783,0.0891468673944473,0,0,0
4852,163361.85474538463,2010-09-23 13:10:32,4922.473858273923,2,15,0.5501165986061096,4.105759620666504,14.59786626008804,13.861250419422264,58.15147831859122,50.61592432587111,9.71794142969884e-05,0.0891468673944473,0,0,0
4853,163391.87002526593,2010-09-23 13:11:02,4952.489138075041,2,15,0.5499359965324402,4.108673572540283,14.602452662045588,13.861250419422264,58.17031561123118,50.61592432587111,6.47544875391759e-05,0.0891468673944473,0,0,0
4854,163421.8853207061,2010-09-23 13:11:32,4982.504433515198,2,15,0.5501165986061096,4.111911296844482,14.607039019609372,13.861250419422264,58.18916689607197,50.61592432587111,6.47544875391759e-05,0.0891468673944473,0,0,0
4855,163451.9005626377,2010-09-23 13:12:02,5012.519675436764,2,15,0.550297200679779,4.114986896514893,14.611625315486284,13.861250419422264,58.20803206732659,50.61592432587111,6.47544875391759e-05,0.0891468673944473,0,0,0
4856,163481.91582952155,2010-09-23 13:12:32,5042.534942315626,2,15,0.5501165986061096,4.118224620819092,14.616211674806744,13.861250419422264,58.22691180604473,50.61592432587111,0.0001295089750783,0.0891468673944473,0,0,0
4857,163511.93112940283,2010-09-23 13:13:02,5072.550242206893,2,15,0.5501165986061096,4.121138572692871,14.620798066358638,13.861250419422264,58.24580616811679,50.61592432587111,9.71794142969884e-05,0.0891468673944473,0,0,0
4858,163541.94639511878,2010-09-23 13:13:32,5102.565508013079,2,15,0.5501165986061096,4.12437629699707,14.625384425119597,13.861250419422264,58.26471492490324,50.61592432587111,9.71794142969884e-05,0.0891468673944473,0,0,0
4859,163571.9617111002,2010-09-23 13:14:02,5132.580823994509,2,15,0.5501165986061096,4.1276140213012695,14.629970796227695,13.861250419422264,58.2836384733117,50.61592432587111,6.47544875391759e-05,0.0891468673944473,0,0,0
4860,163601.97706674563,2010-09-23 13:14:32,5162.596179554735,2,15,0.5501165986061096,4.130851745605469,14.634557221856037,13.861250419422264,58.30257706205562,50.61592432587111,9.71794142969884e-05,0.0891468673944473,0,0,0
4861,163631.9922300309,2010-09-23 13:15:02,5192.611342930238,2,15,0.5501165986061096,4.134251117706299,14.639143651576584,13.861250419422264,58.32153067937803,50.61592432587111,9.70840483205393e-05,0.0891468673944473,0,0,0
4862,163662.0077667634,2010-09-23 13:15:32,5222.626879752922,2,15,0.5501165986061096,4.137488842010498,14.643730100334064,13.861250419422264,58.340499411870674,50.61592432587111,9.70840483205393e-05,0.0891468673944473,0,0,0
4863,163692.0227538689,2010-09-23 13:16:02,5252.641866672965,2,15,0.5499359965324402,4.140888690948486,14.648316443318924,13.861250419422264,58.35948297521952,50.61592432587111,9.71794142969884e-05,0.0891468673944473,0,0,0
4864,163722.03806131904,2010-09-23 13:16:32,5282.657174118087,2,15,0.5499359965324402,4.144288063049316,14.652902913311474,13.861250419422264,58.37848232333254,50.61592432587111,0.0001618385285837,0.0891468673944473,0,0,0
4865,163752.05330026816,2010-09-23 13:17:02,5312.672413067233,2,15,0.5501165986061096,4.147525787353516,14.657489258750337,13.861250419422264,58.39749687979173,50.61592432587111,6.47544875391759e-05,0.0891468673944473,0,0,0
4866,163782.06859350784,2010-09-23 13:17:32,5342.687706316922,2,15,0.550297200679779,4.150925636291504,14.662075597334344,13.861250419422264,58.41652683540426,50.61592432587111,0.0001295089750783,0.0891468673944473,0,0,0
4867,163812.08395861188,2010-09-23 13:18:02,5372.703071415957,2,15,0.550297200679779,4.154487133026123,14.66666196021281,13.861250419422264,58.43557255360554,50.61592432587111,9.71794142969884e-05,0.0891468673944473,0,0,0
4868,163842.0991081729,2010-09-23 13:18:32,5402.718220976978,2,15,0.5499359965324402,4.157886505126953,14.671248243245444,13.861250419422264,58.45463369888095,50.61592432587111,9.70840483205393e-05,0.0891468673944473,0,0,0
4869,163872.11439149783,2010-09-23 13:19:02,5432.733504306905,2,15,0.5501165986061096,4.161286354064941,14.675834599849836,13.861250419422264,58.47371106745358,50.61592432587111,6.47544875391759e-05,0.0891468673944473,0,0,0
4870,163902.12979305786,2010-09-23 13:19:32,5462.748905856928,2,15,0.5501165986061096,4.1648478507995605,14.680421011510733,13.861250419422264,58.49280475831543,50.61592432587111,9.71794142969884e-05,0.0891468673944473,0,0,0
4871,163932.14497657865,2010-09-23 13:20:02,5492.764089568192,2,15,0.5501165986061096,4.16840934753418,14.685007334850564,13.861250419422264,58.51191422971653,50.61592432587111,9.71794142969884e-05,0.0891468673944473,0,0,0
4872,163962.16032897096,2010-09-23 13:20:32,5522.779441775047,2,15,0.5501165986061096,4.171970844268799,14.689593691155238,13.861250419422264,58.531040063122944,50.61592432587111,6.47544875391759e-05,0.0891468673944473,0,0,0
4873,163992.1754825019,2010-09-23 13:21:02,5552.794595300963,2,15,0.5499359965324402,4.175532341003418,14.694180075445276,13.861250419422264,58.55018247821288,50.61592432587111,0.0001295089750783,0.0891468673944473,0,0,0
4874,164022.19076102483,2010-09-23 13:21:32,5582.809873823891,2,15,0.5501165986061096,4.179093837738037,14.69876649701885,13.861250419422264,58.5693416645083,50.61592432587111,6.47544875391759e-05,0.0891468673944473,0,0,0
4875,164052.206027628,2010-09-23 13:22:02,5612.82514043709,2,15,0.5501165986061096,4.182979106903076,14.703352889887798,13.861250419422264,58.58851741523785,50.61592432587111,0.0001295089750783,0.0891468673944473,0,0,0
4876,164082.2213000958,2010-09-23 13:22:32,5642.840412904905,2,15,0.5501165986061096,4.186540603637695,14.707939264364157,13.861250419422264,58.60770985266021,50.61592432587111,0.0001295089750783,0.0891468673944473,0,0,0
4877,164112.2365672203,2010-09-23 13:23:02,5672.855680019356,2,15,0.5501165986061096,4.1901021003723145,14.712525627177635,13.861250419422264,58.626919210261136,50.61592432587111,6.47544875391759e-05,0.0891468673944473,0,0,0
4878,164142.2518751767,2010-09-23 13:23:32,5702.870987975754,2,15,0.5501165986061096,4.1939873695373535,14.71711202368478,13.861250419422264,58.64614572924273,50.61592432587111,9.71794142969884e-05,0.0891468673944473,0,0,0
4879,164172.26711630126,2010-09-23 13:24:02,5732.886229110356,2,15,0.5499359965324402,4.197710514068604,14.721698390452662,13.861250419422264,58.66538929835848,50.61592432587111,9.71794142969884e-05,0.0891468673944473,0,0,0
4880,164189.2200406586,2010-09-23 13:24:19,5749.839153467694,2,15,0.5501165986061096,4.200138568878174,14.72428877676082,13.861250419422264,58.67626575774111,50.61592432587111,0.0001618385285837,0.0891468673944473,0,0,0
4881,164219.24276760346,2010-09-23 13:24:49,30.01559359439524,3,15,0.0,4.116119861602783,14.72428877676082,13.861250419422264,58.67626575774111,50.61592432587111,-0.0004209518374409,0.0891468673944473,0,0,0
4882,164249.25770285953,2010-09-23 13:25:19,60.03052884546426,3,15,0.0,4.105759620666504,14.72428877676082,13.861250419422264,58.67626575774111,50.61592432587111,-0.0002265930233988,0.0891468673944473,0,0,0
4883,164279.27299127716,2010-09-23 13:25:49,90.04581726810385,3,15,0.0,4.099607944488525,14.72428877676082,13.861250419422264,58.67626575774111,50.61592432587111,-9.70840483205393e-05,0.0891468673944473,0,0,0
4884,164309.24171095705,2010-09-23 13:26:19,120.01453694799712,3,15,0.0,4.095560550689697,14.72428877676082,13.861250419422264,58.67626575774111,50.61592432587111,-6.47544875391759e-05,0.0891468673944473,0,0,0
4885,164309.2499095754,2010-09-23 13:26:19,2.616531265e-06,4,15,1.0054326057434082,4.199653148651123,14.724288777491582,13.861250419422264,58.67626576081005,50.61592432587111,0.0,0.0891468673944473,0,0,0
4886,164310.0311437912,2010-09-23 13:26:20,0.781236862398834,4,15,0.955042600631714,4.199653148651123,14.724499926274458,13.861250419422264,58.67715251651301,50.61592432587111,0.0,0.0891468673944473,0,0,0
4887,164312.04674830518,2010-09-23 13:26:22,2.79684137635868,4,15,0.9050138592720032,4.199653148651123,14.725019670063103,13.861250419422264,58.67933526785453,50.61592432587111,0.0,0.0891468673944473,0,0,0
4888,164315.09360584532,2010-09-23 13:26:25,5.843698926551276,4,15,0.8549850583076477,4.199653148651123,14.725763437663373,13.861250419422264,58.68245886686827,50.61592432587111,0.0,0.0891468673944473,0,0,0
4889,164319.24979183995,2010-09-23 13:26:29,9.999884916194654,4,15,0.8047757148742676,4.199653148651123,14.726720344841576,13.861250419422264,58.68647759903413,50.61592432587111,-3.23295607813634e-05,0.0891468673944473,0,0,0
4890,164324.62472051388,2010-09-23 13:26:35,15.374813590076768,4,15,0.7545663118362427,4.199653148651123,14.727883148438556,13.861250419422264,58.69136101515103,50.61592432587111,0.0,0.0891468673944473,0,0,0
4891,164331.6090953329,2010-09-23 13:26:42,22.35918859460731,4,15,0.704537570476532,4.199814796447754,14.729296653790351,13.861250419422264,58.69729735900794,50.61592432587111,0.0,0.0891468673944473,0,0,0
4892,164340.71833227476,2010-09-23 13:26:51,31.468425446209963,4,15,0.6543281674385071,4.199814796447754,14.731013011895383,13.861250419422264,58.70450558918521,50.61592432587111,3.23295607813634e-05,0.0891468673944473,0,0,0
4893,164353.23408583112,2010-09-23 13:27:03,43.98417912288752,4,15,0.6042994260787964,4.199653148651123,14.733196449293366,13.861250419422264,58.71367544055014,50.61592432587111,0.0,0.0891468673944473,0,0,0
4894,164371.63979466705,2010-09-23 13:27:22,62.38988773823891,4,15,0.5542706251144409,4.199653148651123,14.736149489415654,13.861250419422264,58.72607742757192,50.61592432587111,-3.23295607813634e-05,0.0891468673944473,0,0,0
4895,164401.74883749508,2010-09-23 13:27:52,92.49893057632322,4,15,0.5042418837547302,4.199653148651123,14.740558321702824,13.861250419422264,58.74459329549948,50.61592432587111,-3.23295607813634e-05,0.0891468673944473,0,0,0
4896,164455.63881145086,2010-09-23 13:28:46,146.388904532082,4,15,0.4540324807167053,4.199491024017334,14.747699853415314,13.861250419422264,58.77458575575983,50.61592432587111,0.0,0.0891468673944473,0,0,0
4897,164543.18465312026,2010-09-23 13:30:13,233.93474619646733,4,15,0.4040037095546722,4.199653148651123,14.758104626890118,13.861250419422264,58.81828294961386,50.61592432587111,0.0,0.0891468673944473,0,0,0
4898,164657.52706559794,2010-09-23 13:32:08,348.277158674152,4,15,0.3539749383926391,4.199653148651123,14.770124582696234,13.861250419422264,58.86876350220965,50.61592432587111,-3.23295607813634e-05,0.0891468673944473,0,0,0
4899,164796.11919217274,2010-09-23 13:34:26,486.86928525396087,4,15,0.3037655651569366,4.199814796447754,14.78276894185264,13.861250419422264,58.921866315440965,50.61592432587111,3.23295607813634e-05,0.0891468673944473,0,0,0
4900,164961.94549673065,2010-09-23 13:37:12,652.6955898068641,4,15,0.2537367939949035,4.199653148651123,14.795590678920515,13.861250419422264,58.97571415197644,50.61592432587111,0.0,0.0891468673944473,0,0,0
4901,165170.09921374195,2010-09-23 13:40:40,860.8493068181731,4,15,0.2037080228328704,4.199814796447754,14.808779796508231,13.861250419422264,59.03110482066546,50.61592432587111,0.0,0.0891468673944473,0,0,0
4902,165441.68998208793,2010-09-23 13:45:12,1132.4400751691724,4,15,0.1536792516708374,4.199814796447754,14.822189427303217,13.861250419422264,59.087421661164925,50.61592432587111,0.0,0.0891468673944473,0,0,0
4903,165834.9977625569,2010-09-23 13:51:45,1525.7478556330996,4,15,0.1036504805088043,4.199653148651123,14.836077156652667,13.861250419422264,59.14574627070543,50.61592432587111,-3.23295607813634e-05,0.0891468673944473,0,0,0
4904,166537.2393953094,2010-09-23 14:03:27,2227.9894883806114,4,15,0.0536217130720615,4.199653148651123,14.850895571348298,13.861250419422264,59.207979645141606,50.61592432587111,0.0,0.0891468673944473,0,0,0
4905,166624.53526118075,2010-09-23 14:04:55,2315.28535425196,4,15,0.0498289167881011,4.199653148651123,14.852160989740549,13.861250419422264,59.21329405754294,50.61592432587111,0.0,0.0891468673944473,0,0,0
4906,166654.55496954944,2010-09-23 14:05:25,30.01527871841635,5,15,0.0,4.192044734954834,14.852160989740549,13.861250419422264,59.21329405754294,50.61592432587111,-3.23295607813634e-05,0.0891468673944473,0,0,0
4907,166684.55466481418,2010-09-23 14:05:55,60.01497399817236,5,15,0.0,4.190749645233154,14.852160989740549,13.861250419422264,59.21329405754294,50.61592432587111,-3.23295607813634e-05,0.0891468673944473,0,0,0
4908,166684.74726830845,2010-09-23 14:05:55,0.187516720583302,6,15,-1.9243103452026844e-05,4.190749645233154,14.852160989740549,13.861250420424598,59.21329405754294,50.61592433007164,0.0,0.0931148082017898,0,0,0
4909,166689.57734744405,2010-09-23 14:06:00,5.01759594140759,6,15,0.0005225847125984,4.190587520599365,14.8521619251884,13.86125042050914,59.21329797784526,50.615924330425926,-3.24249267578125e-05,0.0931148082017898,0,0,0
4910,166719.59576978604,2010-09-23 14:06:30,30.015257520503106,7,15,-1.0993878841400146,4.016722202301025,14.8521619251884,13.87041828532898,59.21329797784526,50.6529474794039,-0.0009065627818927,0.0931148082017898,0,0,0
4911,166749.61108681007,2010-09-23 14:07:00,60.030574544536165,7,15,-1.0993878841400146,3.989525556564331,14.8521619251884,13.879586119327348,59.21329797784526,50.68963744224972,-0.0005827903514727,0.0931148082017898,0,0,0
4912,166779.62631642088,2010-09-23 14:07:30,90.04580415537245,7,15,-1.0997490882873535,3.970422983169556,14.8521619251884,13.888753837515027,59.21329797784526,50.72612050477098,-0.0005180359003134,0.0931148082017898,0,0,0
4913,166809.64159075837,2010-09-23 14:08:00,120.06107858809104,7,15,-1.099568486213684,3.956338882446289,14.8521619251884,13.897921518395371,59.21329797784526,50.76245337721748,-0.0003237724304199,0.0931148082017898,0,0,0
4914,166839.65688184265,2010-09-23 14:08:30,150.07636958716182,7,15,-1.0997490882873535,3.944035530090332,14.8521619251884,13.907089287530658,59.21329797784526,50.79866641725928,-0.0003237724304199,0.0931148082017898,0,0,0
4915,166869.67213393963,2010-09-23 14:09:00,180.09162167410187,7,15,-1.0993878841400146,3.9336748123168954,14.8521619251884,13.916256993298903,59.21329797784526,50.83477601677176,-0.0002590179501567,0.0931148082017898,0,0,0
4916,166899.6874217307,2010-09-23 14:09:30,210.10690946516496,7,15,-1.099568486213684,3.923799753189087,14.8521619251884,13.925424619802977,59.21329797784526,50.87079211744094,-0.0002590179501567,0.0931148082017898,0,0,0
4917,166929.70269250424,2010-09-23 14:10:00,240.12218024376236,7,15,-1.099568486213684,3.914734125137329,14.8521619251884,13.93459232828192,59.21329797784526,50.90672165326114,-0.0001942634553415,0.0931148082017898,0,0,0
4918,166959.71795562876,2010-09-23 14:10:30,270.1374433732664,7,15,-1.099568486213684,3.9056687355041504,14.8521619251884,13.943760055016938,59.21329797784526,50.94256880354775,-0.0002590179501567,0.0931148082017898,0,0,0
4919,166989.7332306179,2010-09-23 14:11:00,300.1527183623738,7,15,-1.099568486213684,3.8970887660980233,14.8521619251884,13.952927761957122,59.21329797784526,50.9783356943088,-0.0002266406954731,0.0931148082017898,0,0,0
4920,167019.74851735632,2010-09-23 14:11:30,330.1680050907843,7,15,-1.0993878841400146,3.8888325691223145,14.8521619251884,13.962095441686053,59.21329797784526,51.014025076412224,-0.0002266406954731,0.0931148082017898,0,0,0
4921,167049.76412308097,2010-09-23 14:12:00,360.1836108204711,7,15,-1.0993878841400146,3.880738258361816,14.8521619251884,13.971263182018475,59.21329797784526,51.04963862692717,-0.0001618862152099,0.0931148082017898,0,0,0
4922,167079.77906998113,2010-09-23 14:12:30,390.1985578108432,7,15,-1.0993878841400146,3.8726439476013184,14.8521619251884,13.980430824209048,59.21329797784526,51.08517709502899,-0.0001942634553415,0.0931148082017898,0,0,0
4923,167109.79435143637,2010-09-23 14:13:00,420.21383917085336,7,15,-1.099568486213684,3.86454963684082,14.8521619251884,13.989598578263164,59.21329797784526,51.12064285476004,-0.0002266406954731,0.0931148082017898,0,0,0
4924,167139.81159355075,2010-09-23 14:13:30,450.23108129022063,7,15,-1.099568486213684,3.856779098510742,14.8521619251884,13.99876690104421,59.21329797784526,51.15603875271589,-0.0001942634553415,0.0931148082017898,0,0,0
4925,167169.82487234203,2010-09-23 14:14:00,480.2443600815112,7,15,-1.099568486213684,3.849008560180664,14.8521619251884,14.00793400282325,59.21329797784526,51.19135861670425,-0.0001942634553415,0.0931148082017898,0,0,0
4926,167199.84015124087,2010-09-23 14:14:30,510.2596389753654,7,15,-1.0993878841400146,3.841399908065796,14.8521619251884,14.017101709932902,59.21329797784526,51.226611003008834,-0.0002266406954731,0.0931148082017898,0,0,0
4927,167229.85542090668,2010-09-23 14:15:00,540.2749086512101,7,15,-1.0997490882873535,3.8339531421661377,14.8521619251884,14.02626943791895,59.21329797784526,51.26179447570409,-0.0001942634553415,0.0931148082017898,0,0,0
4928,167259.87071968018,2010-09-23 14:15:30,570.290207424687,7,15,-1.0997490882873535,3.826668500900269,14.8521619251884,14.03543715349172,59.21329797784526,51.29691021436151,-0.0002266406954731,0.0931148082017898,0,0,0
4929,167289.88609644835,2010-09-23 14:16:00,600.3055842830759,7,15,-1.0997490882873535,3.8195455074310303,14.8521619251884,14.044604929217916,59.21329797784526,51.33195977266021,-0.0002590179501567,0.0931148082017898,0,0,0
4930,167319.90126532258,2010-09-23 14:16:30,630.320753067079,7,15,-1.099568486213684,3.812422513961792,14.8521619251884,14.053772640711593,59.21329797784526,51.366944123712365,-0.0002266406954731,0.0931148082017898,0,0,0
4931,167349.91663675744,2010-09-23 14:17:00,660.3361244919048,7,15,-1.099568486213684,3.805461406707764,14.8521619251884,14.062940398215911,59.21329797784526,51.40186366182068,-0.0001942634553415,0.0931148082017898,0,0,0
4932,167379.9320158614,2010-09-23 14:17:30,690.351503615949,7,15,-1.099568486213684,3.798662185668945,14.8521619251884,14.072108171698002,59.21329797784526,51.43671995922713,-0.0001942634553415,0.0931148082017898,0,0,0
4933,167409.947061493,2010-09-23 14:18:00,720.3665492375198,7,15,-1.0993878841400146,3.792024850845337,14.8521619251884,14.081275839713928,59.21329797784526,51.4715140132426,-0.0001618862152099,0.0931148082017898,0,0,0
4934,167439.9623390836,2010-09-23 14:18:30,750.381826818096,7,15,-1.099568486213684,3.785387516021729,14.8521619251884,14.090443553428736,59.21329797784526,51.50624765724837,-0.0001618862152099,0.0931148082017898,0,0,0
4935,167469.97765112523,2010-09-23 14:19:00,780.3971388847547,7,15,-1.099568486213684,3.77891206741333,14.8521619251884,14.099611347091445,59.21329797784526,51.54092199245222,-0.0001942634553415,0.0931148082017898,0,0,0
4936,167499.99289596907,2010-09-23 14:19:30,810.4123837035523,7,15,-1.0993878841400146,3.772760391235352,14.8521619251884,14.108779144282328,59.21329797784526,51.57553779890268,-0.0001618862152099,0.0931148082017898,0,0,0
4937,167530.00817021632,2010-09-23 14:20:00,840.427657960833,7,15,-1.099568486213684,3.766446828842163,14.8521619251884,14.117946858123988,59.21329797784526,51.610095592447045,-0.0001942634553415,0.0931148082017898,0,0,0
4938,167560.02342585212,2010-09-23 14:20:30,870.4429135866067,7,15,-1.099568486213684,3.760133266448975,14.8521619251884,14.12711461270026,59.21329797784526,51.64459733152338,-0.0002266406954731,0.0931148082017898,0,0,0
4939,167590.0386949816,2010-09-23 14:21:00,900.4581827210999,7,15,-1.0993878841400146,3.754467248916626,14.8521619251884,14.136282359799536,59.21329797784526,51.67904414082777,-0.0001295089750783,0.0931148082017898,0,0,0
4940,167620.05398295313,2010-09-23 14:21:30,930.4734706926135,7,15,-1.099568486213684,3.7486395835876474,14.8521619251884,14.145450134877056,59.21329797784526,51.71343701740564,-0.0001295089750783,0.0931148082017898,0,0,0
4941,167650.06924623298,2010-09-23 14:22:00,960.4887339724928,7,15,-1.099568486213684,3.742811679840088,14.8521619251884,14.154617896069016,59.21329797784526,51.7477770225435,-0.0001942634553415,0.0931148082017898,0,0,0
4942,167680.08458410407,2010-09-23 14:22:30,990.5040718385508,7,15,-1.099568486213684,3.737469434738159,14.8521619251884,14.16378567426242,59.21329797784526,51.78206510954898,-9.713172767078504e-05,0.0931148082017898,0,0,0
4943,167710.09978120375,2010-09-23 14:23:00,1020.5192689382344,7,15,-1.099568486213684,3.7316415309906006,14.8521619251884,14.17295342320742,59.21329797784526,51.816301857017976,-0.0001295089750783,0.0931148082017898,0,0,0
4944,167740.11696848625,2010-09-23 14:23:30,1050.5364562307452,7,15,-1.099568486213684,3.726299285888672,14.8521619251884,14.182121753917937,59.21329797784526,51.85049122284459,-0.0001942634553415,0.0931148082017898,0,0,0
4945,167770.1303347559,2010-09-23 14:24:00,1080.5498224903702,7,15,-1.099568486213684,3.721280813217163,14.8521619251884,14.191288961368896,59.21329797784526,51.88462778285288,-0.0001295089750783,0.0931148082017898,0,0,0
4946,167800.14561673746,2010-09-23 14:24:30,1110.565104471932,7,15,-1.099568486213684,3.716100454330444,14.8521619251884,14.20045669556144,59.21329797784526,51.918718125581606,-9.713172767078504e-05,0.0931148082017898,0,0,0
4947,167830.16091132548,2010-09-23 14:25:00,1140.580399059961,7,15,-1.099568486213684,3.710758209228516,14.8521619251884,14.209624452392568,59.21329797784526,51.95276139733777,-0.0001618862152099,0.0931148082017898,0,0,0
4948,167860.17616316178,2010-09-23 14:25:30,1170.5956508962756,7,15,-1.0997490882873535,3.705577850341797,14.8521619251884,14.218792205233258,59.21329797784526,51.9867581385205,-0.0001618862152099,0.0931148082017898,0,0,0
4949,167890.19142283767,2010-09-23 14:26:01,1200.610910582184,7,15,-1.099568486213684,3.700721263885498,14.8521619251884,14.227960003484608,59.21329797784526,52.020709226853576,-0.0001618862152099,0.0931148082017898,0,0,0
4950,167920.20669672903,2010-09-23 14:26:31,1230.6261844635264,7,15,-1.099568486213684,3.695864677429199,14.8521619251884,14.237127745864353,59.21329797784526,52.05461487087949,-0.0001295089750783,0.0931148082017898,0,0,0
4951,167950.22202919662,2010-09-23 14:27:01,1260.641516931109,7,15,-1.099568486213684,3.6911699771881104,14.8521619251884,14.246295563427168,59.21329797784526,52.08847602963807,-9.713172767078504e-05,0.0931148082017898,0,0,0
4952,167980.23725103308,2010-09-23 14:27:31,1290.6567387675389,7,15,-1.0993878841400146,3.686313390731812,14.8521619251884,14.255463163501894,59.21329797784526,52.12229186935989,-0.0001295089750783,0.0931148082017898,0,0,0
4953,168010.25263554056,2010-09-23 14:28:01,1320.672123275021,7,15,-1.0997490882873535,3.6814568042755127,14.8521619251884,14.264630361558575,59.21329797784526,52.15606341776552,-0.0001618862152099,0.0931148082017898,0,0,0
4954,168040.26779947747,2010-09-23 14:28:31,1350.6872872119252,7,15,-1.099568486213684,3.677085876464844,14.8521619251884,14.273797494351006,59.21329797784526,52.18979213119256,-9.713172767078504e-05,0.0931148082017898,0,0,0
4955,168070.28306112826,2010-09-23 14:29:01,1380.702548852713,7,15,-1.099568486213684,3.672391414642334,14.8521619251884,14.282964710549914,59.21329797784526,52.2234795436975,-0.0001618385285837,0.0931148082017898,0,0,0
4956,168100.2984700868,2010-09-23 14:29:31,1410.7179579164915,7,15,-1.0993878841400146,3.668182373046875,14.8521619251884,14.292132069536269,59.21329797784526,52.25712661717411,-0.0001295089750783,0.0931148082017898,0,0,0
4957,168130.3136090864,2010-09-23 14:30:01,1440.7330968209108,7,15,-1.0993878841400146,3.663811445236206,14.8521619251884,14.301299777831128,59.21329797784526,52.29073478294698,-9.713172767078504e-05,0.0931148082017898,0,0,0
4958,168160.32890711306,2010-09-23 14:30:31,1470.7483948525355,7,15,-1.099568486213684,3.659602403640747,14.8521619251884,14.310467626692656,59.21329797784526,52.32430407684637,-9.713172767078504e-05,0.0931148082017898,0,0,0
4959,168190.34420720983,2010-09-23 14:31:01,1500.763695049566,7,15,-1.099568486213684,3.655555248260498,14.8521619251884,14.319635508164716,59.21329797784526,52.35783505487563,-9.713172767078504e-05,0.0931148082017898,0,0,0
4960,168220.35910599487,2010-09-23 14:31:31,1530.7785934135593,7,15,-1.0997490882873535,3.651346206665039,14.8521619251884,14.328774723254025,59.21329797784526,52.391223842141855,-9.713172767078504e-05,0.0931148082017898,0,0,0
4961,168250.35914191994,2010-09-23 14:32:01,1560.7786297496443,7,15,-1.0997490882873535,3.64713716506958,14.8521619251884,14.337966573816749,59.21329797784526,52.42476751588153,-0.0001295089750783,0.0931148082017898,0,0,0
4962,168280.35915032128,2010-09-23 14:32:31,1590.7786380858372,7,15,-1.099568486213684,3.643251895904541,14.8521619251884,14.34712974469256,59.21329797784526,52.458169038644925,-9.713172767078504e-05,0.0931148082017898,0,0,0
4963,168310.37414200822,2010-09-23 14:33:01,1620.7936297376914,7,15,-1.099568486213684,3.639204740524292,14.8521619251884,14.356297513325853,59.21329797784526,52.49155111888764,-9.713172767078504e-05,0.0931148082017898,0,0,0
4964,168340.38929721335,2010-09-23 14:33:31,1650.808784947812,7,15,-1.0997490882873535,3.635319471359253,14.8521619251884,14.365465354984812,59.21329797784526,52.52489732477552,-0.0001295089750783,0.0931148082017898,0,0,0
4965,168370.4045566536,2010-09-23 14:34:01,1680.8240444131698,7,15,-1.0993878841400146,3.631757974624634,14.8521619251884,14.37463323920026,59.21329797784526,52.55820880915659,-6.47544875391759e-05,0.0931148082017898,0,0,0
4966,168400.42060696808,2010-09-23 14:34:31,1710.840094702546,7,15,-1.0993878841400146,3.6280345916748047,14.8521619251884,14.383801382740783,59.21329797784526,52.591487013646734,-6.47544875391759e-05,0.0931148082017898,0,0,0
4967,168430.43515330835,2010-09-23 14:35:01,1740.8546411380717,7,15,-1.099568486213684,3.6241493225097656,14.8521619251884,14.392969011565652,59.21329797784526,52.62473006197256,-0.0001618862152099,0.0931148082017898,0,0,0
4968,168460.45040568602,2010-09-23 14:35:31,1770.869893425512,7,15,-1.0997490882873535,3.620749711990357,14.8521619251884,14.40213686785563,59.21329797784526,52.657941113135685,-9.713172767078504e-05,0.0931148082017898,0,0,0
4969,168490.46578769726,2010-09-23 14:36:01,1800.8852754317509,7,15,-1.099568486213684,3.6173501014709473,14.8521619251884,14.411304776415186,59.21329797784526,52.69111998510395,-6.47544875391759e-05,0.0931148082017898,0,0,0
4970,168520.481110606,2010-09-23 14:36:31,1830.9005984407231,7,15,-1.0997490882873535,3.613950490951538,14.8521619251884,14.420472683161949,59.21329797784526,52.7242669131043,-3.237724376958795e-05,0.0931148082017898,0,0,0
4971,168550.4963734598,2010-09-23 14:37:01,1860.9158612043136,7,15,-1.0997490882873535,3.610388994216919,14.8521619251884,14.42964056156347,59.21329797784526,52.75738257268188,-9.713172767078504e-05,0.0931148082017898,0,0,0
4972,168580.5116416369,2010-09-23 14:37:31,1890.9311293814176,7,15,-1.0997490882873535,3.60715126991272,14.8521619251884,14.438808456904578,59.21329797784526,52.79046736727109,-6.47544875391759e-05,0.0931148082017898,0,0,0
4973,168610.52680390966,2010-09-23 14:38:01,1920.9462916441423,7,15,-1.0997490882873535,3.603751659393311,14.8521619251884,14.447976212099272,59.21329797784526,52.8235211913218,-0.0001295089750783,0.0931148082017898,0,0,0
4974,168640.54246262662,2010-09-23 14:38:31,1950.961950381144,7,15,-1.0997490882873535,3.6006758213043213,14.8521619251884,14.457144220656524,59.21329797784526,52.85654642976347,-6.47544875391759e-05,0.0931148082017898,0,0,0
4975,168670.55731682535,2010-09-23 14:39:01,1980.976804559844,7,15,-1.0993878841400146,3.597599983215332,14.8521619251884,14.466311996911784,59.21329797784526,52.88954202176888,-6.47544875391759e-05,0.0931148082017898,0,0,0
4976,168700.57301773762,2010-09-23 14:39:31,2010.9925054921707,7,15,-1.099568486213684,3.594362258911133,14.8521619251884,14.475480006761703,59.21329797784526,52.92250969730104,-9.713172767078504e-05,0.0931148082017898,0,0,0
4977,168730.58799820658,2010-09-23 14:40:01,2041.0074859410608,7,15,-1.099568486213684,3.5914485454559326,14.8521619251884,14.48464776236059,59.21329797784526,52.95544857078527,-3.237724376958795e-05,0.0931148082017898,0,0,0
4978,168760.60328442373,2010-09-23 14:40:31,2071.0227721581946,7,15,-1.0997490882873535,3.588372707366944,14.8521619251884,14.49381565738942,59.21329797784526,52.98836019222478,-9.713172767078504e-05,0.0931148082017898,0,0,0
4979,168790.61855000432,2010-09-23 14:41:01,2101.038037834054,7,15,-1.099568486213684,3.585134983062744,14.8521619251884,14.502983633859872,59.21329797784526,53.02124397228904,-9.713172767078504e-05,0.0931148082017898,0,0,0
4980,168820.63386285296,2010-09-23 14:41:31,2131.0533505974527,7,15,-1.0993878841400146,3.582382917404175,14.8521619251884,14.512151540732685,59.21329797784526,53.05409953670976,-3.237724376958795e-05,0.0931148082017898,0,0,0
4981,168850.64897632887,2010-09-23 14:42:01,2161.068464063373,7,15,-1.099568486213684,3.5789833068847656,14.8521619251884,14.52131935149666,59.21329797784526,53.086926876873136,-9.713172767078504e-05,0.0931148082017898,0,0,0
4982,168880.66425509745,2010-09-23 14:42:31,2191.0837429472026,7,15,-1.0997490882873535,3.5760693550109863,14.8521619251884,14.530487191010238,59.21329797784526,53.11972603642037,-9.713172767078504e-05,0.0931148082017898,0,0,0
4983,168910.67951726454,2010-09-23 14:43:01,2221.099005004029,7,15,-1.099568486213684,3.573155403137207,14.8521619251884,14.539655070588594,59.21329797784526,53.15249728215688,-6.47544875391759e-05,0.0931148082017898,0,0,0
4984,168940.6948027799,2010-09-23 14:43:31,2251.1142905143997,7,15,-1.099568486213684,3.569917678833008,14.8521619251884,14.5488229649468,59.21329797784526,53.18524046419402,-6.47544875391759e-05,0.0931148082017898,0,0,0
4985,168970.71021696148,2010-09-23 14:44:01,2281.1297047109906,7,15,-1.099568486213684,3.5668418407440186,14.8521619251884,14.557990941307205,59.21329797784526,53.21795528125677,-3.237724376958795e-05,0.0931148082017898,0,0,0
4986,169000.7254783717,2010-09-23 14:44:31,2311.144966106165,7,15,-1.099568486213684,3.56360411643982,14.8521619251884,14.567158764314533,59.21329797784526,53.25064090815955,-0.0001295089750783,0.0931148082017898,0,0,0
4987,169030.74112309873,2010-09-23 14:45:01,2341.1606109534955,7,15,-1.099568486213684,3.56052827835083,14.8521619251884,14.57632671550749,59.21329797784526,53.28329832769037,-6.47544875391759e-05,0.0931148082017898,0,0,0
4988,169060.75589460606,2010-09-23 14:45:31,2371.17538235056,7,15,-1.0997490882873535,3.557128667831421,14.8521619251884,14.585494406096618,59.21329797784526,53.31592588403901,-0.0001618862152099,0.0931148082017898,0,0,0
4989,169090.7713210382,2010-09-23 14:46:01,2401.190808782692,7,15,-1.0997490882873535,3.554052829742432,14.8521619251884,14.594662379944277,59.21329797784526,53.34852522111695,-0.0001295089750783,0.0931148082017898,0,0,0
4990,169120.78649474448,2010-09-23 14:46:31,2431.205982499007,7,15,-1.099568486213684,3.5509769916534424,14.8521619251884,14.603830240097167,59.21329797784526,53.38109446205238,-6.47544875391759e-05,0.0931148082017898,0,0,0
4991,169150.8017174681,2010-09-23 14:47:01,2461.221205202602,7,15,-1.099568486213684,3.547577381134033,14.8521619251884,14.612998119612346,59.21329797784526,53.413633481741485,-9.713172767078504e-05,0.0931148082017898,0,0,0
4992,169180.81699620158,2010-09-23 14:47:31,2491.236483936056,7,15,-1.099568486213684,3.544015884399414,14.8521619251884,14.622166061489215,59.21329797784526,53.446141278770526,-0.0001295089750783,0.0931148082017898,0,0,0
4993,169210.83225675463,2010-09-23 14:48:01,2521.2517444891287,7,15,-1.099568486213684,3.540616273880005,14.8521619251884,14.631333957009788,59.21329797784526,53.47861665533196,-6.47544875391759e-05,0.0931148082017898,0,0,0
4994,169240.847600746,2010-09-23 14:48:31,2551.2670885757134,7,15,-1.099568486213684,3.536892890930176,14.8521619251884,14.64050188484886,59.21329797784526,53.51105943566756,-6.47544875391759e-05,0.0931148082017898,0,0,0
4995,169270.86306338853,2010-09-23 14:49:01,2581.282551122996,7,15,-1.099568486213684,3.5331695079803467,14.8521619251884,14.64966990326258,59.21329797784526,53.54346842723316,-0.0001295089750783,0.0931148082017898,0,0,0
4996,169300.8787024414,2010-09-23 14:49:31,2611.2981901909,7,15,-1.099568486213684,3.5294461250305176,14.8521619251884,14.658837912941168,59.21329797784526,53.575842697710144,-6.47544875391759e-05,0.0931148082017898,0,0,0
4997,169330.8933597236,2010-09-23 14:50:01,2641.312847458078,7,15,-1.099568486213684,3.525398969650269,14.8521619251884,14.668005597880947,59.21329797784526,53.60817953303397,-9.713172767078504e-05,0.0931148082017898,0,0,0
4998,169360.90883054154,2010-09-23 14:50:31,2671.328318276004,7,15,-1.0997490882873535,3.5208661556243896,14.8521619251884,14.677173529715516,59.21329797784526,53.64047901951517,-0.0001295089750783,0.0931148082017898,0,0,0
4999,169390.9238984738,2010-09-23 14:51:01,2701.343386208266,7,15,-1.099568486213684,3.5164952278137207,14.8521619251884,14.686341280337304,59.21329797784526,53.67273812819214,-9.713172767078504e-05,0.0931148082017898,0,0,0
5000,169420.9391731421,2010-09-23 14:51:31,2731.3586608765727,7,15,-1.099568486213684,3.511800527572632,14.8521619251884,14.695509205783,59.21329797784526,53.70495593639109,-9.713172767078504e-05,0.0931148082017898,0,0,0
5001,169450.95447395067,2010-09-23 14:52:01,2761.3739616851294,7,15,-1.099568486213684,3.506944179534912,14.8521619251884,14.704677156798162,59.21329797784526,53.73712957016486,-0.0001295089750783,0.0931148082017898,0,0,0
5002,169480.96977133065,2010-09-23 14:52:31,2791.3892590701403,7,15,-1.099568486213684,3.501440048217773,14.8521619251884,14.713845190389948,59.21329797784526,53.76925643870225,-0.0001618862152099,0.0931148082017898,0,0,0
5003,169510.9848736788,2010-09-23 14:53:01,2821.4043611025213,7,15,-1.0997490882873535,3.495612144470215,14.8521619251884,14.723014107584676,59.21329797784526,53.80133482804865,-0.0001618862152099,0.0931148082017898,0,0,0
5004,169541.000339404,2010-09-23 14:53:31,2851.419827158561,7,15,-1.0997490882873535,3.4889748096466064,14.8521619251884,14.732183123100796,59.21329797784526,53.83335580216422,-0.0001618862152099,0.0931148082017898,0,0,0
5005,169571.01554080445,2010-09-23 14:54:01,2881.4350285339174,7,15,-1.099929690361023,3.481528043746948,14.8521619251884,14.741352109428318,59.21329797784526,53.86531252619208,-0.0001942634553415,0.0931148082017898,0,0,0
5006,169601.0308121996,2010-09-23 14:54:31,2911.4502999340666,7,15,-1.0997490882873535,3.47359561920166,14.8521619251884,14.750520925770903,59.21329797784526,53.89719763865707,-0.0001942634553415,0.0931148082017898,0,0,0
5007,169631.0459168184,2010-09-23 14:55:01,2941.4654043323526,7,15,-1.099568486213684,3.4643681049346924,14.8521619251884,14.759688799589105,59.21329797784526,53.92900138851368,-0.0002590179501567,0.0931148082017898,0,0,0
5008,169661.0614078167,2010-09-23 14:55:31,2971.4808956464403,7,15,-1.099568486213684,3.454007387161255,14.8521619251884,14.768856797773216,59.21329797784526,53.96071643374968,-0.0002913951757363,0.0931148082017898,0,0,0
5009,169691.0765157689,2010-09-23 14:56:01,3001.49600328281,7,15,-1.099568486213684,3.4420278072357178,14.8521619251884,14.77802472400182,59.21329797784526,53.992329184127534,-0.0003561496851034,0.0931148082017898,0,0,0
5010,169721.0919279705,2010-09-23 14:56:31,3031.511415709984,7,15,-1.099568486213684,3.4277820587158203,14.8521619251884,14.787192743014698,59.21329797784526,54.02382204658185,-0.0004209041653666,0.0931148082017898,0,0,0
5011,169751.10718419275,2010-09-23 14:57:01,3061.526671942271,7,15,-1.099568486213684,3.4104602336883545,14.8521619251884,14.796360792858293,59.21329797784526,54.05517114755877,-0.0005180359003134,0.0931148082017898,0,0,0
5012,169781.1075868833,2010-09-23 14:57:31,3091.527074612783,7,15,-1.099568486213684,3.38811993598938,14.8521619251884,14.8055242247706,59.21329797784526,54.08632512227035,-0.0007122993702068,0.0931148082017898,0,0,0
5013,169811.12284184745,2010-09-23 14:58:01,3121.542329601968,7,15,-1.099568486213684,3.358656644821167,14.8521619251884,14.814692252630396,59.21329797784526,54.11726011129788,-0.0009389400365762,0.0931148082017898,0,0,0
5014,169841.1381728263,2010-09-23 14:58:31,3151.557660585847,7,15,-1.099568486213684,3.317699670791626,14.8521619251884,14.823860246466364,59.21329797784526,54.14787589355805,-0.0012950897216796,0.0931148082017898,0,0,0
5015,169871.15339075797,2010-09-23 14:59:01,3181.5728785024926,7,15,-1.099568486213684,3.25844955444336,14.8521619251884,14.833028168683445,59.21329797784526,54.17803803638619,-0.0018778800731524,0.0931148082017898,0,0,0
5016,169901.16858219853,2010-09-23 14:59:32,3211.5880699580875,7,15,-1.099568486213684,3.1708693504333496,14.8521619251884,14.842195986168546,59.21329797784526,54.20753751056508,-0.0027844428550451,0.0931148082017898,0,0,0
5017,169931.1838399346,2010-09-23 15:00:02,3241.6033276690664,7,15,-1.099568486213684,3.029542922973633,14.8521619251884,14.85136375553338,59.21329797784526,54.2360218974814,-0.0048889638856053,0.0931148082017898,0,0,0
5018,169951.94921877483,2010-09-23 15:00:22,3262.3687065343875,7,15,-1.0993878841400146,2.8291285037994385,14.8521619251884,14.857706305683823,59.21329797784526,54.25468642375591,-0.0104254242032766,0.0931148082017898,0,0,0
5019,169960.21476606253,2010-09-23 15:00:31,3270.6342538070026,7,15,-1.0997490882873535,2.699620008468628,14.8521619251884,14.86023088471032,59.21329797784526,54.26167043024691,-0.013145113363862,0.0931148082017898,0,0,0
5020,170020.22562540046,2010-09-23 15:01:31,60.014923978315096,8,15,0.0,3.396538019180298,14.8521619251884,14.86023088471032,59.21329797784526,54.26167043024691,0.0014893531333655,0.0931148082017898,0,0,0
5021,170020.40973185035,2010-09-23 15:01:31,0.18746098144985,9,15,-1.9243103452026844e-05,3.396538019180298,14.8521619251884,14.860230885712358,59.21329797784526,54.261670433650366,0.0,0.0906038731336593,0,0,0
5022,170025.23824202965,2010-09-23 15:01:36,5.015971190780063,9,15,0.0007031940040178,3.4054417610168457,14.85216284736526,14.860230885879208,59.213301114774886,54.26167043421707,0.0012627125252038,0.0906038731336593,0,0,0
