Data_Point,Test_Time(s),Date_Time,Step_Time(s),Step_Index,Cycle_Index,Current(A),Voltage(V),Charge_Capacity(Ah),Discharge_Capacity(Ah),Charge_Energy(Wh),Discharge_Energy(Wh),dV/dt(V/s),Internal_Resistance(Ohm),Is_FC_Data,AC_Impedance(Ohm),ACI_Phase_Angle(Deg)
14251,481976.0688338185,2010-09-27 05:41:18,30.01529062814487,1,43,0.0,3.3902244567871094,42.0700437340151,42.10960857809783,167.55515477749552,154.18518829297955,0.0008741855854168,0.0884163826704025,0,0,0
14252,482006.0841367373,2010-09-27 05:41:48,60.030593541956655,1,43,0.0,3.416773796081543,42.0700437340151,42.10960857809783,167.55515477749552,154.18518829297955,0.0005827903514727,0.0884163826704025,0,0,0
14253,482036.0995881719,2010-09-27 05:42:18,90.04604499153656,1,43,0.0,3.437009334564209,42.0700437340151,42.10960857809783,167.55515477749552,154.18518829297955,0.0004856586456298,0.0884163826704025,0,0,0
14254,482066.06786198384,2010-09-27 05:42:48,120.01431878843728,1,43,0.0,3.453036069869995,42.0700437340151,42.10960857809783,167.55515477749552,154.18518829297955,0.0004209041653666,0.0884163826704025,0,0,0
14255,482096.0842824588,2010-09-27 05:43:18,30.015278673303747,2,43,0.5499359965324402,3.6001901626586914,42.07463030855892,42.10960857809783,167.5715099097327,154.18518829297955,0.0015217304462566,0.0884163826704025,0,0,0
14256,482126.0997575925,2010-09-27 05:43:48,60.03075380700287,2,43,0.550297200679779,3.64616584777832,42.079216830979725,42.10960857809783,167.5881347255062,154.18518829297955,0.0010036944877356,0.0884163826704025,0,0,0
14257,482156.1150621654,2010-09-27 05:44:18,90.04605840501868,2,43,0.550297200679779,3.679352283477783,42.08380331547865,42.10960857809783,167.60493766306286,154.18518829297955,0.0007446765666827,0.0884163826704025,0,0,0
14258,482186.13034818217,2010-09-27 05:44:48,120.06134440160244,2,43,0.5499359965324402,3.705092191696167,42.08838982649171,42.10960857809783,167.62187441496926,154.18518829297955,0.0006475448608398,0.0884163826704025,0,0,0
14259,482216.1455814471,2010-09-27 05:45:18,150.0765776615475,2,43,0.5501165986061096,3.726299285888672,42.09297637416519,42.10960857809783,167.63891811679858,154.18518829297955,0.0005180359003134,0.0884163826704025,0,0,0
14260,482246.1611130668,2010-09-27 05:45:48,180.09210929126937,2,43,0.5499359965324402,3.743135452270508,42.097562798226384,42.10960857809783,167.65604811367,154.18518829297955,0.0003885269106831,0.0884163826704025,0,0,0
14261,482276.1761628137,2010-09-27 05:46:18,210.107159033125,2,43,0.5501165986061096,3.7560861110687256,42.10214842359981,42.10960857809783,167.67324393114222,154.18518829297955,0.0002913951757363,0.0884163826704025,0,0,0
14262,482306.1914547852,2010-09-27 05:46:48,240.12245099961052,2,43,0.5499359965324402,3.7640185356140137,42.10673420526993,42.10960857809783,167.69048804764387,154.18518829297955,0.0001618862152099,0.0884163826704025,0,0,0
14263,482336.2069166758,2010-09-27 05:47:18,270.1379129052905,2,43,0.5501165986061096,3.768713235855103,42.111319939150896,42.10960857809783,167.7077601864449,154.18518829297955,0.0001295089750783,0.0884163826704025,0,0,0
14264,482366.2220729336,2010-09-27 05:47:48,300.1530691479886,2,43,0.5501165986061096,3.772436618804932,42.11590569777905,42.10960857809783,167.7250512095898,154.18518829297955,9.713172767078504e-05,0.0884163826704025,0,0,0
14265,482396.2382391623,2010-09-27 05:48:18,330.1692353767674,2,43,0.5499359965324402,3.775674343109131,42.12049159895764,42.10960857809783,167.7423587537487,154.18518829297955,6.47544875391759e-05,0.0884163826704025,0,0,0
14266,482426.2527142397,2010-09-27 05:48:48,360.1837105794849,2,43,0.5499359965324402,3.77907395362854,42.12507726393471,42.10960857809783,167.75968074698466,154.18518829297955,6.47544875391759e-05,0.0884163826704025,0,0,0
14267,482456.2680109531,2010-09-27 05:49:18,390.1990071725192,2,43,0.5499359965324402,3.7823116779327393,42.12966309761494,42.10960857809783,167.77701853130313,154.18518829297955,6.47544875391759e-05,0.0884163826704025,0,0,0
14268,482486.28332724026,2010-09-27 05:49:48,420.2143235449256,2,43,0.550297200679779,3.7855494022369385,42.13424881211069,42.10960857809783,167.79437085714474,154.18518829297955,6.47544875391759e-05,0.0884163826704025,0,0,0
14269,482516.2986301891,2010-09-27 05:50:18,450.22962650385,2,43,0.5499359965324402,3.7887871265411377,42.138834550969854,42.10960857809783,167.8117380544942,154.18518829297955,9.713172767078504e-05,0.0884163826704025,0,0,0
14270,482546.31394292746,2010-09-27 05:50:48,480.24493915196007,2,43,0.5499359965324402,3.791862964630127,42.14342037982903,42.10960857809783,167.8291201528715,154.18518829297955,6.47544875391759e-05,0.0884163826704025,0,0,0
14271,482576.3292300218,2010-09-27 05:51:18,510.260226246284,2,43,0.5501165986061096,3.795100688934326,42.14800610570916,42.10960857809783,167.84651620282833,154.18518829297955,6.47544875391759e-05,0.0884163826704025,0,0,0
14272,482606.34456846927,2010-09-27 05:51:48,540.2755646837683,2,43,0.5501165986061096,3.798176527023315,42.15259195415271,42.10960857809783,167.8639270340536,154.18518829297955,6.47544875391759e-05,0.0884163826704025,0,0,0
14273,482636.3600499037,2010-09-27 05:52:18,570.291046118195,2,43,0.5501165986061096,3.8012523651123047,42.15717779791181,42.10960857809783,167.8813518989431,154.18518829297955,9.713172767078504e-05,0.0884163826704025,0,0,0
14274,482666.3751460915,2010-09-27 05:52:48,600.3061423059869,2,43,0.5501165986061096,3.804166316986084,42.161763588101,42.10960857809783,167.89879033270455,154.18518829297955,6.47544875391759e-05,0.0884163826704025,0,0,0
14275,482696.3904546996,2010-09-27 05:53:18,630.3214509140123,2,43,0.5501165986061096,3.807242155075073,42.1663494140597,42.10960857809783,167.91624266016922,154.18518829297955,0.0001295089750783,0.0884163826704025,0,0,0
14276,482726.40588135726,2010-09-27 05:53:48,660.3368775817328,2,43,0.5501165986061096,3.8103179931640634,42.170935334225184,42.10960857809783,167.93370918476796,154.18518829297955,9.713172767078504e-05,0.0884163826704025,0,0,0
14277,482756.4210916048,2010-09-27 05:54:18,690.3520878292352,2,43,0.5501165986061096,3.813393831253052,42.17552113407121,42.10960857809783,167.95118918284632,154.18518829297955,9.713172767078504e-05,0.0884163826704025,0,0,0
14278,482786.4363762229,2010-09-27 05:54:48,720.3673724373532,2,43,0.5499359965324402,3.816469669342041,42.18010691444052,42.10960857809783,167.9686834600934,154.18518829297955,9.713172767078504e-05,0.0884163826704025,0,0,0
14279,482816.4518193266,2010-09-27 05:55:18,750.3828156413509,2,43,0.5499359965324402,3.8195455074310303,42.18469276127249,42.10960857809783,167.98619236107737,154.18518829297955,6.47544875391759e-05,0.0884163826704025,0,0,0
14280,482846.4669764816,2010-09-27 05:55:49,780.3979727010885,2,43,0.5499359965324402,3.82294511795044,42.189278564679135,42.10960857809783,168.00371593170544,154.18518829297955,9.713172767078504e-05,0.0884163826704025,0,0,0
14281,482876.4824192796,2010-09-27 05:56:19,810.4134154990726,2,43,0.5499359965324402,3.8263447284698486,42.193864411875936,42.10960857809783,168.02125485244775,154.18518829297955,0.0001295089750783,0.0884163826704025,0,0,0
14282,482906.49758827913,2010-09-27 05:56:49,840.4285844936013,2,43,0.5499359965324402,3.829582452774048,42.19845018258125,42.10960857809783,168.03880895980996,154.18518829297955,6.47544875391759e-05,0.0884163826704025,0,0,0
14283,482936.512891223,2010-09-27 05:57:19,870.4438874374881,2,43,0.5499359965324402,3.832982063293457,42.203036020349245,42.10960857809783,168.05637895276394,154.18518829297955,6.47544875391759e-05,0.0884163826704025,0,0,0
14284,482966.5282212194,2010-09-27 05:57:49,900.4592174339023,2,43,0.5501165986061096,3.836543321609497,42.2076218415417,42.10960857809783,168.07396447980688,154.18518829297955,0.0001295089750783,0.0884163826704025,0,0,0
14285,482996.5435185493,2010-09-27 05:58:19,930.4745147637758,2,43,0.5501165986061096,3.839781045913696,42.21220763195336,42.10960857809783,168.09156534886412,154.18518829297955,6.47544875391759e-05,0.0884163826704025,0,0,0
14286,483026.5588067915,2010-09-27 05:58:49,960.4898030059647,2,43,0.5501165986061096,3.843018770217896,42.21679339720444,42.10960857809783,168.10918139649507,154.18518829297955,6.47544875391759e-05,0.0884163826704025,0,0,0
14287,483056.57411611633,2010-09-27 05:59:19,990.5051123307796,2,43,0.5501165986061096,3.8464183807373047,42.22137929579702,42.10960857809783,168.1268127971462,154.18518829297955,0.0001295089750783,0.0884163826704025,0,0,0
14288,483086.58941543614,2010-09-27 05:59:49,1020.5204116606452,2,43,0.5501165986061096,3.849656105041504,42.22596508103659,42.10960857809783,168.14445836125898,154.18518829297955,0.0001295089750783,0.0884163826704025,0,0,0
14289,483116.604730791,2010-09-27 06:00:19,1050.5357270054867,2,43,0.5501165986061096,3.852570056915283,42.23055094985056,42.10960857809783,168.162118489097,154.18518829297955,9.713172767078504e-05,0.0884163826704025,0,0,0
14290,483146.62002515845,2010-09-27 06:00:49,1080.5510213729656,2,43,0.5499359965324402,3.855322122573853,42.23513677130387,42.10960857809783,168.179792325396,154.18518829297955,3.237724376958795e-05,0.0884163826704025,0,0,0
14291,483176.6353471299,2010-09-27 06:01:19,1110.5663433493603,2,43,0.5501165986061096,3.858397960662842,42.23972255642054,42.10960857809783,168.1974795947867,154.18518829297955,6.47544875391759e-05,0.0884163826704025,0,0,0
14292,483206.6507749304,2010-09-27 06:01:49,1140.5817711499087,2,43,0.5499359965324402,3.861311912536621,42.244308348665136,42.10960857809783,168.2151799910996,154.18518829297955,0.0001295089750783,0.0884163826704025,0,0,0
14293,483236.6659773133,2010-09-27 06:02:19,1170.5969735277674,2,43,0.5499359965324402,3.863902091979981,42.248894150584746,42.10960857809783,168.23289305474455,154.18518829297955,6.47544875391759e-05,0.0884163826704025,0,0,0
14294,483266.68124397664,2010-09-27 06:02:49,1200.6122401910925,2,43,0.5499359965324402,3.86633038520813,42.25347988912832,42.10960857809783,168.25061784783747,154.18518829297955,3.237724376958795e-05,0.0884163826704025,0,0,0
14295,483296.69655820366,2010-09-27 06:03:19,1230.6275544081188,2,43,0.5499359965324402,3.8687586784362793,42.25806571049067,42.10960857809783,168.26835443268507,154.18518829297955,0.0,0.0884163826704025,0,0,0
14296,483326.7118868568,2010-09-27 06:03:49,1260.6428831664423,2,43,0.5499359965324402,3.8711869716644287,42.262651461500646,42.10960857809783,168.28610147395392,154.18518829297955,6.47544875391759e-05,0.0884163826704025,0,0,0
14297,483356.7273118904,2010-09-27 06:04:19,1290.6583081098588,2,43,0.5499359965324402,3.873291492462158,42.267237281675385,42.10960857809783,168.3038590038732,154.18518829297955,6.47544875391759e-05,0.0884163826704025,0,0,0
14298,483386.7426266688,2010-09-27 06:04:49,1320.6736229785115,2,43,0.5499359965324402,3.875396013259888,42.27182310866943,42.10960857809783,168.32162599133412,154.18518829297955,6.47544875391759e-05,0.0884163826704025,0,0,0
14299,483416.7577759692,2010-09-27 06:05:19,1350.6887721886555,2,43,0.5499359965324402,3.877176761627197,42.27640886806148,42.10960857809783,168.33940164043975,154.18518829297955,0.0,0.0884163826704025,0,0,0
14300,483446.7730811587,2010-09-27 06:05:49,1380.7040773731353,2,43,0.5501165986061096,3.878957509994507,42.28099466181476,42.10960857809783,168.357185774004,154.18518829297955,3.237724376958795e-05,0.0884163826704025,0,0,0
14301,483476.7883984182,2010-09-27 06:06:19,1410.7193946327566,2,43,0.5499359965324402,3.8805763721466064,42.28558046751712,42.10960857809783,168.374977609293,154.18518829297955,3.237724376958795e-05,0.0884163826704025,0,0,0
14302,483506.8036816631,2010-09-27 06:06:49,1440.7346778774713,2,43,0.5501165986061096,3.882195234298706,42.29016623030199,42.10960857809783,168.3927765171449,154.18518829297955,9.713172767078504e-05,0.0884163826704025,0,0,0
14303,483536.81899063697,2010-09-27 06:07:19,1470.74998685141,2,43,0.5499359965324402,3.8834903240203857,42.29475203010761,42.10960857809783,168.41058233627146,154.18518829297955,3.237724376958795e-05,0.0884163826704025,0,0,0
14304,483566.8342904781,2010-09-27 06:07:49,1500.7652866875392,2,43,0.5499359965324402,3.8847854137420654,42.29933790790832,42.10960857809783,168.4283948096457,154.18518829297955,3.237724376958795e-05,0.0884163826704025,0,0,0
14305,483596.8498256667,2010-09-27 06:08:19,1530.7808218811572,2,43,0.5501165986061096,3.886080503463745,42.30392382376159,42.10960857809783,168.44621346084693,154.18518829297955,3.237724376958795e-05,0.0884163826704025,0,0,0
14306,483626.8648854686,2010-09-27 06:08:49,1560.795881693149,2,43,0.5499359965324402,3.887213706970215,42.308509558462376,42.10960857809783,168.4640371475704,154.18518829297955,0.0,0.0884163826704025,0,0,0
14307,483656.8801868536,2010-09-27 06:09:19,1590.8111830731325,2,43,0.5499359965324402,3.8885087966918954,42.31309527459988,42.10960857809783,168.48186632136947,154.18518829297955,3.237724376958795e-05,0.0884163826704025,0,0,0
14308,483686.8955342184,2010-09-27 06:09:49,1620.8265304429133,2,43,0.5499359965324402,3.889965772628784,42.31768110956018,42.10960857809783,168.49970162201237,154.18518829297955,6.47544875391759e-05,0.0884163826704025,0,0,0
14309,483716.9108465106,2010-09-27 06:10:19,1650.8418427401475,2,43,0.5499359965324402,3.891098976135254,42.32226692441496,42.10960857809783,168.5175423723028,154.18518829297955,3.237724376958795e-05,0.0884163826704025,0,0,0
14310,483746.9261440059,2010-09-27 06:10:49,1680.8571402304212,2,43,0.5499359965324402,3.8920702934265137,42.32685271742619,42.10960857809783,168.53538856183067,154.18518829297955,0.0,0.0884163826704025,0,0,0
14311,483776.94149523525,2010-09-27 06:11:19,1710.8724914598365,2,43,0.5501165986061096,3.8935272693634033,42.331438583154224,42.10960857809783,168.55324042365797,154.18518829297955,6.47544875391759e-05,0.0884163826704025,0,0,0
14312,483806.9567645352,2010-09-27 06:11:49,1740.8877607547302,2,43,0.5501165986061096,3.894660472869873,42.33602446426122,42.10960857809783,168.57109781260738,154.18518829297955,6.47544875391759e-05,0.0884163826704025,0,0,0
14313,483836.9720669679,2010-09-27 06:12:19,1770.903063192353,2,43,0.5499359965324402,3.895469903945923,42.34061034927173,42.10960857809783,168.588960063399,154.18518829297955,-3.237724376958795e-05,0.0884163826704025,0,0,0
14314,483866.9879310875,2010-09-27 06:12:49,1800.9189274172838,2,43,0.5499359965324402,3.896926879882813,42.34519615704152,42.10960857809783,168.60682761175173,154.18518829297955,3.237724376958795e-05,0.0884163826704025,0,0,0
14315,483897.0026558733,2010-09-27 06:13:19,1830.9336520877112,2,43,0.550297200679779,3.898221969604492,42.34978186952255,42.10960857809783,168.6247002098943,154.18518829297955,6.47544875391759e-05,0.0884163826704025,0,0,0
14316,483927.0186276617,2010-09-27 06:13:49,1860.9496239964376,2,43,0.5501165986061096,3.899193286895752,42.35436776822441,42.10960857809783,168.64257907028056,154.18518829297955,0.0,0.0884163826704025,0,0,0
14317,483957.03328423714,2010-09-27 06:14:19,1890.9642804616133,2,43,0.5499359965324402,3.900488376617432,42.35895351893586,42.10960857809783,168.660462821413,154.18518829297955,6.47544875391759e-05,0.0884163826704025,0,0,0
14318,483987.04856277007,2010-09-27 06:14:49,1920.9795589845423,2,43,0.5499359965324402,3.901621580123901,42.36353932945617,42.10960857809783,168.67835237062107,154.18518829297955,3.237724376958795e-05,0.0884163826704025,0,0,0
14319,484017.06389310735,2010-09-27 06:15:19,1950.994889331832,2,43,0.5501165986061096,3.902916669845581,42.36812520784127,42.10960857809783,168.69624782550238,154.18518829297955,6.47544875391759e-05,0.0884163826704025,0,0,0
14320,484047.0791818558,2010-09-27 06:15:49,1981.0101780752725,2,43,0.5501165986061096,3.904373645782471,42.3727110245614,42.10960857809783,168.7141487432915,154.18518829297955,6.47544875391759e-05,0.0884163826704025,0,0,0
14321,484077.0945022984,2010-09-27 06:16:19,2011.025498512826,2,43,0.5501165986061096,3.905506849288941,42.37729684393658,42.10960857809783,168.73205540231692,154.18518829297955,6.47544875391759e-05,0.0884163826704025,0,0,0
14322,484107.10978188895,2010-09-27 06:16:49,2041.0407781134447,2,43,0.5499359965324402,3.90664005279541,42.381882630167965,42.10960857809783,168.74996755230043,154.18518829297955,3.237724376958795e-05,0.0884163826704025,0,0,0
14323,484137.1251944314,2010-09-27 06:17:19,2071.0561907411197,2,43,0.5497553944587708,3.90777325630188,42.38646843483946,42.10960857809783,168.7678856647819,154.18518829297955,0.0,0.0884163826704025,0,0,0
14324,484167.14051124494,2010-09-27 06:17:49,2101.071507459389,2,43,0.5499359965324402,3.90906834602356,42.39105420684108,42.10960857809783,168.78580949596522,154.18518829297955,-3.237724376958795e-05,0.0884163826704025,0,0,0
14325,484197.1557030866,2010-09-27 06:18:19,2131.086699300947,2,43,0.5499359965324402,3.910525321960449,42.39564004308451,42.10960857809783,168.8037395650075,154.18518829297955,3.237724376958795e-05,0.0884163826704025,0,0,0
14326,484227.1710356343,2010-09-27 06:18:49,2161.10203184873,2,43,0.5501165986061096,3.911820411682129,42.400225920239656,42.10960857809783,168.8216757578247,154.18518829297955,3.237724376958795e-05,0.0884163826704025,0,0,0
14327,484257.1862881874,2010-09-27 06:19:19,2191.117284401834,2,43,0.5499359965324402,3.9131155014038086,42.40481174654462,42.10960857809783,168.8396177861445,154.18518829297955,3.237724376958795e-05,0.0884163826704025,0,0,0
14328,484287.2015877328,2010-09-27 06:19:49,2221.1325839572623,2,43,0.5499359965324402,3.914572238922119,42.40939755062384,42.10960857809783,168.85756587279613,154.18518829297955,3.237724376958795e-05,0.0884163826704025,0,0,0
14329,484317.2169037644,2010-09-27 06:20:19,2251.147899978793,2,43,0.5501165986061096,3.915705442428589,42.41398342439066,42.10960857809783,168.87552041386945,154.18518829297955,0.0,0.0884163826704025,0,0,0
14330,484347.217409427,2010-09-27 06:20:49,2281.148405651414,2,43,0.5497553944587708,3.9171624183654794,42.418566952539024,42.10960857809783,168.89347192227046,154.18518829297955,3.237724376958795e-05,0.0884163826704025,0,0,0
14331,484377.2319150456,2010-09-27 06:21:19,2311.1629113602803,2,43,0.5499359965324402,3.918619394302368,42.4231526555741,42.10960857809783,168.91143829830912,154.18518829297955,3.237724376958795e-05,0.0884163826704025,0,0,0
14332,484407.2472000046,2010-09-27 06:21:49,2341.1781962290484,2,43,0.5499359965324402,3.919914484024048,42.42773846936413,42.10960857809783,168.92941146971236,154.18518829297955,3.237724376958795e-05,0.0884163826704025,0,0,0
14333,484437.2624688483,2010-09-27 06:22:19,2371.193465062792,2,43,0.5499359965324402,3.921533346176148,42.432324258618806,42.10960857809783,168.94739090206303,154.18518829297955,6.47544875391759e-05,0.0884163826704025,0,0,0
14334,484467.2777791806,2010-09-27 06:22:49,2401.208775395121,2,43,0.5501165986061096,3.922828435897827,42.436909992829136,42.10960857809783,168.96537659259215,154.18518829297955,3.237724376958795e-05,0.0884163826704025,0,0,0
14335,484497.2930608765,2010-09-27 06:23:19,2431.224057106007,2,43,0.5501165986061096,3.924447298049927,42.441495805849,42.10960857809783,168.9833691245861,154.18518829297955,9.713172767078504e-05,0.0884163826704025,0,0,0
14336,484527.3083637803,2010-09-27 06:23:49,2461.239359999769,2,43,0.5501165986061096,3.9257423877716064,42.44608155644275,42.10960857809783,169.0013680737867,154.18518829297955,3.237724376958795e-05,0.0884163826704025,0,0,0
14337,484557.32365906006,2010-09-27 06:24:19,2491.2546552895496,2,43,0.5499359965324402,3.927199363708496,42.4506673127003,42.10960857809783,169.01937351689298,154.18518829297955,6.47544875391759e-05,0.0884163826704025,0,0,0
14338,484587.33918065473,2010-09-27 06:24:49,2521.270176869185,2,43,0.5499359965324402,3.9286563396453857,42.4552531483512,42.10960857809783,169.03738606036347,154.18518829297955,3.237724376958795e-05,0.0884163826704025,0,0,0
14339,484617.3544033082,2010-09-27 06:25:19,2551.2853995326795,2,43,0.5499359965324402,3.9301133155822754,42.45983897382362,42.10960857809783,169.05540533560287,154.18518829297955,3.237724376958795e-05,0.0884163826704025,0,0,0
14340,484647.36958625255,2010-09-27 06:25:49,2581.300582467004,2,43,0.5499359965324402,3.931570291519165,42.464424774452944,42.10960857809783,169.07343134257053,154.18518829297955,6.47544875391759e-05,0.0884163826704025,0,0,0
14341,484677.3848727704,2010-09-27 06:26:19,2611.315868984889,2,43,0.5499359965324402,3.9328653812408447,42.469010606381175,42.10960857809783,169.09146433163036,154.18518829297955,0.0,0.0884163826704025,0,0,0
14342,484707.4001869022,2010-09-27 06:26:49,2641.331183146778,2,43,0.5497553944587708,3.9346461296081534,42.47359641655581,42.10960857809783,169.10950420120614,154.18518829297955,0.0,0.0884163826704025,0,0,0
14343,484737.4154739114,2010-09-27 06:27:19,2671.346470125814,2,43,0.5499359965324402,3.936103105545044,42.47818220830965,42.10960857809783,169.12755101522836,154.18518829297955,3.237724376958795e-05,0.0884163826704025,0,0,0
14344,484767.4307796271,2010-09-27 06:27:49,2701.36177584162,2,43,0.5499359965324402,3.937721967697144,42.482768035415816,42.10960857809783,169.14560487948322,154.18518829297955,3.237724376958795e-05,0.0884163826704025,0,0,0
14345,484797.4461243353,2010-09-27 06:28:20,2731.377120559782,2,43,0.5499359965324402,3.939340829849243,42.487353876331085,42.10960857809783,169.16366600667374,154.18518829297955,9.713172767078504e-05,0.0884163826704025,0,0,0
14346,484827.46137646737,2010-09-27 06:28:50,2761.39237268181,2,43,0.5499359965324402,3.940797805786133,42.4919396516734,42.10960857809783,169.1817340009896,154.18518829297955,3.237724376958795e-05,0.0884163826704025,0,0,0
14347,484857.47665718576,2010-09-27 06:29:20,2791.407653400218,2,43,0.5501165986061096,3.9422547817230233,42.49652547621507,42.10960857809783,169.19980931670509,154.18518829297955,0.0,0.0884163826704025,0,0,0
14348,484887.4919536685,2010-09-27 06:29:50,2821.4229498829773,2,43,0.5499359965324402,3.943873643875122,42.501111269239296,42.10960857809783,169.21789179496358,154.18518829297955,0.0,0.0884163826704025,0,0,0
14349,484917.5072502715,2010-09-27 06:30:20,2851.438246486036,2,43,0.5501165986061096,3.945654392242432,42.50569707993325,42.10960857809783,169.23598164766577,154.18518829297955,3.237724376958795e-05,0.0884163826704025,0,0,0
14350,484947.5225594461,2010-09-27 06:30:50,2881.453555660476,2,43,0.5501165986061096,3.947111368179321,42.51028288197123,42.10960857809783,169.2540788195336,154.18518829297955,3.237724376958795e-05,0.0884163826704025,0,0,0
14351,484977.5378489664,2010-09-27 06:31:20,2911.468845180855,2,43,0.5501165986061096,3.948730230331421,42.51486867199485,42.10960857809783,169.27218334331332,154.18518829297955,3.237724376958795e-05,0.0884163826704025,0,0,0
14352,485007.5531695343,2010-09-27 06:31:50,2941.4841657487345,2,43,0.5501165986061096,3.9505109786987305,42.51945443542819,42.10960857809783,169.290295294935,154.18518829297955,6.47544875391759e-05,0.0884163826704025,0,0,0
14353,485037.568442318,2010-09-27 06:32:20,2971.499438537349,2,43,0.5501165986061096,3.95212984085083,42.524040298840205,42.10960857809783,169.3084152998123,154.18518829297955,0.0,0.0884163826704025,0,0,0
14354,485067.58375238953,2010-09-27 06:32:50,3001.5147486040155,2,43,0.5499359965324402,3.9537487030029297,42.5286261621139,42.10960857809783,169.3265430174393,154.18518829297955,3.237724376958795e-05,0.0884163826704025,0,0,0
14355,485097.5990388072,2010-09-27 06:33:20,3031.5300350216503,2,43,0.5501165986061096,3.9555294513702393,42.53321199218757,42.10960857809783,169.34467818585844,154.18518829297955,6.47544875391759e-05,0.0884163826704025,0,0,0
14356,485127.6143672447,2010-09-27 06:33:50,3061.5453643413757,2,43,0.5499359965324402,3.956986427307129,42.53779782946329,42.10960857809783,169.36282110794866,154.18518829297955,0.0,0.0884163826704025,0,0,0
14357,485157.6298015816,2010-09-27 06:34:20,3091.560797806062,2,43,0.5501165986061096,3.958929061889648,42.5423836507186,42.10960857809783,169.3809716820894,154.18518829297955,6.47544875391759e-05,0.0884163826704025,0,0,0
14358,485187.6449462604,2010-09-27 06:34:50,3121.57594247487,2,43,0.5501165986061096,3.960547924041748,42.54696945715536,42.10960857809783,169.39913012029885,154.18518829297955,6.47544875391759e-05,0.0884163826704025,0,0,0
14359,485217.6602461367,2010-09-27 06:35:20,3151.5912423510995,2,43,0.5499359965324402,3.962166786193848,42.55155530639788,42.10960857809783,169.41729681541602,154.18518829297955,-3.237724376958795e-05,0.0884163826704025,0,0,0
14360,485247.6755752108,2010-09-27 06:35:50,3181.606571550524,2,43,0.5501165986061096,3.964109420776367,42.55614115229283,42.10960857809783,169.4354715745107,154.18518829297955,3.237724376958795e-05,0.0884163826704025,0,0,0
14361,485277.69082545314,2010-09-27 06:36:20,3211.62182165251,2,43,0.5501165986061096,3.9658901691436768,42.56072702958642,42.10960857809783,169.4536546845015,154.18518829297955,3.237724376958795e-05,0.0884163826704025,0,0,0
14362,485307.7061397403,2010-09-27 06:36:50,3241.637135959761,2,43,0.5499359965324402,3.9676709175109854,42.565312884270014,42.10960857809783,169.47184589043135,154.18518829297955,3.237724376958795e-05,0.0884163826704025,0,0,0
14363,485337.7215351701,2010-09-27 06:37:20,3271.652531384494,2,43,0.5501165986061096,3.969775438308716,42.56989849146142,42.10960857809783,169.49004454848426,154.18518829297955,9.713172767078504e-05,0.0884163826704025,0,0,0
14364,485367.7367078387,2010-09-27 06:37:50,3301.6677040582067,2,43,0.5499359965324402,3.971394300460816,42.57448404778132,42.10960857809783,169.50825133569091,154.18518829297955,3.237724376958795e-05,0.0884163826704025,0,0,0
14365,485397.7521360604,2010-09-27 06:38:20,3331.683132274793,2,43,0.5499359965324402,3.973175048828125,42.57906972790521,42.10960857809783,169.52646703491288,154.18518829297955,3.237724376958795e-05,0.0884163826704025,0,0,0
14366,485427.7673269595,2010-09-27 06:38:50,3361.698323174,2,43,0.5499359965324402,3.9749557971954346,42.58365538958602,42.10960857809783,169.54469121944527,154.18518829297955,6.47544875391759e-05,0.0884163826704025,0,0,0
14367,485457.7826053421,2010-09-27 06:39:20,3391.7136015515653,2,43,0.5499359965324402,3.977060317993164,42.58824123775354,42.10960857809783,169.56292464597047,154.18518829297955,6.47544875391759e-05,0.0884163826704025,0,0,0
14368,485487.7979036845,2010-09-27 06:39:50,3421.7288999240413,2,43,0.5499359965324402,3.9788410663604736,42.59282713529053,42.10960857809783,169.58116664155372,154.18518829297955,3.237724376958795e-05,0.0884163826704025,0,0,0
14369,485517.81324188143,2010-09-27 06:40:20,3451.7442381911005,2,43,0.5497553944587708,3.980783700942993,42.59741288058289,42.10960857809783,169.59941730789984,154.18518829297955,6.47544875391759e-05,0.0884163826704025,0,0,0
14370,485547.8287036818,2010-09-27 06:40:50,3481.75969989628,2,43,0.5499359965324402,3.982888221740722,42.60199866522274,42.10960857809783,169.6176770574487,154.18518829297955,6.47544875391759e-05,0.0884163826704025,0,0,0
14371,485577.84379803,2010-09-27 06:41:20,3511.7747943347044,2,43,0.5501165986061096,3.984830856323242,42.60658438288834,42.10960857809783,169.6359454932446,154.18518829297955,6.47544875391759e-05,0.0884163826704025,0,0,0
14372,485607.8590933398,2010-09-27 06:41:50,3541.7900895543107,2,43,0.5499359965324402,3.986935377120972,42.611170190790645,42.10960857809783,169.65422348204152,154.18518829297955,6.47544875391759e-05,0.0884163826704025,0,0,0
14373,485637.874402379,2010-09-27 06:42:20,3571.8053985883994,2,43,0.5499359965324402,3.988716125488281,42.61575605369523,42.10960857809783,169.67251086775096,154.18518829297955,6.47544875391759e-05,0.0884163826704025,0,0,0
14374,485667.88969183416,2010-09-27 06:42:50,3601.820688043617,2,43,0.5499359965324402,3.990658760070801,42.620341807743486,42.10960857809783,169.6908071551869,154.18518829297955,3.237724376958795e-05,0.0884163826704025,0,0,0
14375,485697.90498558007,2010-09-27 06:43:20,3631.8359817945566,2,43,0.5497553944587708,3.9927632808685294,42.62492755897604,42.10960857809783,169.70911288318817,154.18518829297955,3.237724376958795e-05,0.0884163826704025,0,0,0
14376,485727.9203473759,2010-09-27 06:43:50,3661.851343670547,2,43,0.5501165986061096,3.99502944946289,42.62951326128058,42.10960857809783,169.72742791866307,154.18518829297955,6.47544875391759e-05,0.0884163826704025,0,0,0
14377,485757.9355780644,2010-09-27 06:44:20,3691.866574273861,2,43,0.5501165986061096,3.99713397026062,42.63409902208657,42.10960857809783,169.74575291591643,154.18518829297955,9.713172767078504e-05,0.0884163826704025,0,0,0
14378,485787.9509735343,2010-09-27 06:44:50,3721.881969843957,2,43,0.550297200679779,3.99940037727356,42.63868484670347,42.10960857809783,169.76408789415223,154.18518829297955,9.713172767078504e-05,0.0884163826704025,0,0,0
14379,485817.9661560024,2010-09-27 06:45:20,3751.8971522118673,2,43,0.5499359965324402,4.001504898071289,42.643270524724855,42.10960857809783,169.78243215285605,154.18518829297955,6.47544875391759e-05,0.0884163826704025,0,0,0
14380,485847.9815611714,2010-09-27 06:45:50,3781.912557380924,2,43,0.5499359965324402,4.003609657287598,42.64785625411548,42.10960857809783,169.80078661346937,154.18518829297955,3.24249267578125e-05,0.0884163826704025,0,0,0
14381,485877.99730147707,2010-09-27 06:46:20,3811.9282977015705,2,43,0.5499359965324402,4.005713939666748,42.65244205636245,42.10960857809783,169.81915136439875,154.18518829297955,6.47544875391759e-05,0.0884163826704025,0,0,0
14382,485908.0122068084,2010-09-27 06:46:50,3841.9432030329554,2,43,0.5501165986061096,4.008142471313477,42.657027737107306,42.10960857809783,169.83752570578935,154.18518829297955,9.71794142969884e-05,0.0884163826704025,0,0,0
14383,485938.02736277046,2010-09-27 06:47:20,3871.958358984928,2,43,0.5499359965324402,4.010246753692627,42.661613448477,42.10960857809783,169.85591029230883,154.18518829297955,6.47544875391759e-05,0.0884163826704025,0,0,0
14384,485968.0427722353,2010-09-27 06:47:50,3901.973768459732,2,43,0.5501165986061096,4.012513160705566,42.66619920955889,42.10960857809783,169.874305372713,154.18518829297955,6.47544875391759e-05,0.0884163826704025,0,0,0
14385,485998.0580015403,2010-09-27 06:48:20,3931.988997850018,2,43,0.5499359965324402,4.014779567718506,42.67078497457139,42.10960857809783,169.89271080148993,154.18518829297955,9.70840483205393e-05,0.0884163826704025,0,0,0
14386,486028.07325671497,2010-09-27 06:48:50,3962.004252924415,2,43,0.5499359965324402,4.017045974731445,42.67537071791693,42.10960857809783,169.9111265778437,154.18518829297955,6.47544875391759e-05,0.0884163826704025,0,0,0
14387,486058.08855160367,2010-09-27 06:49:20,3992.019547818208,2,43,0.5499359965324402,4.019312381744385,42.6799564658877,42.10960857809783,169.9295529081133,154.18518829297955,6.47544875391759e-05,0.0884163826704025,0,0,0
14388,486088.10382942494,2010-09-27 06:49:50,4022.034825639385,2,43,0.5499359965324402,4.021578788757324,42.68454217978197,42.10960857809783,169.94798953385902,154.18518829297955,6.47544875391759e-05,0.0884163826704025,0,0,0
14389,486118.1192467343,2010-09-27 06:50:20,4052.0502429487447,2,43,0.5499359965324402,4.024007320404053,42.68912791899479,42.10960857809783,169.96643695310627,154.18518829297955,3.24249267578125e-05,0.0884163826704025,0,0,0
14390,486148.1344314932,2010-09-27 06:50:50,4082.065427702611,2,43,0.5499359965324402,4.026273727416992,42.69371362724131,42.10960857809783,169.98489497342655,154.18518829297955,6.47544875391759e-05,0.0884163826704025,0,0,0
14391,486178.14970896847,2010-09-27 06:51:20,4112.080705177925,2,43,0.5497553944587708,4.028540134429932,42.69829928490913,42.10960857809783,170.00336357922853,154.18518829297955,3.24249267578125e-05,0.0884163826704025,0,0,0
14392,486208.16501162166,2010-09-27 06:51:50,4142.096007831086,2,43,0.5501165986061096,4.030968189239502,42.702885024410776,42.10960857809783,170.0218433217903,154.18518829297955,3.23295607813634e-05,0.0884163826704025,0,0,0
14393,486238.1803041295,2010-09-27 06:52:20,4172.111300338923,2,43,0.5501165986061096,4.033558368682861,42.707470694231006,42.10960857809783,170.0403337545538,154.18518829297955,6.47544875391759e-05,0.0884163826704025,0,0,0
14394,486268.1956270282,2010-09-27 06:52:50,4202.126623242632,2,43,0.5499359965324402,4.035824775695801,42.71205645152404,42.10960857809783,170.05883560831,154.18518829297955,6.47544875391759e-05,0.0884163826704025,0,0,0
14395,486298.210919937,2010-09-27 06:53:20,4232.141916241695,2,43,0.5499359965324402,4.038252830505371,42.7166421982134,42.10960857809783,170.0773486492084,154.18518829297955,6.47544875391759e-05,0.0884163826704025,0,0,0
14396,486328.22620058025,2010-09-27 06:53:50,4262.157196799704,2,43,0.5501165986061096,4.0406813621521,42.72122795046519,42.10960857809783,170.09587293353644,154.18518829297955,3.24249267578125e-05,0.0884163826704025,0,0,0
14397,486358.24161479686,2010-09-27 06:54:20,4292.17261102637,2,43,0.5499359965324402,4.043271541595459,42.72581369076833,42.10960857809783,170.11440861410082,154.18518829297955,6.47544875391759e-05,0.0884163826704025,0,0,0
14398,486388.2569305277,2010-09-27 06:54:50,4322.1879267471495,2,43,0.5497553944587708,4.045861721038818,42.73039942745314,42.10960857809783,170.13295580487153,154.18518829297955,6.47544875391759e-05,0.0884163826704025,0,0,0
14399,486418.2722176421,2010-09-27 06:55:20,4352.203213981824,2,43,0.5499359965324402,4.048289775848389,42.73498513989888,42.10960857809783,170.15151451668086,154.18518829297955,3.23295607813634e-05,0.0884163826704025,0,0,0
14400,486448.2874978994,2010-09-27 06:55:50,4382.218494148856,2,43,0.5501165986061096,4.050879955291748,42.73957084508909,42.10960857809783,170.17008486918303,154.18518829297955,6.47544875391759e-05,0.0884163826704025,0,0,0
14401,486478.3026884527,2010-09-27 06:56:20,4412.233684667111,2,43,0.5501165986061096,4.053470134735107,42.74415652728177,42.10960857809783,170.18866695560143,154.18518829297955,6.47544875391759e-05,0.0884163826704025,0,0,0
14402,486508.3181748344,2010-09-27 06:56:50,4442.249171048887,2,43,0.5499359965324402,4.056060314178467,42.74874233511562,42.10960857809783,170.20726157649324,154.18518829297955,6.47544875391759e-05,0.0884163826704025,0,0,0
14403,486538.3332724508,2010-09-27 06:57:20,4472.264268660232,2,43,0.5499359965324402,4.058812618255615,42.753328071502246,42.10960857809783,170.22586801197878,154.18518829297955,9.71794142969884e-05,0.0884163826704025,0,0,0
14404,486568.34856052254,2010-09-27 06:57:50,4502.2795567370085,2,43,0.5499359965324402,4.0612406730651855,42.75791383488674,42.10960857809783,170.24448651974143,154.18518829297955,6.47544875391759e-05,0.0884163826704025,0,0,0
14405,486598.3639851601,2010-09-27 06:58:20,4532.294981474913,2,43,0.5501165986061096,4.064154624938965,42.76249961250976,42.10960857809783,170.26311726269802,154.18518829297955,9.70840483205393e-05,0.0884163826704025,0,0,0
14406,486628.3791673727,2010-09-27 06:58:50,4562.310163612247,2,43,0.5499359965324402,4.066744804382324,42.76708530240315,42.10960857809783,170.28176009781436,154.18518829297955,3.23295607813634e-05,0.0884163826704025,0,0,0
14407,486658.3944614043,2010-09-27 06:59:20,4592.325457613812,2,43,0.5499359965324402,4.069497108459473,42.771671056187614,42.10960857809783,170.30041575854435,154.18518829297955,6.47544875391759e-05,0.0884163826704025,0,0,0
14408,486688.4097680776,2010-09-27 06:59:50,4622.340764312072,2,43,0.5499359965324402,4.072248935699463,42.77625679862794,42.10960857809783,170.31908408414975,154.18518829297955,3.23295607813634e-05,0.0884163826704025,0,0,0
14409,486718.4250358436,2010-09-27 07:00:21,4652.356032053086,2,43,0.5501165986061096,4.075162887573242,42.78084253941611,42.10960857809783,170.33776518928255,154.18518829297955,6.47544875391759e-05,0.0884163826704025,0,0,0
14410,486748.44037724845,2010-09-27 07:00:51,4682.37137346299,2,43,0.5501165986061096,4.077915191650391,42.78542827220653,42.10960857809783,170.35645926922268,154.18518829297955,6.47544875391759e-05,0.0884163826704025,0,0,0
14411,486778.4556525183,2010-09-27 07:01:21,4712.386648732798,2,43,0.5497553944587708,4.08082914352417,42.79001395833629,42.10960857809783,170.37516623684095,154.18518829297955,9.71794142969884e-05,0.0884163826704025,0,0,0
14412,486808.47105076007,2010-09-27 07:01:51,4742.402046984589,2,43,0.5501165986061096,4.083743095397949,42.7945996913703,42.10960857809783,170.39388646849494,154.18518829297955,6.47544875391759e-05,0.0884163826704025,0,0,0
14413,486838.486221494,2010-09-27 07:02:21,4772.417217703422,2,43,0.5501165986061096,4.08649492263794,42.79918538821997,42.10960857809783,170.41261988206963,154.18518829297955,3.23295607813634e-05,0.0884163826704025,0,0,0
14414,486868.5015427837,2010-09-27 07:02:51,4802.432538993102,2,43,0.5501165986061096,4.089570999145508,42.803771124837766,42.10960857809783,170.4313668056801,154.18518829297955,6.47544875391759e-05,0.0884163826704025,0,0,0
14415,486898.5168274018,2010-09-27 07:03:21,4832.44782364132,2,43,0.5499359965324402,4.092484951019287,42.8083569254959,42.10960857809783,170.45012747767308,154.18518829297955,9.71794142969884e-05,0.0884163826704025,0,0,0
14416,486928.5321123106,2010-09-27 07:03:51,4862.463108520114,2,43,0.5497553944587708,4.095398902893066,42.81294268796327,42.10960857809783,170.4689015179008,154.18518829297955,9.71794142969884e-05,0.0884163826704025,0,0,0
14417,486958.5474001719,2010-09-27 07:04:21,4892.4783963813525,2,43,0.5501165986061096,4.098636627197266,42.81752839701931,42.10960857809783,170.48768899181948,154.18518829297955,9.71794142969884e-05,0.0884163826704025,0,0,0
14418,486988.56270862446,2010-09-27 07:04:51,4922.493704839002,2,43,0.5499359965324402,4.101712226867676,42.822114193674444,42.10960857809783,170.50649072507906,154.18518829297955,9.70840483205393e-05,0.0884163826704025,0,0,0
14419,487018.5780942448,2010-09-27 07:05:21,4952.509090459262,2,43,0.5501165986061096,4.104464530944824,42.8266998898977,42.10960857809783,170.5253058667558,154.18518829297955,6.47544875391759e-05,0.0884163826704025,0,0,0
14420,487048.5932673997,2010-09-27 07:05:51,4982.524263614176,2,43,0.5499359965324402,4.107378482818604,42.83128558162644,42.10960857809783,170.5441350899619,154.18518829297955,6.47544875391759e-05,0.0884163826704025,0,0,0
14421,487078.6088213652,2010-09-27 07:06:21,5012.53981757965,2,43,0.5501165986061096,4.110777854919434,42.835871333323176,42.10960857809783,170.56297882737806,154.18518829297955,9.70840483205393e-05,0.0884163826704025,0,0,0
14422,487108.6240142844,2010-09-27 07:06:51,5042.555010513937,2,43,0.5499359965324402,4.113691806793213,42.84045702693613,42.10960857809783,170.58183663951507,154.18518829297955,3.23295607813634e-05,0.0884163826704025,0,0,0
14423,487138.6391547578,2010-09-27 07:07:21,5072.570150967222,2,43,0.5499359965324402,4.116929531097412,42.845042750480175,42.10960857809783,170.60070912528906,154.18518829297955,9.71794142969884e-05,0.0884163826704025,0,0,0
14424,487168.654453832,2010-09-27 07:07:51,5102.585450046462,2,43,0.5499359965324402,4.120328903198242,42.8496284983211,42.10960857809783,170.61959631781176,154.18518829297955,9.70840483205393e-05,0.0884163826704025,0,0,0
14425,487198.66975179344,2010-09-27 07:08:21,5132.6007480029,2,43,0.5501165986061096,4.123566627502441,42.85421432937471,42.10960857809783,170.6384984737578,154.18518829297955,0.0001295089750783,0.0884163826704025,0,0,0
14426,487228.6850489479,2010-09-27 07:08:51,5162.61604516736,2,43,0.5501165986061096,4.12664270401001,42.85880011639724,42.10960857809783,170.65741514861256,154.18518829297955,9.71794142969884e-05,0.0884163826704025,0,0,0
14427,487258.7003396662,2010-09-27 07:09:21,5192.631335875705,2,43,0.5497553944587708,4.12971830368042,42.86338589571071,42.10960857809783,170.6763466734891,154.18518829297955,6.47544875391759e-05,0.0884163826704025,0,0,0
14428,487288.7156680587,2010-09-27 07:09:51,5222.646664278141,2,43,0.550297200679779,4.133279800415039,42.86797175401761,42.10960857809783,170.69529356720955,154.18518829297955,9.70840483205393e-05,0.0884163826704025,0,0,0
14429,487318.73094742367,2010-09-27 07:10:21,5252.661943638158,2,43,0.5499359965324402,4.136355876922607,42.87255760888212,42.10960857809783,170.7142556168303,154.18518829297955,6.47544875391759e-05,0.0884163826704025,0,0,0
14430,487348.7462415656,2010-09-27 07:10:51,5282.677237775061,2,43,0.5501165986061096,4.139917373657227,42.877143459230325,42.10960857809783,170.73323297858695,154.18518829297955,9.71794142969884e-05,0.0884163826704025,0,0,0
14431,487378.7615224695,2010-09-27 07:11:21,5312.692518678933,2,43,0.5499359965324402,4.143316745758057,42.88172932287321,42.10960857809783,170.75222590609712,154.18518829297955,9.70840483205393e-05,0.0884163826704025,0,0,0
14432,487408.7769487112,2010-09-27 07:11:51,5342.7079449256025,2,43,0.5501165986061096,4.146878242492676,42.88631519072962,42.10960857809783,170.7712346060061,154.18518829297955,9.70840483205393e-05,0.0884163826704025,0,0,0
14433,487438.7921084576,2010-09-27 07:12:21,5372.723104672046,2,43,0.5499359965324402,4.150278091430664,42.89090086416699,42.10960857809783,170.79025834554835,154.18518829297955,0.0001295089750783,0.0884163826704025,0,0,0
14434,487468.8075965236,2010-09-27 07:12:51,5402.738592743039,2,43,0.5501165986061096,4.153677463531494,42.89548672340128,42.10960857809783,170.8092986312236,154.18518829297955,6.47544875391759e-05,0.0884163826704025,0,0,0
14435,487498.8227051774,2010-09-27 07:13:21,5432.753701391936,2,43,0.5501165986061096,4.157238960266113,42.90007247794106,42.10960857809783,170.82835430547712,154.18518829297955,0.0001295089750783,0.0884163826704025,0,0,0
14436,487528.838015164,2010-09-27 07:13:51,5462.76901137339,2,43,0.5501165986061096,4.160638809204102,42.90465822953612,42.10960857809783,170.8474261111675,154.18518829297955,9.71794142969884e-05,0.0884163826704025,0,0,0
14437,487558.8534226137,2010-09-27 07:14:21,5492.784418828152,2,43,0.5499359965324402,4.164200305938721,42.90924405642482,42.10960857809783,170.8665145155382,154.18518829297955,6.47544875391759e-05,0.0884163826704025,0,0,0
14438,487588.8687396076,2010-09-27 07:14:51,5522.799735827122,2,43,0.5499359965324402,4.16776180267334,42.913829781510735,42.10960857809783,170.88561872590267,154.18518829297955,9.71794142969884e-05,0.0884163826704025,0,0,0
14439,487618.8838910182,2010-09-27 07:15:21,5552.814887232746,2,43,0.5499359965324402,4.17148494720459,42.91841560303373,42.10960857809783,170.90473984213156,154.18518829297955,9.70840483205393e-05,0.0884163826704025,0,0,0
14440,487648.899185486,2010-09-27 07:15:51,5582.830181705488,2,43,0.5501165986061096,4.175208568572998,42.923001351281854,42.10960857809783,170.92387723219866,154.18518829297955,0.0001295089750783,0.0884163826704025,0,0,0
14441,487678.9144749011,2010-09-27 07:16:21,5612.84547111058,2,43,0.5501165986061096,4.178770065307617,42.92758712119231,42.10960857809783,170.94303137426047,154.18518829297955,0.0001619339018361,0.0884163826704025,0,0,0
14442,487708.9300169719,2010-09-27 07:16:51,5642.8610132766025,2,43,0.5499359965324402,4.182331562042236,42.93217294942764,42.10960857809783,170.9622026359242,154.18518829297955,9.71794142969884e-05,0.0884163826704025,0,0,0
14443,487738.9451026936,2010-09-27 07:17:21,5672.876098913056,2,43,0.5497553944587708,4.186054706573486,42.93675868429618,42.10960857809783,170.98139043833737,154.18518829297955,0.0001295089750783,0.0884163826704025,0,0,0
14444,487768.9605236771,2010-09-27 07:17:51,5702.891519896588,2,43,0.5499359965324402,4.189778327941895,42.94134451047437,42.10960857809783,171.00059577814315,154.18518829297955,6.47544875391759e-05,0.0884163826704025,0,0,0
14445,487798.9762257222,2010-09-27 07:18:21,5732.907221931668,2,43,0.5499359965324402,4.193663597106934,42.945930263517816,42.10960857809783,171.01981799272383,154.18518829297955,9.71794142969884e-05,0.0884163826704025,0,0,0
14446,487828.990979385,2010-09-27 07:18:51,5762.921975599477,2,43,0.5501165986061096,4.197548389434815,42.95051595118,42.10960857809783,171.03905730097426,154.18518829297955,9.70840483205393e-05,0.0884163826704025,0,0,0
14447,487848.72511229175,2010-09-27 07:19:11,5782.656108506232,2,43,0.5501165986061096,4.200138568878174,42.95353093141157,42.10960857809783,171.05171618595818,154.18518829297955,0.0001618385285837,0.0884163826704025,0,0,0
14448,487878.7416616424,2010-09-27 07:19:41,30.015267801165216,3,43,0.0,4.118224620819092,42.95353093141157,42.10960857809783,171.05171618595818,154.18518829297955,-0.0003561019839253,0.0884163826704025,0,0,0
14449,487908.7569717742,2010-09-27 07:20:11,60.03057793299429,3,43,0.0,4.108187675476074,42.95353093141157,42.10960857809783,171.05171618595818,154.18518829297955,-0.0001942634553415,0.0884163826704025,0,0,0
14450,487938.7723240061,2010-09-27 07:20:41,90.04593016992416,3,43,0.0,4.102035999298096,42.95353093141157,42.10960857809783,171.05171618595818,154.18518829297955,-0.0001295089750783,0.0884163826704025,0,0,0
14451,487968.7407359479,2010-09-27 07:21:11,120.01434210664311,3,43,0.0,4.098312854766846,42.95353093141157,42.10960857809783,171.05171618595818,154.18518829297955,-6.47544875391759e-05,0.0884163826704025,0,0,0
14452,487968.74329843774,2010-09-27 07:21:11,2.676681409e-06,4,43,0.996040940284729,4.199814796447754,42.95353093215214,42.10960857809783,171.0517161890685,154.18518829297955,0.0,0.0884163826704025,0,0,0
14453,487969.665240126,2010-09-27 07:21:12,0.921944385022614,4,43,0.945831537246704,4.199653148651123,42.95377811289242,42.10960857809783,171.05275427021917,154.18518829297955,-3.23295607813634e-05,0.0884163826704025,0,0,0
14454,487971.7432676123,2010-09-27 07:21:14,2.999971876337473,4,43,0.8956221342086792,4.199653148651123,42.95430866556972,42.10960857809783,171.054982408597,154.18518829297955,-3.23295607813634e-05,0.0884163826704025,0,0,0
14455,487974.8838230919,2010-09-27 07:21:17,6.140527355977035,4,43,0.8454127907752991,4.199814796447754,42.9550672586053,42.10960857809783,171.05816824659493,154.18518829297955,6.47544875391759e-05,0.0884163826704025,0,0,0
14456,487979.1495013361,2010-09-27 07:21:22,10.40620560013264,4,43,0.7950227856636047,4.199653148651123,42.95603821669987,42.10960857809783,171.06224597817663,154.18518829297955,0.0,0.0884163826704025,0,0,0
14457,487984.68060386897,2010-09-27 07:21:27,15.937308132993511,4,43,0.744994044303894,4.199653148651123,42.95721999965976,42.10960857809783,171.0672091002342,154.18518829297955,0.0,0.0884163826704025,0,0,0
14458,487991.77434827137,2010-09-27 07:21:34,23.03105253035461,4,43,0.6949652433395386,4.199814796447754,42.95863691403384,42.10960857809783,171.07315970932393,154.18518829297955,3.23295607813634e-05,0.0884163826704025,0,0,0
14459,488001.2273813011,2010-09-27 07:21:44,32.484085660359895,4,43,0.6449365019798279,4.199814796447754,42.96039318737806,42.10960857809783,171.08053552618864,154.18518829297955,0.0,0.0884163826704025,0,0,0
14460,488014.24277182826,2010-09-27 07:21:57,45.499476087233134,4,43,0.5949077010154724,4.199814796447754,42.96262951285028,42.10960857809783,171.08992744254343,154.18518829297955,3.23295607813634e-05,0.0884163826704025,0,0,0
14461,488033.50817976537,2010-09-27 07:22:16,64.7648840243531,4,43,0.5448789596557617,4.199653148651123,42.96567051320449,42.10960857809783,171.10269875938528,154.18518829297955,0.0,0.0884163826704025,0,0,0
14462,488065.3828330588,2010-09-27 07:22:48,96.6395373277913,4,43,0.4948501884937286,4.199653148651123,42.97025594482823,42.10960857809783,171.12195622078602,154.18518829297955,-3.23295607813634e-05,0.0884163826704025,0,0,0
14463,488122.2103378584,2010-09-27 07:23:45,153.46704212245183,4,43,0.4446407854557037,4.199653148651123,42.977642201097446,42.10960857809783,171.1529763316141,154.18518829297955,0.0,0.0884163826704025,0,0,0
14464,488212.0063601348,2010-09-27 07:25:14,243.2630644088513,4,43,0.3946120142936706,4.199491024017334,42.98808401659134,42.10960857809783,171.19682894380097,154.18518829297955,-3.24249267578125e-05,0.0884163826704025,0,0,0
14465,488326.5675101851,2010-09-27 07:27:09,357.824214564432,4,43,0.3445832431316376,4.199653148651123,42.99982926597588,42.10960857809783,171.2461556012618,154.18518829297955,-3.23295607813634e-05,0.0884163826704025,0,0,0
14466,488464.5197282498,2010-09-27 07:29:27,495.776432513852,4,43,0.2945545017719269,4.199653148651123,43.0120592454532,42.10960857809783,171.29751812786463,154.18518829297955,-3.23295607813634e-05,0.0884163826704025,0,0,0
14467,488628.8453653008,2010-09-27 07:32:11,660.1020695748233,4,43,0.2443451136350631,4.199491024017334,43.02433666948853,42.10960857809783,171.34907981522863,154.18518829297955,-3.24249267578125e-05,0.0884163826704025,0,0,0
14468,488834.2807476154,2010-09-27 07:35:37,865.5374518995491,4,43,0.1943163424730301,4.199653148651123,43.03682603898855,42.10960857809783,171.4015314596226,154.18518829297955,-3.23295607813634e-05,0.0884163826704025,0,0,0
14469,489109.4651233082,2010-09-27 07:40:12,1140.721827582311,4,43,0.1441069543361663,4.199653148651123,43.04970267861035,42.10960857809783,171.4556095220987,154.18518829297955,-3.23295607813634e-05,0.0884163826704025,0,0,0
14470,489514.2262733447,2010-09-27 07:46:57,1545.4829776989484,4,43,0.0940781906247139,4.199653148651123,43.062926943220745,42.10960857809783,171.51114753474826,154.18518829297955,-3.23295607813634e-05,0.0884163826704025,0,0,0
14471,490168.01627636526,2010-09-27 07:57:50,2199.272980644378,4,43,0.0498289167881011,4.199491024017334,43.075596727812254,42.10960857809783,171.56435693222002,154.18518829297955,-3.24249267578125e-05,0.0884163826704025,0,0,0
14472,490198.026584957,2010-09-27 07:58:21,30.01511302983216,5,43,0.0,4.192206382751465,43.075596727812254,42.10960857809783,171.56435693222002,154.18518829297955,-3.24249267578125e-05,0.0884163826704025,0,0,0
14473,490228.0262424825,2010-09-27 07:58:51,60.014770550335264,5,43,0.0,4.190911293029785,43.075596727812254,42.10960857809783,171.56435693222002,154.18518829297955,-3.24249267578125e-05,0.0884163826704025,0,0,0
14474,490228.21011960896,2010-09-27 07:58:51,0.187647852909763,6,43,-1.9243103452026844e-05,4.190911293029785,43.07559673151635,42.10960857809783,171.5643569477436,154.18518829297955,0.0,0.0923051163554191,0,0,0
14475,490233.0380355849,2010-09-27 07:58:56,5.015563828942244,6,43,0.0005225847125984,4.190911293029785,43.07559733185423,42.10960857826407,171.5643594637319,154.18518829367625,0.0,0.0923051163554191,0,0,0
14476,490263.0652510278,2010-09-27 07:59:26,30.015305520318023,7,43,-1.0997490882873535,4.020122051239014,43.07559733185423,42.11877780523392,171.5643594637319,154.22224530134022,-0.0009065627818927,0.0923051163554191,0,0,0
14477,490293.0805277815,2010-09-27 07:59:56,60.03058229889224,7,43,-1.0997490882873535,3.993896484375,43.07559733185423,42.12794700616599,171.5643594637319,154.25897776191968,-0.0005827426793985,0.0923051163554191,0,0,0
14478,490323.0958187553,2010-09-27 08:00:26,90.04587324783786,7,43,-1.0997490882873535,3.9759271144866943,43.07559733185423,42.1371162131148,171.5643594637319,154.29551147880588,-0.0003885269106831,0.0923051163554191,0,0,0
14479,490353.1112336137,2010-09-27 08:00:56,120.06128810608016,7,43,-1.099929690361023,3.961843013763428,43.07559733185423,42.14628535866168,171.5643594637319,154.33190046256703,-0.0003561496851034,0.0923051163554191,0,0,0
14480,490383.1264494401,2010-09-27 08:01:26,150.07650396258353,7,43,-1.0997490882873535,3.950349092483521,43.07559733185423,42.15545448727723,171.5643594637319,154.36817318770406,-0.0002913951757363,0.0923051163554191,0,0,0
14481,490413.1418535365,2010-09-27 08:01:56,180.09190803891252,7,43,-1.0997490882873535,3.939988374710083,43.07559733185423,42.16462364472146,171.5643594637319,154.40434560223704,-0.0002266406954731,0.0923051163554191,0,0,0
14482,490443.1569886213,2010-09-27 08:02:26,210.10704311377248,7,43,-1.0997490882873535,3.930275201797485,43.07559733185423,42.17379267821367,171.5643594637319,154.44042652221066,-0.0002913951757363,0.0923051163554191,0,0,0
14483,490473.172308312,2010-09-27 08:02:56,240.12236370170152,7,43,-1.099568486213684,3.9213714599609375,43.07559733185423,42.182961853046095,171.5643594637319,154.4764227495374,-0.0002266406954731,0.0923051163554191,0,0,0
14484,490503.18791364576,2010-09-27 08:03:26,270.1379681682353,7,43,-1.099929690361023,3.9126298427581783,43.07559733185423,42.19213113997521,171.5643594637319,154.51233794755402,-0.0002265930233988,0.0923051163554191,0,0,0
14485,490533.2028743504,2010-09-27 08:03:56,300.1529288527902,7,43,-1.0997490882873535,3.904049873352051,43.07559733185423,42.20130023518202,171.5643594637319,154.54817383223798,-0.0002266406954731,0.0923051163554191,0,0,0
14486,490563.21829261706,2010-09-27 08:04:26,330.1683471095157,7,43,-1.0997490882873535,3.8961174488067623,43.07559733185423,42.21046948908528,171.5643594637319,154.58393397615637,-0.0001942634553415,0.0923051163554191,0,0,0
14487,490593.2336062176,2010-09-27 08:04:56,360.1836608202784,7,43,-1.0997490882873535,3.887861251831055,43.07559733185423,42.21963863173697,171.5643594637319,154.6196195452652,-0.0002266406954731,0.0923051163554191,0,0,0
14488,490623.2487754527,2010-09-27 08:05:26,390.1988299551573,7,43,-1.0997490882873535,3.879928827285767,43.07559733185423,42.22880777345661,171.5643594637319,154.6552318618393,-0.0001942634553415,0.0923051163554191,0,0,0
14489,490653.2640793139,2010-09-27 08:05:56,420.2141338063088,7,43,-1.099929690361023,3.872158288955689,43.07559733185423,42.23797702073757,171.5643594637319,154.69077256360268,-0.0002266406954731,0.0923051163554191,0,0,0
14490,490683.27935054863,2010-09-27 08:06:26,450.2294050410448,7,43,-1.0997490882873535,3.8647115230560303,43.07559733185423,42.247146245511686,171.5643594637319,154.72624248142037,-0.0001618862152099,0.0923051163554191,0,0,0
14491,490713.2946425653,2010-09-27 08:06:56,480.24469705765546,7,43,-1.0997490882873535,3.856940984725952,43.07559733185423,42.25631552231346,171.5643594637319,154.76164266552536,-0.0002266406954731,0.0923051163554191,0,0,0
14492,490743.3099495943,2010-09-27 08:07:26,510.26000409175214,7,43,-1.0997490882873535,3.849494218826294,43.07559733185423,42.26548472197965,171.5643594637319,154.79697367606985,-0.0001942634553415,0.0923051163554191,0,0,0
14493,490773.3252387738,2010-09-27 08:07:56,540.2752932762935,7,43,-1.0997490882873535,3.842047452926636,43.07559733185423,42.27465398488148,171.5643594637319,154.8322368667215,-0.0001942634553415,0.0923051163554191,0,0,0
14494,490803.34055464494,2010-09-27 08:08:26,570.2906091374238,7,43,-1.0997490882873535,3.835086345672608,43.07559733185423,42.28382323847716,171.5643594637319,154.8674333479207,-0.0001295089750783,0.0923051163554191,0,0,0
14495,490833.35641719576,2010-09-27 08:08:56,600.3064716982005,7,43,-1.0997490882873535,3.8278017044067374,43.07559733185423,42.29299270540263,171.5643594637319,154.90256508096547,-0.0001942634553415,0.0923051163554191,0,0,0
14496,490863.37115142506,2010-09-27 08:09:26,630.3212059274882,7,43,-1.099929690361023,3.82100248336792,43.07559733185423,42.30216188537742,171.5643594637319,154.9376310631753,-0.0001942634553415,0.0923051163554191,0,0,0
14497,490893.3864346146,2010-09-27 08:09:56,660.3364891170653,7,43,-1.0997490882873535,3.8142032623291016,43.07559733185423,42.31133116239727,171.5643594637319,154.97263391028238,-0.0001295089750783,0.0923051163554191,0,0,0
14498,490923.4017304858,2010-09-27 08:10:26,690.3517849832853,7,43,-1.0997490882873535,3.8070802688598633,43.07559733185423,42.32050046652308,171.5643594637319,155.00757371297107,-0.0001942634553415,0.0923051163554191,0,0,0
14499,490953.4170255852,2010-09-27 08:10:56,720.3670800825909,7,43,-1.099929690361023,3.800442934036255,43.07559733185423,42.3296696831913,171.5643594637319,155.0424517457359,-0.0001942634553415,0.0923051163554191,0,0,0
14500,490983.4324264033,2010-09-27 08:11:26,750.382480920837,7,43,-1.099929690361023,3.793967485427856,43.07559733185423,42.3388390634018,171.5643594637319,155.07727004304704,-0.0001942634553415,0.0923051163554191,0,0,0
14501,491013.447641919,2010-09-27 08:11:56,780.3976964164395,7,43,-1.099568486213684,3.787653923034668,43.07559733185423,42.34800837178536,171.5643594637319,155.11202903784988,-0.0001295089750783,0.0923051163554191,0,0,0
14502,491043.462930497,2010-09-27 08:12:26,810.4129849894543,7,43,-1.0997490882873535,3.78134036064148,43.07559733185423,42.35717768872564,171.5643594637319,155.14673005594113,-0.0001618862152099,0.0923051163554191,0,0,0
14503,491073.4784631845,2010-09-27 08:12:56,840.4285176868415,7,43,-1.099568486213684,3.775188684463501,43.07559733185423,42.36634706881929,171.5643594637319,155.18137433862506,-0.0001295089750783,0.0923051163554191,0,0,0
14504,491103.49353404896,2010-09-27 08:13:26,870.4435885564351,7,43,-1.0997490882873535,3.7690370082855225,43.07559733185423,42.375516320177,171.5643594637319,155.2159620714269,-0.0001942634553415,0.0923051163554191,0,0,0
14505,491133.50882420095,2010-09-27 08:13:56,900.4588787184164,7,43,-1.0997490882873535,3.763370990753174,43.07559733185423,42.384685054848845,171.5643594637319,155.25049326110613,-0.0001295089750783,0.0923051163554191,0,0,0
14506,491163.5241264481,2010-09-27 08:14:26,930.474180945514,7,43,-1.0997490882873535,3.757381200790405,43.07559733185423,42.39385364257616,171.5643594637319,155.28497014116795,-0.0001618862152099,0.0923051163554191,0,0,0
14507,491193.539417397,2010-09-27 08:14:56,960.489471889447,7,43,-1.0997490882873535,3.7518773078918457,43.07559733185423,42.40302277810106,171.5643594637319,155.31939624038378,-9.713172767078504e-05,0.0923051163554191,0,0,0
14508,491223.5547503058,2010-09-27 08:15:26,990.5048048031432,7,43,-1.0997490882873535,3.746211290359497,43.07559733185423,42.41219217405818,171.5643594637319,155.3537714335062,-0.0001295089750783,0.0923051163554191,0,0,0
14509,491253.5700817157,2010-09-27 08:15:56,1020.5201363985487,7,43,-1.099568486213684,3.7407071590423584,43.07559733185423,42.42136153589481,171.5643594637319,155.38809548211682,-0.0001295089750783,0.0923051163554191,0,0,0
14510,491283.5853422186,2010-09-27 08:16:26,1050.535396721046,7,43,-1.0997490882873535,3.73520302772522,43.07559733185423,42.43053085700322,171.5643594637319,155.4223694925551,-0.0001295089750783,0.0923051163554191,0,0,0
14511,491313.60063178407,2010-09-27 08:16:56,1080.5506862865384,7,43,-1.0997490882873535,3.729860782623291,43.07559733185423,42.43970027364195,171.5643594637319,155.45659487775285,-0.0001618862152099,0.0923051163554191,0,0,0
14512,491343.6159474547,2010-09-27 08:17:26,1110.5660019622055,7,43,-1.099929690361023,3.724680423736572,43.07559733185423,42.44886963090462,171.5643594637319,155.4907726341801,-0.0001618862152099,0.0923051163554191,0,0,0
14513,491373.6312335917,2010-09-27 08:17:56,1140.5812880891149,7,43,-1.099929690361023,3.719661951065064,43.07559733185423,42.45803909486009,171.5643594637319,155.5249036777333,-0.0001295089750783,0.0923051163554191,0,0,0
14514,491403.6465359189,2010-09-27 08:18:26,1170.59659041145,7,43,-1.0997490882873535,3.7146434783935542,43.07559733185423,42.46720853067868,171.5643594637319,155.55898806656813,-0.0001295089750783,0.0923051163554191,0,0,0
14515,491433.661858131,2010-09-27 08:18:56,1200.6119126284457,7,43,-1.0997490882873535,3.709786891937256,43.07559733185423,42.47637800471036,171.5643594637319,155.59302669731292,-0.0001295089750783,0.0923051163554191,0,0,0
14516,491463.6773448136,2010-09-27 08:19:26,1230.62739930596,7,43,-1.0997490882873535,3.704768419265747,43.07559733185423,42.485547513752,171.5643594637319,155.62702020691432,-0.0001618862152099,0.0923051163554191,0,0,0
14517,491493.69244076073,2010-09-27 08:19:56,1260.6424952581638,7,43,-1.0997490882873535,3.6997499465942383,43.07559733185423,42.49471687665992,171.5643594637319,155.6609681227153,-0.0001618862152099,0.0923051163554191,0,0,0
14518,491523.70786778926,2010-09-27 08:20:26,1290.6579223118476,7,43,-1.0997490882873535,3.69521713256836,43.07559733185423,42.50388635481392,171.5643594637319,155.69487205838578,-9.713172767078504e-05,0.0923051163554191,0,0,0
14519,491553.7230783877,2010-09-27 08:20:56,1320.673132885163,7,43,-1.0997490882873535,3.690360546112061,43.07559733185423,42.51305582801472,171.5643594637319,155.72873245959792,-0.0001295089750783,0.0923051163554191,0,0,0
14520,491583.7383669658,2010-09-27 08:21:26,1350.6884214631907,7,43,-1.0997490882873535,3.6858277320861816,43.07559733185423,42.52222528497113,171.5643594637319,155.76255008710336,-9.713172767078504e-05,0.0923051163554191,0,0,0
14521,491613.7537956586,2010-09-27 08:21:56,1380.7038501659913,7,43,-1.0997490882873535,3.681294918060303,43.07559733185423,42.53139479502158,171.5643594637319,155.79632590512804,-0.0001295089750783,0.0923051163554191,0,0,0
14522,491643.76915272255,2010-09-27 08:22:26,1410.7192072149326,7,43,-1.0997490882873535,3.676762104034424,43.07559733185423,42.540564283874666,171.5643594637319,155.83006006367177,-0.0001295089750783,0.0923051163554191,0,0,0
14523,491673.7842514566,2010-09-27 08:22:57,1440.7343059591058,7,43,-1.099929690361023,3.672067642211914,43.07559733185423,42.54973371381658,171.5643594637319,155.86375331890716,-0.0001618385285837,0.0923051163554191,0,0,0
14524,491703.79956277646,2010-09-27 08:23:27,1470.749617268875,7,43,-1.0997490882873535,3.668020486831665,43.07559733185423,42.55890317293254,171.5643594637319,155.89740660285153,-0.0001295089750783,0.0923051163554191,0,0,0
14525,491733.8148524272,2010-09-27 08:23:57,1500.76490691958,7,43,-1.0997490882873535,3.663649559020996,43.07559733185423,42.56807259630598,171.5643594637319,155.9310201168952,-0.0001295089750783,0.0923051163554191,0,0,0
14526,491763.8301562081,2010-09-27 08:24:27,1530.7802107005564,7,43,-1.0997490882873535,3.659440517425537,43.07559733185423,42.5772420196739,171.5643594637319,155.96459458063686,-0.0001295089750783,0.0923051163554191,0,0,0
14527,491793.845543633,2010-09-27 08:24:57,1560.7955982355957,7,43,-1.099929690361023,3.655231475830078,43.07559733185423,42.58641151336487,171.5643594637319,155.99813090323275,-9.713172767078504e-05,0.0923051163554191,0,0,0
14528,491823.8607805119,2010-09-27 08:25:27,1590.8108350995367,7,43,-1.099568486213684,3.651184320449829,43.07559733185423,42.59558102741989,171.5643594637319,156.03162958806598,-0.0001295089750783,0.0923051163554191,0,0,0
14529,491853.8764480758,2010-09-27 08:25:57,1620.8265026635718,7,43,-1.099929690361023,3.64729905128479,43.07559733185423,42.60475063469576,171.5643594637319,156.06509179443185,-9.713172767078504e-05,0.0923051163554191,0,0,0
14530,491883.8913801992,2010-09-27 08:26:27,1650.841434696608,7,43,-1.0997490882873535,3.643413782119751,43.07559733185423,42.61391984294228,171.5643594637319,156.09851582328113,-9.713172767078504e-05,0.0923051163554191,0,0,0
14531,491913.9067348522,2010-09-27 08:26:57,1680.8567893696188,7,43,-1.0997490882873535,3.639528512954712,43.07559733185423,42.62308926133818,171.5643594637319,156.13190533800554,-9.713172767078504e-05,0.0923051163554191,0,0,0
14532,491943.9219636159,2010-09-27 08:27:27,1710.872018108278,7,43,-1.0997490882873535,3.635805130004883,43.07559733185423,42.63225859646165,171.5643594637319,156.16525967205547,-9.713172767078504e-05,0.0923051163554191,0,0,0
14533,491973.93730916607,2010-09-27 08:27:57,1740.887363658517,7,43,-1.099568486213684,3.632243633270264,43.07559733185423,42.641427972929705,171.5643594637319,156.1985804711612,-6.47544875391759e-05,0.0923051163554191,0,0,0
14534,492003.9525534234,2010-09-27 08:28:27,1770.9026079159132,7,43,-1.0997490882873535,3.6285202503204346,43.07559733185423,42.65059733766061,171.5643594637319,156.23186798691353,-9.713172767078504e-05,0.0923051163554191,0,0,0
14535,492033.96804555965,2010-09-27 08:28:57,1800.918100062078,7,43,-1.0997490882873535,3.6251206398010254,43.07559733185423,42.65976680905754,171.5643594637319,156.26512344444572,-6.47544875391759e-05,0.0923051163554191,0,0,0
14536,492063.9831871257,2010-09-27 08:29:27,1830.9332416231284,7,43,-1.0997490882873535,3.6215591430664062,43.07559733185423,42.66893610054518,171.5643594637319,156.298346739304,-9.713172767078504e-05,0.0923051163554191,0,0,0
14537,492093.99859509175,2010-09-27 08:29:57,1860.9486496142288,7,43,-1.0997490882873535,3.618321418762207,43.07559733185423,42.67810556104533,171.5643594637319,156.33153952831705,-6.47544875391759e-05,0.0923051163554191,0,0,0
14538,492124.01374333946,2010-09-27 08:30:27,1890.963797831896,7,43,-1.0997490882873535,3.615083694458008,43.07559733185423,42.687275006401855,171.5643594637319,156.36470214308932,-6.47544875391759e-05,0.0923051163554191,0,0,0
14539,492154.0290758522,2010-09-27 08:30:57,1920.979130349604,7,43,-1.0997490882873535,3.6118459701538086,43.07559733185423,42.69644456578049,171.5643594637319,156.3978360303258,-0.0001295089750783,0.0923051163554191,0,0,0
14540,492184.0443626006,2010-09-27 08:31:27,1950.994417093052,7,43,-1.0997490882873535,3.60860824584961,43.07559733185423,42.705614148418064,171.5643594637319,156.43094069421326,-9.713172767078504e-05,0.0923051163554191,0,0,0
14541,492214.05965392553,2010-09-27 08:31:57,1981.009708417936,7,43,-1.099929690361023,3.60569429397583,43.07559733185423,42.71478368843028,171.5643594637319,156.46401668620112,-3.237724376958795e-05,0.0923051163554191,0,0,0
14542,492244.0749622678,2010-09-27 08:32:27,2011.0250167602976,7,43,-1.0997490882873535,3.602618455886841,43.07559733185423,42.7239531644993,171.5643594637319,156.49706405724217,-6.47544875391759e-05,0.0923051163554191,0,0,0
14543,492274.0902776328,2010-09-27 08:32:57,2041.0403321251897,7,43,-1.099929690361023,3.599542617797852,43.07559733185423,42.73312249452717,171.5643594637319,156.53008321085645,-6.47544875391759e-05,0.0923051163554191,0,0,0
14544,492304.1055752734,2010-09-27 08:33:27,2071.0556297658386,7,43,-1.099929690361023,3.5964667797088623,43.07559733185423,42.74229188462582,171.5643594637319,156.56307485860194,-6.47544875391759e-05,0.0923051163554191,0,0,0
14545,492334.1209934098,2010-09-27 08:33:57,2101.071047912289,7,43,-1.0997490882873535,3.593552827835083,43.07559733185423,42.7514613265805,171.5643594637319,156.5960393638215,-9.713172767078504e-05,0.0923051163554191,0,0,0
14546,492364.1361654019,2010-09-27 08:34:27,2131.086219899287,7,43,-1.0997490882873535,3.5908010005950928,43.07559733185423,42.76063066491701,171.5643594637319,156.62897657958257,-3.237724376958795e-05,0.0923051163554191,0,0,0
14547,492394.1514678144,2010-09-27 08:34:57,2161.10152231686,7,43,-1.0997490882873535,3.5877251625061035,43.07559733185423,42.769800056185126,171.5643594637319,156.66188715262788,-6.47544875391759e-05,0.0923051163554191,0,0,0
14548,492424.1669817048,2010-09-27 08:35:27,2191.117036202289,7,43,-1.099568486213684,3.584973096847534,43.07559733185423,42.77896953613247,171.5643594637319,156.69477120807383,-3.237724376958795e-05,0.0923051163554191,0,0,0
14549,492454.1820866094,2010-09-27 08:35:57,2221.132141111852,7,43,-1.099929690361023,3.581897258758545,43.07559733185423,42.78813885768093,171.5643594637319,156.72762819744722,-6.47544875391759e-05,0.0923051163554191,0,0,0
14550,492484.1974036285,2010-09-27 08:36:27,2251.147458130873,7,43,-1.099929690361023,3.5789833068847656,43.07559733185423,42.797308265297744,171.5643594637319,156.76045860650876,-0.0001295089750783,0.0923051163554191,0,0,0
14551,492514.212812612,2010-09-27 08:36:57,2281.162867104426,7,43,-1.0997490882873535,3.5760693550109863,43.07559733185423,42.80647768507242,171.5643594637319,156.79326215235122,-3.237724376958795e-05,0.0923051163554191,0,0,0
14552,492544.2280213157,2010-09-27 08:37:27,2311.1780758181,7,43,-1.0997490882873535,3.572993516921997,43.07559733185423,42.81564704097753,171.5643594637319,156.82603824757214,-0.0001295089750783,0.0923051163554191,0,0,0
14553,492574.2433828759,2010-09-27 08:37:57,2341.19343741339,7,43,-1.0997490882873535,3.5700795650482178,43.07559733185423,42.82481641712557,171.5643594637319,156.85878695208854,-6.47544875391759e-05,0.0923051163554191,0,0,0
14554,492604.25860560953,2010-09-27 08:38:27,2371.208660111972,7,43,-1.099929690361023,3.5668418407440186,43.07559733185423,42.83398572122085,171.5643594637319,156.8915072982221,-9.713172767078504e-05,0.0923051163554191,0,0,0
14555,492634.2739532901,2010-09-27 08:38:57,2401.224007792528,7,43,-1.0997490882873535,3.5637660026550293,43.07559733185423,42.843155006538986,171.5643594637319,156.92419926072148,-9.713172767078504e-05,0.0923051163554191,0,0,0
14556,492664.2892131865,2010-09-27 08:39:27,2431.239267688962,7,43,-1.0997490882873535,3.56085205078125,43.07559733185423,42.85232427451269,171.5643594637319,156.95686306304506,-9.713172767078504e-05,0.0923051163554191,0,0,0
14557,492694.3045160101,2010-09-27 08:39:57,2461.2545705075363,7,43,-1.099929690361023,3.557452440261841,43.07559733185423,42.86149366500343,171.5643594637319,156.98949851684552,-9.713172767078504e-05,0.0923051163554191,0,0,0
14558,492724.3198156507,2010-09-27 08:40:27,2491.2698701481777,7,43,-1.0997490882873535,3.5542147159576416,43.07559733185423,42.87066303582953,171.5643594637319,157.0221040624799,-9.713172767078504e-05,0.0923051163554191,0,0,0
14559,492754.3356513445,2010-09-27 08:40:57,2521.285705851915,7,43,-1.0997490882873535,3.5509769916534424,43.07559733185423,42.87983259522984,171.5643594637319,157.05467981644776,-9.713172767078504e-05,0.0923051163554191,0,0,0
14560,492784.3504228267,2010-09-27 08:41:27,2551.300477329179,7,43,-1.099568486213684,3.5474154949188232,43.07559733185423,42.889001878922606,171.5643594637319,157.08722350390434,-9.713172767078504e-05,0.0923051163554191,0,0,0
14561,492814.3657120013,2010-09-27 08:41:57,2581.315766498683,7,43,-1.0997490882873535,3.544015884399414,43.07559733185423,42.89817128318786,171.5643594637319,157.11973580230529,-6.47544875391759e-05,0.0923051163554191,0,0,0
14562,492844.3810162584,2010-09-27 08:42:27,2611.331070750836,7,43,-1.0997490882873535,3.540454387664795,43.07559733185423,42.90734063608021,171.5643594637319,157.1522150977157,-6.47544875391759e-05,0.0923051163554191,0,0,0
14563,492874.3963105808,2010-09-27 08:42:57,2641.3463650732024,7,43,-1.099568486213684,3.536569118499756,43.07559733185423,42.91650998641416,171.5643594637319,157.18466045798408,-9.713172767078504e-05,0.0923051163554191,0,0,0
14564,492904.4116612889,2010-09-27 08:43:27,2671.3617157813155,7,43,-1.099929690361023,3.532521963119507,43.07559733185423,42.92567943050276,171.5643594637319,157.2170708181391,-0.0001295089750783,0.0923051163554191,0,0,0
14565,492934.4270144832,2010-09-27 08:43:57,2701.377068975635,7,43,-1.0997490882873535,3.528474807739258,43.07559733185423,42.93484880388398,171.5643594637319,157.24944431765817,-0.0001295089750783,0.0923051163554191,0,0,0
14566,492964.4423557879,2010-09-27 08:44:27,2731.392410285289,7,43,-1.0997490882873535,3.524265766143799,43.07559733185423,42.94401815336402,171.5643594637319,157.28177951664523,-0.0001295089750783,0.0923051163554191,0,0,0
14567,492994.45765954873,2010-09-27 08:44:57,2761.407714046215,7,43,-1.0997490882873535,3.51973295211792,43.07559733185423,42.95318753507895,171.5643594637319,157.31407432383082,-0.0001295089750783,0.0923051163554191,0,0,0
14568,493024.4728384831,2010-09-27 08:45:27,2791.4228929805554,7,43,-1.099929690361023,3.514876365661621,43.07559733185423,42.96235681560264,171.5643594637319,157.3463258915399,-0.0001618862152099,0.0923051163554191,0,0,0
14569,493054.4881276226,2010-09-27 08:45:57,2821.438182114972,7,43,-1.0997490882873535,3.509696245193481,43.07559733185423,42.97152615184061,171.5643594637319,157.37853144482887,-0.0001618862152099,0.0923051163554191,0,0,0
14570,493084.5034316391,2010-09-27 08:46:27,2851.453486131536,7,43,-1.0997490882873535,3.503868341445923,43.07559733185423,42.98069552269968,171.5643594637319,157.41068671355228,-0.0001618862152099,0.0923051163554191,0,0,0
14571,493114.5187483373,2010-09-27 08:46:57,2881.468802839781,7,43,-1.0997490882873535,3.4977166652679443,43.07559733185423,42.98986484726371,171.5643594637319,157.44278694774252,-0.0001618862152099,0.0923051163554191,0,0,0
14572,493144.5342386239,2010-09-27 08:47:27,2911.484293126304,7,43,-1.0997490882873535,3.490593671798706,43.07559733185423,42.999034345277565,171.5643594637319,157.47482662221842,-0.0001618862152099,0.0923051163554191,0,0,0
14573,493174.5493607564,2010-09-27 08:47:57,2941.499415253845,7,43,-1.099929690361023,3.482661247253418,43.07559733185423,43.008203653961495,171.5643594637319,157.50679768430237,-0.0002590179501567,0.0923051163554191,0,0,0
14574,493204.5647863013,2010-09-27 08:48:27,2971.514840798763,7,43,-1.099929690361023,3.47375750541687,43.07559733185423,43.01737301656326,171.5643594637319,157.53869159977262,-0.0002590179501567,0.0923051163554191,0,0,0
14575,493234.5800798968,2010-09-27 08:48:57,3001.5301344193776,7,43,-1.099929690361023,3.4633967876434326,43.07559733185423,43.02654235213057,171.5643594637319,157.57049750851397,-0.0002913951757363,0.0923051163554191,0,0,0
14576,493264.5952588864,2010-09-27 08:49:27,3031.545313388805,7,43,-1.099568486213684,3.4514172077178955,43.07559733185423,43.03571167110042,171.5643594637319,157.6022013983824,-0.0003237724304199,0.0923051163554191,0,0,0
14577,493294.61055318365,2010-09-27 08:49:57,3061.560607676084,7,43,-1.0997490882873535,3.436847448348999,43.07559733185423,43.044881029845,171.5643594637319,157.63378396368094,-0.0004209041653666,0.0923051163554191,0,0,0
14578,493324.6258740122,2010-09-27 08:50:27,3091.5759285146382,7,43,-1.0997490882873535,3.4185545444488525,43.07559733185423,43.05405043643884,171.5643594637319,157.6652168849423,-0.0004856586456298,0.0923051163554191,0,0,0
14579,493354.6411564198,2010-09-27 08:50:57,3121.5912109122387,7,43,-1.0997490882873535,3.3944334983825684,43.07559733185423,43.06321975338,171.5643594637319,157.6964572892208,-0.0007122993702068,0.0923051163554191,0,0,0
14580,493384.6566807262,2010-09-27 08:51:27,3151.6067352337186,7,43,-1.0997490882873535,3.3610849380493164,43.07559733185423,43.07238923234876,171.5643594637319,157.7274380704106,-0.0010360718006268,0.0923051163554191,0,0,0
14581,493414.6717614906,2010-09-27 08:51:57,3181.6218159829727,7,43,-1.0997490882873535,3.313166856765747,43.07559733185423,43.08155850825595,171.5643594637319,157.75805016765366,-0.0014893531333655,0.0923051163554191,0,0,0
14582,493444.6871938525,2010-09-27 08:52:27,3211.637248344907,7,43,-1.099929690361023,3.244203567504883,43.07559733185423,43.09072791749318,171.5643594637319,157.78813363624994,-0.0021368979942053,0.0923051163554191,0,0,0
14583,493474.7023689874,2010-09-27 08:52:57,3241.652423479763,7,43,-1.099929690361023,3.141082286834717,43.07559733185423,43.09989727923493,171.5643594637319,157.81744322805326,-0.0033348561264574,0.0923051163554191,0,0,0
14584,493504.7176919111,2010-09-27 08:53:27,3271.667746403523,7,43,-1.0997490882873535,2.9568562507629395,43.07559733185423,43.1090666201793,171.5643594637319,157.8455142321188,-0.0070906160399317,0.0923051163554191,0,0,0
14585,493519.5143866626,2010-09-27 08:53:42,3286.464441155037,7,43,-1.0997490882873535,2.756603717803955,43.07559733185423,43.11358685750606,171.5643594637319,157.85847157492964,-0.0131127359345555,0.0923051163554191,0,0,0
14586,493522.7799828581,2010-09-27 08:53:46,3289.7300373505404,7,43,-1.099929690361023,2.699781894683838,43.07559733185423,43.11458444194247,171.5643594637319,157.8611933550211,-0.0138574121519923,0.0923051163554191,0,0,0
14587,493582.77996088925,2010-09-27 08:54:46,60.0149888001203,8,43,0.0,3.34392523765564,43.07559733185423,43.11458444194247,171.5643594637319,157.8611933550211,0.0014569759368896,0.0923051163554191,0,0,0
14588,493582.96861487936,2010-09-27 08:54:46,0.187399177176876,9,43,-1.9243103452026844e-05,3.3440871238708496,43.07559733185423,43.11458444294417,171.5643594637319,157.8611933583709,0.0,0.0906038731336593,0,0,0
14589,493587.79677969153,2010-09-27 08:54:51,5.015563999367652,9,43,0.0003419754502829,3.3529906272888184,43.07559782986743,43.11458444311131,171.56436113160234,157.86119335893054,0.0012950419913977,0.0906038731336593,0,0,0
