Data_Point,Test_Time(s),Date_Time,Step_Time(s),Step_Index,Cycle_Index,Current(A),Voltage(V),Charge_Capacity(Ah),Discharge_Capacity(Ah),Charge_Energy(Wh),Discharge_Energy(Wh),dV/dt(V/s),Internal_Resistance(Ohm),Is_FC_Data,AC_Impedance(Ohm),ACI_Phase_Angle(Deg)
9081,307388.83761843503,2010-09-25 05:11:14,30.015514552093496,1,28,0.0,3.375978469848633,26.830929714390933,26.859720450987773,106.9335185792656,98.18742159281146,0.0008741855854168,0.0884163826704025,0,0,0
9082,307418.8528790282,2010-09-25 05:11:44,60.03077514526645,1,28,0.0,3.4026896953582764,26.830929714390933,26.859720450987773,106.9335185792656,98.18742159281146,0.0005827903514727,0.0884163826704025,0,0,0
9083,307448.8682721823,2010-09-25 05:12:14,90.0461682993318,1,28,0.0,3.4232492446899414,26.830929714390933,26.859720450987773,106.9335185792656,98.18742159281146,0.0004532813909463,0.0884163826704025,0,0,0
9084,307478.8369353812,2010-09-25 05:12:44,120.01483150325237,1,28,0.0,3.4391138553619385,26.830929714390933,26.859720450987773,106.9335185792656,98.18742159281146,0.0003237724304199,0.0884163826704025,0,0,0
9085,307508.841101556,2010-09-25 05:13:14,30.01552205582396,2,28,0.5501165986061096,3.5835161209106445,26.83551665784876,26.859720450987773,106.94979735321128,98.18742159281146,0.0015541076427325,0.0884163826704025,0,0,0
9086,307538.8565831859,2010-09-25 05:13:44,60.03100368072612,2,28,0.5501165986061096,3.630300998687744,26.840103586473585,26.859720450987773,106.96634875472571,98.18742159281146,0.0010360718006268,0.0884163826704025,0,0,0
9087,307568.8717208272,2010-09-25 05:14:14,90.04614122174196,2,28,0.550297200679779,3.664458990097046,26.844690476238128,26.859720450987773,106.98308258822064,98.18742159281146,0.0008094310760498,0.0884163826704025,0,0,0
9088,307598.8871077607,2010-09-25 05:14:44,120.06152816029244,2,28,0.5501165986061096,3.6914937496185294,26.849277339188824,26.859720450987773,106.99995499601444,98.18742159281146,0.0006799221155233,0.0884163826704025,0,0,0
9089,307628.9026939366,2010-09-25 05:15:14,150.0771143311574,2,28,0.5501165986061096,3.713348388671875,26.853864254322204,26.859720450987773,107.01693903772392,98.18742159281146,0.0005504131549969,0.0884163826704025,0,0,0
9090,307658.91801072,2010-09-25 05:15:44,180.0924311246149,2,28,0.5501165986061096,3.7313177585601807,26.85845112436353,26.859720450987773,107.03401442002048,98.18742159281146,0.0004209041653666,0.0884163826704025,0,0,0
9091,307688.93329332315,2010-09-25 05:16:14,210.10771381294072,2,28,0.550297200679779,3.745725631713867,26.86303796868988,26.859720450987773,107.05116401033298,98.18742159281146,0.0003237724304199,0.0884163826704025,0,0,0
9092,307718.94867871783,2010-09-25 05:16:44,240.1230992276876,2,28,0.5501165986061096,3.7554385662078857,26.86762487604453,26.859720450987773,107.06836923238804,98.18742159281146,0.0002266406954731,0.0884163826704025,0,0,0
9093,307748.9640802378,2010-09-25 05:17:14,270.1385006423727,2,28,0.5501165986061096,3.7607808113098153,26.87221175562134,26.859720450987773,107.08560801180153,98.18742159281146,0.0001295089750783,0.0884163826704025,0,0,0
9094,307778.97942868527,2010-09-25 05:17:44,300.1538490898435,2,28,0.550297200679779,3.7646660804748535,26.876798491121537,26.859720450987773,107.10286649612571,98.18742159281146,0.0001618862152099,0.0884163826704025,0,0,0
9095,307808.9949327412,2010-09-25 05:18:14,330.16935313571184,2,28,0.550297200679779,3.7677419185638423,26.8813853779214,26.859720450987773,107.12014149491904,98.18742159281146,3.237724376958795e-05,0.0884163826704025,0,0,0
9096,307839.01028385025,2010-09-25 05:18:44,360.18470426988904,2,28,0.550297200679779,3.770979642868042,26.88597278408136,26.859720450987773,107.13743333515022,98.18742159281146,9.713172767078504e-05,0.0884163826704025,0,0,0
9097,307869.0255676363,2010-09-25 05:19:14,390.19998803590494,2,28,0.550297200679779,3.774217367172241,26.89056040285456,26.859720450987773,107.15474058057244,98.18742159281146,6.47544875391759e-05,0.0884163826704025,0,0,0
9098,307899.04094006366,2010-09-25 05:19:44,420.2153604582208,2,28,0.550297200679779,3.7772932052612314,26.895147901064465,26.859720450987773,107.1720617940014,98.18742159281146,6.47544875391759e-05,0.0884163826704025,0,0,0
9099,307929.05632237566,2010-09-25 05:20:14,450.23074277022266,2,28,0.5504778623580933,3.78036904335022,26.89973549615741,26.859720450987773,107.18939758672305,98.18742159281146,6.47544875391759e-05,0.0884163826704025,0,0,0
9100,307959.0721260093,2010-09-25 05:20:44,480.2465464289707,2,28,0.5501165986061096,3.783282995223999,26.90432318738028,26.859720450987773,107.20674762009224,98.18742159281146,6.47544875391759e-05,0.0884163826704025,0,0,0
9101,307989.08710987173,2010-09-25 05:21:14,510.2615302663186,2,28,0.5501165986061096,3.786358833312988,26.90891072973225,26.859720450987773,107.22411090518192,98.18742159281146,6.47544875391759e-05,0.0884163826704025,0,0,0
9102,308019.1024770009,2010-09-25 05:21:44,540.2768973954217,2,28,0.550297200679779,3.7894346714019775,26.913498035527805,26.859720450987773,107.2414868797191,98.18742159281146,9.713172767078504e-05,0.0884163826704025,0,0,0
9103,308049.117868596,2010-09-25 05:22:14,570.2922890056333,2,28,0.550297200679779,3.792348623275757,26.91808503469297,26.859720450987773,107.25887511808416,98.18742159281146,0.0001295089750783,0.0884163826704025,0,0,0
9104,308079.1332631987,2010-09-25 05:22:44,600.3076835932771,2,28,0.550297200679779,3.795100688934326,26.922672035348715,26.859720450987773,107.27627661268832,98.18742159281146,9.713172767078504e-05,0.0884163826704025,0,0,0
9105,308109.1487421369,2010-09-25 05:23:14,630.3231626267105,2,28,0.550297200679779,3.7980146408081055,26.92725904127402,26.859720450987773,107.29369136480403,98.18742159281146,9.713172767078504e-05,0.0884163826704025,0,0,0
9106,308139.14876198187,2010-09-25 05:23:44,660.3231824916812,2,28,0.550297200679779,3.801090478897095,26.93184373564067,26.859720450987773,107.31111061937732,98.18742159281146,0.0001295089750783,0.0884163826704025,0,0,0
9107,308169.1637811975,2010-09-25 05:24:14,690.338201592051,2,28,0.5501165986061096,3.803842544555664,26.93643071715178,26.859720450987773,107.32855193906336,98.18742159281146,6.47544875391759e-05,0.0884163826704025,0,0,0
9108,308199.17917739914,2010-09-25 05:24:44,720.3535978037486,2,28,0.5499359965324402,3.8067564964294434,26.94101775705569,26.859720450987773,107.34600712774872,98.18742159281146,6.47544875391759e-05,0.0884163826704025,0,0,0
9109,308229.1946855704,2010-09-25 05:25:14,750.3691059699017,2,28,0.5499359965324402,3.8098323345184326,26.945604818335383,26.859720450987773,107.36347645024676,98.18742159281146,6.47544875391759e-05,0.0884163826704025,0,0,0
9110,308259.209962394,2010-09-25 05:25:44,780.3843827885762,2,28,0.5501165986061096,3.813231945037842,26.950191847738253,26.859720450987773,107.38096019714676,98.18742159281146,9.713172767078504e-05,0.0884163826704025,0,0,0
9111,308289.2253299191,2010-09-25 05:26:14,810.3997503387302,2,28,0.550297200679779,3.816631555557251,26.95477882826356,26.859720450987773,107.39845908106858,98.18742159281146,9.713172767078504e-05,0.0884163826704025,0,0,0
9112,308319.2407323313,2010-09-25 05:26:44,840.4151527358677,2,28,0.550297200679779,3.82003116607666,26.95936582787189,26.859720450987773,107.41597342494616,98.18742159281146,9.713172767078504e-05,0.0884163826704025,0,0,0
9113,308349.2562320714,2010-09-25 05:27:14,870.4306524759882,2,28,0.550297200679779,3.823430776596069,26.96395289130793,26.859720450987773,107.43350375085951,98.18742159281146,9.713172767078504e-05,0.0884163826704025,0,0,0
9114,308379.27150310064,2010-09-25 05:27:44,900.4459234951859,2,28,0.5501165986061096,3.826992273330689,26.968539820935117,26.859720450987773,107.45104934620127,98.18742159281146,9.713172767078504e-05,0.0884163826704025,0,0,0
9115,308409.28703869024,2010-09-25 05:28:14,930.4614590948174,2,28,0.5501165986061096,3.830229997634888,26.973126812759137,26.859720450987773,107.46861091392424,98.18742159281146,0.0001295089750783,0.0884163826704025,0,0,0
9116,308439.302316356,2010-09-25 05:28:44,960.4767367555936,2,28,0.5499359965324402,3.8336293697357178,26.97771384390053,26.859720450987773,107.48618818832466,98.18742159281146,0.0001294612884521,0.0884163826704025,0,0,0
9117,308469.3176496406,2010-09-25 05:29:14,990.4920700402156,2,28,0.550297200679779,3.837028980255127,26.982300836808964,26.859720450987773,107.50378056945372,98.18742159281146,9.713172767078504e-05,0.0884163826704025,0,0,0
9118,308499.3330219377,2010-09-25 05:29:44,1020.5074423422312,2,28,0.5501165986061096,3.840266704559326,26.98688786503055,26.859720450987773,107.52138796902244,98.18742159281146,0.0001295089750783,0.0884163826704025,0,0,0
9119,308529.34854053985,2010-09-25 05:30:14,1050.522960939422,2,28,0.5501165986061096,3.8431806564331055,26.991474861245663,26.859720450987773,107.53900984398356,98.18742159281146,9.713172767078504e-05,0.0884163826704025,0,0,0
9120,308559.3637798549,2010-09-25 05:30:44,1080.538200249469,2,28,0.550297200679779,3.8464183807373047,26.99606177005236,26.859720450987773,107.5566456118432,98.18742159281146,6.47544875391759e-05,0.0884163826704025,0,0,0
9121,308589.3791611243,2010-09-25 05:31:14,1110.5535815489434,2,28,0.5501165986061096,3.849332332611084,27.000648768193606,26.859720450987773,107.5742957292757,98.18742159281146,6.47544875391759e-05,0.0884163826704025,0,0,0
9122,308619.3947607187,2010-09-25 05:31:44,1140.5691811132403,2,28,0.5501165986061096,3.8522462844848633,27.005235811693048,26.859720450987773,107.59195966605992,98.18742159281146,6.47544875391759e-05,0.0884163826704025,0,0,0
9123,308649.4099638484,2010-09-25 05:32:14,1170.584384263026,2,28,0.5501165986061096,3.8551602363586426,27.009822806053997,26.859720450987773,107.6096365168298,98.18742159281146,9.713172767078504e-05,0.0884163826704025,0,0,0
9124,308679.4253294187,2010-09-25 05:32:44,1200.5997498232127,2,28,0.550297200679779,3.857750415802002,27.014409857107257,26.859720450987773,107.62732619467695,98.18742159281146,6.47544875391759e-05,0.0884163826704025,0,0,0
9125,308709.4407105928,2010-09-25 05:33:14,1230.6151309873492,2,28,0.550297200679779,3.860340595245361,27.01899688568933,26.859720450987773,107.64502774902704,98.18742159281146,6.47544875391759e-05,0.0884163826704025,0,0,0
9126,308739.45612381195,2010-09-25 05:33:44,1260.6305442115126,2,28,0.5501165986061096,3.862768888473511,27.023584007254,26.859720450987773,107.66274098177578,98.18742159281146,9.713172767078504e-05,0.0884163826704025,0,0,0
9127,308769.4715012317,2010-09-25 05:34:14,1290.6459216262904,2,28,0.5501165986061096,3.86503529548645,27.02817105946439,26.859720450987773,107.68046458736735,98.18742159281146,6.47544875391759e-05,0.0884163826704025,0,0,0
9128,308799.4868716992,2010-09-25 05:34:44,1320.6612921037513,2,28,0.5501165986061096,3.8669779300689697,27.03275808630537,26.859720450987773,107.69819810985824,98.18742159281146,3.237724376958795e-05,0.0884163826704025,0,0,0
9129,308829.50226173544,2010-09-25 05:35:15,1350.6766821350216,2,28,0.550297200679779,3.869082450866699,27.03734510012173,26.859720450987773,107.71594102578896,98.18742159281146,6.47544875391759e-05,0.0884163826704025,0,0,0
9130,308859.51788811164,2010-09-25 05:35:45,1380.6923085463327,2,28,0.5501165986061096,3.870863199234009,27.041932183289944,26.859720450987773,107.73369296875514,98.18742159281146,6.47544875391759e-05,0.0884163826704025,0,0,0
9131,308889.53303372284,2010-09-25 05:36:15,1410.7074541173931,2,28,0.5501165986061096,3.8726439476013184,27.04651913733806,26.859720450987773,107.75145256814892,98.18742159281146,3.237724376958795e-05,0.0884163826704025,0,0,0
9132,308919.54854619474,2010-09-25 05:36:45,1440.7229665892942,2,28,0.550297200679779,3.874100923538208,27.051106189852632,26.859720450987773,107.76922018818286,98.18742159281146,3.237724376958795e-05,0.0884163826704025,0,0,0
9133,308949.5638695596,2010-09-25 05:37:15,1470.7382899541549,2,28,0.5499359965324402,3.8755578994750977,27.05569320180449,26.859720450987773,107.7869946251496,98.18742159281146,0.0,0.0884163826704025,0,0,0
9134,308979.5793378512,2010-09-25 05:37:45,1500.7537582558,2,28,0.550297200679779,3.877176761627197,27.06028028136637,26.859720450987773,107.8047760906945,98.18742159281146,3.237724376958795e-05,0.0884163826704025,0,0,0
9135,309009.5946051962,2010-09-25 05:38:15,1530.769025595814,2,28,0.5501165986061096,3.878471851348877,27.064867267723425,26.859720450987773,107.82256349325976,98.18742159281146,3.237724376958795e-05,0.0884163826704025,0,0,0
9136,309039.60997480655,2010-09-25 05:38:45,1560.7843952111232,2,28,0.5501165986061096,3.8796050548553462,27.06945434458916,26.859720450987773,107.84035725065948,98.18742159281146,3.237724376958795e-05,0.0884163826704025,0,0,0
9137,309069.62535148946,2010-09-25 05:39:15,1590.7997718840493,2,28,0.550297200679779,3.881062030792236,27.07404149962376,26.859720450987773,107.85815716950354,98.18742159281146,6.47544875391759e-05,0.0884163826704025,0,0,0
9138,309099.6408791242,2010-09-25 05:39:45,1620.815299528824,2,28,0.5501165986061096,3.882357120513916,27.078628550578813,26.859720450987773,107.8759622911769,98.18742159281146,9.713172767078504e-05,0.0884163826704025,0,0,0
9139,309129.65612171247,2010-09-25 05:40:15,1650.8305421170537,2,28,0.5501165986061096,3.883328437805176,27.083215535237137,26.859720450987773,107.89377272321096,98.18742159281146,0.0,0.0884163826704025,0,0,0
9140,309159.67153321736,2010-09-25 05:40:45,1680.8459536119003,2,28,0.550297200679779,3.8847854137420654,27.087802661233308,26.859720450987773,107.91158917973507,98.18742159281146,9.713172767078504e-05,0.0884163826704025,0,0,0
9141,309189.6870388221,2010-09-25 05:41:15,1710.8614593118978,2,28,0.5501165986061096,3.885756731033325,27.092389797797345,26.859720450987773,107.929411028089,98.18742159281146,3.237724376958795e-05,0.0884163826704025,0,0,0
9142,309219.70242586086,2010-09-25 05:41:45,1740.8768462554608,2,28,0.550297200679779,3.887051820755005,27.09697681189493,26.859720450987773,107.94723783686116,98.18742159281146,6.47544875391759e-05,0.0884163826704025,0,0,0
9143,309249.7176746997,2010-09-25 05:42:15,1770.892095104318,2,28,0.550297200679779,3.8881850242614746,27.10156390720965,26.859720450987773,107.96507032462604,98.18742159281146,6.47544875391759e-05,0.0884163826704025,0,0,0
9144,309279.7330596885,2010-09-25 05:42:45,1800.9074800829765,2,28,0.550297200679779,3.889318227767944,27.10615097707755,26.859720450987773,107.98290811913766,98.18742159281146,3.237724376958795e-05,0.0884163826704025,0,0,0
9145,309309.748484286,2010-09-25 05:43:15,1830.922904685542,2,28,0.550297200679779,3.890451431274414,27.110738107175823,26.859720450987773,108.0007515142823,98.18742159281146,0.0,0.0884163826704025,0,0,0
9146,309339.7638467835,2010-09-25 05:43:45,1860.938267178071,2,28,0.5501165986061096,3.891584634780884,27.11532519998565,26.859720450987773,108.01860020170916,98.18742159281146,3.237724376958795e-05,0.0884163826704025,0,0,0
9147,309369.77925093,2010-09-25 05:44:15,1890.953671324576,2,28,0.5499359965324402,3.8927178382873535,27.119912292890326,26.859720450987773,108.03645430564028,98.18742159281146,3.237724376958795e-05,0.0884163826704025,0,0,0
9148,309399.7946169112,2010-09-25 05:44:45,1920.969037305813,2,28,0.5501165986061096,3.894012928009033,27.12449941304231,26.859720450987773,108.05431401420086,98.18742159281146,6.47544875391759e-05,0.0884163826704025,0,0,0
9149,309429.8100281705,2010-09-25 05:45:15,1950.98444868036,2,28,0.550297200679779,3.895146131515503,27.12908659304182,26.859720450987773,108.07217929257082,98.18742159281146,3.237724376958795e-05,0.0884163826704025,0,0,0
9150,309459.8253904826,2010-09-25 05:45:45,1980.999810877151,2,28,0.550297200679779,3.896441221237183,27.133673699777944,26.859720450987773,108.09004954230656,98.18742159281146,3.237724376958795e-05,0.0884163826704025,0,0,0
9151,309489.8409245334,2010-09-25 05:46:15,2011.0153449329289,2,28,0.550297200679779,3.8977363109588623,27.138260810401537,26.859720450987773,108.10792551910222,98.18742159281146,6.47544875391759e-05,0.0884163826704025,0,0,0
9152,309519.8561438936,2010-09-25 05:46:45,2041.030564293178,2,28,0.5501165986061096,3.898869514465332,27.1428478595726,26.859720450987773,108.12580686274104,98.18742159281146,3.237724376958795e-05,0.0884163826704025,0,0,0
9153,309549.87166341813,2010-09-25 05:47:15,2071.046083817683,2,28,0.5501165986061096,3.900164604187012,27.147434993098404,26.859720450987773,108.14369427222918,98.18742159281146,3.237724376958795e-05,0.0884163826704025,0,0,0
9154,309579.8871372386,2010-09-25 05:47:45,2101.0615576330915,2,28,0.5499359965324402,3.901135921478272,27.152022151355773,26.859720450987773,108.16158739231302,98.18742159281146,0.0,0.0884163826704025,0,0,0
9155,309609.9023159373,2010-09-25 05:48:15,2131.0767363418686,2,28,0.5504778623580933,3.902754783630371,27.15660920113704,26.859720450987773,108.1794859305358,98.18742159281146,6.47544875391759e-05,0.0884163826704025,0,0,0
9156,309639.9177125349,2010-09-25 05:48:45,2161.0921329395296,2,28,0.5501165986061096,3.903887987136841,27.16119625626576,26.859720450987773,108.19739030242138,98.18742159281146,3.237724376958795e-05,0.0884163826704025,0,0,0
9157,309669.93307917786,2010-09-25 05:49:15,2191.107499582419,2,28,0.550297200679779,3.905183076858521,27.165783373772783,26.859720450987773,108.21530085869502,98.18742159281146,3.237724376958795e-05,0.0884163826704025,0,0,0
9158,309699.9484774246,2010-09-25 05:49:45,2221.122897824184,2,28,0.5501165986061096,3.9064781665802,27.170370503294887,26.859720450987773,108.23321727089126,98.18742159281146,3.237724376958795e-05,0.0884163826704025,0,0,0
9159,309729.9639878113,2010-09-25 05:50:15,2251.138408215893,2,28,0.5501165986061096,3.90777325630188,27.174957660674103,26.859720450987773,108.25113987146356,98.18742159281146,3.237724376958795e-05,0.0884163826704025,0,0,0
9160,309759.9792347905,2010-09-25 05:50:45,2281.153655190071,2,28,0.550297200679779,3.90906834602356,27.179544699695576,26.859720450987773,108.26906802712938,98.18742159281146,3.237724376958795e-05,0.0884163826704025,0,0,0
9161,309789.9947748212,2010-09-25 05:51:15,2311.1691952207625,2,28,0.5501165986061096,3.9103634357452393,27.184131784256746,26.859720450987773,108.28700251060732,98.18742159281146,3.237724376958795e-05,0.0884163826704025,0,0,0
9162,309820.0100199708,2010-09-25 05:51:45,2341.184440455598,2,28,0.5501165986061096,3.911820411682129,27.188718911206,26.859720450987773,108.30494331798717,98.18742159281146,6.47544875391759e-05,0.0884163826704025,0,0,0
9163,309850.0253961876,2010-09-25 05:52:15,2371.199816582161,2,28,0.5497553944587708,3.9131155014038086,27.193305935863247,26.859720450987773,108.32288994357292,98.18742159281146,0.0,0.0884163826704025,0,0,0
9164,309880.04077987804,2010-09-25 05:52:45,2401.2152002726034,2,28,0.5501165986061096,3.914572238922119,27.197893007720065,26.859720450987773,108.3408430591803,98.18742159281146,3.237724376958795e-05,0.0884163826704025,0,0,0
9165,309910.0565628953,2010-09-25 05:53:15,2431.23098339509,2,28,0.5501165986061096,3.916029214859009,27.2024801587898,26.859720450987773,108.35880276678878,98.18742159281146,6.47544875391759e-05,0.0884163826704025,0,0,0
9166,309940.07169655664,2010-09-25 05:53:45,2461.246116961184,2,28,0.5501165986061096,3.9174861907958975,27.20706715175131,26.859720450987773,108.37676821063454,98.18742159281146,6.47544875391759e-05,0.0884163826704025,0,0,0
9167,309970.08694066363,2010-09-25 05:54:15,2491.261361063192,2,28,0.5499359965324402,3.918781280517578,27.21165419859354,26.859720450987773,108.39474034893898,98.18742159281146,3.237724376958795e-05,0.0884163826704025,0,0,0
9168,310000.1023451209,2010-09-25 05:54:45,2521.276765550547,2,28,0.550297200679779,3.920238256454468,27.21624126605053,26.859720450987773,108.41271912403688,98.18742159281146,3.237724376958795e-05,0.0884163826704025,0,0,0
9169,310030.11771771865,2010-09-25 05:55:15,2551.292138113213,2,28,0.5501165986061096,3.921533346176148,27.22082833740734,26.859720450987773,108.43070444359856,98.18742159281146,0.0,0.0884163826704025,0,0,0
9170,310060.1332470426,2010-09-25 05:55:45,2581.3076674472045,2,28,0.5501165986061096,3.923152208328247,27.22541537404185,26.859720450987773,108.4486962869088,98.18742159281146,9.713172767078504e-05,0.0884163826704025,0,0,0
9171,310090.1484805381,2010-09-25 05:56:15,2611.322900932713,2,28,0.5501165986061096,3.924447298049927,27.230002372977665,26.859720450987773,108.4666946272066,98.18742159281146,3.237724376958795e-05,0.0884163826704025,0,0,0
9172,310120.1638649053,2010-09-25 05:56:45,2641.3382853098697,2,28,0.5501165986061096,3.925904273986816,27.23458940427098,26.859720450987773,108.48469988984476,98.18742159281146,0.0,0.0884163826704025,0,0,0
9173,310150.17949613364,2010-09-25 05:57:15,2671.3539165331927,2,28,0.550297200679779,3.927523136138916,27.239176497975286,26.859720450987773,108.502712102443,98.18742159281146,6.47544875391759e-05,0.0884163826704025,0,0,0
9174,310180.1947845763,2010-09-25 05:57:45,2701.3692049808947,2,28,0.5501165986061096,3.9289801120758057,27.24376353624438,26.859720450987773,108.52073098579334,98.18742159281146,3.237724376958795e-05,0.0884163826704025,0,0,0
9175,310210.21004669834,2010-09-25 05:58:15,2731.384467097871,2,28,0.5501165986061096,3.9304370880126953,27.248350599219044,26.859720450987773,108.5387569671298,98.18742159281146,3.237724376958795e-05,0.0884163826704025,0,0,0
9176,310240.22550481453,2010-09-25 05:58:45,2761.39992520908,2,28,0.5501165986061096,3.932055950164795,27.252937654692182,26.859720450987773,108.55678981049788,98.18742159281146,3.237724376958795e-05,0.0884163826704025,0,0,0
9177,310270.24082876585,2010-09-25 05:59:15,2791.4152492606545,2,28,0.550297200679779,3.933512926101685,27.257524664598563,26.859720450987773,108.5748295591797,98.18742159281146,6.47544875391759e-05,0.0884163826704025,0,0,0
9178,310300.25703387667,2010-09-25 05:59:45,2821.4314542812635,2,28,0.5501165986061096,3.935131788253784,27.2621119041328,26.859720450987773,108.59287732963124,98.18742159281146,6.47544875391759e-05,0.0884163826704025,0,0,0
9179,310330.27164802124,2010-09-25 06:00:15,2851.4460685160266,2,28,0.5499359965324402,3.936588764190674,27.266698973281184,26.859720450987773,108.61093157430584,98.18742159281146,3.237724376958795e-05,0.0884163826704025,0,0,0
9180,310360.28697100014,2010-09-25 06:00:45,2881.4613913946737,2,28,0.550297200679779,3.938207626342773,27.271286030920542,26.859720450987773,108.62899294034985,98.18742159281146,3.237724376958795e-05,0.0884163826704025,0,0,0
9181,310390.30235186854,2010-09-25 06:01:15,2911.476772283122,2,28,0.5501165986061096,3.939826488494873,27.27587313196184,26.859720450987773,108.64706179935207,98.18742159281146,3.237724376958795e-05,0.0884163826704025,0,0,0
9182,310420.31778512767,2010-09-25 06:01:45,2941.492205527258,2,28,0.550297200679779,3.941607236862183,27.28046016133204,26.859720450987773,108.66513776127816,98.18742159281146,6.47544875391759e-05,0.0884163826704025,0,0,0
9183,310450.3330425128,2010-09-25 06:02:15,2971.5074629174364,2,28,0.5501165986061096,3.943064212799072,27.285047215257507,26.859720450987773,108.68322121309514,98.18742159281146,6.47544875391759e-05,0.0884163826704025,0,0,0
9184,310480.3485003985,2010-09-25 06:02:45,3001.5229207930565,2,28,0.550297200679779,3.944844961166382,27.289634362429627,26.859720450987773,108.7013127049845,98.18742159281146,3.237724376958795e-05,0.0884163826704025,0,0,0
9185,310510.3638872469,2010-09-25 06:03:15,3031.5383076413814,2,28,0.550297200679779,3.9466257095336914,27.294221459305508,26.859720450987773,108.71941161890352,98.18742159281146,9.713172767078504e-05,0.0884163826704025,0,0,0
9186,310540.3794886106,2010-09-25 06:03:45,3061.5539090051707,2,28,0.5501165986061096,3.948082685470581,27.298808579797264,26.859720450987773,108.73751817105602,98.18742159281146,3.237724376958795e-05,0.0884163826704025,0,0,0
9187,310570.39466837706,2010-09-25 06:04:15,3091.5690887766,2,28,0.5501165986061096,3.94986343383789,27.30339564803975,26.859720450987773,108.75563229640665,98.18742159281146,6.47544875391759e-05,0.0884163826704025,0,0,0
9188,310600.41004495975,2010-09-25 06:04:45,3121.584465354288,2,28,0.5499359965324402,3.9514822959899902,27.3079827275086,26.859720450987773,108.77375429823202,98.18742159281146,3.237724376958795e-05,0.0884163826704025,0,0,0
9189,310630.425584449,2010-09-25 06:05:15,3151.600004848641,2,28,0.5501165986061096,3.95310115814209,27.31256980097811,26.859720450987773,108.79188410449623,98.18742159281146,3.237724376958795e-05,0.0884163826704025,0,0,0
9190,310660.4408324007,2010-09-25 06:05:45,3181.6152527952463,2,28,0.5501165986061096,3.95504379272461,27.31715684484845,26.859720450987773,108.81002177759407,98.18742159281146,6.47544875391759e-05,0.0884163826704025,0,0,0
9191,310690.45621900336,2010-09-25 06:06:15,3211.630639397959,2,28,0.5501165986061096,3.956662654876709,27.32174395874112,26.859720450987773,108.82816781885197,98.18742159281146,0.0,0.0884163826704025,0,0,0
9192,310720.47159548086,2010-09-25 06:06:45,3241.6460158753966,2,28,0.550297200679779,3.958605289459229,27.326331092310856,26.859720450987773,108.846321936124,98.18742159281146,6.47544875391759e-05,0.0884163826704025,0,0,0
9193,310750.4869769508,2010-09-25 06:07:16,3271.661397345297,2,28,0.5499359965324402,3.960224151611328,27.33091822838984,26.859720450987773,108.86448429984829,98.18742159281146,0.0,0.0884163826704025,0,0,0
9194,310780.5024811821,2010-09-25 06:07:46,3301.6769015866525,2,28,0.5504778623580933,3.962166786193848,27.33550540119526,26.859720450987773,108.8826551182772,98.18742159281146,6.47544875391759e-05,0.0884163826704025,0,0,0
9195,310810.5177951485,2010-09-25 06:08:16,3331.6922155530538,2,28,0.5501165986061096,3.963947534561157,27.340092509628324,26.859720450987773,108.90083390838366,98.18742159281146,6.47544875391759e-05,0.0884163826704025,0,0,0
9196,310840.5331541072,2010-09-25 06:08:46,3361.707574531812,2,28,0.5501165986061096,3.965728282928467,27.344679531135004,26.859720450987773,108.9190207856944,98.18742159281146,6.47544875391759e-05,0.0884163826704025,0,0,0
9197,310870.54852009844,2010-09-25 06:09:16,3391.722940523075,2,28,0.550297200679779,3.9676709175109854,27.349266582756613,26.859720450987773,108.9372162817983,98.18742159281146,6.47544875391759e-05,0.0884163826704025,0,0,0
9198,310900.56392192416,2010-09-25 06:09:46,3421.738342328736,2,28,0.5501165986061096,3.969451665878296,27.353853648541037,26.859720450987773,108.95542040271624,98.18742159281146,3.237724376958795e-05,0.0884163826704025,0,0,0
9199,310930.5792908277,2010-09-25 06:10:16,3451.753711222243,2,28,0.550297200679779,3.971394300460816,27.35844076108198,26.859720450987773,108.97363350221664,98.18742159281146,3.237724376958795e-05,0.0884163826704025,0,0,0
9200,310960.5946819567,2010-09-25 06:10:46,3481.769102351254,2,28,0.5501165986061096,3.973498821258545,27.363027907424996,26.859720450987773,108.99185559869962,98.18742159281146,9.713172767078504e-05,0.0884163826704025,0,0,0
9201,310990.61012934113,2010-09-25 06:11:16,3511.784549750724,2,28,0.5501165986061096,3.975441455841065,27.367615089518885,26.859720450987773,109.01008679095996,98.18742159281146,6.47544875391759e-05,0.0884163826704025,0,0,0
9202,311020.6254689115,2010-09-25 06:11:46,3541.7998893059985,2,28,0.5501165986061096,3.977060317993164,27.37220228607081,26.859720450987773,109.02832712048658,98.18742159281146,-3.237724376958795e-05,0.0884163826704025,0,0,0
9203,311050.64086612564,2010-09-25 06:12:16,3571.815286525211,2,28,0.5501165986061096,3.979326725006104,27.37678939376123,26.859720450987773,109.0465758391244,98.18742159281146,6.47544875391759e-05,0.0884163826704025,0,0,0
9204,311080.65623449784,2010-09-25 06:12:46,3601.8306548924047,2,28,0.550297200679779,3.981593132019043,27.38137643697598,26.859720450987773,109.0648339989533,98.18742159281146,0.0001295089750783,0.0884163826704025,0,0,0
9205,311110.6717592103,2010-09-25 06:13:16,3631.846179614885,2,28,0.5501165986061096,3.983373880386353,27.385963514251983,26.859720450987773,109.08310162885267,98.18742159281146,3.237724376958795e-05,0.0884163826704025,0,0,0
9206,311140.6870150065,2010-09-25 06:13:46,3661.861435406071,2,28,0.5501165986061096,3.985478401184082,27.39055057082324,26.859720450987773,109.10137860638964,98.18742159281146,0.0,0.0884163826704025,0,0,0
9207,311170.7023884664,2010-09-25 06:14:16,3691.876808860965,2,28,0.5501165986061096,3.987582921981812,27.395137666265324,26.859720450987773,109.11966528192244,98.18742159281146,3.237724376958795e-05,0.0884163826704025,0,0,0
9208,311200.7177827533,2010-09-25 06:14:46,3721.892203147858,2,28,0.5501165986061096,3.989525556564331,27.3997247612948,26.859720450987773,109.1379614715833,98.18742159281146,3.237724376958795e-05,0.0884163826704025,0,0,0
9209,311230.7332926137,2010-09-25 06:15:16,3751.90771300824,2,28,0.5501165986061096,3.9917919635772714,27.404311815112017,26.859720450987773,109.156267193775,98.18742159281146,6.47544875391759e-05,0.0884163826704025,0,0,0
9210,311260.7485847155,2010-09-25 06:15:46,3781.923005135126,2,28,0.550297200679779,3.993896484375,27.40889885866572,26.859720450987773,109.17458267166133,98.18742159281146,6.47544875391759e-05,0.0884163826704025,0,0,0
9211,311290.7640663705,2010-09-25 06:16:16,3811.9384867650406,2,28,0.550297200679779,3.99616265296936,27.41348587588565,26.859720450987773,109.1929078589704,98.18742159281146,9.713172767078504e-05,0.0884163826704025,0,0,0
9212,311320.7793297556,2010-09-25 06:16:46,3841.9537501501823,2,28,0.550297200679779,3.99826717376709,27.41807286675291,26.859720450987773,109.21124292245378,98.18742159281146,0.0,0.0884163826704025,0,0,0
9213,311350.7947141879,2010-09-25 06:17:16,3871.9691345824767,2,28,0.5501165986061096,4.000371932983398,27.42265989390747,26.859720450987773,109.22958799450367,98.18742159281146,3.24249267578125e-05,0.0884163826704025,0,0,0
9214,311380.81012944714,2010-09-25 06:17:46,3901.98454984172,2,28,0.5501165986061096,4.002638339996338,27.427246893107668,26.859720450987773,109.24794316271922,98.18742159281146,6.47544875391759e-05,0.0884163826704025,0,0,0
9215,311410.8255087466,2010-09-25 06:18:16,3931.999929146215,2,28,0.5501165986061096,4.004904747009277,27.43183394335005,26.859720450987773,109.26630868506638,98.18742159281146,6.47544875391759e-05,0.0884163826704025,0,0,0
9216,311440.8408873745,2010-09-25 06:18:46,3962.015307769008,2,28,0.550297200679779,4.007171154022217,27.436420972188312,26.859720450987773,109.28468435838876,98.18742159281146,6.47544875391759e-05,0.0884163826704025,0,0,0
9217,311470.8564085732,2010-09-25 06:19:16,3992.0308289777176,2,28,0.550297200679779,4.009437561035156,27.44100808400196,26.859720450987773,109.30307064109384,98.18742159281146,6.47544875391759e-05,0.0884163826704025,0,0,0
9218,311500.8718594162,2010-09-25 06:19:46,4022.0462798107583,2,28,0.5499359965324402,4.011541843414307,27.445595073844668,26.859720450987773,109.32146678867645,98.18742159281146,3.23295607813634e-05,0.0884163826704025,0,0,0
9219,311530.8870412177,2010-09-25 06:20:16,4052.0614616122552,2,28,0.5501165986061096,4.013970375061035,27.45018206838136,26.859720450987773,109.33987346346598,98.18742159281146,6.47544875391759e-05,0.0884163826704025,0,0,0
9220,311560.9025349478,2010-09-25 06:20:46,4082.076955342374,2,28,0.5501165986061096,4.0163984298706055,27.45476918539092,26.859720450987773,109.35829116564116,98.18742159281146,9.70840483205393e-05,0.0884163826704025,0,0,0
9221,311590.91780497954,2010-09-25 06:21:16,4112.092225374106,2,28,0.5501165986061096,4.018664836883545,27.45935618593915,26.859720450987773,109.37671902630072,98.18742159281146,6.47544875391759e-05,0.0884163826704025,0,0,0
9222,311620.933212304,2010-09-25 06:21:46,4142.107632703556,2,28,0.550297200679779,4.021093368530273,27.46394322481364,26.859720450987773,109.39515762610051,98.18742159281146,9.71794142969884e-05,0.0884163826704025,0,0,0
9223,311650.9487170867,2010-09-25 06:22:16,4172.123137481251,2,28,0.5501165986061096,4.023197650909424,27.46853021766709,26.859720450987773,109.41360691566996,98.18742159281146,6.47544875391759e-05,0.0884163826704025,0,0,0
9224,311680.9639882964,2010-09-25 06:22:46,4202.138408710975,2,28,0.5501165986061096,4.025464057922363,27.473117212846567,26.859720450987773,109.43206711918408,98.18742159281146,3.23295607813634e-05,0.0884163826704025,0,0,0
9225,311710.97935402696,2010-09-25 06:23:16,4232.1537744215375,2,28,0.550297200679779,4.028054237365723,27.47770420415005,26.859720450987773,109.45053830783588,98.18742159281146,3.23295607813634e-05,0.0884163826704025,0,0,0
9226,311740.9947517124,2010-09-25 06:23:46,4262.169172106914,2,28,0.5501165986061096,4.030320644378662,27.482291266659463,26.859720450987773,109.46902080492916,98.18742159281146,3.23295607813634e-05,0.0884163826704025,0,0,0
9227,311771.0101322299,2010-09-25 06:24:16,4292.184552624435,2,28,0.550297200679779,4.0329108238220215,27.486878256290304,26.859720450987773,109.48751411057091,98.18742159281146,9.70840483205393e-05,0.0884163826704025,0,0,0
9228,311801.02551159955,2010-09-25 06:24:46,4322.199931999105,2,28,0.5501165986061096,4.035338878631592,27.49146528965138,26.859720450987773,109.506018917768,98.18742159281146,9.70840483205393e-05,0.0884163826704025,0,0,0
9229,311831.04128846136,2010-09-25 06:25:16,4352.2157088559525,2,28,0.5501165986061096,4.03776741027832,27.49605238424725,26.859720450987773,109.52453536457338,98.18742159281146,0.0,0.0884163826704025,0,0,0
9230,311861.0563020079,2010-09-25 06:25:46,4382.230722407471,2,28,0.550297200679779,4.040519237518311,27.500639323973925,26.859720450987773,109.54306269172504,98.18742159281146,9.70840483205393e-05,0.0884163826704025,0,0,0
9231,311891.0716886507,2010-09-25 06:26:16,4412.246109070334,2,28,0.5501165986061096,4.042947769165039,27.50522635451583,26.859720450987773,109.56160201781894,98.18742159281146,6.47544875391759e-05,0.0884163826704025,0,0,0
9232,311921.0870597347,2010-09-25 06:26:46,4442.261480129246,2,28,0.5501165986061096,4.045537948608398,27.509813388232978,26.859720450987773,109.58015312342164,98.18742159281146,9.71794142969884e-05,0.0884163826704025,0,0,0
9233,311951.10245016194,2010-09-25 06:27:16,4472.276870561517,2,28,0.5501165986061096,4.048128128051758,27.51440031541351,26.859720450987773,109.59871560842775,98.18742159281146,9.71794142969884e-05,0.0884163826704025,0,0,0
9234,311981.11785296013,2010-09-25 06:27:46,4502.292273359655,2,28,0.550297200679779,4.050879955291748,27.5189872989279,26.859720450987773,109.61729025137748,98.18742159281146,0.0001295089750783,0.0884163826704025,0,0,0
9235,312011.13322531723,2010-09-25 06:28:16,4532.307645711797,2,28,0.550297200679779,4.053470134735107,27.523574248918692,26.859720450987773,109.63587678085636,98.18742159281146,9.70840483205393e-05,0.0884163826704025,0,0,0
9236,312041.1487346012,2010-09-25 06:28:46,4562.323154990727,2,28,0.550297200679779,4.056222438812256,27.528161342022223,26.859720450987773,109.65447612576556,98.18742159281146,9.71794142969884e-05,0.0884163826704025,0,0,0
9237,312071.16413171514,2010-09-25 06:29:16,4592.338552204927,2,28,0.5501165986061096,4.058812618255615,27.532748417003063,26.859720450987773,109.67308771504054,98.18742159281146,6.47544875391759e-05,0.0884163826704025,0,0,0
9238,312101.17954176135,2010-09-25 06:29:46,4622.353962155919,2,28,0.550297200679779,4.0615644454956055,27.53733550757559,26.859720450987773,109.69171163779492,98.18742159281146,0.0001295089750783,0.0884163826704025,0,0,0
9239,312131.19477258524,2010-09-25 06:30:16,4652.369192984797,2,28,0.5501165986061096,4.064154624938965,27.54192247832221,26.859720450987773,109.7103474580718,98.18742159281146,6.47544875391759e-05,0.0884163826704025,0,0,0
9240,312161.2101528972,2010-09-25 06:30:46,4682.3845732917935,2,28,0.5501165986061096,4.066906929016113,27.54650951016519,26.859720450987773,109.72899619539736,98.18742159281146,3.24249267578125e-05,0.0884163826704025,0,0,0
9241,312191.22553845734,2010-09-25 06:31:16,4712.399958851904,2,28,0.5501165986061096,4.069658756256104,27.55109651807613,26.859720450987773,109.74765760992712,98.18742159281146,6.47544875391759e-05,0.0884163826704025,0,0,0
9242,312221.2409439723,2010-09-25 06:31:46,4742.41536436181,2,28,0.5501165986061096,4.072411060333252,27.55568358172951,26.859720450987773,109.76633207914718,98.18742159281146,3.24249267578125e-05,0.0884163826704025,0,0,0
9243,312251.25633881555,2010-09-25 06:32:16,4772.430759295318,2,28,0.550297200679779,4.075325012207031,27.560270613302656,26.859720450987773,109.78501941677088,98.18742159281146,6.47544875391759e-05,0.0884163826704025,0,0,0
9244,312281.27184797416,2010-09-25 06:32:46,4802.446268479011,2,28,0.5501165986061096,4.0782389640808105,27.564857722068133,26.859720450987773,109.80372021036638,98.18742159281146,6.47544875391759e-05,0.0884163826704025,0,0,0
9245,312311.28710658744,2010-09-25 06:33:16,4832.461527012042,2,28,0.5501165986061096,4.08115291595459,27.569444731093224,26.859720450987773,109.82243390624998,98.18742159281146,6.47544875391759e-05,0.0884163826704025,0,0,0
9246,312341.30249035807,2010-09-25 06:33:46,4862.476910752609,2,28,0.5501165986061096,4.084066867828369,27.57403179519425,26.859720450987773,109.84116107651658,98.18742159281146,6.47544875391759e-05,0.0884163826704025,0,0,0
9247,312371.3178745949,2010-09-25 06:34:16,4892.492294989415,2,28,0.5501165986061096,4.086980819702148,27.578618931627457,26.859720450987773,109.85990212497818,98.18742159281146,9.71794142969884e-05,0.0884163826704025,0,0,0
9248,312401.33326856093,2010-09-25 06:34:46,4922.507688950496,2,28,0.5501165986061096,4.089894771575928,27.58320573453957,26.859720450987773,109.8786553565029,98.18742159281146,6.47544875391759e-05,0.0884163826704025,0,0,0
9249,312431.34878325334,2010-09-25 06:35:16,4952.523203678027,2,28,0.5499359965324402,4.092808723449707,27.587791923975388,26.859720450987773,109.89741959502868,98.18742159281146,3.24249267578125e-05,0.0884163826704025,0,0,0
9250,312461.36422694364,2010-09-25 06:35:46,4982.538647363226,2,28,0.5499359965324402,4.096046447753906,27.59237803982336,26.859720450987773,109.91619734752324,98.18742159281146,6.47544875391759e-05,0.0884163826704025,0,0,0
9251,312491.37941324135,2010-09-25 06:36:16,5012.553833660946,2,28,0.5499359965324402,4.099122047424316,27.596964209179145,26.859720450987773,109.93498928711055,98.18742159281146,9.70840483205393e-05,0.0884163826704025,0,0,0
9252,312521.3948196685,2010-09-25 06:36:46,5042.569240068093,2,28,0.5501165986061096,4.102035999298096,27.60155050907099,26.859720450987773,109.9537958389695,98.18742159281146,3.23295607813634e-05,0.0884163826704025,0,0,0
9253,312551.41017930896,2010-09-25 06:37:16,5072.584599698478,2,28,0.5501165986061096,4.105273723602295,27.60613755539631,26.859720450987773,109.972619743021,98.18742159281146,9.70840483205393e-05,0.0884163826704025,0,0,0
9254,312581.42557729007,2010-09-25 06:37:46,5102.599997679592,2,28,0.5501165986061096,4.108349800109863,27.610724568111458,26.859720450987773,109.99145790609168,98.18742159281146,9.71794142969884e-05,0.0884163826704025,0,0,0
9255,312611.4409661033,2010-09-25 06:38:16,5132.615386497835,2,28,0.5501165986061096,4.111587524414063,27.615311575873733,26.859720450987773,110.01031053419432,98.18742159281146,6.47544875391759e-05,0.0884163826704025,0,0,0
9256,312641.45633419475,2010-09-25 06:38:46,5162.630754584327,2,28,0.5499359965324402,4.114663124084473,27.61989854862108,26.859720450987773,110.02917751329926,98.18742159281146,6.47544875391759e-05,0.0884163826704025,0,0,0
9257,312671.4717260606,2010-09-25 06:39:17,5192.646146450178,2,28,0.5501165986061096,4.118062496185303,27.624485565751765,26.859720450987773,110.04805938134145,98.18742159281146,9.70840483205393e-05,0.0884163826704025,0,0,0
9258,312701.48735812603,2010-09-25 06:39:47,5222.661778540665,2,28,0.5501165986061096,4.121138572692871,27.62907257460971,26.859720450987773,110.06695598963375,98.18742159281146,6.47544875391759e-05,0.0884163826704025,0,0,0
9259,312731.50252426846,2010-09-25 06:40:17,5252.676944678062,2,28,0.5501165986061096,4.12437629699707,27.63365959144909,26.859720450987773,110.08586752261314,98.18742159281146,6.47544875391759e-05,0.0884163826704025,0,0,0
9260,312761.5178820743,2010-09-25 06:40:47,5282.692302463843,2,28,0.550297200679779,4.1279377937316895,27.63824660505795,26.859720450987773,110.10479412661684,98.18742159281146,0.0001295089750783,0.0884163826704025,0,0,0
9261,312791.53326482745,2010-09-25 06:41:17,5312.707685231982,2,28,0.5501165986061096,4.130851745605469,27.642833609939885,26.859720450987773,110.12373583390054,98.18742159281146,3.24249267578125e-05,0.0884163826704025,0,0,0
9262,312821.5488031388,2010-09-25 06:41:47,5342.723223538371,2,28,0.5501165986061096,4.134413242340088,27.647420538780786,26.859720450987773,110.14269246313437,98.18742159281146,9.71794142969884e-05,0.0884163826704025,0,0,0
9263,312851.5640456117,2010-09-25 06:42:17,5372.738466011313,2,28,0.5501165986061096,4.137650966644287,27.652007441850937,26.859720450987773,110.16166435907282,98.18742159281146,9.71794142969884e-05,0.0884163826704025,0,0,0
9264,312881.5794331217,2010-09-25 06:42:47,5402.753853511264,2,28,0.550297200679779,4.141212463378906,27.65659449092546,26.859720450987773,110.18065232770088,98.18742159281146,9.71794142969884e-05,0.0884163826704025,0,0,0
9265,312911.5948222708,2010-09-25 06:43:17,5432.769242660333,2,28,0.5501165986061096,4.144611835479736,27.661181571230596,26.859720450987773,110.1996560515176,98.18742159281146,0.0001618385285837,0.0884163826704025,0,0,0
9266,312941.6102313546,2010-09-25 06:43:47,5462.784651769223,2,28,0.550297200679779,4.148173332214356,27.66576854261071,26.859720450987773,110.21867541267596,98.18742159281146,0.0001295089750783,0.0884163826704025,0,0,0
9267,312971.6255987093,2010-09-25 06:44:17,5492.800019098828,2,28,0.550297200679779,4.151573181152344,27.670355498428936,26.859720450987773,110.23771057851845,98.18742159281146,9.71794142969884e-05,0.0884163826704025,0,0,0
9268,313001.640986515,2010-09-25 06:44:47,5522.815406904543,2,28,0.550297200679779,4.154972553253174,27.67494249895396,26.859720450987773,110.25676193346986,98.18742159281146,6.47544875391759e-05,0.0884163826704025,0,0,0
9269,313031.65650025505,2010-09-25 06:45:17,5552.830920644609,2,28,0.550297200679779,4.158534049987793,27.679529495996647,26.859720450987773,110.27582936118212,98.18742159281146,3.23295607813634e-05,0.0884163826704025,0,0,0
9270,313061.67177102366,2010-09-25 06:45:47,5582.846191423207,2,28,0.5501165986061096,4.162257671356201,27.68411643883228,26.859720450987773,110.294912775602,98.18742159281146,9.71794142969884e-05,0.0884163826704025,0,0,0
9271,313091.6871526138,2010-09-25 06:46:17,5612.861573003382,2,28,0.5501165986061096,4.16581916809082,27.68870348543552,26.859720450987773,110.31401292977534,98.18742159281146,9.71794142969884e-05,0.0884163826704025,0,0,0
9272,313121.7025282893,2010-09-25 06:46:47,5642.876948688842,2,28,0.5501165986061096,4.16938066482544,27.693290452419912,26.859720450987773,110.33312926184318,98.18742159281146,9.71794142969884e-05,0.0884163826704025,0,0,0
9273,313151.71808554296,2010-09-25 06:47:17,5672.892505947539,2,28,0.5501165986061096,4.172942161560059,27.697877504766083,26.859720450987773,110.35226248691912,98.18742159281146,9.71794142969884e-05,0.0884163826704025,0,0,0
9274,313181.7333285924,2010-09-25 06:47:47,5702.907748981882,2,28,0.5501165986061096,4.176503658294678,27.70246447770356,26.859720450987773,110.37141209996352,98.18742159281146,6.47544875391759e-05,0.0884163826704025,0,0,0
9275,313211.7488282873,2010-09-25 06:48:17,5732.923248681902,2,28,0.5501165986061096,4.180388927459717,27.707051525171,26.859720450987773,110.39057882900332,98.18742159281146,0.0001295089750783,0.0884163826704025,0,0,0
9276,313241.7640773016,2010-09-25 06:48:47,5762.93849769116,2,28,0.550297200679779,4.183950424194336,27.711638525524,26.859720450987773,110.40976236421332,98.18742159281146,6.47544875391759e-05,0.0884163826704025,0,0,0
9277,313271.77948714234,2010-09-25 06:49:17,5792.953907632128,2,28,0.5501165986061096,4.187835693359375,27.716225565047324,26.859720450987773,110.42896311991596,98.18742159281146,9.71794142969884e-05,0.0884163826704025,0,0,0
9278,313301.79486469744,2010-09-25 06:49:47,5822.969285087005,2,28,0.5501165986061096,4.191397190093994,27.72081260550239,26.859720450987773,110.44818119867904,98.18742159281146,9.71794142969884e-05,0.0884163826704025,0,0,0
9279,313331.8102337965,2010-09-25 06:50:17,5852.984654186026,2,28,0.5501165986061096,4.195281982421875,27.725399610214627,26.859720450987773,110.46741650022136,98.18742159281146,9.70840483205393e-05,0.0884163826704025,0,0,0
9280,313361.8256490407,2010-09-25 06:50:47,5883.000069430232,2,28,0.5501165986061096,4.199005603790283,27.729986626943585,26.859720450987773,110.48666930063293,98.18742159281146,9.71794142969884e-05,0.0884163826704025,0,0,0
9281,313367.653846819,2010-09-25 06:50:53,5888.828267208532,2,28,0.550297200679779,4.200138568878174,27.730877325326567,26.859720450987773,110.49040982414392,98.18742159281146,0.0001295089750783,0.0884163826704025,0,0,0
9282,313397.67351779895,2010-09-25 06:51:23,30.015384472394555,3,28,0.0,4.122433662414551,27.730877325326567,26.859720450987773,110.49040982414392,98.18742159281146,-0.0003561019839253,0.0884163826704025,0,0,0
9283,313427.688918532,2010-09-25 06:51:53,60.03078520537804,3,28,0.0,4.112720489501953,27.730877325326567,26.859720450987773,110.49040982414392,98.18742159281146,-0.0001942634553415,0.0884163826704025,0,0,0
9284,313457.7044118661,2010-09-25 06:52:23,90.04627853950824,3,28,0.0,4.107378482818604,27.730877325326567,26.859720450987773,110.49040982414392,98.18742159281146,-0.0001295089750783,0.0884163826704025,0,0,0
9285,313487.6727799935,2010-09-25 06:52:53,120.01464667188482,3,28,0.0,4.103816986083984,27.730877325326567,26.859720450987773,110.49040982414392,98.18742159281146,-6.47544875391759e-05,0.0884163826704025,0,0,0
9286,313487.6781928719,2010-09-25 06:52:53,2.616531265e-06,4,28,0.9962215423583984,4.199653148651123,27.730877326050635,26.859720450987773,110.49040982718476,98.18742159281146,0.0,0.0884163826704025,0,0,0
9287,313488.5219370322,2010-09-25 06:52:54,0.843746806837066,4,28,0.9451091289520264,4.199653148651123,27.73110328457935,26.859720450987773,110.49135875764446,98.18742159281146,0.0,0.0884163826704025,0,0,0
9288,313490.5375365186,2010-09-25 06:52:56,2.859346293247375,4,28,0.894719123840332,4.199653148651123,27.731617349982088,26.859720450987773,110.49351762479006,98.18742159281146,0.0,0.0884163826704025,0,0,0
9289,313493.5846188649,2010-09-25 06:52:59,5.906428734803413,4,28,0.8445097208023071,4.199653148651123,27.732352278960995,26.859720450987773,110.49660403187232,98.18742159281146,0.0,0.0884163826704025,0,0,0
9290,313497.7406045696,2010-09-25 06:53:03,10.062414339254524,4,28,0.7944809794425964,4.199653148651123,27.73329706066188,26.859720450987773,110.50057175943957,98.18742159281146,0.0,0.0884163826704025,0,0,0
9291,313503.08455964364,2010-09-25 06:53:08,15.40636950850392,4,28,0.744452178478241,4.199653148651123,27.73443785476589,26.859720450987773,110.50536266110508,98.18742159281146,3.24249267578125e-05,0.0884163826704025,0,0,0
9292,313510.0686340578,2010-09-25 06:53:15,22.39044383248956,4,28,0.6940622329711914,4.199653148651123,27.73583156317996,26.859720450987773,110.5112157063507,98.18742159281146,-3.23295607813634e-05,0.0884163826704025,0,0,0
9293,313519.28730760026,2010-09-25 06:53:25,31.609117374908905,4,28,0.6440334320068359,4.199653148651123,27.73754221451746,26.859720450987773,110.518399814012,98.18742159281146,0.0,0.0884163826704025,0,0,0
9294,313532.0215956724,2010-09-25 06:53:37,44.34340544705823,4,28,0.5940046906471252,4.199491024017334,27.739727068688488,26.859720450987773,110.52757538190882,98.18742159281146,-6.47544875391759e-05,0.0884163826704025,0,0,0
9295,313550.5214830274,2010-09-25 06:53:56,62.843292797020254,4,28,0.5439758896827698,4.199491024017334,27.742642574768187,26.859720450987773,110.5398194070963,98.18742159281146,-3.24249267578125e-05,0.0884163826704025,0,0,0
9296,313580.5993663315,2010-09-25 06:54:26,92.92117610111394,4,28,0.4939471185207367,4.199491024017334,27.74696266613696,26.859720450987773,110.55796215423976,98.18742159281146,-3.24249267578125e-05,0.0884163826704025,0,0,0
9297,313632.8177006074,2010-09-25 06:55:18,145.13951037705658,4,28,0.4439183473587036,4.199653148651123,27.753737015920745,26.859720450987773,110.58641191825976,98.18742159281146,0.0,0.0884163826704025,0,0,0
9298,313714.0670768103,2010-09-25 06:56:39,226.38888657996307,4,28,0.3938895761966705,4.199491024017334,27.76316479607378,26.859720450987773,110.62600512465816,98.18742159281146,-3.24249267578125e-05,0.0884163826704025,0,0,0
9299,313819.5037296819,2010-09-25 06:58:25,331.82553945656656,4,28,0.3438608348369598,4.199653148651123,27.77395214695211,26.859720450987773,110.67130808298724,98.18742159281146,0.0,0.0884163826704025,0,0,0
9300,313946.70585532207,2010-09-25 07:00:32,459.0276651017346,4,28,0.2938320636749267,4.199653148651123,27.7852046963303,26.859720450987773,110.71856466991925,98.18742159281146,0.0,0.0884163826704025,0,0,0
9301,314100.4702356113,2010-09-25 07:03:06,612.7920453809702,4,28,0.2438032776117324,4.199491024017334,27.79667250070592,26.859720450987773,110.76672529135097,98.18742159281146,-3.24249267578125e-05,0.0884163826704025,0,0,0
9302,314295.0625156696,2010-09-25 07:06:20,807.3843254442821,4,28,0.1937745064496994,4.199653148651123,27.808457350959788,26.859720450987773,110.81621733344436,98.18742159281146,0.0,0.0884163826704025,0,0,0
9303,314550.4510886032,2010-09-25 07:10:36,1062.772898397924,4,28,0.1437457352876663,4.199491024017334,27.820342430483404,26.859720450987773,110.86613039227616,98.18742159281146,-3.24249267578125e-05,0.0884163826704025,0,0,0
9304,314932.2918144897,2010-09-25 07:16:58,1444.613624284464,4,28,0.0937169715762138,4.199653148651123,27.832755098317687,26.859720450987773,110.91825888532904,98.18742159281146,0.0,0.0884163826704025,0,0,0
9305,315545.7869844729,2010-09-25 07:27:11,2058.108794247564,4,28,0.0498289167881011,4.199653148651123,27.844592103823203,26.859720450987773,110.96797008194774,98.18742159281146,-3.23295607813634e-05,0.0884163826704025,0,0,0
9306,315575.8082984412,2010-09-25 07:27:41,30.015331023979087,5,28,0.0,4.192368507385254,27.844592103823203,26.859720450987773,110.96797008194774,98.18742159281146,-6.47544875391759e-05,0.0884163826704025,0,0,0
9307,315605.80802805664,2010-09-25 07:28:11,60.01506062440477,5,28,0.0,4.191397190093994,27.844592103823203,26.859720450987773,110.96797008194774,98.18742159281146,0.0,0.0884163826704025,0,0,0
9308,315605.9862896169,2010-09-25 07:28:12,0.187431252241171,6,28,-0.0003804616571869,4.192044734954834,27.844592103823203,26.859720470796216,110.96797008194774,98.18742167584936,0.0,0.0899572893977165,0,0,0
9309,315610.814520098,2010-09-25 07:28:16,5.015661813526842,6,28,0.0001613661734154,4.191235065460205,27.844592912421128,26.859720470796216,110.96797347115864,98.18742167584936,-3.24249267578125e-05,0.0899572893977165,0,0,0
9310,315640.82060710434,2010-09-25 07:28:46,30.01537143986335,7,28,-1.099568486213684,4.030644416809082,27.844592912421128,26.86889009611106,110.96797347115864,98.22456297914644,-0.0008418083307333,0.0899572893977165,0,0,0
9311,315670.83611365146,2010-09-25 07:29:16,60.03087798697519,7,28,-1.0997490882873535,4.006199836730957,27.844592912421128,26.87805977972272,110.96797347115864,98.26140205615089,-0.0005503654247149,0.0899572893977165,0,0,0
9312,315700.85138991376,2010-09-25 07:29:47,90.04615436454843,7,28,-1.0997490882873535,3.989687442779541,27.844592912421128,26.88722938192036,110.96797347115864,98.29805743837794,-0.0003561496851034,0.0899572893977165,0,0,0
9313,315730.8668974583,2010-09-25 07:30:17,120.06166178884986,7,28,-1.099929690361023,3.976412773132324,27.844592912421128,26.896398979734823,110.96797347115864,98.33457794092595,-0.0002913951757363,0.0899572893977165,0,0,0
9314,315760.8821499814,2010-09-25 07:30:47,150.0769143118785,7,28,-1.0997490882873535,3.965242624282837,27.844592912421128,26.905568466485818,110.96797347115864,98.37098724478928,-0.0002590179501567,0.0899572893977165,0,0,0
9315,315790.8975347345,2010-09-25 07:31:17,180.09229906497373,7,28,-1.099929690361023,3.95504379272461,27.844592912421128,26.914738002696563,110.96797347115864,98.40729952271438,-0.0002590179501567,0.0899572893977165,0,0,0
9316,315820.91292484093,2010-09-25 07:31:47,210.1076891964943,7,28,-1.0997490882873535,3.9458162784576416,27.844592912421128,26.923907518949523,110.96797347115864,98.44352252435102,-0.0002266406954731,0.0899572893977165,0,0,0
9317,315850.9283253483,2010-09-25 07:32:17,240.1230896788522,7,28,-1.099568486213684,3.936750650405884,27.844592912421128,26.933077109195008,110.96797347115864,98.47966154995466,-0.0002266406954731,0.0899572893977165,0,0,0
9318,315880.94370244734,2010-09-25 07:32:47,270.13846677784164,7,28,-1.0997490882873535,3.928332567214966,27.844592912421128,26.94224668006389,110.96797347115864,98.5157197384312,-0.0001942634553415,0.0899572893977165,0,0,0
9319,315910.9592280921,2010-09-25 07:33:17,300.1539924326492,7,28,-1.0997490882873535,3.919752597808838,27.844592912421128,26.95141631684216,110.96797347115864,98.55170010766564,-0.0001942634553415,0.0899572893977165,0,0,0
9320,315940.9744711866,2010-09-25 07:33:47,330.1692355171177,7,28,-1.0997490882873535,3.911496639251709,27.844592912421128,26.96058584728743,110.96797347115864,98.58760380329934,-0.0001942634553415,0.0899572893977165,0,0,0
9321,315970.99000205944,2010-09-25 07:34:17,360.1847663899503,7,28,-1.0997490882873535,3.903402328491211,27.844592912421128,26.969755459175257,110.96797347115864,98.62343330817744,-0.0002266406954731,0.0899572893977165,0,0,0
9322,316001.0052288632,2010-09-25 07:34:47,390.1999932188425,7,28,-1.0997490882873535,3.895469903945923,27.844592912421128,26.97892499354072,110.96797347115864,98.65918945750587,-0.0001942634553415,0.0899572893977165,0,0,0
9323,316031.0206152855,2010-09-25 07:35:17,420.2153796160416,7,28,-1.099929690361023,3.8876993656158447,27.844592912421128,26.98809460165953,110.96797347115864,98.69487419405206,-0.0002266406954731,0.0899572893977165,0,0,0
9324,316061.03619763686,2010-09-25 07:35:47,450.23096199243497,7,28,-1.0997490882873535,3.880090713500977,27.844592912421128,26.997264224081142,110.96797347115864,98.73048758372502,-0.0001618862152099,0.0899572893977165,0,0,0
9325,316091.0514608065,2010-09-25 07:36:17,480.2462252322142,7,28,-1.099929690361023,3.872482061386109,27.844592912421128,27.00643378345688,110.96797347115864,98.76603048208248,-0.0001942634553415,0.0899572893977165,0,0,0
9326,316121.0668547525,2010-09-25 07:36:47,510.2616191030688,7,28,-1.0997490882873535,3.8647115230560303,27.844592912421128,27.0156034402215,110.96797347115864,98.80150413089784,-0.0002266406954731,0.0899572893977165,0,0,0
9327,316151.08221798186,2010-09-25 07:37:17,540.27698233745,7,28,-1.0997490882873535,3.857426643371582,27.844592912421128,27.024773053336418,110.96797347115864,98.83690906867854,-0.0001942634553415,0.0899572893977165,0,0,0
9328,316181.0975974217,2010-09-25 07:37:47,570.2923617772825,7,28,-1.0997490882873535,3.850141763687134,27.844592912421128,27.03394273340964,110.96797347115864,98.87224662565647,-0.0001942634553415,0.0899572893977165,0,0,0
9329,316211.11300427496,2010-09-25 07:38:17,600.3077686054805,7,28,-1.0997490882873535,3.8428568840026855,27.844592912421128,27.04311240141168,110.96797347115864,98.90751781082072,-0.0001618862152099,0.0899572893977165,0,0,0
9330,316241.1283732737,2010-09-25 07:38:47,630.3231376042505,7,28,-1.0997490882873535,3.835895776748657,27.844592912421128,27.05228206892963,110.96797347115864,98.9427237930806,-0.0001942634553415,0.0899572893977165,0,0,0
9331,316271.1437619215,2010-09-25 07:39:17,660.3385262821428,7,28,-1.0997490882873535,3.828934907913208,27.844592912421128,27.0614516890668,110.96797347115864,98.9778652639754,-0.0001942634553415,0.0899572893977165,0,0,0
9332,316301.1591514115,2010-09-25 07:39:47,690.3539157419867,7,28,-1.099929690361023,3.8221356868743896,27.844592912421128,27.07062131064254,110.96797347115864,99.012943508941,-0.0001618862152099,0.0899572893977165,0,0,0
9333,316331.1745734827,2010-09-25 07:40:17,720.3693378382964,7,28,-1.099929690361023,3.8153364658355713,27.844592912421128,27.07979096445852,110.96797347115864,99.04795965753468,-0.0001618862152099,0.0899572893977165,0,0,0
9334,316361.1899335041,2010-09-25 07:40:47,750.3846979298327,7,28,-1.0997490882873535,3.808537244796753,27.844592912421128,27.08896055823207,110.96797347115864,99.08291361956974,-0.0001942634553415,0.0899572893977165,0,0,0
9335,316391.2053226732,2010-09-25 07:41:17,780.4000870037131,7,28,-1.099568486213684,3.802223682403565,27.844592912421128,27.098130168700205,110.96797347115864,99.11780717019396,-0.0001295089750783,0.0899572893977165,0,0,0
9336,316421.22070768697,2010-09-25 07:41:47,810.4154720475341,7,28,-1.099929690361023,3.795748233795166,27.844592912421128,27.107299790021923,110.96797347115864,99.15264193984927,-0.0001618862152099,0.0899572893977165,0,0,0
9337,316451.23632288526,2010-09-25 07:42:17,840.431087215781,7,28,-1.099929690361023,3.7894346714019775,27.844592912421128,27.116469488047223,110.96797347115864,99.18741943056268,-0.0001942634553415,0.0899572893977165,0,0,0
9338,316481.2515014136,2010-09-25 07:42:47,870.4462657741825,7,28,-1.0997490882873535,3.783444881439209,27.844592912421128,27.125639133004302,110.96797347115864,99.22214026329296,-0.0001295089750783,0.0899572893977165,0,0,0
9339,316511.2669245024,2010-09-25 07:43:17,900.4616888379069,7,28,-1.099929690361023,3.77745509147644,27.844592912421128,27.134808819653465,110.96797347115864,99.25680579411016,-0.0001295089750783,0.0899572893977165,0,0,0
9340,316541.28229039843,2010-09-25 07:43:47,930.4770547289196,7,28,-1.0997490882873535,3.771789073944092,27.844592912421128,27.143978538945635,110.96797347115864,99.29141719829065,-9.713172767078504e-05,0.0899572893977165,0,0,0
9341,316571.2976742242,2010-09-25 07:44:17,960.4924385847752,7,28,-1.0997490882873535,3.7657992839813232,27.844592912421128,27.153148215503265,110.96797347115864,99.32597526324552,-0.0001618862152099,0.0899572893977165,0,0,0
9342,316601.3130440701,2010-09-25 07:44:47,990.5078084005844,7,28,-1.0997490882873535,3.760133266448975,27.844592912421128,27.162317873831213,110.96797347115864,99.3604807137596,-0.0001618862152099,0.0899572893977165,0,0,0
9343,316631.328449971,2010-09-25 07:45:17,1020.5232143064804,7,28,-1.0997490882873535,3.754629135131836,27.844592912421128,27.171487567556436,110.96797347115864,99.39493509242912,-0.0001295089750783,0.0899572893977165,0,0,0
9344,316661.3439407387,2010-09-25 07:45:47,1050.5387051894922,7,28,-1.099929690361023,3.749125242233277,27.844592912421128,27.180657319705084,110.96797347115864,99.42933934176716,-0.0001295089750783,0.0899572893977165,0,0,0
9345,316691.35921846464,2010-09-25 07:46:17,1080.5539828252058,7,28,-1.099929690361023,3.7439448833465576,27.844592912421128,27.189826970909863,110.96797347115864,99.46369357021904,-0.0001295089750783,0.0899572893977165,0,0,0
9346,316721.37459687184,2010-09-25 07:46:47,1110.5693612274486,7,28,-1.0997490882873535,3.738764524459839,27.844592912421128,27.19899669191092,110.96797347115864,99.49799957367792,-0.0001295089750783,0.0899572893977165,0,0,0
9347,316751.3900033592,2010-09-25 07:47:17,1140.5847677097834,7,28,-1.0997490882873535,3.73358416557312,27.844592912421128,27.20816634810538,110.96797347115864,99.53225775985902,-9.713172767078504e-05,0.0899572893977165,0,0,0
9348,316781.4057618953,2010-09-25 07:47:47,1170.6005262358733,7,28,-1.099929690361023,3.728403806686402,27.844592912421128,27.217336197207903,110.96797347115864,99.566469730696,-0.0001295089750783,0.0899572893977165,0,0,0
9349,316811.4207830308,2010-09-25 07:48:17,1200.615547361298,7,28,-1.099929690361023,3.7233853340148926,27.844592912421128,27.22650574975255,110.96797347115864,99.60063511226323,-0.0001295089750783,0.0899572893977165,0,0,0
9350,316841.4361448767,2010-09-25 07:48:47,1230.630909207213,7,28,-1.099568486213684,3.718690633773804,27.844592912421128,27.235675249499177,110.96797347115864,99.63475477198476,-9.713172767078504e-05,0.0899572893977165,0,0,0
9351,316871.4515327877,2010-09-25 07:49:17,1260.6462971232038,7,28,-1.0997490882873535,3.713672161102295,27.844592912421128,27.24484410147778,110.96797347115864,99.66882731582191,-0.0001295089750783,0.0899572893977165,0,0,0
9352,316901.466971726,2010-09-25 07:49:47,1290.661736056541,7,28,-1.099929690361023,3.708977460861206,27.844592912421128,27.254013319969143,110.96797347115864,99.7028571512208,-0.0001295089750783,0.0899572893977165,0,0,0
9353,316931.482299121,2010-09-25 07:50:17,1320.6770634514614,7,28,-1.0997490882873535,3.704282760620117,27.844592912421128,27.263183019674944,110.96797347115864,99.73684541895383,-0.0001295089750783,0.0899572893977165,0,0,0
9354,316961.4977277887,2010-09-25 07:50:47,1350.6924921392244,7,28,-1.0997490882873535,3.699588060379028,27.844592912421128,27.272352821477444,110.96797347115864,99.77079080907087,-0.0001295089750783,0.0899572893977165,0,0,0
9355,316991.5130905418,2010-09-25 07:51:17,1380.7078548924046,7,28,-1.099929690361023,3.69489336013794,27.844592912421128,27.28152258069598,110.96797347115864,99.80469361007027,-0.0001295089750783,0.0899572893977165,0,0,0
9356,317021.52860366536,2010-09-25 07:51:47,1410.7233680008949,7,28,-1.0997490882873535,3.6905224323272714,27.844592912421128,27.29069235618781,110.96797347115864,99.83855486286429,-9.713172767078504e-05,0.0899572893977165,0,0,0
9357,317051.54383659945,2010-09-25 07:52:17,1440.7386009300135,7,28,-1.0997490882873535,3.685989618301392,27.844592912421128,27.299862052913216,110.96797347115864,99.8723748054788,-9.713172767078504e-05,0.0899572893977165,0,0,0
9358,317081.55925277603,2010-09-25 07:52:47,1470.7540171065468,7,28,-1.0997490882873535,3.681942462921143,27.844592912421128,27.309031851534645,110.96797347115864,99.906155051636,-9.713172767078504e-05,0.0899572893977165,0,0,0
9359,317111.57465321827,2010-09-25 07:53:17,1500.7694175588294,7,28,-1.0997490882873535,3.677409648895264,27.844592912421128,27.318201588875315,110.96797347115864,99.93989545807874,-0.0001295089750783,0.0899572893977165,0,0,0
9360,317141.5900211444,2010-09-25 07:53:47,1530.7847854799095,7,28,-1.099929690361023,3.6730387210845943,27.844592912421128,27.327371389959588,110.96797347115864,99.973597041763,-9.713172767078504e-05,0.0899572893977165,0,0,0
9361,317171.6054468347,2010-09-25 07:54:17,1560.80021119024,7,28,-1.0997490882873535,3.669153690338135,27.844592912421128,27.336541164388308,110.96797347115864,100.00726010019535,-6.47544875391759e-05,0.0899572893977165,0,0,0
9362,317201.62083234463,2010-09-25 07:54:47,1590.8155967704,7,28,-1.099929690361023,3.664944648742676,27.844592912421128,27.34571087383589,110.96797347115864,100.04088532152814,-0.0001295089750783,0.0899572893977165,0,0,0
9363,317231.6362074587,2010-09-25 07:55:17,1620.8309717992215,7,28,-1.1001102924346924,3.6608974933624263,27.844592912421128,27.35488059292213,110.96797347115864,100.07447368221544,-9.713172767078504e-05,0.0899572893977165,0,0,0
9364,317261.65158268803,2010-09-25 07:55:47,1650.8463470185195,7,28,-1.0997490882873535,3.657012224197388,27.844592912421128,27.364050421414756,110.96797347115864,100.10802614666837,-0.0001295089750783,0.0899572893977165,0,0,0
9365,317291.6669879172,2010-09-25 07:56:17,1680.861752247726,7,28,-1.0997490882873535,3.6531269550323486,27.844592912421128,27.373220198279263,110.96797347115864,100.14154272540604,-0.0001295089750783,0.0899572893977165,0,0,0
9366,317321.68238223915,2010-09-25 07:56:47,1710.8771465847444,7,28,-1.099929690361023,3.6492416858673096,27.844592912421128,27.38238997760643,110.96797347115864,100.17502431703696,-0.0001295089750783,0.0899572893977165,0,0,0
9367,317351.6978811923,2010-09-25 07:57:17,1740.892645552938,7,28,-1.0997490882873535,3.6456801891326895,27.844592912421128,27.39155977766568,110.96797347115864,100.20847148302347,-9.713172767078504e-05,0.0899572893977165,0,0,0
9368,317381.7132884616,2010-09-25 07:57:47,1770.908052792162,7,28,-1.0997490882873535,3.641956806182861,27.844592912421128,27.400729463688556,110.96797347115864,100.24188480136732,-9.713172767078504e-05,0.0899572893977165,0,0,0
9369,317411.72854677413,2010-09-25 07:58:17,1800.9233111096544,7,28,-1.0997490882873535,3.638557195663452,27.844592912421128,27.40989908246782,110.96797347115864,100.27526522633232,-9.713172767078504e-05,0.0899572893977165,0,0,0
9370,317441.7439215774,2010-09-25 07:58:47,1830.938685907901,7,28,-1.099568486213684,3.635319471359253,27.844592912421128,27.41906881906901,110.96797347115864,100.30861399763214,-6.47544875391759e-05,0.0899572893977165,0,0,0
9371,317471.75933775894,2010-09-25 07:59:17,1860.9541020994711,7,28,-1.0997490882873535,3.631757974624634,27.844592912421128,27.42823854132188,110.96797347115864,100.34193180682992,-0.0001295089750783,0.0899572893977165,0,0,0
9372,317501.77485253656,2010-09-25 07:59:47,1890.969616967353,7,28,-1.0997490882873535,3.6285202503204346,27.844592912421128,27.437408331560807,110.96797347115864,100.37521940099056,-9.713172767078504e-05,0.0899572893977165,0,0,0
9373,317531.7900946236,2010-09-25 08:00:17,1920.9848589590945,7,28,-1.099929690361023,3.6252825260162354,27.844592912421128,27.44657808767785,110.96797347115864,100.40847678398528,-6.47544875391759e-05,0.0899572893977165,0,0,0
9374,317561.8054572063,2010-09-25 08:00:47,1951.000221536836,7,28,-1.099929690361023,3.622044801712036,27.844592912421128,27.455747843249423,110.96797347115864,100.441705249959,-6.47544875391759e-05,0.0899572893977165,0,0,0
9375,317591.8208583403,2010-09-25 08:01:17,1981.0156226958832,7,28,-1.0997490882873535,3.619130849838257,27.844592912421128,27.464917605598817,110.96797347115864,100.47490526100968,-6.47544875391759e-05,0.0899572893977165,0,0,0
9376,317621.83622843184,2010-09-25 08:01:48,2011.0309927673304,7,28,-1.1002910137176514,3.6158931255340576,27.844592912421128,27.47408735291762,110.96797347115864,100.50807733056394,-9.713172767078504e-05,0.0899572893977165,0,0,0
9377,317651.8519622412,2010-09-25 08:02:18,2041.0467265767245,7,28,-1.099929690361023,3.6129791736602783,27.844592912421128,27.483257183882287,110.96797347115864,100.5412225501926,-0.0001295089750783,0.0899572893977165,0,0,0
9378,317681.8670030207,2010-09-25 08:02:48,2071.061767351196,7,28,-1.0997490882873535,3.610065221786499,27.844592912421128,27.492426798000697,110.96797347115864,100.57434016225189,-9.713172767078504e-05,0.0899572893977165,0,0,0
9379,317711.8823987462,2010-09-25 08:03:18,2101.07716307668,7,28,-1.0997490882873535,3.6073131561279297,27.844592912421128,27.50159645399196,110.96797347115864,100.60743161057422,-6.47544875391759e-05,0.0899572893977165,0,0,0
9380,317741.8977810582,2010-09-25 08:03:48,2131.0925453886816,7,28,-1.099568486213684,3.60456109046936,27.844592912421128,27.5107661166373,110.96797347115864,100.64049657012012,-6.47544875391759e-05,0.0899572893977165,0,0,0
9381,317771.91316428746,2010-09-25 08:04:18,2161.1079286480485,7,28,-1.0997490882873535,3.601647138595581,27.844592912421128,27.519935720539955,110.96797347115864,100.67353539364444,-6.47544875391759e-05,0.0899572893977165,0,0,0
9382,317801.92856605805,2010-09-25 08:04:48,2191.1233304085968,7,28,-1.0997490882873535,3.5987331867218018,27.844592912421128,27.529105416449223,110.96797347115864,100.70654842900102,-6.47544875391759e-05,0.0899572893977165,0,0,0
9383,317831.94409758254,2010-09-25 08:05:18,2221.1388619130057,7,28,-1.0997490882873535,3.5959811210632324,27.844592912421128,27.53827518760405,110.96797347115864,100.73953602540747,-9.713172767078504e-05,0.0899572893977165,0,0,0
9384,317861.95935691247,2010-09-25 08:05:48,2251.154121253051,7,28,-1.099568486213684,3.593229055404663,27.844592912421128,27.547444761676022,110.96797347115864,100.77249731815428,-9.713172767078504e-05,0.0899572893977165,0,0,0
9385,317891.9747637307,2010-09-25 08:06:18,2281.169528061199,7,28,-1.099929690361023,3.590315341949463,27.844592912421128,27.556614446052546,110.96797347115864,100.80543316549212,-9.713172767078504e-05,0.0899572893977165,0,0,0
9386,317921.99013798253,2010-09-25 08:06:48,2311.1849023130817,7,28,-1.099929690361023,3.5875632762908936,27.844592912421128,27.565784108183784,110.96797347115864,100.83834303947138,-6.47544875391759e-05,0.0899572893977165,0,0,0
9387,317952.0055211016,2010-09-25 08:07:18,2341.2002854371103,7,28,-1.099929690361023,3.5846493244171143,27.844592912421128,27.57495375258014,110.96797347115864,100.87122668269244,-6.47544875391759e-05,0.0899572893977165,0,0,0
9388,317982.02105032024,2010-09-25 08:07:48,2371.215814675864,7,28,-1.099929690361023,3.581573486328125,27.844592912421128,27.584123459592576,110.96797347115864,100.90408415614924,-0.0001295089750783,0.0899572893977165,0,0,0
9389,318012.0363242969,2010-09-25 08:08:18,2401.2310886574564,7,28,-1.099929690361023,3.578821420669556,27.844592912421128,27.59329304158217,110.96797347115864,100.93691435842408,-6.47544875391759e-05,0.0899572893977165,0,0,0
9390,318042.051684203,2010-09-25 08:08:48,2431.2464485635296,7,28,-1.099929690361023,3.5759074687957764,27.844592912421128,27.6024626840139,110.96797347115864,100.96971749005752,-6.47544875391759e-05,0.0899572893977165,0,0,0
9391,318072.0672018728,2010-09-25 08:09:18,2461.261966213356,7,28,-1.099929690361023,3.572831630706787,27.844592912421128,27.61163231259641,110.96797347115864,101.00249273129816,-3.237724376958795e-05,0.0899572893977165,0,0,0
9392,318102.08247307746,2010-09-25 08:09:48,2491.277237407992,7,28,-1.099929690361023,3.569432020187378,27.844592912421128,27.620801956677408,110.96797347115864,101.03523977315588,-9.713172767078504e-05,0.0899572893977165,0,0,0
9393,318132.0978657303,2010-09-25 08:10:18,2521.292630060805,7,28,-1.0997490882873535,3.566518068313598,27.844592912421128,27.629971616115327,110.96797347115864,101.06795767808109,-6.47544875391759e-05,0.0899572893977165,0,0,0
9394,318162.1132452253,2010-09-25 08:10:48,2551.308009565801,7,28,-1.0997490882873535,3.563118457794189,27.844592912421128,27.63914125436017,110.96797347115864,101.10064517116936,-6.47544875391759e-05,0.0899572893977165,0,0,0
9395,318192.12862765254,2010-09-25 08:11:18,2581.323391983065,7,28,-1.0997490882873535,3.5597188472747803,27.844592912421128,27.648310901637675,110.96797347115864,101.1333022159277,-6.47544875391759e-05,0.0899572893977165,0,0,0
9396,318222.1440333479,2010-09-25 08:11:48,2611.338797708511,7,28,-1.099929690361023,3.555995464324951,27.844592912421128,27.65748054083858,110.96797347115864,101.16592665298536,-9.713172767078504e-05,0.0899572893977165,0,0,0
9397,318252.15941922885,2010-09-25 08:12:18,2641.354183589421,7,28,-1.099929690361023,3.552272081375122,27.844592912421128,27.66665023972041,110.96797347115864,101.19851749724064,-0.0001295089750783,0.0899572893977165,0,0,0
9398,318282.17479121004,2010-09-25 08:12:48,2671.3695555405607,7,28,-1.099929690361023,3.548386812210083,27.844592912421128,27.67581992994015,110.96797347115864,101.23107339916189,-0.0001295089750783,0.0899572893977165,0,0,0
9399,318312.19031393254,2010-09-25 08:13:18,2701.385078263049,7,28,-1.0997490882873535,3.544339656829834,27.844592912421128,27.684989708721265,110.96797347115864,101.26359299690644,-9.713172767078504e-05,0.0899572893977165,0,0,0
9400,318342.20569897135,2010-09-25 08:13:48,2731.400463311882,7,28,-1.0997490882873535,3.540130615234375,27.844592912421128,27.694159402177743,110.96797347115864,101.29607459100475,-0.0001295089750783,0.0899572893977165,0,0,0
9401,318372.2211781501,2010-09-25 08:14:18,2761.4159425007037,7,28,-1.0997490882873535,3.535921573638916,27.844592912421128,27.703329143219165,110.96797347115864,101.32851701833722,-9.713172767078504e-05,0.0899572893977165,0,0,0
9402,318402.2364848935,2010-09-25 08:14:48,2791.431249239062,7,28,-1.099929690361023,3.531388759613037,27.844592912421128,27.712498772518597,110.96797347115864,101.36091833539184,-9.713172767078504e-05,0.0899572893977165,0,0,0
9403,318432.2517602235,2010-09-25 08:15:18,2821.446524564008,7,28,-1.099929690361023,3.5262084007263184,27.844592912421128,27.72166846062352,110.96797347115864,101.39327693843578,-0.0001295089750783,0.0899572893977165,0,0,0
9404,318462.2671460893,2010-09-25 08:15:48,2851.461910429881,7,28,-1.099929690361023,3.5213518142700195,27.844592912421128,27.73083819177728,110.96797347115864,101.42559033934936,-9.713172767078504e-05,0.0899572893977165,0,0,0
9405,318492.2825628223,2010-09-25 08:16:18,2881.477327152777,7,28,-1.099568486213684,3.516009569168091,27.844592912421128,27.740007911545845,110.96797347115864,101.45785546202492,-0.0001295089750783,0.0899572893977165,0,0,0
9406,318522.29793847766,2010-09-25 08:16:48,2911.492702928464,7,28,-1.099929690361023,3.5098581314086914,27.844592912421128,27.7491775967699,110.96797347115864,101.4900681676842,-0.0001618862152099,0.0899572893977165,0,0,0
9407,318552.31330736616,2010-09-25 08:17:18,2941.5080717016704,7,28,-1.0997490882873535,3.503382682800293,27.844592912421128,27.75834732739422,110.96797347115864,101.52222371743484,-0.0001618862152099,0.0899572893977165,0,0,0
9408,318582.32869449514,2010-09-25 08:17:48,2971.5234588306967,7,28,-1.0997490882873535,3.4960978031158447,27.844592912421128,27.767517040420564,110.96797347115864,101.55431605229452,-0.0002266406954731,0.0899572893977165,0,0,0
9409,318612.3441031579,2010-09-25 08:18:18,3001.5388675937243,7,28,-1.0997490882873535,3.4878416061401367,27.844592912421128,27.77668680020169,110.96797347115864,101.58633768000703,-0.0002266406954731,0.0899572893977165,0,0,0
9410,318642.35952526925,2010-09-25 08:18:48,3031.5542896850216,7,28,-1.0997490882873535,3.478452205657959,27.844592912421128,27.785856483805656,110.96797347115864,101.61827851426251,-0.0002590179501567,0.0899572893977165,0,0,0
9411,318672.37485921057,2010-09-25 08:19:18,3061.5696235410696,7,28,-1.099929690361023,3.4674439430236816,27.844592912421128,27.79502611100267,110.96797347115864,101.6501257560316,-0.0002913951757363,0.0899572893977165,0,0,0
9412,318702.39066438307,2010-09-25 08:19:48,3091.58542871861,7,28,-1.099929690361023,3.454169273376465,27.844592912421128,27.80419593203212,110.96797347115864,101.68186307646526,-0.0003561496851034,0.0899572893977165,0,0,0
9413,318732.4057485208,2010-09-25 08:20:18,3121.6005129465475,7,28,-1.0997490882873535,3.437171220779419,27.844592912421128,27.813365521522837,110.96797347115864,101.71346211114168,-0.0005180359003134,0.0899572893977165,0,0,0
9414,318762.4210236052,2010-09-25 08:20:48,3151.61578794568,7,28,-1.099929690361023,3.4143455028533936,27.844592912421128,27.82253520548476,110.96797347115864,101.74488113991748,-0.0007446765666827,0.0899572893977165,0,0,0
9415,318792.4364162179,2010-09-25 08:21:18,3181.631180553381,7,28,-1.0997490882873535,3.3821301460266118,27.844592912421128,27.831704937168645,110.96797347115864,101.77605130382216,-0.0010036944877356,0.0899572893977165,0,0,0
9416,318822.4517970762,2010-09-25 08:21:48,3211.6465614067424,7,28,-1.0997490882873535,3.3355071544647217,27.844592912421128,27.840874615534197,110.96797347115864,101.8068640860571,-0.0014569759368896,0.0899572893977165,0,0,0
9417,318852.4672058994,2010-09-25 08:22:18,3241.661970345208,7,28,-1.099929690361023,3.268162727355957,27.844592912421128,27.850044177834747,110.96797347115864,101.83715951661009,-0.0021044730674475,0.0899572893977165,0,0,0
9418,318882.48268376495,2010-09-25 08:22:48,3271.677448100451,7,28,-1.099929690361023,3.16908860206604,27.844592912421128,27.85921377792309,110.96797347115864,101.86670488192924,-0.0031405924819409,0.0899572893977165,0,0,0
9419,318912.4979667239,2010-09-25 08:23:18,3301.692731084515,7,28,-1.0997490882873535,2.999917984008789,27.844592912421128,27.868383336447337,110.96797347115864,101.89507860433172,-0.0061840056441724,0.0899572893977165,0,0,0
9420,318928.02908014244,2010-09-25 08:23:34,3317.223844482959,7,28,-1.0997490882873535,2.7998270988464355,27.844592912421128,27.873128000512185,110.96797347115864,101.90889747841244,-0.0133070470765233,0.0899572893977165,0,0,0
9421,318933.52903468005,2010-09-25 08:23:39,3322.723799020632,7,28,-1.099929690361023,2.699943780899048,27.844592912421128,27.87480820940709,110.96797347115864,101.91351835402648,-0.0145697118714451,0.0899572893977165,0,0,0
9422,318993.5455746205,2010-09-25 08:24:39,60.01511170691457,8,28,0.0,3.326279640197754,27.844592912421128,27.87480820940709,110.96797347115864,101.91351835402648,0.0014893531333655,0.0899572893977165,0,0,0
9423,318993.7194862521,2010-09-25 08:24:40,0.187630960744319,9,28,-1.9243103452026844e-05,3.326279640197754,27.844592912421128,27.87480821041004,110.96797347115864,101.91351835736256,0.0,0.0874469503760337,0,0,0
9424,318998.54745445354,2010-09-25 08:24:44,5.015599152114316,9,28,0.0007031940040178,3.3351833820343018,27.844593676009048,27.87480821057924,110.96797601504244,101.9135183579256,0.0012627125252038,0.0874469503760337,0,0,0
