Data_Point,Test_Time(s),Date_Time,Step_Time(s),Step_Index,Cycle_Index,Current(A),Voltage(V),Charge_Capacity(Ah),Discharge_Capacity(Ah),Charge_Energy(Wh),Discharge_Energy(Wh),dV/dt(V/s),Internal_Resistance(Ohm),Is_FC_Data,AC_Impedance(Ohm),ACI_Phase_Angle(Deg)
13217,447074.50267369335,2010-09-26 19:59:33,30.015414186565696,1,40,0.0,3.354933261871338,39.01997493186496,39.06551601383241,155.42498086835388,143.01418351154365,0.0008741378551349,0.0867155864834785,0,0,0
13218,447104.51809054153,2010-09-26 20:00:03,60.03083103477526,1,40,0.0,3.381320714950561,39.01997493186496,39.06551601383241,155.42498086835388,143.01418351154365,0.0006151676061563,0.0867155864834785,0,0,0
13219,447134.5335142669,2010-09-26 20:00:33,90.04625476015131,1,40,0.0,3.401556491851806,39.01997493186496,39.06551601383241,155.42498086835388,143.01418351154365,0.0004856586456298,0.0867155864834785,0,0,0
13220,447164.5020614362,2010-09-26 20:01:03,120.01480193945656,1,40,0.0,3.417259454727173,39.01997493186496,39.06551601383241,155.42498086835388,143.01418351154365,0.0003885269106831,0.0867155864834785,0,0,0
13221,447194.515547736,2010-09-26 20:01:33,30.01541249233664,2,40,0.5499359965324402,3.564413547515869,39.02456086175509,39.06551601383241,155.44116188452938,143.01418351154365,0.0015864849556237,0.0867155864834785,0,0,0
13222,447224.530967286,2010-09-26 20:02:03,60.03083204229018,2,40,0.5501165986061096,3.614112377166748,39.029146814425246,39.06551601383241,155.45762863339428,143.01418351154365,0.0011655807029455,0.0867155864834785,0,0,0
13223,447254.54642116674,2010-09-26 20:02:33,90.04628593296344,2,40,0.5501165986061096,3.650536775588989,39.03373277592702,39.06551601383241,155.4742888313536,143.01418351154365,0.0009389400365762,0.0867155864834785,0,0,0
13224,447284.5619242903,2010-09-26 20:03:03,120.06178914174228,2,40,0.5501165986061096,3.6790285110473633,39.038318764058246,39.06551601383241,155.4910969979561,143.01418351154365,0.0007122993702068,0.0867155864834785,0,0,0
13225,447314.5772598405,2010-09-26 20:03:33,150.07712460179445,2,40,0.550297200679779,3.7026638984680176,39.04290471750217,39.06551601383241,155.50802420539657,143.01418351154365,0.0006151676061563,0.0867155864834785,0,0,0
13226,447344.5927842221,2010-09-26 20:04:03,180.09264898843654,2,40,0.5499359965324402,3.722090244293213,39.047490642275385,39.06551601383241,155.5250498683376,143.01418351154365,0.0004856586456298,0.0867155864834785,0,0,0
13227,447374.6080902087,2010-09-26 20:04:33,210.10795496990565,2,40,0.5501165986061096,3.738278865814209,39.05207658000624,39.06551601383241,155.5421573021442,143.01418351154365,0.0003885269106831,0.0867155864834785,0,0,0
13228,447404.62349570845,2010-09-26 20:05:03,240.12336046477552,2,40,0.5501165986061096,3.750258445739746,39.05666248900335,39.06551601383241,155.55932964857098,143.01418351154365,0.0002913951757363,0.0867155864834785,0,0,0
13229,447434.63891929353,2010-09-26 20:05:33,270.13878404980125,2,40,0.5499359965324402,3.757381200790405,39.06124832188545,39.06551601383241,155.57654566149068,143.01418351154365,0.0001618862152099,0.0867155864834785,0,0,0
13230,447464.65435816674,2010-09-26 20:06:03,300.15422292298854,2,40,0.5501165986061096,3.761590242385864,39.06583417786903,39.06551601383241,155.59378700193963,143.01418351154365,6.47544875391759e-05,0.0867155864834785,0,0,0
13231,447494.6702825569,2010-09-26 20:06:33,330.1701473131008,2,40,0.5499359965324402,3.7651517391204834,39.070420168749166,39.06551601383241,155.61104594407817,143.01418351154365,9.713172767078504e-05,0.0867155864834785,0,0,0
13232,447524.6853349052,2010-09-26 20:07:03,360.1851996664752,2,40,0.5501165986061096,3.7682275772094727,39.07500600810466,39.06551601383241,155.62831921873095,143.01418351154365,6.47544875391759e-05,0.0867155864834785,0,0,0
13233,447554.7006151174,2010-09-26 20:07:33,390.2004798736075,2,40,0.5499359965324402,3.771465301513672,39.0795919052981,39.06551601383241,155.6456070790818,143.01418351154365,9.713172767078504e-05,0.0867155864834785,0,0,0
13234,447584.7166057127,2010-09-26 20:08:03,420.21647058426606,2,40,0.5497553944587708,3.774217367172241,39.08417784987852,39.06551601383241,155.6629093385044,143.01418351154365,6.47544875391759e-05,0.0867155864834785,0,0,0
13235,447614.731465746,2010-09-26 20:08:33,450.23133050730473,2,40,0.5499359965324402,3.7772932052612314,39.08876367903532,39.06551601383241,155.68022512716348,143.01418351154365,6.47544875391759e-05,0.0867155864834785,0,0,0
13236,447644.746866474,2010-09-26 20:09:03,480.2467312402882,2,40,0.5499359965324402,3.78036904335022,39.09334954097439,39.06551601383241,155.6975547612206,143.01418351154365,9.713172767078504e-05,0.0867155864834785,0,0,0
13237,447674.7624554167,2010-09-26 20:09:33,510.26232018808486,2,40,0.5501165986061096,3.783282995223999,39.0979354658974,39.06551601383241,155.71489801606998,143.01418351154365,6.47544875391759e-05,0.0867155864834785,0,0,0
13238,447704.7777393581,2010-09-26 20:10:03,540.2776041195137,2,40,0.550297200679779,3.7861969470977774,39.10252143729188,39.06551601383241,155.73225473034023,143.01418351154365,6.47544875391759e-05,0.0867155864834785,0,0,0
13239,447734.7934818192,2010-09-26 20:10:33,570.2933465754903,2,40,0.5499359965324402,3.7887871265411377,39.10710742133535,39.06551601383241,155.74962455178186,143.01418351154365,3.237724376958795e-05,0.0867155864834785,0,0,0
13240,447764.8085536963,2010-09-26 20:11:03,600.3084184576114,2,40,0.5501165986061096,3.791701078414917,39.11169330394844,39.06551601383241,155.76700691137202,143.01418351154365,6.47544875391759e-05,0.0867155864834785,0,0,0
13241,447794.82410330087,2010-09-26 20:11:33,630.3239680722264,2,40,0.5499359965324402,3.794615030288696,39.116279237653714,39.06551601383241,155.78440232814987,143.01418351154365,6.47544875391759e-05,0.0867155864834785,0,0,0
13242,447824.83939028496,2010-09-26 20:12:03,660.3392550512625,2,40,0.5501165986061096,3.7973670959472656,39.120865060747136,39.06551601383241,155.80181014775957,143.01418351154365,9.713172767078504e-05,0.0867155864834785,0,0,0
13243,447854.8548237547,2010-09-26 20:12:33,690.3546885209619,2,40,0.5499359965324402,3.800281047821045,39.12545091082052,39.06551601383241,155.8192309896384,143.01418351154365,6.47544875391759e-05,0.0867155864834785,0,0,0
13244,447884.8703894895,2010-09-26 20:13:03,720.3702542758655,2,40,0.5499359965324402,3.803194999694824,39.13003682548536,39.06551601383241,155.83666520117305,143.01418351154365,9.713172767078504e-05,0.0867155864834785,0,0,0
13245,447914.88567784696,2010-09-26 20:13:33,750.3855426132925,2,40,0.5499359965324402,3.806108951568604,39.13462266008218,39.06551601383241,155.85411258370186,143.01418351154365,9.713172767078504e-05,0.0867155864834785,0,0,0
13246,447944.9010843193,2010-09-26 20:14:04,780.4009490755772,2,40,0.5499359965324402,3.8091847896575928,39.13920855977796,39.06551601383241,155.87157415850177,143.01418351154365,6.47544875391759e-05,0.0867155864834785,0,0,0
13247,447974.9165171324,2010-09-26 20:14:34,810.4163818886375,2,40,0.5499359965324402,3.812260627746582,39.1437945598268,39.06551601383241,155.8890505781192,143.01418351154365,6.47544875391759e-05,0.0867155864834785,0,0,0
13248,448004.9319252237,2010-09-26 20:15:04,840.4317899799885,2,40,0.5501165986061096,3.815822124481201,39.14838051501728,39.06551601383241,155.90654215398763,143.01418351154365,9.713172767078504e-05,0.0867155864834785,0,0,0
13249,448034.94746905385,2010-09-26 20:15:34,870.4473338302147,2,40,0.5501165986061096,3.8192217350006095,39.15296646352861,39.06551601383241,155.9240491279349,143.01418351154365,9.713172767078504e-05,0.0867155864834785,0,0,0
13250,448064.9627653612,2010-09-26 20:16:04,900.4626302127233,2,40,0.5499359965324402,3.82262134552002,39.15755231820289,39.06551601383241,155.94157137776693,143.01418351154365,9.713172767078504e-05,0.0867155864834785,0,0,0
13251,448094.9782179336,2010-09-26 20:16:34,930.4780826898682,2,40,0.5499359965324402,3.8260209560394287,39.16213813248216,39.06551601383241,155.95910912296637,143.01418351154365,6.47544875391759e-05,0.0867155864834785,0,0,0
13252,448124.9937502099,2010-09-26 20:17:04,960.4936150814918,2,40,0.5499359965324402,3.829582452774048,39.16672406997538,39.06551601383241,155.97666295193443,143.01418351154365,0.0001295089750783,0.0867155864834785,0,0,0
13253,448155.0090288732,2010-09-26 20:17:34,990.5088936294828,2,40,0.5501165986061096,3.832658290863037,39.171309937125486,39.06551601383241,155.99423188267178,143.01418351154365,6.47544875391759e-05,0.0867155864834785,0,0,0
13254,448185.02457153046,2010-09-26 20:18:04,1020.5244363067812,2,40,0.5499359965324402,3.835895776748657,39.17589562046673,39.06551601383241,156.01181515239497,143.01418351154365,6.47544875391759e-05,0.0867155864834785,0,0,0
13255,448215.040002519,2010-09-26 20:18:34,1050.539867305312,2,40,0.5497553944587708,3.839133501052856,39.18048126939663,39.06551601383241,156.0294130502116,143.01418351154365,6.47544875391759e-05,0.0867155864834785,0,0,0
13256,448245.0552885456,2010-09-26 20:19:04,1080.555153301896,2,40,0.5499359965324402,3.8422093391418457,39.185066927234494,39.06551601383241,156.04702546387563,143.01418351154365,3.237724376958795e-05,0.0867155864834785,0,0,0
13257,448275.070709469,2010-09-26 20:19:34,1110.5705742252776,2,40,0.5499359965324402,3.845447063446045,39.18965261578441,39.06551601383241,156.06465207779075,143.01418351154365,0.0001295089750783,0.0867155864834785,0,0,0
13258,448305.0862862965,2010-09-26 20:20:04,1140.5861510528202,2,40,0.5501165986061096,3.8481991291046143,39.19423846977201,39.06551601383241,156.08229297664886,143.01418351154365,3.237724376958795e-05,0.0867155864834785,0,0,0
13259,448335.10156194726,2010-09-26 20:20:34,1170.6014267035794,2,40,0.5499359965324402,3.8511130809783936,39.198824387231866,39.06551601383241,156.09994748836297,143.01418351154365,6.47544875391759e-05,0.0867155864834785,0,0,0
13260,448365.11697028927,2010-09-26 20:21:04,1200.6168350455562,2,40,0.5501165986061096,3.853865146636963,39.203410295383016,39.06551601383241,156.11761481330495,143.01418351154365,6.47544875391759e-05,0.0867155864834785,0,0,0
13261,448395.1324035284,2010-09-26 20:21:34,1230.6322683147548,2,40,0.5499359965324402,3.856455326080322,39.20799614215077,39.06551601383241,156.13529416558964,143.01418351154365,6.47544875391759e-05,0.0867155864834785,0,0,0
13262,448425.1479416643,2010-09-26 20:22:04,1260.64780645573,2,40,0.5501165986061096,3.8590455055236816,39.21258206744445,39.06551601383241,156.15298556508174,143.01418351154365,9.713172767078504e-05,0.0867155864834785,0,0,0
13263,448455.1632652397,2010-09-26 20:22:34,1290.6631299960286,2,40,0.5499359965324402,3.861311912536621,39.21716794157485,39.06551601383241,156.17068782283175,143.01418351154365,3.237724376958795e-05,0.0867155864834785,0,0,0
13264,448485.1786592911,2010-09-26 20:23:04,1320.6785240473334,2,40,0.5497553944587708,3.863416433334351,39.221753864011085,39.06551601383241,156.188400678776,143.01418351154365,3.237724376958795e-05,0.0867155864834785,0,0,0
13265,448515.1941859382,2010-09-26 20:23:34,1350.6940507146685,2,40,0.5499359965324402,3.86568284034729,39.22633975430436,39.06551601383241,156.20612313164847,143.01418351154365,6.47544875391759e-05,0.0867155864834785,0,0,0
13266,448545.2094973834,2010-09-26 20:24:04,1380.7093621397255,2,40,0.5501165986061096,3.8676254749298096,39.23092558544894,39.06551601383241,156.22385464535753,143.01418351154365,6.47544875391759e-05,0.0867155864834785,0,0,0
13267,448575.2249288381,2010-09-26 20:24:34,1410.7247935943954,2,40,0.5499359965324402,3.869406223297119,39.23551149088454,39.06551601383241,156.24159504400606,143.01418351154365,6.47544875391759e-05,0.0867155864834785,0,0,0
13268,448605.24032982165,2010-09-26 20:25:04,1440.740194593042,2,40,0.5499359965324402,3.8710250854492183,39.24009732896435,39.06551601383241,156.25934319267907,143.01418351154365,3.237724376958795e-05,0.0867155864834785,0,0,0
13269,448635.2557125999,2010-09-26 20:25:34,1470.7555773511574,2,40,0.5501165986061096,3.8726439476013184,39.24468316116028,39.06551601383241,156.2770987660771,143.01418351154365,3.237724376958795e-05,0.0867155864834785,0,0,0
13270,448665.27118558326,2010-09-26 20:26:04,1500.7710503395012,2,40,0.5501165986061096,3.874100923538208,39.249268999738746,39.06551601383241,156.29486130631233,143.01418351154365,3.237724376958795e-05,0.0867155864834785,0,0,0
13271,448695.2868216135,2010-09-26 20:26:34,1530.786686485111,2,40,0.5501165986061096,3.875396013259888,39.2538549729849,39.06551601383241,156.3126307516974,143.01418351154365,6.47544875391759e-05,0.0867155864834785,0,0,0
13272,448725.3020534749,2010-09-26 20:27:04,1560.801918226265,2,40,0.5497553944587708,3.876691102981568,39.25844083317752,39.06551601383241,156.33040603240426,143.01418351154365,3.237724376958795e-05,0.0867155864834785,0,0,0
13273,448755.317447386,2010-09-26 20:27:34,1590.8173121472446,2,40,0.5499359965324402,3.877986192703247,39.26302672823365,39.06551601383241,156.3481873409391,143.01418351154365,6.47544875391759e-05,0.0867155864834785,0,0,0
13274,448785.3328731063,2010-09-26 20:28:04,1620.8327378575752,2,40,0.5499359965324402,3.879119396209717,39.2676126037616,39.06551601383241,156.3659743621585,143.01418351154365,0.0,0.0867155864834785,0,0,0
13275,448815.3483080848,2010-09-26 20:28:34,1650.8481728360407,2,40,0.5499359965324402,3.8802525997161865,39.27219851754442,39.06551601383241,156.38376702370314,143.01418351154365,0.0,0.0867155864834785,0,0,0
13276,448845.3637213841,2010-09-26 20:29:04,1680.8635862306296,2,40,0.550297200679779,3.881709575653076,39.27678438416815,39.06551601383241,156.40156504277405,143.01418351154365,3.237724376958795e-05,0.0867155864834785,0,0,0
13277,448875.37913803686,2010-09-26 20:29:34,1710.8790028783385,2,40,0.5501165986061096,3.882842779159546,39.28137028510389,39.06551601383241,156.4193685448928,143.01418351154365,0.0,0.0867155864834785,0,0,0
13278,448905.394549266,2010-09-26 20:30:04,1740.894414027322,2,40,0.550297200679779,3.8841378688812256,39.28595615850163,39.06551601383241,156.43717737164826,143.01418351154365,6.47544875391759e-05,0.0867155864834785,0,0,0
13279,448935.4101143542,2010-09-26 20:30:34,1770.9099791155616,2,40,0.5501165986061096,3.885109186172485,39.29054216321342,39.06551601383241,156.4549919800613,143.01418351154365,3.237724376958795e-05,0.0867155864834785,0,0,0
13280,448965.4255127614,2010-09-26 20:31:04,1800.9253775327643,2,40,0.5501165986061096,3.886404275894165,39.2951280690118,39.06551601383241,156.47281150506794,143.01418351154365,3.237724376958795e-05,0.0867155864834785,0,0,0
13281,448995.4408057304,2010-09-26 20:31:34,1830.9406704817025,2,40,0.5501165986061096,3.887375593185425,39.29971402193734,39.06551601383241,156.49063656924034,143.01418351154365,0.0,0.0867155864834785,0,0,0
13282,449025.45664392033,2010-09-26 20:32:04,1860.9565086967084,2,40,0.5499359965324402,3.8885087966918954,39.304300029395904,39.06551601383241,156.50846724302008,143.01418351154365,0.0,0.0867155864834785,0,0,0
13283,449055.4716685144,2010-09-26 20:32:34,1890.971533270741,2,40,0.5501165986061096,3.889803886413574,39.30888588445205,39.06551601383241,156.5263027105011,143.01418351154365,0.0,0.0867155864834785,0,0,0
13284,449085.48707560834,2010-09-26 20:33:04,1920.9869403646023,2,40,0.5501165986061096,3.891098976135254,39.31347183756311,39.06551601383241,156.5441438763091,143.01418351154365,6.47544875391759e-05,0.0867155864834785,0,0,0
13285,449115.502493444,2010-09-26 20:33:34,1951.0023582203269,2,40,0.5499359965324402,3.8920702934265137,39.31805778180447,39.06551601383241,156.56199045132772,143.01418351154365,3.237724376958795e-05,0.0867155864834785,0,0,0
13286,449145.5179340415,2010-09-26 20:34:04,1981.017798792756,2,40,0.5499359965324402,3.893365383148194,39.32264374412373,39.06551601383241,156.57984252615014,143.01418351154365,3.237724376958795e-05,0.0867155864834785,0,0,0
13287,449175.53342661366,2010-09-26 20:34:34,2011.0332913699967,2,40,0.5499359965324402,3.894498586654663,39.327229748461214,39.06551601383241,156.5977003359906,143.01418351154365,3.237724376958795e-05,0.0867155864834785,0,0,0
13288,449205.5487551465,2010-09-26 20:35:04,2041.0486198977449,2,40,0.5501165986061096,3.895793676376343,39.33181567115761,39.06551601383241,156.61556285774458,143.01418351154365,3.237724376958795e-05,0.0867155864834785,0,0,0
13289,449235.56417595455,2010-09-26 20:35:34,2071.0640407058386,2,40,0.5501165986061096,3.896926879882813,39.33640163815431,39.06551601383241,156.6334313431154,143.01418351154365,0.0,0.0867155864834785,0,0,0
13290,449265.5797323511,2010-09-26 20:36:04,2101.079597127445,2,40,0.5499359965324402,3.898060083389282,39.340987629231485,39.06551601383241,156.6513054917183,143.01418351154365,0.0,0.0867155864834785,0,0,0
13291,449295.59503678366,2010-09-26 20:36:34,2131.0949015450105,2,40,0.5499359965324402,3.899355173110962,39.34557355021196,39.06551601383241,156.66918506608673,143.01418351154365,3.237724376958795e-05,0.0867155864834785,0,0,0
13292,449325.61060024286,2010-09-26 20:37:04,2161.1104649941585,2,40,0.5499359965324402,3.9006502628326416,39.35015958082367,39.06551601383241,156.68707079310485,143.01418351154365,6.47544875391759e-05,0.0867155864834785,0,0,0
13293,449355.6258754426,2010-09-26 20:37:34,2191.125740193791,2,40,0.5499359965324402,3.901945352554321,39.35474551369311,39.06551601383241,156.70496194578416,143.01418351154365,6.47544875391759e-05,0.0867155864834785,0,0,0
13294,449385.6412892331,2010-09-26 20:38:04,2221.141153984369,2,40,0.5499359965324402,3.903240442276001,39.359331452481726,39.06551601383241,156.72285897324684,143.01418351154365,3.237724376958795e-05,0.0867155864834785,0,0,0
13295,449415.657544038,2010-09-26 20:38:34,2251.157408884485,2,40,0.5501165986061096,3.9045355319976807,39.36391752585539,39.06551601383241,156.74076248658875,143.01418351154365,6.47544875391759e-05,0.0867155864834785,0,0,0
13296,449445.6721481876,2010-09-26 20:39:04,2281.1720130340736,2,40,0.5501165986061096,3.90583062171936,39.36850333519769,39.06551601383241,156.75867085122837,143.01418351154365,3.237724376958795e-05,0.0867155864834785,0,0,0
13297,449475.6875753966,2010-09-26 20:39:34,2311.187440147908,2,40,0.5499359965324402,3.90712571144104,39.37308925636058,39.06551601383241,156.7765857193591,143.01418351154365,6.47544875391759e-05,0.0867155864834785,0,0,0
13298,449505.6880046535,2010-09-26 20:40:04,2341.1878694298457,2,40,0.5499359965324402,3.9085826873779297,39.377672844932576,39.06551601383241,156.79449752744475,143.01418351154365,6.47544875391759e-05,0.0867155864834785,0,0,0
13299,449535.7029024611,2010-09-26 20:40:34,2371.202767222413,2,40,0.5499359965324402,3.90987777709961,39.38225870797934,39.06551601383241,156.81242441417302,143.01418351154365,6.47544875391759e-05,0.0867155864834785,0,0,0
13300,449565.7183336149,2010-09-26 20:41:04,2401.218198376332,2,40,0.5501165986061096,3.911172866821289,39.38684472077826,39.06551601383241,156.83035806341823,143.01418351154365,3.237724376958795e-05,0.0867155864834785,0,0,0
13301,449595.73360713554,2010-09-26 20:41:34,2431.233471886748,2,40,0.5499359965324402,3.9124679565429688,39.39143060613786,39.06551601383241,156.84829749861737,143.01418351154365,0.0,0.0867155864834785,0,0,0
13302,449625.7491601636,2010-09-26 20:42:04,2461.2490249198963,2,40,0.5499359965324402,3.9139246940612793,39.39601657374808,39.06551601383241,156.8662435745962,143.01418351154365,3.237724376958795e-05,0.0867155864834785,0,0,0
13303,449655.764470872,2010-09-26 20:42:34,2491.264335718389,2,40,0.5501165986061096,3.915381669998169,39.40060246564585,39.06551601383241,156.88419578844733,143.01418351154365,3.237724376958795e-05,0.0867155864834785,0,0,0
13304,449685.7802420044,2010-09-26 20:43:04,2521.2801068810227,2,40,0.5501165986061096,3.9168386459350586,39.4051884038614,39.06551601383241,156.90215445616977,143.01418351154365,3.237724376958795e-05,0.0867155864834785,0,0,0
13305,449715.7953184379,2010-09-26 20:43:34,2551.295183189191,2,40,0.5499359965324402,3.9181337356567374,39.40977418484654,39.06551601383241,156.9201190889989,143.01418351154365,0.0,0.0867155864834785,0,0,0
13306,449745.8108480978,2010-09-26 20:44:04,2581.310712879071,2,40,0.5499359965324402,3.919752597808838,39.41436006180238,39.06551601383241,156.93809065568644,143.01418351154365,6.47544875391759e-05,0.0867155864834785,0,0,0
13307,449775.82627209375,2010-09-26 20:44:34,2611.326136855073,2,40,0.5499359965324402,3.920885801315308,39.41894599354888,39.06551601383241,156.95606906879215,143.01418351154365,0.0,0.0867155864834785,0,0,0
13308,449805.8415728472,2010-09-26 20:45:04,2641.3414375984667,2,40,0.5499359965324402,3.9225046634674072,39.4235318246741,39.06551601383241,156.97405371805402,143.01418351154365,3.237724376958795e-05,0.0867155864834785,0,0,0
13309,449835.8569962517,2010-09-26 20:45:34,2671.356861003042,2,40,0.5501165986061096,3.924123525619507,39.42811769451944,39.06551601383241,156.99204526853345,143.01418351154365,3.237724376958795e-05,0.0867155864834785,0,0,0
13310,449865.87238170666,2010-09-26 20:46:04,2701.372246467914,2,40,0.5499359965324402,3.9254186153411865,39.43270380227029,39.06551601383241,157.01004460515992,143.01418351154365,3.237724376958795e-05,0.0867155864834785,0,0,0
13311,449895.8724028297,2010-09-26 20:46:34,2731.3722675860126,2,40,0.5501165986061096,3.927037477493286,39.43728822682843,39.06551601383241,157.02804402089458,143.01418351154365,6.47544875391759e-05,0.0867155864834785,0,0,0
13312,449925.8876887511,2010-09-26 20:47:05,2761.387553522446,2,40,0.550297200679779,3.928494453430176,39.441874784989125,39.06551601383241,157.04605872043865,143.01418351154365,6.47544875391759e-05,0.0867155864834785,0,0,0
13313,449955.9030900405,2010-09-26 20:47:35,2791.402954796781,2,40,0.550297200679779,3.9301133155822754,39.44646154203791,39.06551601383241,157.06408116303456,143.01418351154365,6.47544875391759e-05,0.0867155864834785,0,0,0
13314,449985.9185839561,2010-09-26 20:48:05,2821.418448717375,2,40,0.5501165986061096,3.931570291519165,39.45104831393552,39.06551601383241,157.08211081519073,143.01418351154365,6.47544875391759e-05,0.0867155864834785,0,0,0
13315,450015.93388722575,2010-09-26 20:48:35,2851.4337520773006,2,40,0.550297200679779,3.9331891536712646,39.45563517796631,39.06551601383241,157.10014793196348,143.01418351154365,6.47544875391759e-05,0.0867155864834785,0,0,0
13316,450045.9493116479,2010-09-26 20:49:05,2881.4491764342533,2,40,0.5501165986061096,3.9346461296081534,39.46022195182842,39.06551601383241,157.11819190069647,143.01418351154365,6.47544875391759e-05,0.0867155864834785,0,0,0
13317,450075.9647680549,2010-09-26 20:49:35,2911.46463282617,2,40,0.5499359965324402,3.936103105545044,39.46480810413818,39.06551601383241,157.1362407159293,143.01418351154365,3.237724376958795e-05,0.0867155864834785,0,0,0
13318,450105.9801504471,2010-09-26 20:50:05,2941.4800151983222,2,40,0.5501165986061096,3.9378838539123535,39.46939420660285,39.06551601383241,157.15429651429943,143.01418351154365,6.47544875391759e-05,0.0867155864834785,0,0,0
13319,450135.9955730446,2010-09-26 20:50:35,2971.4954377958825,2,40,0.5501165986061096,3.939502716064453,39.473980320824445,39.06551601383241,157.17235984060582,143.01418351154365,6.47544875391759e-05,0.0867155864834785,0,0,0
13320,450166.0109893114,2010-09-26 20:51:05,3001.510854062641,2,40,0.5499359965324402,3.9411215782165527,39.47856641556664,39.06551601383241,157.19043061975876,143.01418351154365,6.47544875391759e-05,0.0867155864834785,0,0,0
13321,450196.0264249816,2010-09-26 20:51:35,3031.526289732833,2,40,0.5499359965324402,3.942740440368652,39.4831525673277,39.06551601383241,157.2085090995156,143.01418351154365,0.0,0.0867155864834785,0,0,0
13322,450226.04183160426,2010-09-26 20:52:05,3061.5416963555185,2,40,0.5501165986061096,3.944521188735962,39.487738702676495,39.06551601383241,157.2265951822524,143.01418351154365,6.47544875391759e-05,0.0867155864834785,0,0,0
13323,450256.05725028703,2010-09-26 20:52:35,3091.5571150383075,2,40,0.5501165986061096,3.9461400508880615,39.49232480531111,39.06551601383241,157.24468887935737,143.01418351154365,0.0,0.0867155864834785,0,0,0
13324,450286.0728170244,2010-09-26 20:53:05,3121.572681775663,2,40,0.5499359965324402,3.947920799255371,39.49691098268661,39.06551601383241,157.26279050373358,143.01418351154365,6.47544875391759e-05,0.0867155864834785,0,0,0
13325,450316.0881067854,2010-09-26 20:53:35,3151.587971536643,2,40,0.5501165986061096,3.949539661407471,39.50149702173299,39.06551601383241,157.2808994493755,143.01418351154365,3.237724376958795e-05,0.0867155864834785,0,0,0
13326,450346.1036369415,2010-09-26 20:54:05,3181.603501702712,2,40,0.5501165986061096,3.9514822959899902,39.506083120799225,39.06551601383241,157.29901658853646,143.01418351154365,9.713172767078504e-05,0.0867155864834785,0,0,0
13327,450376.11893731385,2010-09-26 20:54:35,3211.618802065155,2,40,0.5499359965324402,3.95310115814209,39.51066923108423,39.06551601383241,157.3171417478677,143.01418351154365,3.237724376958795e-05,0.0867155864834785,0,0,0
13328,450406.13435270346,2010-09-26 20:55:05,3241.6342174547235,2,40,0.5501165986061096,3.9547200202941895,39.51525528505593,39.06551601383241,157.33527476506754,143.01418351154365,3.237724376958795e-05,0.0867155864834785,0,0,0
13329,450436.14991831296,2010-09-26 20:55:35,3271.649783074289,2,40,0.5497553944587708,3.956500768661499,39.51984142553199,39.06551601383241,157.35341632745033,143.01418351154365,0.0,0.0867155864834785,0,0,0
13330,450466.16519393865,2010-09-26 20:56:05,3301.665058699986,2,40,0.5499359965324402,3.9582815170288086,39.52442750077167,39.06551601383241,157.3715657771242,143.01418351154365,6.47544875391759e-05,0.0867155864834785,0,0,0
13331,450496.1806322956,2010-09-26 20:56:35,3331.680497051872,2,40,0.550297200679779,3.960386037826538,39.52901359395937,39.06551601383241,157.3897236581387,143.01418351154365,6.47544875391759e-05,0.0867155864834785,0,0,0
13332,450526.1960381714,2010-09-26 20:57:05,3361.695902932705,2,40,0.5501165986061096,3.962166786193848,39.53359972361529,39.06551601383241,157.40789016178883,143.01418351154365,6.47544875391759e-05,0.0867155864834785,0,0,0
13333,450556.211599776,2010-09-26 20:57:35,3391.711464537249,2,40,0.5501165986061096,3.9637856483459473,39.53818592773124,39.06551601383241,157.42606539256244,143.01418351154365,3.237724376958795e-05,0.0867155864834785,0,0,0
13334,450586.2268782488,2010-09-26 20:58:05,3421.726743100277,2,40,0.5501165986061096,3.9658901691436768,39.54277206057505,39.06551601383241,157.44424896596436,143.01418351154365,6.47544875391759e-05,0.0867155864834785,0,0,0
13335,450616.24242783326,2010-09-26 20:58:35,3451.7422925895794,2,40,0.5499359965324402,3.9676709175109854,39.54735819412155,39.06551601383241,157.4624411906817,143.01418351154365,3.237724376958795e-05,0.0867155864834785,0,0,0
13336,450646.25772866193,2010-09-26 20:59:05,3481.757593423199,2,40,0.5499359965324402,3.969613552093506,39.55194434578099,39.06551601383241,157.48064225625484,143.01418351154365,0.0,0.0867155864834785,0,0,0
13337,450676.2734848221,2010-09-26 20:59:35,3511.773349578371,2,40,0.5499359965324402,3.9715561866760254,39.55653058491985,39.06551601383241,157.49885250205264,143.01418351154365,3.237724376958795e-05,0.0867155864834785,0,0,0
13338,450706.2885885888,2010-09-26 21:00:05,3541.788453340068,2,40,0.5499359965324402,3.973660707473755,39.56111671904057,39.06551601383241,157.517071271144,143.01418351154365,6.47544875391759e-05,0.0867155864834785,0,0,0
13339,450736.3039897679,2010-09-26 21:00:35,3571.803854524177,2,40,0.5501165986061096,3.9756033420562735,39.56570289730774,39.06551601383241,157.5352993050892,143.01418351154365,3.237724376958795e-05,0.0867155864834785,0,0,0
13340,450766.3194069069,2010-09-26 21:01:05,3601.8192716681256,2,40,0.5499359965324402,3.977545976638794,39.57028916941429,39.06551601383241,157.55353690147655,143.01418351154365,6.47544875391759e-05,0.0867155864834785,0,0,0
13341,450796.3349836391,2010-09-26 21:01:35,3631.834848405442,2,40,0.5499359965324402,3.979650497436523,39.57487535804445,39.06551601383241,157.57178305847455,143.01418351154365,6.47544875391759e-05,0.0867155864834785,0,0,0
13342,450826.35027817707,2010-09-26 21:02:05,3661.8501429283097,2,40,0.5499359965324402,3.981593132019043,39.57946144092794,39.06551601383241,157.59003855775185,143.01418351154365,3.237724376958795e-05,0.0867155864834785,0,0,0
13343,450856.3656784739,2010-09-26 21:02:35,3691.865543225205,2,40,0.5499359965324402,3.9838595390319824,39.5840475691769,39.06551601383241,157.6083036992347,143.01418351154365,9.713172767078504e-05,0.0867155864834785,0,0,0
13344,450886.38110123685,2010-09-26 21:03:05,3721.8809659881786,2,40,0.5501165986061096,3.985640287399292,39.58863361374621,39.06551601383241,157.62657803489031,143.01418351154365,0.0,0.0867155864834785,0,0,0
13345,450916.39657554845,2010-09-26 21:03:35,3751.8964403048376,2,40,0.5499359965324402,3.987906694412232,39.593219736772966,39.06551601383241,157.64486243101507,143.01418351154365,3.237724376958795e-05,0.0867155864834785,0,0,0
13346,450946.411948377,2010-09-26 21:04:05,3781.9118131281552,2,40,0.5499359965324402,3.990173101425171,39.59780578806154,39.06551601383241,157.66315612522632,143.01418351154365,9.713172767078504e-05,0.0867155864834785,0,0,0
13347,450976.4273876611,2010-09-26 21:04:35,3811.927252412368,2,40,0.5501165986061096,3.992277622222901,39.60239187729969,39.06551601383241,157.681459864459,143.01418351154365,9.713172767078504e-05,0.0867155864834785,0,0,0
13348,451006.44318260805,2010-09-26 21:05:05,3841.943047369395,2,40,0.5499359965324402,3.994381904602051,39.606978002875564,39.06551601383241,157.69977361910526,143.01418351154365,6.47544875391759e-05,0.0867155864834785,0,0,0
13349,451036.45821123227,2010-09-26 21:05:35,3871.9580759885257,2,40,0.5501165986061096,3.9966483116149902,39.61156403343834,39.06551601383241,157.71809696529974,143.01418351154365,6.47544875391759e-05,0.0867155864834785,0,0,0
13350,451066.47365135857,2010-09-26 21:06:05,3901.973516109828,2,40,0.5499359965324402,3.99875283241272,39.61615014133303,39.06551601383241,157.73643070617115,143.01418351154365,3.237724376958795e-05,0.0867155864834785,0,0,0
13351,451096.4890682068,2010-09-26 21:06:35,3931.988932958038,2,40,0.5499359965324402,4.001019477844238,39.62073620919373,39.06551601383241,157.75477434118588,143.01418351154365,9.71794142969884e-05,0.0867155864834785,0,0,0
13352,451126.5045125887,2010-09-26 21:07:05,3962.0043773399752,2,40,0.5501165986061096,4.003123760223389,39.62532227998156,39.06551601383241,157.77312819218568,143.01418351154365,6.47544875391759e-05,0.0867155864834785,0,0,0
13353,451156.5199294419,2010-09-26 21:07:35,3992.019794193197,2,40,0.5501165986061096,4.005390167236328,39.62990842424729,39.06551601383241,157.7914925881257,143.01418351154365,3.23295607813634e-05,0.0867155864834785,0,0,0
13354,451186.5353338941,2010-09-26 21:08:05,4022.0351987356894,2,40,0.5501165986061096,4.007818698883057,39.634494462246046,39.06551601383241,157.80986693788128,143.01418351154365,6.47544875391759e-05,0.0867155864834785,0,0,0
13355,451216.5507516397,2010-09-26 21:08:35,4052.050616390914,2,40,0.5501165986061096,4.010085105895996,39.63908059793589,39.06551601383241,157.8282520987731,143.01418351154365,6.47544875391759e-05,0.0867155864834785,0,0,0
13356,451246.56642271247,2010-09-26 21:09:05,4082.06628746872,2,40,0.5501165986061096,4.012351512908936,39.64366673637613,39.06551601383241,157.84664772428067,143.01418351154365,6.47544875391759e-05,0.0867155864834785,0,0,0
13357,451276.5816080878,2010-09-26 21:09:35,4112.081472849151,2,40,0.5499359965324402,4.014617919921875,39.6482527233391,39.06551601383241,157.86505330087897,143.01418351154365,6.47544875391759e-05,0.0867155864834785,0,0,0
13358,451306.59702744737,2010-09-26 21:10:05,4142.096892198603,2,40,0.5501165986061096,4.016884326934815,39.652838841316765,39.06551601383241,157.88347008449108,143.01418351154365,3.24249267578125e-05,0.0867155864834785,0,0,0
13359,451336.6124623807,2010-09-26 21:10:35,4172.112327131957,2,40,0.5499359965324402,4.019150733947754,39.657425006059405,39.06551601383241,157.90189775190257,143.01418351154365,3.24249267578125e-05,0.0867155864834785,0,0,0
13360,451366.6278738104,2010-09-26 21:11:05,4202.12773856164,2,40,0.5499359965324402,4.021578788757324,39.662011064741534,39.06551601383241,157.92033569749054,143.01418351154365,3.23295607813634e-05,0.0867155864834785,0,0,0
13361,451396.6433043226,2010-09-26 21:11:35,4232.143169073958,2,40,0.5501165986061096,4.024168968200684,39.66659712832465,39.06551601383241,157.9387846455231,143.01418351154365,9.70840483205393e-05,0.0867155864834785,0,0,0
13362,451426.658714384,2010-09-26 21:12:05,4262.158579135226,2,40,0.5499359965324402,4.026435375213623,39.67118312644398,39.06551601383241,157.95724434926393,143.01418351154365,6.47544875391759e-05,0.0867155864834785,0,0,0
13363,451456.6741238136,2010-09-26 21:12:35,4292.173988579955,2,40,0.5499359965324402,4.0287017822265625,39.67576901008971,39.06551601383241,157.97571483868268,143.01418351154365,3.23295607813634e-05,0.0867155864834785,0,0,0
13364,451486.6896092079,2010-09-26 21:13:05,4322.189473964241,2,40,0.5501165986061096,4.031454086303711,39.68035499890697,39.06551601383241,157.99419683272097,143.01418351154365,9.71794142969884e-05,0.0867155864834785,0,0,0
13365,451516.6898625006,2010-09-26 21:13:35,4352.189727256884,2,40,0.5499359965324402,4.033882141113281,39.68493876753474,39.06551601383241,158.0126811689706,143.01418351154365,6.47544875391759e-05,0.0867155864834785,0,0,0
13366,451546.7048325836,2010-09-26 21:14:05,4382.204697339898,2,40,0.5499359965324402,4.036310195922852,39.689524751063495,39.06551601383241,158.03118587023187,143.01418351154365,9.70840483205393e-05,0.0867155864834785,0,0,0
13367,451576.7202248204,2010-09-26 21:14:35,4412.220089576674,2,40,0.5501165986061096,4.038900375366211,39.69411080477423,39.06551601383241,158.04970243840177,143.01418351154365,6.47544875391759e-05,0.0867155864834785,0,0,0
13368,451606.7357782746,2010-09-26 21:15:05,4442.235643035886,2,40,0.5499359965324402,4.04132890701294,39.69869696978327,39.06551601383241,158.0682310571355,143.01418351154365,6.47544875391759e-05,0.0867155864834785,0,0,0
13369,451636.7510674992,2010-09-26 21:15:35,4472.250932255515,2,40,0.5501165986061096,4.043919086456299,39.70328298563476,39.06551601383241,158.08677084284147,143.01418351154365,3.24249267578125e-05,0.0867155864834785,0,0,0
13370,451666.7667040658,2010-09-26 21:16:05,4502.266569012651,2,40,0.5499359965324402,4.046509265899658,39.70786911695393,39.06551601383241,158.10532300518062,143.01418351154365,6.47544875391759e-05,0.0867155864834785,0,0,0
13371,451696.7819114112,2010-09-26 21:16:35,4532.281776167434,2,40,0.5501165986061096,4.049261093139648,39.712455098161406,39.06551601383241,158.12388660427854,143.01418351154365,6.47544875391759e-05,0.0867155864834785,0,0,0
13372,451726.79740550206,2010-09-26 21:17:05,4562.297270263465,2,40,0.5501165986061096,4.052013397216797,39.71704111197339,39.06551601383241,158.14246245516767,143.01418351154365,9.71794142969884e-05,0.0867155864834785,0,0,0
13373,451756.8127705661,2010-09-26 21:17:35,4592.312635327414,2,40,0.5501165986061096,4.054441452026367,39.72162717471248,39.06551601383241,158.16105073023348,143.01418351154365,3.23295607813634e-05,0.0867155864834785,0,0,0
13374,451786.828333955,2010-09-26 21:18:05,4622.328198716411,2,40,0.5501165986061096,4.057193756103516,39.72621327780399,39.06551601383241,158.17965152327363,143.01418351154365,6.47544875391759e-05,0.0867155864834785,0,0,0
13375,451816.84363142535,2010-09-26 21:18:35,4652.343496181622,2,40,0.5501165986061096,4.060107707977295,39.73079935801659,39.06551601383241,158.19826477220326,143.01418351154365,9.71794142969884e-05,0.0867155864834785,0,0,0
13376,451846.8590710154,2010-09-26 21:19:05,4682.358935776611,2,40,0.5499359965324402,4.062859535217285,39.73538545712531,39.06551601383241,158.21689031694456,143.01418351154365,9.70840483205393e-05,0.0867155864834785,0,0,0
13377,451876.859073146,2010-09-26 21:19:35,4712.358937922352,2,40,0.5501165986061096,4.0654497146606445,39.73996917017739,39.06551601383241,158.23551887901192,143.01418351154365,6.47544875391759e-05,0.0867155864834785,0,0,0
13378,451906.87440495694,2010-09-26 21:20:06,4742.374269718259,2,40,0.5499359965324402,4.068363666534424,39.74455519443888,39.06551601383241,158.25416959630638,143.01418351154365,9.70840483205393e-05,0.0867155864834785,0,0,0
13379,451936.8897120963,2010-09-26 21:20:36,4772.389576862631,2,40,0.5499359965324402,4.070953845977783,39.74914120990488,39.06551601383241,158.2728332656812,143.01418351154365,3.23295607813634e-05,0.0867155864834785,0,0,0
13380,451966.9052713701,2010-09-26 21:21:06,4802.405136126331,2,40,0.5499359965324402,4.0738677978515625,39.75372728333828,39.06551601383241,158.29151016196843,143.01418351154365,3.23295607813634e-05,0.0867155864834785,0,0,0
13381,451996.9205477426,2010-09-26 21:21:36,4832.420412508916,2,40,0.5501165986061096,4.076781749725342,39.75831329029237,39.06551601383241,158.31019999921685,143.01418351154365,9.70840483205393e-05,0.0867155864834785,0,0,0
13382,452026.93595739285,2010-09-26 21:22:06,4862.435822244372,2,40,0.5501165986061096,4.079695701599121,39.76289929869908,39.06551601383241,158.3289031725278,143.01418351154365,6.47544875391759e-05,0.0867155864834785,0,0,0
13383,452056.9513967322,2010-09-26 21:22:36,4892.451261503522,2,40,0.5499359965324402,4.0826096534729,39.76748534559789,39.06551601383241,158.34761986739585,143.01418351154365,6.47544875391759e-05,0.0867155864834785,0,0,0
13384,452086.9668213348,2010-09-26 21:23:06,4922.466686191301,2,40,0.5501165986061096,4.085685729980469,39.77207134524964,39.06551601383241,158.36634988540467,143.01418351154365,9.71794142969884e-05,0.0867155864834785,0,0,0
13385,452116.9822123484,2010-09-26 21:23:36,4952.482077104773,2,40,0.550297200679779,4.088761329650879,39.77665740296972,39.06551601383241,158.38509378903422,143.01418351154365,9.70840483205393e-05,0.0867155864834785,0,0,0
13386,452146.9976874672,2010-09-26 21:24:06,4982.49755231366,2,40,0.5501165986061096,4.091675281524658,39.78124342876669,39.06551601383241,158.40385131360387,143.01418351154365,9.70840483205393e-05,0.0867155864834785,0,0,0
13387,452177.0132236232,2010-09-26 21:24:36,5012.513088494742,2,40,0.5501165986061096,4.0945892333984375,39.78582950271901,39.06551601383241,158.42262283848967,143.01418351154365,6.47544875391759e-05,0.0867155864834785,0,0,0
13388,452207.02847835165,2010-09-26 21:25:06,5042.528343107989,2,40,0.5499359965324402,4.097665309906006,39.790415549909085,39.06551601383241,158.441408269996,143.01418351154365,6.47544875391759e-05,0.0867155864834785,0,0,0
13389,452237.0439018064,2010-09-26 21:25:36,5072.543766562689,2,40,0.5499359965324402,4.100740909576416,39.79500157681464,39.06551601383241,158.46020769794245,143.01418351154365,6.47544875391759e-05,0.0867155864834785,0,0,0
13390,452267.05947454873,2010-09-26 21:26:06,5102.559339315059,2,40,0.5499359965324402,4.103816986083984,39.79958764856208,39.06551601383241,158.47902151107758,143.01418351154365,6.47544875391759e-05,0.0867155864834785,0,0,0
13391,452297.07476484607,2010-09-26 21:26:36,5132.574629617391,2,40,0.5499359965324402,4.107054710388184,39.80417368485148,39.06551601383241,158.49784959536993,143.01418351154365,6.47544875391759e-05,0.0867155864834785,0,0,0
13392,452327.09016710287,2010-09-26 21:27:06,5162.590031869166,2,40,0.5501165986061096,4.110292434692383,39.808759765319934,39.06551601383241,158.5166922698849,143.01418351154365,6.47544875391759e-05,0.0867155864834785,0,0,0
13393,452357.1057486773,2010-09-26 21:27:36,5192.605613438544,2,40,0.5501165986061096,4.113530158996582,39.81334588777755,39.06551601383241,158.53554970207222,143.01418351154365,9.71794142969884e-05,0.0867155864834785,0,0,0
13394,452387.1210137215,2010-09-26 21:28:06,5222.620878482828,2,40,0.550297200679779,4.116767406463623,39.81793189050938,39.06551601383241,158.55442132668372,143.01418351154365,0.0001295089750783,0.0867155864834785,0,0,0
13395,452417.1365728949,2010-09-26 21:28:36,5252.636437656304,2,40,0.5501165986061096,4.120005130767822,39.82251795416651,39.06551601383241,158.57330801728443,143.01418351154365,0.0001295089750783,0.0867155864834785,0,0,0
13396,452447.1518532726,2010-09-26 21:29:06,5282.6517180338615,2,40,0.5499359965324402,4.122919082641602,39.82710401244679,39.06551601383241,158.59220958652784,143.01418351154365,3.23295607813634e-05,0.0867155864834785,0,0,0
13397,452477.1674290776,2010-09-26 21:29:36,5312.667293843864,2,40,0.5501165986061096,4.126480579376221,39.83169006211002,39.06551601383241,158.61112617199015,143.01418351154365,9.70840483205393e-05,0.0867155864834785,0,0,0
13398,452507.1826987985,2010-09-26 21:30:06,5342.682563564821,2,40,0.5501165986061096,4.12971830368042,39.836276063257735,39.06551601383241,158.63005770857302,143.01418351154365,9.70840483205393e-05,0.0867155864834785,0,0,0
13399,452537.19828043313,2010-09-26 21:30:36,5372.698145189338,2,40,0.5501165986061096,4.133118152618408,39.84086214581351,39.06551601383241,158.64900490676422,143.01418351154365,9.71794142969884e-05,0.0867155864834785,0,0,0
13400,452567.2135480587,2010-09-26 21:31:06,5402.713412820078,2,40,0.5501165986061096,4.136517524719238,39.84544821089196,39.06551601383241,158.6679673753237,143.01418351154365,9.70840483205393e-05,0.0867155864834785,0,0,0
13401,452597.22909396415,2010-09-26 21:31:36,5432.728958730446,2,40,0.5499359965324402,4.139917373657227,39.85003430487384,39.06551601383241,158.68694551663904,143.01418351154365,9.71794142969884e-05,0.0867155864834785,0,0,0
13402,452627.2445163762,2010-09-26 21:32:06,5462.744381132519,2,40,0.5499359965324402,4.143316745758057,39.85462040912167,39.06551601383241,158.70593935306135,143.01418351154365,9.70840483205393e-05,0.0867155864834785,0,0,0
13403,452657.2600317253,2010-09-26 21:32:36,5492.759896486615,2,40,0.5501165986061096,4.146716594696045,39.859206457155786,39.06551601383241,158.72494882223856,143.01418351154365,9.71794142969884e-05,0.0867155864834785,0,0,0
13404,452687.2752557672,2010-09-26 21:33:06,5522.775120533563,2,40,0.5499359965324402,4.150278091430664,39.86379248690494,39.06551601383241,158.7439742042459,143.01418351154365,6.47544875391759e-05,0.0867155864834785,0,0,0
13405,452717.2907875724,2010-09-26 21:33:36,5552.790652328697,2,40,0.5499359965324402,4.153677463531494,39.86837865978351,39.06551601383241,158.7630161333368,143.01418351154365,6.47544875391759e-05,0.0867155864834785,0,0,0
13406,452747.306077203,2010-09-26 21:34:06,5582.805941959352,2,40,0.550297200679779,4.157562732696533,39.87296475323852,39.06551601383241,158.78207371753112,143.01418351154365,0.0001295089750783,0.0867155864834785,0,0,0
13407,452777.32166005066,2010-09-26 21:34:36,5612.821524806923,2,40,0.5501165986061096,4.160800457000732,39.87755084657261,39.06551601383241,158.80114758166314,143.01418351154365,9.70840483205393e-05,0.0867155864834785,0,0,0
13408,452807.3369317665,2010-09-26 21:35:06,5642.836796522859,2,40,0.5499359965324402,4.164361953735352,39.88213686685009,39.06551601383241,158.82023743180318,143.01418351154365,9.70840483205393e-05,0.0867155864834785,0,0,0
13409,452837.35234544193,2010-09-26 21:35:36,5672.852210198148,2,40,0.5497553944587708,4.16776180267334,39.88672286287177,39.06551601383241,158.8393434502863,143.01418351154365,3.24249267578125e-05,0.0867155864834785,0,0,0
13410,452867.36776741786,2010-09-26 21:36:06,5702.867632174158,2,40,0.5499359965324402,4.17148494720459,39.89130885204939,39.06551601383241,158.8584659570845,143.01418351154365,3.23295607813634e-05,0.0867155864834785,0,0,0
13411,452897.3832125016,2010-09-26 21:36:36,5732.88307724281,2,40,0.5499359965324402,4.175208568572998,39.89589485950464,39.06551601383241,158.87760517214616,143.01418351154365,9.71794142969884e-05,0.0867155864834785,0,0,0
13412,452927.3986239212,2010-09-26 21:37:06,5762.898488677506,2,40,0.5499359965324402,4.178770065307617,39.90048087955645,39.06551601383241,158.896761211269,143.01418351154365,6.47544875391759e-05,0.0867155864834785,0,0,0
13413,452957.4140609398,2010-09-26 21:37:36,5792.913925696064,2,40,0.550297200679779,4.182816982269287,39.9050669415864,39.06551601383241,158.91593440777018,143.01418351154365,0.0001295089750783,0.0867155864834785,0,0,0
13414,452987.4299747384,2010-09-26 21:38:06,5822.929839504764,2,40,0.5501165986061096,4.186378479003906,39.90965313014445,39.06551601383241,158.93512520230323,143.01418351154365,9.70840483205393e-05,0.0867155864834785,0,0,0
13415,453017.4448927916,2010-09-26 21:38:36,5852.94475754788,2,40,0.5499359965324402,4.1901021003723145,39.91423911230071,39.06551601383241,158.95433241700874,143.01418351154365,0.0001295089750783,0.0867155864834785,0,0,0
13416,453047.4603064719,2010-09-26 21:39:06,5882.960171228182,2,40,0.5501165986061096,4.1938252449035645,39.918825155993495,39.06551601383241,158.97355720142178,143.01418351154365,9.70840483205393e-05,0.0867155864834785,0,0,0
13417,453077.4757247236,2010-09-26 21:39:36,5912.975589479895,2,40,0.5499359965324402,4.197548389434815,39.9234112376292,39.06551601383241,158.99279958536033,143.01418351154365,3.23295607813634e-05,0.0867155864834785,0,0,0
13418,453094.3349948656,2010-09-26 21:39:53,5929.834859621902,2,40,0.5501165986061096,4.200138568878174,39.92598714143654,39.06551601383241,159.00361532064014,143.01418351154365,0.0001295089750783,0.0867155864834785,0,0,0
13419,453124.3574912717,2010-09-26 21:40:23,30.01553319863813,3,40,0.0,4.1234049797058105,39.92598714143654,39.06551601383241,159.00361532064014,143.01418351154365,-0.0003561019839253,0.0867155864834785,0,0,0
13420,453154.3727851078,2010-09-26 21:40:53,60.030827024765664,3,40,0.0,4.114015579223633,39.92598714143654,39.06551601383241,159.00361532064014,143.01418351154365,-0.0001942634553415,0.0867155864834785,0,0,0
13421,453184.38822785066,2010-09-26 21:41:23,90.04626976761223,3,40,0.0,4.108673572540283,39.92598714143654,39.06551601383241,159.00361532064014,143.01418351154365,-0.0001295089750783,0.0867155864834785,0,0,0
13422,453214.3567736967,2010-09-26 21:41:53,120.01481561860182,3,40,0.0,4.105112075805664,39.92598714143654,39.06551601383241,159.00361532064014,143.01418351154365,-0.0001295089750783,0.0867155864834785,0,0,0
13423,453214.36453930376,2010-09-26 21:41:53,2.561393633e-06,4,40,0.9884553551673888,4.199653148651123,39.925987142139824,39.06551601383241,159.0036153235937,143.01418351154365,0.0,0.0867155864834785,0,0,0
13424,453215.28654537786,2010-09-26 21:41:54,0.922008660464004,4,40,0.9378847479820251,4.199491024017334,39.92623236752032,39.06551601383241,159.00464515189637,143.01418351154365,-3.24249267578125e-05,0.0867155864834785,0,0,0
13425,453217.33324797737,2010-09-26 21:41:56,2.968711255017332,4,40,0.8878559470176697,4.199653148651123,39.92675023323742,39.06551601383241,159.00681994628968,143.01418351154365,0.0,0.0867155864834785,0,0,0
13426,453220.44264080026,2010-09-26 21:41:59,6.078104077871302,4,40,0.8376466035842896,4.199491024017334,39.92749419651053,39.06551601383241,159.00994424456468,143.01418351154365,-3.24249267578125e-05,0.0867155864834785,0,0,0
13427,453224.69259781175,2010-09-26 21:42:04,10.328061089411648,4,40,0.7874372005462646,4.199491024017334,39.92845215448647,39.06551601383241,159.01396723371187,143.01418351154365,0.0,0.0867155864834785,0,0,0
13428,453230.19253534696,2010-09-26 21:42:09,15.827998624643822,4,40,0.7372277975082397,4.199653148651123,39.92961536528243,39.06551601383241,159.01885219747655,143.01418351154365,0.0,0.0867155864834785,0,0,0
13429,453237.3331149322,2010-09-26 21:42:16,22.968578209839176,4,40,0.687199056148529,4.199653148651123,39.93102610408506,39.06551601383241,159.0247766792678,143.01418351154365,0.0,0.0867155864834785,0,0,0
13430,453246.83305919456,2010-09-26 21:42:26,32.46852247224803,4,40,0.6371703147888184,4.199653148651123,39.932770543700414,39.06551601383241,159.0321025711147,143.01418351154365,3.24249267578125e-05,0.0867155864834785,0,0,0
13431,453259.98941069696,2010-09-26 21:42:39,45.62487397465211,4,40,0.5871415138244629,4.199491024017334,39.93500248528935,39.06551601383241,159.04147575613908,143.01418351154365,-3.24249267578125e-05,0.0867155864834785,0,0,0
13432,453279.410974844,2010-09-26 21:42:58,65.04643820690877,4,40,0.5371127724647522,4.199653148651123,39.93802622673879,39.06551601383241,159.0541741468745,143.01418351154365,3.24249267578125e-05,0.0867155864834785,0,0,0
13433,453311.5200814239,2010-09-26 21:43:30,97.15554470158204,4,40,0.4870839715003967,4.199329376220703,39.94257576389235,39.06551601383241,159.07328018370436,143.01418351154365,-6.47544875391759e-05,0.0867155864834785,0,0,0
13434,453366.30110957805,2010-09-26 21:44:25,151.93657287074274,4,40,0.4370552003383636,4.199491024017334,39.94957789456996,39.06551601383241,159.10268603556668,143.01418351154365,-3.24249267578125e-05,0.0867155864834785,0,0,0
13435,453448.6598031126,2010-09-26 21:45:48,234.29526639033585,4,40,0.3868458271026611,4.199491024017334,39.958982193757166,39.06551601383241,159.1421799171598,143.01418351154365,0.0,0.0867155864834785,0,0,0
13436,453554.674870947,2010-09-26 21:47:34,340.3103342246608,4,40,0.336817055940628,4.199491024017334,39.969630225591416,39.06551601383241,159.18689704641193,143.01418351154365,0.0,0.0867155864834785,0,0,0
13437,453682.8144582005,2010-09-26 21:49:42,468.4499214782283,4,40,0.2867882847785949,4.199491024017334,39.98072236679992,39.06551601383241,159.23347921977603,143.01418351154365,0.0,0.0867155864834785,0,0,0
13438,453838.3916108836,2010-09-26 21:52:17,624.0270741712968,4,40,0.2367595136165619,4.199491024017334,39.992018689060856,39.06551601383241,159.2809189050447,143.01418351154365,0.0,0.0867155864834785,0,0,0
13439,454033.56209595554,2010-09-26 21:55:32,819.1975592332399,4,40,0.1865501403808593,4.199491024017334,40.00345619238679,39.06551601383241,159.32895143695217,143.01418351154365,0.0,0.0867155864834785,0,0,0
13440,454297.43536093086,2010-09-26 21:59:56,1083.0708241934676,4,40,0.1365213692188263,4.199653148651123,40.015213921526914,39.06551601383241,159.37832883350032,143.01418351154365,3.24249267578125e-05,0.0867155864834785,0,0,0
13441,454698.1356928856,2010-09-26 22:06:37,1483.7711561682815,4,40,0.0864925980567932,4.199653148651123,40.027428452876215,39.06551601383241,159.42962457271457,143.01418351154365,0.0,0.0867155864834785,0,0,0
13442,455228.1945686771,2010-09-26 22:15:27,2013.830031954764,4,40,0.0496483072638511,4.199491024017334,40.03722616344387,39.06551601383241,159.47077067596376,143.01418351154365,-3.24249267578125e-05,0.0867155864834785,0,0,0
13443,455258.2158389673,2010-09-26 22:15:57,30.015417184047877,5,40,0.0,4.192692279815674,40.03722616344387,39.06551601383241,159.47077067596376,143.01418351154365,0.0,0.0867155864834785,0,0,0
13444,455288.2156394447,2010-09-26 22:16:27,60.015217656380734,5,40,0.0,4.191397190093994,40.03722616344387,39.06551601383241,159.47077067596376,143.01418351154365,-3.23295607813634e-05,0.0867155864834785,0,0,0
13445,455288.4095434786,2010-09-26 22:16:28,0.187635983281345,6,40,-1.9243103452026844e-05,4.191397190093994,40.03722616344387,39.06551601483538,159.47077067596376,143.0141835157475,0.0,0.0882566422224044,0,0,0
13446,455293.2377136192,2010-09-26 22:16:32,5.015806123747354,6,40,0.0005225847125984,4.191397190093994,40.03722673875487,39.06551601508558,159.4707730873915,143.01418351679615,-3.23295607813634e-05,0.0882566422224044,0,0,0
13447,455323.25943587726,2010-09-26 22:17:02,30.015630576708784,7,40,-1.1001102924346924,4.0329108238220215,40.03722673875487,39.07468683166046,159.4707730873915,143.05134815839028,-0.0008418083307333,0.0882566422224044,0,0,0
13448,455353.2746425559,2010-09-26 22:17:33,60.03083724527764,7,40,-1.099929690361023,4.009275436401367,40.03722673875487,39.08385747435955,159.4707730873915,143.0882164434292,-0.0004857063177041,0.0882566422224044,0,0,0
13449,455383.2902008422,2010-09-26 22:18:03,90.04639554156337,7,40,-1.099929690361023,3.99292516708374,40.03722673875487,39.093028199726575,159.4707730873915,143.12490688037647,-0.0004208564641885,0.0882566422224044,0,0,0
13450,455413.3054651496,2010-09-26 22:18:33,120.06165984900773,7,40,-1.0997490882873535,3.980459928512573,40.03722673875487,39.10219884438003,159.4707730873915,143.16146555459684,-0.0002913951757363,0.0882566422224044,0,0,0
13451,455443.3208886545,2010-09-26 22:19:03,150.0770833438082,7,40,-1.1001102924346924,3.969127893447876,40.03722673875487,39.11136947678495,159.4707730873915,143.19791534776422,-0.0003237724304199,0.0882566422224044,0,0,0
13452,455473.3363297682,2010-09-26 22:19:33,180.09252445758835,7,40,-1.099929690361023,3.9590909481048575,40.03722673875487,39.12054011257798,159.4707730873915,143.23426932838913,-0.0002913951757363,0.0882566422224044,0,0,0
13453,455503.35175514274,2010-09-26 22:20:03,210.10794983208083,7,40,-1.099929690361023,3.9500253200531006,40.03722673875487,39.12971069951891,159.4707730873915,143.2705348624854,-0.0002266406954731,0.0882566422224044,0,0,0
13454,455533.3671501464,2010-09-26 22:20:33,240.1233448357631,7,40,-1.099929690361023,3.9411215782165527,40.03722673875487,39.138881277963215,159.4707730873915,143.30671707801562,-0.0002266406954731,0.0882566422224044,0,0,0
13455,455563.3827004026,2010-09-26 22:21:03,270.1388950969921,7,40,-1.0997490882873535,3.932379722595215,40.03722673875487,39.14805199733403,159.4707730873915,143.34281985550268,-0.0002590179501567,0.0882566422224044,0,0,0
13456,455593.39799095056,2010-09-26 22:21:33,300.15418564493683,7,40,-1.0997490882873535,3.923961639404297,40.03722673875487,39.15722258071253,159.4707730873915,143.3788445944691,-0.0002590179501567,0.0882566422224044,0,0,0
13457,455623.4134243551,2010-09-26 22:22:03,330.16961905949853,7,40,-1.0997490882873535,3.916029214859009,40.03722673875487,39.166393243690685,159.4707730873915,143.41479372289763,-0.0001942634553415,0.0882566422224044,0,0,0
13458,455653.4288472834,2010-09-26 22:22:33,360.1850419728476,7,40,-1.0997490882873535,3.90777325630188,40.03722673875487,39.17556383767482,159.4707730873915,143.45066796572326,-0.0002590179501567,0.0882566422224044,0,0,0
13459,455683.4443493293,2010-09-26 22:23:03,390.2005440187236,7,40,-1.099929690361023,3.9000027179718018,40.03722673875487,39.18473448403557,159.4707730873915,143.48646894429177,-0.0001942634553415,0.0882566422224044,0,0,0
13460,455713.4598281373,2010-09-26 22:23:33,420.2160228366191,7,40,-1.1001102924346924,3.8920702934265137,40.03722673875487,39.193905072758895,159.4707730873915,143.52219756033628,-0.0002590179501567,0.0882566422224044,0,0,0
13461,455743.475110224,2010-09-26 22:24:03,450.23130491341846,7,40,-1.099929690361023,3.8844616413116455,40.03722673875487,39.20307563364083,159.4707730873915,143.55785500070718,-0.0002266406954731,0.0882566422224044,0,0,0
13462,455773.49053088174,2010-09-26 22:24:33,480.24672559118727,7,40,-1.0997490882873535,3.876691102981568,40.03722673875487,39.21224625953404,159.4707730873915,143.59344224995888,-0.0002266406954731,0.0882566422224044,0,0,0
13463,455803.5059806371,2010-09-26 22:25:03,510.2621753415256,7,40,-1.099929690361023,3.869244337081909,40.03722673875487,39.22141685584047,159.4707730873915,143.628959754042,-0.0001942634553415,0.0882566422224044,0,0,0
13464,455833.5215106679,2010-09-26 22:25:33,540.2777053722562,7,40,-1.099929690361023,3.861797571182251,40.03722673875487,39.230587583594,159.4707730873915,143.6644090751188,-0.0001942634553415,0.0882566422224044,0,0,0
13465,455863.5368040478,2010-09-26 22:26:03,570.2929987372326,7,40,-1.099929690361023,3.8546745777130127,40.03722673875487,39.239758188163485,159.4707730873915,143.6997905913537,-0.0001295089750783,0.0882566422224044,0,0,0
13466,455893.5522450013,2010-09-26 22:26:33,600.3084396906123,7,40,-1.099929690361023,3.8472278118133545,40.03722673875487,39.24892878835141,159.4707730873915,143.7351055193046,-0.0001942634553415,0.0882566422224044,0,0,0
13467,455923.5676349172,2010-09-26 22:27:03,630.3238296065948,7,40,-1.099929690361023,3.840266704559326,40.03722673875487,39.25809943470614,159.4707730873915,143.770355092782,-0.0001942634553415,0.0882566422224044,0,0,0
13468,455953.5830408382,2010-09-26 22:27:33,660.3392356227661,7,40,-1.0997490882873535,3.833305597305298,40.03722673875487,39.26727011779492,159.4707730873915,143.8055400588473,-0.0001295089750783,0.0882566422224044,0,0,0
13469,455983.59848523006,2010-09-26 22:28:03,690.3546800247541,7,40,-1.099929690361023,3.8263447284698486,40.03722673875487,39.27644083384532,159.4707730873915,143.840661315258,-0.0001942634553415,0.0882566422224044,0,0,0
13470,456013.6139188402,2010-09-26 22:28:33,720.3701135295411,7,40,-1.1001102924346924,3.81938362121582,40.03722673875487,39.28561150039397,159.4707730873915,143.8757198751107,-0.0001942634553415,0.0882566422224044,0,0,0
13471,456043.6293413927,2010-09-26 22:29:03,750.3855360920143,7,40,-1.0997490882873535,3.812908172607422,40.03722673875487,39.29478214914472,159.4707730873915,143.910716701054,-0.0001942634553415,0.0882566422224044,0,0,0
13472,456073.6447597746,2010-09-26 22:29:33,780.40095446904,7,40,-1.099929690361023,3.8062708377838135,40.03722673875487,39.30395280558922,159.4707730873915,143.9456522372719,-0.0001295089750783,0.0882566422224044,0,0,0
13473,456103.6603964867,2010-09-26 22:30:03,810.4165911760509,7,40,-1.0997490882873535,3.799795389175415,40.03722673875487,39.31312351933936,159.4707730873915,143.98052880918567,-0.0001942634553415,0.0882566422224044,0,0,0
13474,456133.6757337262,2010-09-26 22:30:33,840.4319284205575,7,40,-1.099929690361023,3.793643712997437,40.03722673875487,39.32229416273552,159.4707730873915,144.01534700528637,-0.0001618862152099,0.0882566422224044,0,0,0
13475,456163.6910283343,2010-09-26 22:31:03,870.4472230236244,7,40,-1.099929690361023,3.787330150604248,40.03722673875487,39.33146475577576,159.4707730873915,144.05010802572073,-0.0001618862152099,0.0882566422224044,0,0,0
13476,456193.706446967,2010-09-26 22:31:33,900.4626416562882,7,40,-1.0997490882873535,3.7815022468566895,40.03722673875487,39.34063544052478,159.4707730873915,144.08481337901057,-0.0001295089750783,0.0882566422224044,0,0,0
13477,456223.7220101404,2010-09-26 22:32:03,930.4782048347606,7,40,-1.0997490882873535,3.775512456893921,40.03722673875487,39.3498061495712,159.4707730873915,144.11946410808807,-0.0001295089750783,0.0882566422224044,0,0,0
13478,456253.73729695904,2010-09-26 22:32:33,960.4934916634214,7,40,-1.099929690361023,3.769522666931152,40.03722673875487,39.358976801514686,159.4707730873915,144.1540608003911,-0.0001618862152099,0.0882566422224044,0,0,0
13479,456283.75285042834,2010-09-26 22:33:03,990.5090451276455,7,40,-1.099929690361023,3.7640185356140137,40.03722673875487,39.36814746396656,159.4707730873915,144.18860508562852,-0.0001618862152099,0.0882566422224044,0,0,0
13480,456313.7681843244,2010-09-26 22:33:33,1020.5243791039942,7,40,-1.0997490882873535,3.758352518081665,40.03722673875487,39.37731757806357,159.4707730873915,144.2230955784226,-0.0001618862152099,0.0882566422224044,0,0,0
13481,456343.78357643087,2010-09-26 22:34:03,1050.5397711202193,7,40,-1.0997490882873535,3.7528486251831055,40.03722673875487,39.38648764292064,159.4707730873915,144.25753521831706,-0.0001618385285837,0.0882566422224044,0,0,0
13482,456373.7989718857,2010-09-26 22:34:33,1080.5551665750277,7,40,-1.099929690361023,3.747344493865967,40.03722673875487,39.39565768964977,159.4707730873915,144.29192520405334,-0.0001942634553415,0.0882566422224044,0,0,0
13483,456403.8143977765,2010-09-26 22:35:03,1110.5705924658089,7,40,-1.099929690361023,3.742164134979248,40.03722673875487,39.40482772613638,159.4707730873915,144.32626646794012,-0.0001942634553415,0.0882566422224044,0,0,0
13484,456433.83021738,2010-09-26 22:35:33,1140.5864120743704,7,40,-1.1001102924346924,3.736983776092529,40.03722673875487,39.41399844406872,159.4707730873915,144.36056217838478,-0.0001295089750783,0.0882566422224044,0,0,0
13485,456463.8452606056,2010-09-26 22:36:03,1170.6014552949478,7,40,-1.099929690361023,3.7318034172058105,40.03722673875487,39.423169039213526,159.4707730873915,144.3948101415721,-0.0001295089750783,0.0882566422224044,0,0,0
13486,456493.8606692934,2010-09-26 22:36:33,1200.6168639928128,7,40,-1.0997490882873535,3.726946830749512,40.03722673875487,39.43233972119784,159.4707730873915,144.42901188693384,-0.0001295089750783,0.0882566422224044,0,0,0
13487,456523.8761076804,2010-09-26 22:37:03,1230.6323023697614,7,40,-1.1001102924346924,3.721928358078003,40.03722673875487,39.44151041464189,159.4707730873915,144.4631681837646,-0.0001618862152099,0.0882566422224044,0,0,0
13488,456553.89150560135,2010-09-26 22:37:33,1260.6477003057632,7,40,-1.0997490882873535,3.717233657836914,40.03722673875487,39.45068114434837,159.4707730873915,144.4972796236085,-9.713172767078504e-05,0.0882566422224044,0,0,0
13489,456583.9069437327,2010-09-26 22:38:03,1290.6631384220611,7,40,-1.0997490882873535,3.712538957595825,40.03722673875487,39.459851891041424,159.4707730873915,144.53134671411317,-9.713172767078504e-05,0.0882566422224044,0,0,0
13490,456613.9223784355,2010-09-26 22:38:33,1320.678573139876,7,40,-1.099929690361023,3.7076823711395264,40.03722673875487,39.46902263723533,159.4707730873915,144.56537029011372,-0.0001295089750783,0.0882566422224044,0,0,0
13491,456643.9377833639,2010-09-26 22:39:03,1350.693978058307,7,40,-1.0997490882873535,3.7029876708984375,40.03722673875487,39.47819335250766,159.4707730873915,144.5993507264579,-0.0001295089750783,0.0882566422224044,0,0,0
13492,456673.95334804617,2010-09-26 22:39:33,1380.7095427355205,7,40,-1.099929690361023,3.698454856872559,40.03722673875487,39.48736415783972,159.4707730873915,144.63328919918993,-0.0001295089750783,0.0882566422224044,0,0,0
13493,456703.9686229902,2010-09-26 22:40:03,1410.724817684528,7,40,-1.099929690361023,3.69392204284668,40.03722673875487,39.49653483269179,159.4707730873915,144.66718537589517,-0.0001295089750783,0.0882566422224044,0,0,0
13494,456733.9841819982,2010-09-26 22:40:33,1440.7403766976029,7,40,-1.099929690361023,3.689389228820801,40.03722673875487,39.50570561244464,159.4707730873915,144.7010406747647,-0.0001618862152099,0.0882566422224044,0,0,0
13495,456763.9994548922,2010-09-26 22:41:03,1470.7556495914805,7,40,-1.1001102924346924,3.685018301010132,40.03722673875487,39.51487632353068,159.4707730873915,144.73485511479424,-0.0001295089750783,0.0882566422224044,0,0,0
13496,456794.014879234,2010-09-26 22:41:33,1500.7710739233703,7,40,-1.099929690361023,3.680647373199463,40.03722673875487,39.5240470876665,159.4707730873915,144.76862979510582,-0.0001295089750783,0.0882566422224044,0,0,0
13497,456824.03031617735,2010-09-26 22:42:03,1530.7865108667404,7,40,-1.099929690361023,3.676438331604004,40.03722673875487,39.53321785685164,159.4707730873915,144.8023649978246,-0.0001295089750783,0.0882566422224044,0,0,0
13498,456854.0457456772,2010-09-26 22:42:33,1560.8019403665303,7,40,-1.099929690361023,3.672067642211914,40.03722673875487,39.54238857346027,159.4707730873915,144.83606140699496,-0.0001618385285837,0.0882566422224044,0,0,0
13499,456884.0611643349,2010-09-26 22:43:03,1590.8173590342817,7,40,-1.1001102924346924,3.668020486831665,40.03722673875487,39.5515593356131,159.4707730873915,144.86971991018223,-0.0001618862152099,0.0882566422224044,0,0,0
13500,456914.07656458166,2010-09-26 22:43:33,1620.8327592710266,7,40,-1.099929690361023,3.664135217666626,40.03722673875487,39.56073009537207,159.4707730873915,144.90334102364352,-9.713172767078504e-05,0.0882566422224044,0,0,0
13501,456944.0920244823,2010-09-26 22:44:03,1650.848219176714,7,40,-1.099929690361023,3.660088062286377,40.03722673875487,39.56990084318706,159.4707730873915,144.93692540474697,-0.0001295089750783,0.0882566422224044,0,0,0
13502,456974.10765940486,2010-09-26 22:44:33,1680.8638542145586,7,40,-1.099929690361023,3.656202793121338,40.03722673875487,39.57907165046639,159.4707730873915,144.9704737649528,-9.713172767078504e-05,0.0882566422224044,0,0,0
13503,457004.1228474119,2010-09-26 22:45:03,1710.8790421062574,7,40,-1.099929690361023,3.652317523956299,40.03722673875487,39.58824238119781,159.4707730873915,145.00398655133264,-9.713172767078504e-05,0.0882566422224044,0,0,0
13504,457034.13838086615,2010-09-26 22:45:33,1740.8945755855962,7,40,-1.099929690361023,3.64875602722168,40.03722673875487,39.597413090519794,159.4707730873915,145.03746472919693,-9.713172767078504e-05,0.0882566422224044,0,0,0
13505,457064.153877689,2010-09-26 22:46:03,1770.9100723783597,7,40,-1.1001102924346924,3.6450326442718506,40.03722673875487,39.60658385850068,159.4707730873915,145.07090893109458,-0.0001295089750783,0.0882566422224044,0,0,0
13506,457094.16922962014,2010-09-26 22:46:33,1800.925424314539,7,40,-1.1002910137176514,3.641471147537232,40.03722673875487,39.61575451654269,159.4707730873915,145.10431979303306,-9.713172767078504e-05,0.0882566422224044,0,0,0
13507,457124.18464774656,2010-09-26 22:47:03,1830.940842445952,7,40,-1.099929690361023,3.637909650802612,40.03722673875487,39.62492515760336,159.4707730873915,145.1376983355799,-9.713172767078504e-05,0.0882566422224044,0,0,0
13508,457154.1999611064,2010-09-26 22:47:33,1860.9561557958136,7,40,-1.099929690361023,3.634510040283203,40.03722673875487,39.63409580303313,159.4707730873915,145.17104544632204,-0.0001295089750783,0.0882566422224044,0,0,0
13509,457184.215375258,2010-09-26 22:48:03,1890.9715699773667,7,40,-1.099929690361023,3.631272315979004,40.03722673875487,39.64326649064312,159.4707730873915,145.2043619709942,-9.713172767078504e-05,0.0882566422224044,0,0,0
13510,457214.2307885673,2010-09-26 22:48:33,1920.9869832616805,7,40,-1.0997490882873535,3.6280345916748047,40.03722673875487,39.65243716423534,159.4707730873915,145.23764822609104,-0.0001295089750783,0.0882566422224044,0,0,0
13511,457244.2463664926,2010-09-26 22:49:03,1951.002561191976,7,40,-1.099929690361023,3.624958753585816,40.03722673875487,39.66160792031241,159.4707730873915,145.2709053715162,-6.47544875391759e-05,0.0882566422224044,0,0,0
13512,457274.26162787765,2010-09-26 22:49:34,1981.017822577125,7,40,-1.1001102924346924,3.621721029281616,40.03722673875487,39.67077858986183,159.4707730873915,145.3041335753051,-9.713172767078504e-05,0.0882566422224044,0,0,0
13513,457304.2770809914,2010-09-26 22:50:04,2011.033275680834,7,40,-1.099929690361023,3.618807077407837,40.03722673875487,39.6799493709978,159.4707730873915,145.33733408434554,-9.713172767078504e-05,0.0882566422224044,0,0,0
13514,457334.2924717295,2010-09-26 22:50:34,2041.0486664238813,7,40,-1.099929690361023,3.615731239318848,40.03722673875487,39.68912012208728,159.4707730873915,145.37050682770015,-9.713172767078504e-05,0.0882566422224044,0,0,0
13515,457364.3079134898,2010-09-26 22:51:04,2071.0641081842755,7,40,-1.099929690361023,3.612817287445069,40.03722673875487,39.698290877743176,159.4707730873915,145.40365277455265,-0.0001295089750783,0.0882566422224044,0,0,0
13516,457394.32331849856,2010-09-26 22:51:34,2101.079513197944,7,40,-1.099929690361023,3.609903335571289,40.03722673875487,39.70746154696591,159.4707730873915,145.4367718607143,-9.713172767078504e-05,0.0882566422224044,0,0,0
13517,457424.338881241,2010-09-26 22:52:04,2131.0950759303028,7,40,-1.0997490882873535,3.60715126991272,40.03722673875487,39.716632308208645,159.4707730873915,145.46986515843767,-6.47544875391759e-05,0.0882566422224044,0,0,0
13518,457454.35427625966,2010-09-26 22:52:34,2161.1104709740853,7,40,-1.099929690361023,3.6043992042541504,40.03722673875487,39.72580311933945,159.4707730873915,145.50293254021236,-6.47544875391759e-05,0.0882566422224044,0,0,0
13519,457484.36957800057,2010-09-26 22:53:04,2191.1257726949198,7,40,-1.099929690361023,3.601485252380371,40.03722673875487,39.734973828353134,159.4707730873915,145.53597399282162,-6.47544875391759e-05,0.0882566422224044,0,0,0
13520,457514.3851226327,2010-09-26 22:53:34,2221.1413174473973,7,40,-1.1001102924346924,3.5987331867218018,40.03722673875487,39.74414458695036,159.4707730873915,145.56899017783536,-3.237724376958795e-05,0.0882566422224044,0,0,0
13521,457544.40046798746,2010-09-26 22:54:04,2251.1566626818485,7,40,-1.099929690361023,3.5958192348480225,40.03722673875487,39.75331527538241,159.4707730873915,145.6019806506034,-0.0001295089750783,0.0882566422224044,0,0,0
13522,457574.4004857572,2010-09-26 22:54:34,2281.1566804716385,7,40,-1.0997490882873535,3.593390941619873,40.03722673875487,39.76248134582682,159.4707730873915,145.63492901114216,-3.237724376958795e-05,0.0882566422224044,0,0,0
13523,457604.41564203,2010-09-26 22:55:04,2311.17183683965,7,40,-1.099929690361023,3.590477228164673,40.03722673875487,39.77165209394518,159.4707730873915,145.66786859802644,-6.47544875391759e-05,0.0882566422224044,0,0,0
13524,457634.4310576301,2010-09-26 22:55:34,2341.187252324456,7,40,-1.099929690361023,3.5875632762908936,40.03722673875487,39.78082288700339,159.4707730873915,145.70078251114947,-6.47544875391759e-05,0.0882566422224044,0,0,0
13525,457664.4466139715,2010-09-26 22:56:04,2371.2028087611,7,40,-1.099929690361023,3.5846493244171143,40.03722673875487,39.78999367154853,159.4707730873915,145.7336703450885,-9.713172767078504e-05,0.0882566422224044,0,0,0
13526,457694.461923156,2010-09-26 22:56:34,2401.2181178703763,7,40,-1.099929690361023,3.581735372543335,40.03722673875487,39.79916437168958,159.4707730873915,145.76653137067893,-6.47544875391759e-05,0.0882566422224044,0,0,0
13527,457724.4773558587,2010-09-26 22:57:04,2431.233550548099,7,40,-1.0997490882873535,3.578821420669556,40.03722673875487,39.80833514983272,159.4707730873915,145.7993657732107,-3.237724376958795e-05,0.0882566422224044,0,0,0
13528,457754.4927527271,2010-09-26 22:57:34,2461.2489474465106,7,40,-1.0997490882873535,3.5759074687957764,40.03722673875487,39.817505923232574,159.4707730873915,145.8321726998219,-6.47544875391759e-05,0.0882566422224044,0,0,0
13529,457784.50817293866,2010-09-26 22:58:04,2491.264367638066,7,40,-1.0997490882873535,3.572831630706787,40.03722673875487,39.82667663317759,159.4707730873915,145.8649513194329,-3.237724376958795e-05,0.0882566422224044,0,0,0
13530,457814.5236059222,2010-09-26 22:58:34,2521.2798006115263,7,40,-1.1001102924346924,3.569593906402588,40.03722673875487,39.83584745423027,159.4707730873915,145.89770156018614,-6.47544875391759e-05,0.0882566422224044,0,0,0
13531,457844.5390536976,2010-09-26 22:59:04,2551.295248482173,7,40,-1.099929690361023,3.5661942958831787,40.03722673875487,39.84501818938325,159.4707730873915,145.9304217156904,-6.47544875391759e-05,0.0882566422224044,0,0,0
13532,457874.55443660606,2010-09-26 22:59:34,2581.310631295426,7,40,-1.0997490882873535,3.5629565715789795,40.03722673875487,39.85418895635799,159.4707730873915,145.9631111550173,-6.47544875391759e-05,0.0882566422224044,0,0,0
13533,457904.56986707833,2010-09-26 23:00:04,2611.3260618678933,7,40,-1.099929690361023,3.5592331886291504,40.03722673875487,39.86335970039195,159.4707730873915,145.99576927421174,-9.713172767078504e-05,0.0882566422224044,0,0,0
13534,457934.585392668,2010-09-26 23:00:34,2641.341587367313,7,40,-1.1001102924346924,3.5555098056793213,40.03722673875487,39.87253045816328,159.4707730873915,146.02839415075857,-0.0001295089750783,0.0882566422224044,0,0,0
13535,457964.6008253958,2010-09-26 23:01:04,2671.357020085135,7,40,-1.0997490882873535,3.551786422729492,40.03722673875487,39.88170119187384,159.4707730873915,146.06098411711008,-9.713172767078504e-05,0.0882566422224044,0,0,0
13536,457994.6161206405,2010-09-26 23:01:34,2701.372315329804,7,40,-1.099929690361023,3.547739267349243,40.03722673875487,39.89087195338994,159.4707730873915,146.0935378921356,-9.713172767078504e-05,0.0882566422224044,0,0,0
13537,458024.6315466715,2010-09-26 23:02:04,2731.387741385998,7,40,-1.0997490882873535,3.543692111968994,40.03722673875487,39.900042780833736,159.4707730873915,146.12605438493597,-6.47544875391759e-05,0.0882566422224044,0,0,0
13538,458054.6471755389,2010-09-26 23:02:34,2761.4033702333904,7,40,-1.099929690361023,3.539321184158325,40.03722673875487,39.909213608903386,159.4707730873915,146.15853214109993,-9.713172767078504e-05,0.0882566422224044,0,0,0
13539,458084.6624063729,2010-09-26 23:03:04,2791.418601062267,7,40,-1.0997490882873535,3.5347883701324463,40.03722673875487,39.91838441778653,159.4707730873915,146.1909697332326,-0.0001295089750783,0.0882566422224044,0,0,0
13540,458114.6778140131,2010-09-26 23:03:34,2821.434008702492,7,40,-1.099929690361023,3.5300936698913574,40.03722673875487,39.92755523876525,159.4707730873915,146.22336546824144,-0.0001618862152099,0.0882566422224044,0,0,0
13541,458144.6932490668,2010-09-26 23:04:04,2851.44944376617,7,40,-1.1001102924346924,3.5250751972198486,40.03722673875487,39.936726022267976,159.4707730873915,146.25571726870402,-0.0001618862152099,0.0882566422224044,0,0,0
13542,458174.7086698648,2010-09-26 23:04:34,2881.4648645542143,7,40,-1.0997490882873535,3.52005672454834,40.03722673875487,39.945896812303005,159.4707730873915,146.28802232809716,-0.0001295089750783,0.0882566422224044,0,0,0
13543,458204.72409250255,2010-09-26 23:05:04,2911.4802871918755,7,40,-1.099929690361023,3.514228820800781,40.03722673875487,39.95506761268144,159.4707730873915,146.32027712950347,-0.0001295089750783,0.0882566422224044,0,0,0
13544,458234.7395336814,2010-09-26 23:05:34,2941.4957283858557,7,40,-1.1001102924346924,3.507915496826172,40.03722673875487,39.9642384759124,159.4707730873915,146.35247732293936,-0.0001942634553415,0.0882566422224044,0,0,0
13545,458264.7549243343,2010-09-26 23:06:04,2971.51111902364,7,40,-1.1001102924346924,3.500954389572144,40.03722673875487,39.97340927093559,159.4707730873915,146.3846170356599,-0.0001942634553415,0.0882566422224044,0,0,0
13546,458294.7705089011,2010-09-26 23:06:34,3001.5267036005257,7,40,-1.099929690361023,3.4933457374572754,40.03722673875487,39.98258013237237,159.4707730873915,146.4166897928996,-0.0002590179501567,0.0882566422224044,0,0,0
13547,458324.7857674592,2010-09-26 23:07:04,3031.541962158619,7,40,-1.099929690361023,3.4844419956207275,40.03722673875487,39.99175085824094,159.4707730873915,146.44868598836752,-0.0002590179501567,0.0882566422224044,0,0,0
13548,458354.801362843,2010-09-26 23:07:34,3061.557557547493,7,40,-1.099929690361023,3.47408127784729,40.03722673875487,40.00092168758238,159.4707730873915,146.4805944182799,-0.0002913951757363,0.0882566422224044,0,0,0
13549,458384.8170060313,2010-09-26 23:08:04,3091.573200725657,7,40,-1.1001102924346924,3.461616039276123,40.03722673875487,40.01009251201189,159.4707730873915,146.51239894016513,-0.0003561496851034,0.0882566422224044,0,0,0
13550,458414.8320588758,2010-09-26 23:08:34,3121.588253565246,7,40,-1.0997490882873535,3.446074962615967,40.03722673875487,40.01926318348588,159.4707730873915,146.54407528457983,-0.0004532813909463,0.0882566422224044,0,0,0
13551,458444.8474742504,2010-09-26 23:09:04,3151.603668944789,7,40,-1.0997490882873535,3.425191879272461,40.03722673875487,40.0284340098759,159.4707730873915,146.57558684960685,-0.0006799221155233,0.0882566422224044,0,0,0
13552,458474.8630201056,2010-09-26 23:09:34,3181.6192148300947,7,40,-1.1001102924346924,3.396052360534668,40.03722673875487,40.03760486475648,159.4707730873915,146.606872748299,-0.0009065627818927,0.0882566422224044,0,0,0
13553,458504.8783113404,2010-09-26 23:10:04,3211.634506034679,7,40,-1.099929690361023,3.354285717010498,40.03722673875487,40.04677564853599,159.4707730873915,146.63783740229687,-0.0012950897216796,0.0882566422224044,0,0,0
13554,458534.8937539428,2010-09-26 23:10:34,3241.6499486472003,7,40,-1.099929690361023,3.294064283370972,40.03722673875487,40.0559464593899,159.4707730873915,146.6683382150665,-0.0018455028766766,0.0882566422224044,0,0,0
13555,458564.9093040687,2010-09-26 23:11:04,3271.665498778104,7,40,-1.099568486213684,3.206484079360962,40.03722673875487,40.0651172997862,159.4707730873915,146.6981706932532,-0.0027520656585693,0.0882566422224044,0,0,0
13556,458594.9245824613,2010-09-26 23:11:34,3301.680777150657,7,40,-1.0997490882873535,3.0685575008392334,40.03722673875487,40.07428806102284,159.4707730873915,146.7269999338185,-0.0045975684188306,0.0882566422224044,0,0,0
13557,458615.861939661,2010-09-26 23:11:55,3322.618134350359,7,40,-1.099929690361023,2.868143081665039,40.03722673875487,40.08068513895953,159.4707730873915,146.74609287505797,-0.0112024787813425,0.0882566422224044,0,0,0
13558,458625.4087499382,2010-09-26 23:12:05,3332.164944632564,7,40,-1.1001102924346924,2.699781894683838,40.03722673875487,40.08360204479314,159.4707730873915,146.75422047151278,-0.0146992206573486,0.0882566422224044,0,0,0
13559,458685.43716570205,2010-09-26 23:13:05,60.01519994216332,8,40,0.0,3.3068532943725586,40.03722673875487,40.08360204479314,159.4707730873915,146.75422047151278,0.0014245987404137,0.0882566422224044,0,0,0
13560,458685.6382934847,2010-09-26 23:13:05,0.187504911105028,9,40,-1.9243103452026844e-05,3.307015180587769,40.03722673875487,40.08360204579541,159.4707730873915,146.75422047482732,0.0,0.0882566422224044,0,0,0
13561,458690.4665210084,2010-09-26 23:13:10,5.015732439820938,9,40,0.0005225847125984,3.3159189224243164,40.03722721903696,40.08360204588013,159.47077467814202,146.7542204751075,0.0012950897216796,0.0882566422224044,0,0,0
