Data_Point,Test_Time(s),Date_Time,Step_Time(s),Step_Index,Cycle_Index,Current(A),Voltage(V),Charge_Capacity(Ah),Discharge_Capacity(Ah),Charge_Energy(Wh),Discharge_Energy(Wh),dV/dt(V/s),Internal_Resistance(Ohm),Is_FC_Data,AC_Impedance(Ohm),ACI_Phase_Angle(Deg)
5023,170055.26548185162,2010-09-23 15:02:06,30.01538589594796,1,16,0.0,3.4441323280334477,14.85216284736526,14.860230885879208,59.213301114774886,54.26167043421707,0.0008418083307333,0.0906038731336593,0,0,0
5024,170085.28063469584,2010-09-23 15:02:36,60.0305387201129,1,16,0.0,3.470357894897461,14.85216284736526,14.860230885879208,59.213301114774886,54.26167043421707,0.0006151676061563,0.0906038731336593,0,0,0
5025,170115.29590917868,2010-09-23 15:03:06,90.04581321799414,1,16,0.0,3.489784240722656,14.85216284736526,14.860230885879208,59.213301114774886,54.26167043421707,0.0004856586456298,0.0906038731336593,0,0,0
5026,170145.26444003722,2010-09-23 15:03:36,120.01434408157286,1,16,0.0,3.5050015449523926,14.85216284736526,14.860230885879208,59.213301114774886,54.26167043421707,0.0003885269106831,0.0906038731336593,0,0,0
5027,170175.2777537742,2010-09-23 15:04:06,30.01535134470274,2,16,0.5501165986061096,3.643737554550171,14.856749420063151,14.860230885879208,59.22987700285278,54.26167043421707,0.0013598442310467,0.0906038731336593,0,0,0
5028,170205.29308943474,2010-09-23 15:04:36,60.03068679974243,2,16,0.5501165986061096,3.6829137802124015,14.861335970540994,14.860230885879208,59.246685118842656,54.26167043421707,0.0008741855854168,0.0906038731336593,0,0,0
5029,170235.3083527798,2010-09-23 15:05:06,90.04595013977197,2,16,0.5499359965324402,3.7105963230133057,14.865922481087331,14.860230885879208,59.26364341955638,54.26167043421707,0.0006151676061563,0.0906038731336593,0,0,0
5030,170265.32351593472,2010-09-23 15:05:36,120.06111329973665,2,16,0.5501165986061096,3.7321271896362314,14.870508982126012,14.860230885879208,59.28071328931991,54.26167043421707,0.0005827903514727,0.0906038731336593,0,0,0
5031,170295.33895117388,2010-09-23 15:06:06,150.07654853885273,2,16,0.5501165986061096,3.7486395835876474,14.875095505709192,14.860230885879208,59.29787009919831,54.26167043421707,0.0003561496851034,0.0906038731336593,0,0,0
5032,170325.35408165224,2010-09-23 15:06:36,180.0916790172392,2,16,0.5499359965324402,3.7607808113098153,14.879681974104129,14.860230885879208,59.31509350397338,54.26167043421707,0.0002266406954731,0.0906038731336593,0,0,0
5033,170355.36932974923,2010-09-23 15:07:06,210.1069271041947,2,16,0.550297200679779,3.768713235855103,14.884268519004271,14.860230885879208,59.33236232440479,54.26167043421707,0.0001942634553415,0.0906038731336593,0,0,0
5034,170385.38460956537,2010-09-23 15:07:36,240.1222069203512,2,16,0.5501165986061096,3.773246049880981,14.88885505903837,14.860230885879208,59.34965846810415,54.26167043421707,9.713172767078504e-05,0.0906038731336593,0,0,0
5035,170415.39989165723,2010-09-23 15:08:06,270.1374890372507,2,16,0.5501165986061096,3.777131319046021,14.893441589078552,14.860230885879208,59.366973654059805,54.26167043421707,9.713172767078504e-05,0.0906038731336593,0,0,0
5036,170445.41517657612,2010-09-23 15:08:36,300.1527739260693,2,16,0.5501165986061096,3.78069281578064,14.898028128625183,14.860230885879208,59.38430554448777,54.26167043421707,9.713172767078504e-05,0.0906038731336593,0,0,0
5037,170475.43044019185,2010-09-23 15:09:06,330.16803757186204,2,16,0.550297200679779,3.784092426300049,14.90261458755651,14.860230885879208,59.40165307860504,54.26167043421707,9.713172767078504e-05,0.0906038731336593,0,0,0
5038,170505.4457329553,2010-09-23 15:09:36,360.18333032029955,2,16,0.5501165986061096,3.787492036819458,14.907201021372488,14.860230885879208,59.419016400742734,54.26167043421707,9.713172767078504e-05,0.0906038731336593,0,0,0
5039,170535.4612479485,2010-09-23 15:10:06,390.19884530346906,2,16,0.5501165986061096,3.790891647338867,14.911787548730606,14.860230885879208,59.4363958530886,54.26167043421707,6.47544875391759e-05,0.0906038731336593,0,0,0
5040,170565.47626834712,2010-09-23 15:10:36,420.2138657020794,2,16,0.550297200679779,3.7944531440734863,14.916374024009444,14.860230885879208,59.453790601666284,54.26167043421707,0.0001295089750783,0.0906038731336593,0,0,0
5041,170595.49153716583,2010-09-23 15:11:06,450.2291345207846,2,16,0.5499359965324402,3.7976908683776855,14.920960522267425,14.860230885879208,59.47120085795064,54.26167043421707,6.47544875391759e-05,0.0906038731336593,0,0,0
5042,170625.50681440052,2010-09-23 15:11:36,480.2444117855725,2,16,0.5499359965324402,3.8009285926818848,14.925546965702091,14.860230885879208,59.488626051559,54.26167043421707,9.713172767078504e-05,0.0906038731336593,0,0,0
5043,170655.5221233845,2010-09-23 15:12:06,510.25972074447367,2,16,0.5499359965324402,3.804004430770874,14.930133528880704,14.860230885879208,59.50606666927917,54.26167043421707,6.47544875391759e-05,0.0906038731336593,0,0,0
5044,170685.537368494,2010-09-23 15:12:36,540.2749658539971,2,16,0.5501165986061096,3.807404041290283,14.934720053436063,14.860230885879208,59.52352192556133,54.26167043421707,9.713172767078504e-05,0.0906038731336593,0,0,0
5045,170715.55264341796,2010-09-23 15:13:06,570.2902407829544,2,16,0.5501165986061096,3.8106417655944815,14.939306566411036,14.860230885879208,59.54099179048623,54.26167043421707,9.713172767078504e-05,0.0906038731336593,0,0,0
5046,170745.56798527398,2010-09-23 15:13:36,600.3055826540094,2,16,0.5501165986061096,3.813717603683472,14.943893086981308,14.860230885879208,59.558476275902805,54.26167043421707,9.713172767078504e-05,0.0906038731336593,0,0,0
5047,170775.58320460917,2010-09-23 15:14:06,630.3208019641335,2,16,0.550297200679779,3.817117214202881,14.948479623232052,14.860230885879208,59.57597560012896,54.26167043421707,0.0001295089750783,0.0906038731336593,0,0,0
5048,170805.5984633828,2010-09-23 15:14:36,660.3360607377647,2,16,0.5501165986061096,3.82019305229187,14.953066849045427,14.860230885879208,59.59349195250578,54.26167043421707,9.713172767078504e-05,0.0906038731336593,0,0,0
5049,170835.61375300842,2010-09-23 15:15:06,690.3513503634072,2,16,0.550297200679779,3.8232688903808594,14.95765416138376,14.860230885879208,59.61102326459263,54.26167043421707,9.713172767078504e-05,0.0906038731336593,0,0,0
5050,170865.62903957645,2010-09-23 15:15:36,720.3666369314172,2,16,0.550297200679779,3.8265066146850586,14.96224066043568,14.860230885879208,59.628566269729305,54.26167043421707,6.47544875391759e-05,0.0906038731336593,0,0,0
5051,170895.64432578857,2010-09-23 15:16:07,750.3819231435391,2,16,0.5501165986061096,3.829744338989258,14.966827130196137,14.860230885879208,59.64612429367343,54.26167043421707,3.237724376958795e-05,0.0906038731336593,0,0,0
5052,170925.6597137246,2010-09-23 15:16:37,780.3973111096545,2,16,0.5499359965324402,3.833143949508667,14.971413576448615,14.860230885879208,59.66369757290215,54.26167043421707,9.713172767078504e-05,0.0906038731336593,0,0,0
5053,170955.6750057362,2010-09-23 15:17:07,810.4126030911776,2,16,0.5499359965324402,3.836381435394287,14.976000034730845,14.860230885879208,59.68128640493472,54.26167043421707,3.237724376958795e-05,0.0906038731336593,0,0,0
5054,170985.69013263064,2010-09-23 15:17:37,840.4277299856179,2,16,0.550297200679779,3.840266704559326,14.980586491247877,14.860230885879208,59.698890795349975,54.26167043421707,0.0001295089750783,0.0906038731336593,0,0,0
5055,171015.70542808084,2010-09-23 15:18:07,870.4430254357993,2,16,0.5501165986061096,3.843342542648315,14.98517296540151,14.860230885879208,59.71651074378931,54.26167043421707,6.47544875391759e-05,0.0906038731336593,0,0,0
5056,171045.7206920424,2010-09-23 15:18:37,900.4582893973804,2,16,0.5501165986061096,3.8467421531677246,14.989759395204274,14.860230885879208,59.7341457668148,54.26167043421707,9.713172767078504e-05,0.0906038731336593,0,0,0
5057,171075.73596551272,2010-09-23 15:19:07,930.4735628927592,2,16,0.5501165986061096,3.849979877471924,14.994345842464368,14.860230885879208,59.751795916151,54.26167043421707,0.0001295089750783,0.0906038731336593,0,0,0
5058,171105.75124638653,2010-09-23 15:19:37,960.4888437414932,2,16,0.5501165986061096,3.853217601776123,14.998932376706632,14.860230885879208,59.76946116830938,54.26167043421707,9.713172767078504e-05,0.0906038731336593,0,0,0
5059,171135.76652322023,2010-09-23 15:20:07,990.5041205752052,2,16,0.550297200679779,3.856293439865112,15.003518835062918,14.860230885879208,59.78714039129832,54.26167043421707,9.713172767078504e-05,0.0906038731336593,0,0,0
5060,171165.78271638625,2010-09-23 15:20:37,1020.5203137562607,2,16,0.550297200679779,3.8593692779541016,15.008105365280407,14.860230885879208,59.80483387497584,54.26167043421707,9.713172767078504e-05,0.0906038731336593,0,0,0
5061,171195.79707416083,2010-09-23 15:21:07,1050.5346715258472,2,16,0.5501165986061096,3.862121343612671,15.012691619699982,14.860230885879208,59.822539870763386,54.26167043421707,9.713172767078504e-05,0.0906038731336593,0,0,0
5062,171225.8123778516,2010-09-23 15:21:37,1080.5499752165983,2,16,0.550297200679779,3.86487340927124,15.01727800262864,14.860230885879208,59.84025942501749,54.26167043421707,6.47544875391759e-05,0.0906038731336593,0,0,0
5063,171255.8277744242,2010-09-23 15:22:07,1110.5653717791718,2,16,0.550297200679779,3.86778736114502,15.021864490355458,14.860230885879208,59.85799198928057,54.26167043421707,9.713172767078504e-05,0.0906038731336593,0,0,0
5064,171285.84292084238,2010-09-23 15:22:37,1140.5805182073714,2,16,0.5501165986061096,3.870053768157959,15.026450984779869,14.860230885879208,59.87573664512399,54.26167043421707,6.47544875391759e-05,0.0906038731336593,0,0,0
5065,171315.85817370628,2010-09-23 15:23:07,1170.5957710662385,2,16,0.5501165986061096,3.8726439476013184,15.031037425354308,14.860230885879208,59.893492525280095,54.26167043421707,6.47544875391759e-05,0.0906038731336593,0,0,0
5066,171345.87344328186,2010-09-23 15:23:37,1200.6110406368205,2,16,0.5501165986061096,3.874748468399048,15.035623952643569,14.860230885879208,59.91125954153809,54.26167043421707,3.237724376958795e-05,0.0906038731336593,0,0,0
5067,171375.88882923793,2010-09-23 15:24:07,1230.6264267282563,2,16,0.5499359965324402,3.876852989196777,15.040210470197117,14.860230885879208,59.92903666679728,54.26167043421707,0.0,0.0906038731336593,0,0,0
5068,171405.90412065806,2010-09-23 15:24:37,1260.6417180130402,2,16,0.5501165986061096,3.879119396209717,15.044796982086668,14.860230885879208,59.94682333703948,54.26167043421707,9.713172767078504e-05,0.0906038731336593,0,0,0
5069,171435.91944978232,2010-09-23 15:25:07,1290.6570471623395,2,16,0.5501165986061096,3.881062030792236,15.049383471889463,14.860230885879208,59.96461873677994,54.26167043421707,9.713172767078504e-05,0.0906038731336593,0,0,0
5070,171465.93453293756,2010-09-23 15:25:37,1320.6721303226132,2,16,0.5499359965324402,3.882519006729126,15.053969900334405,14.860230885879208,59.98242217841872,54.26167043421707,3.237724376958795e-05,0.0906038731336593,0,0,0
5071,171495.9501565469,2010-09-23 15:26:07,1350.687753901855,2,16,0.5499359965324402,3.8841378688812256,15.058556349378692,14.860230885879208,60.00023344409262,54.26167043421707,3.237724376958795e-05,0.0906038731336593,0,0,0
5072,171525.9650924997,2010-09-23 15:26:37,1380.7026898747256,2,16,0.5501165986061096,3.885756731033325,15.06314277845904,14.860230885879208,60.01805173111601,54.26167043421707,3.237724376958795e-05,0.0906038731336593,0,0,0
5073,171555.980363559,2010-09-23 15:27:07,1410.7179609239988,2,16,0.550297200679779,3.887213706970215,15.06772926572778,14.860230885879208,60.03587704108599,54.26167043421707,6.47544875391759e-05,0.0906038731336593,0,0,0
5074,171585.9956730292,2010-09-23 15:27:37,1440.733270409214,2,16,0.5501165986061096,3.8885087966918954,15.072315762028088,14.860230885879208,60.05370882469021,54.26167043421707,3.237724376958795e-05,0.0906038731336593,0,0,0
5075,171616.0109340334,2010-09-23 15:28:07,1470.7485314184253,2,16,0.550297200679779,3.889965772628784,15.0769023198142,14.860230885879208,60.07154700904579,54.26167043421707,3.237724376958795e-05,0.0906038731336593,0,0,0
5076,171646.0262044661,2010-09-23 15:28:37,1500.763801821084,2,16,0.550297200679779,3.891260862350464,15.08148888391883,14.860230885879208,60.08939096115585,54.26167043421707,6.47544875391759e-05,0.0906038731336593,0,0,0
5077,171676.04146788636,2010-09-23 15:29:07,1530.779065241314,2,16,0.5499359965324402,3.892232179641724,15.086075485506884,14.860230885879208,60.10724071102359,54.26167043421707,0.0,0.0906038731336593,0,0,0
5078,171706.05673862484,2010-09-23 15:29:37,1560.7943359798112,2,16,0.5499359965324402,3.8935272693634033,15.090662084856914,14.860230885879208,60.12509593668705,54.26167043421707,3.237724376958795e-05,0.0906038731336593,0,0,0
5079,171736.07216136777,2010-09-23 15:30:07,1590.8097587327595,2,16,0.5501165986061096,3.894660472869873,15.095248734955003,14.860230885879208,60.14295679204798,54.26167043421707,3.237724376958795e-05,0.0906038731336593,0,0,0
5080,171766.08728860307,2010-09-23 15:30:37,1620.824885958026,2,16,0.5501165986061096,3.895631790161133,15.099835274681954,14.860230885879208,60.16082200713168,54.26167043421707,3.237724376958795e-05,0.0906038731336593,0,0,0
5081,171796.1025849605,2010-09-23 15:31:07,1650.840182335522,2,16,0.5501165986061096,3.896926879882813,15.104421805764623,14.860230885879208,60.17869269468286,54.26167043421707,6.47544875391759e-05,0.0906038731336593,0,0,0
5082,171826.11786175412,2010-09-23 15:31:37,1680.8554591090838,2,16,0.550297200679779,3.898060083389282,15.109008325217133,14.860230885879208,60.19656863286551,54.26167043421707,3.237724376958795e-05,0.0906038731336593,0,0,0
5083,171856.1331302069,2010-09-23 15:32:07,1710.8707275769132,2,16,0.5499359965324402,3.899193286895752,15.113594821944792,14.860230885879208,60.21444980322945,54.26167043421707,0.0,0.0906038731336593,0,0,0
5084,171886.14852403765,2010-09-23 15:32:37,1740.8861214076676,2,16,0.5501165986061096,3.9003264904022217,15.118181406733337,14.860230885879208,60.23233666941809,54.26167043421707,0.0,0.0906038731336593,0,0,0
5085,171916.16379139273,2010-09-23 15:33:07,1770.9013887727442,2,16,0.5499359965324402,3.901621580123901,15.122767088751363,14.860230885879208,60.25022513384923,54.26167043421707,6.47544875391759e-05,0.0906038731336593,0,0,0
5086,171946.17898698364,2010-09-23 15:33:37,1800.9165843586493,2,16,0.5499359965324402,3.902592897415161,15.127352572988563,14.860230885879208,60.26811813378897,54.26167043421707,0.0,0.0906038731336593,0,0,0
5087,171976.19466347495,2010-09-23 15:34:07,1830.9322609351807,2,16,0.550297200679779,3.9042117595672607,15.131938961517186,14.860230885879208,60.28602015063299,54.26167043421707,9.713172767078504e-05,0.0906038731336593,0,0,0
5088,172006.20954822496,2010-09-23 15:34:37,1860.9471455899536,2,16,0.550297200679779,3.905021190643311,15.136525346580028,14.860230885879208,60.30392769512608,54.26167043421707,0.0,0.0906038731336593,0,0,0
5089,172036.22479400117,2010-09-23 15:35:07,1890.962391356116,2,16,0.550297200679779,3.9063162803649902,15.14111185984524,14.860230885879208,60.32184113066258,54.26167043421707,3.237724376958795e-05,0.0906038731336593,0,0,0
5090,172066.24006753662,2010-09-23 15:35:37,1920.9776649166577,2,16,0.5501165986061096,3.90761137008667,15.145698311933094,14.860230885879208,60.33975998477934,54.26167043421707,6.47544875391759e-05,0.0906038731336593,0,0,0
5091,172096.2553592124,2010-09-23 15:36:07,1950.992956567355,2,16,0.5501165986061096,3.90874457359314,15.1502847749091,14.860230885879208,60.35768446119005,54.26167043421707,3.237724376958795e-05,0.0906038731336593,0,0,0
5092,172126.27062044214,2010-09-23 15:36:37,1981.008217797117,2,16,0.5499359965324402,3.910201549530029,15.15487130583309,14.860230885879208,60.37561498567051,54.26167043421707,3.237724376958795e-05,0.0906038731336593,0,0,0
5093,172156.2860240423,2010-09-23 15:37:07,2011.0236214022696,2,16,0.5501165986061096,3.911334753036499,15.15945780949146,14.860230885879208,60.39355104722583,54.26167043421707,3.237724376958795e-05,0.0906038731336593,0,0,0
5094,172186.30140460492,2010-09-23 15:37:37,2041.0390019699173,2,16,0.5501165986061096,3.9124679565429688,15.164044317819458,14.860230885879208,60.41149300002999,54.26167043421707,0.0,0.0906038731336593,0,0,0
5095,172216.31672085702,2010-09-23 15:38:07,2071.0543182220235,2,16,0.5501165986061096,3.9139246940612793,15.16863086786134,14.860230885879208,60.42944094917552,54.26167043421707,6.470680091297254e-05,0.0906038731336593,0,0,0
5096,172246.33173091983,2010-09-23 15:38:37,2101.0693282848342,2,16,0.5501165986061096,3.915219783782959,15.17321737864652,14.860230885879208,60.44739470432963,54.26167043421707,3.237724376958795e-05,0.0906038731336593,0,0,0
5097,172276.34701632996,2010-09-23 15:39:07,2131.084613709991,2,16,0.5501165986061096,3.916514873504639,15.177803959066958,14.860230885879208,60.46535456306174,54.26167043421707,6.47544875391759e-05,0.0906038731336593,0,0,0
5098,172306.3622709833,2010-09-23 15:39:37,2161.099868338275,2,16,0.5501165986061096,3.917648077011109,15.182390424257257,14.860230885879208,60.48332004747708,54.26167043421707,0.0,0.0906038731336593,0,0,0
5099,172336.37756615778,2010-09-23 15:40:07,2191.115163542843,2,16,0.5501165986061096,3.919105052947998,15.186976885005071,14.860230885879208,60.50129158817301,54.26167043421707,3.237724376958795e-05,0.0906038731336593,0,0,0
5100,172366.3928290517,2010-09-23 15:40:37,2221.1304264066844,2,16,0.5499359965324402,3.920238256454468,15.191563320425752,14.860230885879208,60.51926923194252,54.26167043421707,-3.237724376958795e-05,0.0906038731336593,0,0,0
5101,172396.40810330902,2010-09-23 15:41:07,2251.1457006639653,2,16,0.5501165986061096,3.921857118606568,15.196149711746967,14.860230885879208,60.53725283152311,54.26167043421707,3.237724376958795e-05,0.0906038731336593,0,0,0
5102,172426.4234208042,2010-09-23 15:41:37,2281.1610181842366,2,16,0.5499359965324402,3.923152208328247,15.200736144677332,14.860230885879208,60.5552428891954,54.26167043421707,3.237724376958795e-05,0.0906038731336593,0,0,0
5103,172456.4388753766,2010-09-23 15:42:07,2311.176472731549,2,16,0.5501165986061096,3.924447298049927,15.205322620623113,14.860230885879208,60.57323942477857,54.26167043421707,3.237724376958795e-05,0.0906038731336593,0,0,0
5104,172486.4539421259,2010-09-23 15:42:37,2341.1915395059204,2,16,0.5501165986061096,3.9260661602020255,15.209909100872034,14.860230885879208,60.59124245758974,54.26167043421707,3.237724376958795e-05,0.0906038731336593,0,0,0
5105,172516.46920205743,2010-09-23 15:43:07,2371.2067994123795,2,16,0.5501165986061096,3.927361249923706,15.2144956193452,14.860230885879208,60.60925196773049,54.26167043421707,6.47544875391759e-05,0.0906038731336593,0,0,0
5106,172546.48447621445,2010-09-23 15:43:37,2401.22207356941,2,16,0.5501165986061096,3.928818225860596,15.219082099638388,14.860230885879208,60.627267928384605,54.26167043421707,6.47544875391759e-05,0.0906038731336593,0,0,0
5107,172576.49976582002,2010-09-23 15:44:07,2431.2373631750024,2,16,0.5499359965324402,3.9301133155822754,15.223668611214228,14.860230885879208,60.64529061545324,54.26167043421707,3.237724376958795e-05,0.0906038731336593,0,0,0
5108,172606.5150266939,2010-09-23 15:44:37,2461.2526240488755,2,16,0.5499359965324402,3.931570291519165,15.22825518092133,14.860230885879208,60.66332018903498,54.26167043421707,3.237724376958795e-05,0.0906038731336593,0,0,0
5109,172636.53032386838,2010-09-23 15:45:07,2491.2679212534363,2,16,0.5501165986061096,3.9331891536712646,15.232841756487511,14.860230885879208,60.681356519720325,54.26167043421707,3.237724376958795e-05,0.0906038731336593,0,0,0
5110,172666.545575023,2010-09-23 15:45:37,2521.283172377974,2,16,0.5501165986061096,3.934808015823364,15.237428343847109,14.860230885879208,60.69939965241862,54.26167043421707,9.713172767078504e-05,0.0906038731336593,0,0,0
5111,172696.5610015604,2010-09-23 15:46:07,2551.298599030657,2,16,0.5499359965324402,3.936103105545044,15.242014897722225,14.860230885879208,60.71744949983092,54.26167043421707,3.237724376958795e-05,0.0906038731336593,0,0,0
5112,172726.57615401363,2010-09-23 15:46:37,2581.3137513986835,2,16,0.550297200679779,3.9375600814819336,15.24660145619475,14.860230885879208,60.73550603509601,54.26167043421707,6.47544875391759e-05,0.0906038731336593,0,0,0
5113,172756.59140797026,2010-09-23 15:47:07,2611.329005420453,2,16,0.5499359965324402,3.939178943634033,15.251187913537684,14.860230885879208,60.75356918457651,54.26167043421707,3.237724376958795e-05,0.0906038731336593,0,0,0
5114,172786.60667789672,2010-09-23 15:47:37,2641.344275251686,2,16,0.5501165986061096,3.940635919570923,15.2557744370141,14.860230885879208,60.77163960586775,54.26167043421707,3.237724376958795e-05,0.0906038731336593,0,0,0
5115,172816.62196267024,2010-09-23 15:48:08,2671.359560025217,2,16,0.550297200679779,3.942092895507813,15.260360995460037,14.860230885879208,60.78971720928224,54.26167043421707,0.0,0.0906038731336593,0,0,0
5116,172846.63724806032,2010-09-23 15:48:38,2701.374845505512,2,16,0.5501165986061096,3.943873643875122,15.264947469670185,14.860230885879208,60.807801596568176,54.26167043421707,3.237724376958795e-05,0.0906038731336593,0,0,0
5117,172876.65250450314,2010-09-23 15:49:08,2731.3901018881747,2,16,0.5501165986061096,3.945330619812012,15.269533972674289,14.860230885879208,60.82589323007419,54.26167043421707,3.237724376958795e-05,0.0906038731336593,0,0,0
5118,172906.66777301105,2010-09-23 15:49:38,2761.405370366029,2,16,0.5501165986061096,3.9469494819641113,15.274120503952362,14.860230885879208,60.84399223884495,54.26167043421707,6.47544875391759e-05,0.0906038731336593,0,0,0
5119,172936.68318850087,2010-09-23 15:50:08,2791.420785855848,2,16,0.550297200679779,3.948568344116211,15.27870701444882,14.860230885879208,60.862098331769865,54.26167043421707,6.47544875391759e-05,0.0906038731336593,0,0,0
5120,172966.698324874,2010-09-23 15:50:38,2821.435922228948,2,16,0.5501165986061096,3.9500253200531006,15.283293529371775,14.860230885879208,60.88021179927657,54.26167043421707,3.237724376958795e-05,0.0906038731336593,0,0,0
5121,172996.7135985498,2010-09-23 15:51:08,2851.45119592984,2,16,0.5501165986061096,3.95180606842041,15.287880061769163,14.860230885879208,60.89833277626271,54.26167043421707,9.713172767078504e-05,0.0906038731336593,0,0,0
5122,173026.72900422514,2010-09-23 15:51:38,2881.466601590123,2,16,0.5501165986061096,3.9532630443573,15.292466660704156,14.860230885879208,60.91646144894858,54.26167043421707,3.237724376958795e-05,0.0906038731336593,0,0,0
5123,173056.7441722723,2010-09-23 15:52:08,2911.4817696423,2,16,0.5501165986061096,3.9552056789398193,15.297053218348266,14.860230885879208,60.93459755647319,54.26167043421707,9.713172767078504e-05,0.0906038731336593,0,0,0
5124,173086.75959138112,2010-09-23 15:52:38,2941.497188741127,2,16,0.550297200679779,3.956824541091919,15.301639769296983,14.860230885879208,60.952741239847136,54.26167043421707,9.713172767078504e-05,0.0906038731336593,0,0,0
5125,173116.774744085,2010-09-23 15:53:08,2971.5123414650416,2,16,0.550297200679779,3.9584434032440186,15.306226274999355,14.860230885879208,60.97089227294111,54.26167043421707,6.47544875391759e-05,0.0906038731336593,0,0,0
5126,173146.7899792046,2010-09-23 15:53:38,3001.527576559566,2,16,0.550297200679779,3.960224151611328,15.310812913748927,14.860230885879208,60.98905161577565,54.26167043421707,3.237724376958795e-05,0.0906038731336593,0,0,0
5127,173176.8054025741,2010-09-23 15:54:08,3031.5429999290536,2,16,0.5501165986061096,3.9616811275482178,15.31539947315578,14.860230885879208,61.00721843702874,54.26167043421707,0.0,0.0906038731336593,0,0,0
5128,173206.82053861636,2010-09-23 15:54:38,3061.5581359713283,2,16,0.5501165986061096,3.9634618759155273,15.319985994581172,14.860230885879208,61.02539289131827,54.26167043421707,3.237724376958795e-05,0.0906038731336593,0,0,0
5129,173236.83581841245,2010-09-23 15:55:08,3091.573415767435,2,16,0.5501165986061096,3.965242624282837,15.324572554431674,14.860230885879208,61.043575486433575,54.26167043421707,9.713172767078504e-05,0.0906038731336593,0,0,0
5130,173266.85112262954,2010-09-23 15:55:38,3121.5887200095626,2,16,0.5499359965324402,3.966861486434937,15.329159177597566,14.860230885879208,61.06176641125279,54.26167043421707,6.47544875391759e-05,0.0906038731336593,0,0,0
5131,173296.8663639897,2010-09-23 15:56:08,3151.603961344664,2,16,0.550297200679779,3.968804121017456,15.333745758244886,14.860230885879208,61.07996518120006,54.26167043421707,6.47544875391759e-05,0.0906038731336593,0,0,0
5132,173326.8816697356,2010-09-23 15:56:38,3181.619267090545,2,16,0.550297200679779,3.9705848693847656,15.338332369117111,14.860230885879208,61.09817226102322,54.26167043421707,3.237724376958795e-05,0.0906038731336593,0,0,0
5133,173356.89691004812,2010-09-23 15:57:08,3211.6345074331693,2,16,0.5501165986061096,3.972365617752075,15.342918917976537,14.860230885879208,61.11638729742848,54.26167043421707,6.47544875391759e-05,0.0906038731336593,0,0,0
5134,173386.91217844578,2010-09-23 15:57:38,3241.6497758258115,2,16,0.5499359965324402,3.973984479904175,15.347505536875987,14.860230885879208,61.13461088833832,54.26167043421707,-3.237724376958795e-05,0.0906038731336593,0,0,0
5135,173416.9276591985,2010-09-23 15:58:08,3271.6652565534737,2,16,0.5501165986061096,3.9759271144866943,15.35209223383656,14.860230885879208,61.15284323181794,54.26167043421707,6.47544875391759e-05,0.0906038731336593,0,0,0
5136,173446.94286104004,2010-09-23 15:58:38,3301.6804584200563,2,16,0.5501165986061096,3.977707862854004,15.356678811592234,14.860230885879208,61.17108363160551,54.26167043421707,3.237724376958795e-05,0.0906038731336593,0,0,0
5137,173476.95803143806,2010-09-23 15:59:08,3331.695628813076,2,16,0.5499359965324402,3.979650497436523,15.361265316825042,14.860230885879208,61.1893319974995,54.26167043421707,3.237724376958795e-05,0.0906038731336593,0,0,0
5138,173506.9732839711,2010-09-23 15:59:38,3361.7108813561545,2,16,0.5501165986061096,3.981593132019043,15.36585186898276,14.860230885879208,61.207589667252506,54.26167043421707,3.237724376958795e-05,0.0906038731336593,0,0,0
5139,173536.98856401784,2010-09-23 16:00:08,3391.7261613728115,2,16,0.5501165986061096,3.983697652816773,15.370438372038867,14.860230885879208,61.2258558952736,54.26167043421707,9.713172767078504e-05,0.0906038731336593,0,0,0
5140,173567.0038387012,2010-09-23 16:00:38,3421.741436056156,2,16,0.5501165986061096,3.985478401184082,15.37502481518443,14.860230885879208,61.24413077761324,54.26167043421707,3.237724376958795e-05,0.0906038731336593,0,0,0
5141,173597.01910643216,2010-09-23 16:01:08,3451.756703812208,2,16,0.5501165986061096,3.9874210357666016,15.37961123613473,14.860230885879208,61.26241459625474,54.26167043421707,3.237724376958795e-05,0.0906038731336593,0,0,0
5142,173627.03451476913,2010-09-23 16:01:38,3481.7721121241098,2,16,0.5501165986061096,3.989363670349121,15.384197709388111,14.860230885879208,61.280707626830434,54.26167043421707,3.237724376958795e-05,0.0906038731336593,0,0,0
5143,173657.04967141285,2010-09-23 16:02:08,3511.7872687728213,2,16,0.5499359965324402,3.9913063049316406,15.388784165939436,14.860230885879208,61.299009851092926,54.26167043421707,3.237724376958795e-05,0.0906038731336593,0,0,0
5144,173687.06495021647,2010-09-23 16:02:38,3541.8025475965005,2,16,0.5499359965324402,3.99357271194458,15.393370713646762,14.860230885879208,61.31732180294636,54.26167043421707,3.237724376958795e-05,0.0906038731336593,0,0,0
5145,173717.08022607776,2010-09-23 16:03:08,3571.817823442748,2,16,0.5501165986061096,3.995515108108521,15.397957212908707,14.860230885879208,61.335642986244416,54.26167043421707,3.237724376958795e-05,0.0906038731336593,0,0,0
5146,173747.08083085273,2010-09-23 16:03:38,3601.8184283079686,2,16,0.550297200679779,3.99794340133667,15.40254148043634,14.860230885879208,61.3539647599834,54.26167043421707,0.0001295089750783,0.0906038731336593,0,0,0
5147,173777.09516115376,2010-09-23 16:04:08,3631.832758598964,2,16,0.5497553944587708,3.99972414970398,15.407127782445396,14.860230885879208,61.37230413075238,54.26167043421707,6.47544875391759e-05,0.0906038731336593,0,0,0
5148,173807.11043528575,2010-09-23 16:04:38,3661.848032640707,2,16,0.550297200679779,4.001990795135498,15.411714218152428,14.860230885879208,61.39065375834017,54.26167043421707,6.47544875391759e-05,0.0906038731336593,0,0,0
5149,173837.12573331737,2010-09-23 16:05:08,3691.86333070742,2,16,0.5501165986061096,4.004095077514648,15.416300665260636,14.860230885879208,61.40901321860446,54.26167043421707,3.23295607813634e-05,0.0906038731336593,0,0,0
5150,173867.14097772515,2010-09-23 16:05:38,3721.8785751803534,2,16,0.550297200679779,4.006199836730957,15.420887067315816,14.860230885879208,61.42738241615789,54.26167043421707,3.24249267578125e-05,0.0906038731336593,0,0,0
5151,173897.15625083956,2010-09-23 16:06:08,3751.893848309819,2,16,0.5501165986061096,4.008304119110107,15.425473600126937,14.860230885879208,61.44576218771312,54.26167043421707,0.0,0.0906038731336593,0,0,0
5152,173927.1720476863,2010-09-23 16:06:38,3781.9096450513007,2,16,0.5501165986061096,4.010570526123047,15.430060207775076,14.860230885879208,61.46415219066769,54.26167043421707,6.47544875391759e-05,0.0906038731336593,0,0,0
5153,173957.18678789554,2010-09-23 16:07:08,3811.9243852504906,2,16,0.5501165986061096,4.012675285339356,15.434646581781292,14.860230885879208,61.48255140469024,54.26167043421707,3.24249267578125e-05,0.0906038731336593,0,0,0
5154,173987.20205498993,2010-09-23 16:07:38,3841.939652369954,2,16,0.550297200679779,4.015103340148926,15.439233069511856,14.860230885879208,61.50096134587726,54.26167043421707,3.23295607813634e-05,0.0906038731336593,0,0,0
5155,174017.21732990383,2010-09-23 16:08:08,3871.954927268837,2,16,0.5501165986061096,4.017369747161865,15.44381957861602,14.860230885879208,61.51938172265091,54.26167043421707,6.47544875391759e-05,0.0906038731336593,0,0,0
5156,174047.23263137907,2010-09-23 16:08:38,3901.970228764107,2,16,0.550297200679779,4.019636154174805,15.448406124195165,14.860230885879208,61.53781259122386,54.26167043421707,6.47544875391759e-05,0.0906038731336593,0,0,0
5157,174077.24788367652,2010-09-23 16:09:08,3931.985481046536,2,16,0.5499359965324402,4.021740913391113,15.4529925434527,14.860230885879208,61.55625344100172,54.26167043421707,0.0,0.0906038731336593,0,0,0
5158,174107.26327842457,2010-09-23 16:09:38,3962.000875779542,2,16,0.5501165986061096,4.024168968200684,15.457578981229464,14.860230885879208,61.57470496209066,54.26167043421707,6.47544875391759e-05,0.0906038731336593,0,0,0
5159,174137.27843931387,2010-09-23 16:10:08,3992.016036688889,2,16,0.550297200679779,4.026597499847412,15.46216544152251,14.860230885879208,61.59316715101912,54.26167043421707,6.47544875391759e-05,0.0906038731336593,0,0,0
5160,174167.29384617717,2010-09-23 16:10:38,4022.0314435571872,2,16,0.5501165986061096,4.028863906860352,15.466751899036856,14.860230885879208,61.61164009236978,54.26167043421707,6.47544875391759e-05,0.0906038731336593,0,0,0
5161,174197.30910277035,2010-09-23 16:11:08,4052.0467001353377,2,16,0.5497553944587708,4.031130313873291,15.471338387169792,14.860230885879208,61.63012388168404,54.26167043421707,3.24249267578125e-05,0.0906038731336593,0,0,0
5162,174227.3243723309,2010-09-23 16:11:38,4082.06196968587,2,16,0.550297200679779,4.03372049331665,15.47592483200624,14.860230885879208,61.64861839941555,54.26167043421707,9.71794142969884e-05,0.0906038731336593,0,0,0
5163,174257.33963710952,2010-09-23 16:12:08,4112.077234489553,2,16,0.5501165986061096,4.035986423492432,15.48051130713298,14.860230885879208,61.66712403239048,54.26167043421707,6.47544875391759e-05,0.0906038731336593,0,0,0
5164,174287.35481523184,2010-09-23 16:12:38,4142.092412606853,2,16,0.550297200679779,4.038576602935791,15.485097750888931,14.860230885879208,61.68564058501324,54.26167043421707,9.70840483205393e-05,0.0906038731336593,0,0,0
5165,174317.37006835637,2010-09-23 16:13:08,4172.107665741408,2,16,0.5501165986061096,4.04100513458252,15.489684282905552,14.860230885879208,61.704168609559765,54.26167043421707,6.47544875391759e-05,0.0906038731336593,0,0,0
5166,174347.38547029236,2010-09-23 16:13:38,4202.12306764732,2,16,0.5499359965324402,4.043271541595459,15.49427073334726,14.860230885879208,61.72270754360864,54.26167043421707,3.24249267578125e-05,0.0906038731336593,0,0,0
5167,174377.4006458633,2010-09-23 16:14:08,4232.138243223277,2,16,0.550297200679779,4.045861721038818,15.498857197014935,14.860230885879208,61.7412578874733,54.26167043421707,6.47544875391759e-05,0.0906038731336593,0,0,0
5168,174407.4161252326,2010-09-23 16:14:38,4262.153722587536,2,16,0.5501165986061096,4.048451900482178,15.503443750990998,14.860230885879208,61.75982003992418,54.26167043421707,9.71794142969884e-05,0.0906038731336593,0,0,0
5169,174437.431187225,2010-09-23 16:15:08,4292.168784584983,2,16,0.5501165986061096,4.050879955291748,15.508030285940812,14.860230885879208,61.778393711291926,54.26167043421707,9.70840483205393e-05,0.0906038731336593,0,0,0
5170,174467.4464893017,2010-09-23 16:15:38,4322.184086686769,2,16,0.550297200679779,4.053308486938477,15.512616808947858,14.860230885879208,61.79697897297628,54.26167043421707,6.47544875391759e-05,0.0906038731336593,0,0,0
5171,174497.46173408543,2010-09-23 16:16:08,4352.199331440404,2,16,0.550297200679779,4.056060314178467,15.517203350274311,14.860230885879208,61.815576141870366,54.26167043421707,9.70840483205393e-05,0.0906038731336593,0,0,0
5172,174527.4774894336,2010-09-23 16:16:38,4382.215086798586,2,16,0.5501165986061096,4.058650493621826,15.521789922211395,14.860230885879208,61.83418534692528,54.26167043421707,3.23295607813634e-05,0.0906038731336593,0,0,0
5173,174557.49227950227,2010-09-23 16:17:08,4412.229876867257,2,16,0.5501165986061096,4.061079025268555,15.526376401004782,14.860230885879208,61.85280607365144,54.26167043421707,6.47544875391759e-05,0.0906038731336593,0,0,0
5174,174587.50755029588,2010-09-23 16:17:38,4442.245147655879,2,16,0.5501165986061096,4.063830852508545,15.530962867491022,14.860230885879208,61.87143870075453,54.26167043421707,6.47544875391759e-05,0.0906038731336593,0,0,0
5175,174617.52282954563,2010-09-23 16:18:08,4472.26042690061,2,16,0.5499359965324402,4.066583156585693,15.535549372710244,14.860230885879208,61.89008372012408,54.26167043421707,9.71794142969884e-05,0.0906038731336593,0,0,0
5176,174647.53812600835,2010-09-23 16:18:38,4502.275723368331,2,16,0.5501165986061096,4.069334983825684,15.540135902630867,14.860230885879208,61.90874119518071,54.26167043421707,9.70840483205393e-05,0.0906038731336593,0,0,0
5177,174677.55341493225,2010-09-23 16:19:08,4532.291012307259,2,16,0.5501165986061096,4.071925163269043,15.544722366728674,14.860230885879208,61.92741086927664,54.26167043421707,6.47544875391759e-05,0.0906038731336593,0,0,0
5178,174707.56866011192,2010-09-23 16:19:38,4562.306257466908,2,16,0.5501165986061096,4.074839115142822,15.54930886807645,14.860230885879208,61.9460933432093,54.26167043421707,9.70840483205393e-05,0.0906038731336593,0,0,0
5179,174737.583924269,2010-09-23 16:20:08,4592.321521623977,2,16,0.5501165986061096,4.077753067016602,15.553895387947293,14.860230885879208,61.96478866163444,54.26167043421707,9.70840483205393e-05,0.0906038731336593,0,0,0
5180,174767.59921213525,2010-09-23 16:20:39,4622.336809490227,2,16,0.550297200679779,4.080343246459961,15.558481905585028,14.860230885879208,61.98349686445536,54.26167043421707,6.47544875391759e-05,0.0906038731336593,0,0,0
5181,174797.61448942008,2010-09-23 16:21:09,4652.352086800128,2,16,0.5501165986061096,4.08325719833374,15.563068518305071,14.860230885879208,62.00221835026432,54.26167043421707,9.70840483205393e-05,0.0906038731336593,0,0,0
5182,174827.6297797074,2010-09-23 16:21:39,4682.36737706236,2,16,0.550297200679779,4.08617115020752,15.56765503223869,14.860230885879208,62.02095249298428,54.26167043421707,9.70840483205393e-05,0.0906038731336593,0,0,0
5183,174857.6450275437,2010-09-23 16:22:09,4712.382624923752,2,16,0.5501165986061096,4.088923454284668,15.57224155220114,14.860230885879208,62.03969980523668,54.26167043421707,6.47544875391759e-05,0.0906038731336593,0,0,0
5184,174887.66035485844,2010-09-23 16:22:39,4742.3979522384725,2,16,0.5499359965324402,4.091675281524658,15.576828056177964,14.860230885879208,62.05846036757936,54.26167043421707,3.23295607813634e-05,0.0906038731336593,0,0,0
5185,174917.67559707575,2010-09-23 16:23:09,4772.413194430714,2,16,0.550297200679779,4.094751358032227,15.581414570115871,14.860230885879208,62.0772343010721,54.26167043421707,9.71794142969884e-05,0.0906038731336593,0,0,0
5186,174947.69083074172,2010-09-23 16:23:39,4802.428428116722,2,16,0.5501165986061096,4.097665309906006,15.586001044347528,14.860230885879208,62.096021624623305,54.26167043421707,9.71794142969884e-05,0.0906038731336593,0,0,0
5187,174977.7061064877,2010-09-23 16:24:09,4832.443703842669,2,16,0.5499359965324402,4.100740909576416,15.590587527937366,14.860230885879208,62.11482261564414,54.26167043421707,9.70840483205393e-05,0.0906038731336593,0,0,0
5188,175007.72143230366,2010-09-23 16:24:39,4862.459029668673,2,16,0.5499359965324402,4.103654861450195,15.595174087841778,14.860230885879208,62.133637679477744,54.26167043421707,6.47544875391759e-05,0.0906038731336593,0,0,0
5189,175037.7367320596,2010-09-23 16:25:09,4892.474329424602,2,16,0.5501165986061096,4.106730937957764,15.599760610998356,14.860230885879208,62.15246656568536,54.26167043421707,6.47544875391759e-05,0.0906038731336593,0,0,0
5190,175067.75197877816,2010-09-23 16:25:39,4922.489576148154,2,16,0.5501165986061096,4.109806537628174,15.604347108699072,14.860230885879208,62.17130934797501,54.26167043421707,6.47544875391759e-05,0.0906038731336593,0,0,0
5191,175097.76728681976,2010-09-23 16:26:09,4952.504884209817,2,16,0.5501165986061096,4.112882614135742,15.608933665884852,14.860230885879208,62.1901665165307,54.26167043421707,6.47544875391759e-05,0.0906038731336593,0,0,0
5192,175127.78266871572,2010-09-23 16:26:39,4982.520266070692,2,16,0.550297200679779,4.116281986236572,15.61352018792596,14.860230885879208,62.20903778565496,54.26167043421707,0.0001295089750783,0.0906038731336593,0,0,0
5193,175157.79792710842,2010-09-23 16:27:09,5012.535524483422,2,16,0.5501165986061096,4.119195938110352,15.618106682311762,14.860230885879208,62.22792332232701,54.26167043421707,9.71794142969884e-05,0.0906038731336593,0,0,0
5194,175187.81307005291,2010-09-23 16:27:39,5042.550667437951,2,16,0.5501165986061096,4.122595310211182,15.622693218963304,14.860230885879208,62.2468236615358,54.26167043421707,9.70840483205393e-05,0.0906038731336593,0,0,0
5195,175217.8283438591,2010-09-23 16:28:09,5072.5659412190425,2,16,0.5501165986061096,4.125509262084961,15.627279686745824,14.860230885879208,62.26573827665701,54.26167043421707,6.47544875391759e-05,0.0906038731336593,0,0,0
5196,175247.8436322717,2010-09-23 16:28:39,5102.581229651707,2,16,0.5499359965324402,4.128909111022949,15.631866155105884,14.860230885879208,62.28466781859176,54.26167043421707,6.47544875391759e-05,0.0906038731336593,0,0,0
5197,175277.858885717,2010-09-23 16:29:09,5132.596483097038,2,16,0.5501165986061096,4.132146835327148,15.636452508839213,14.860230885879208,62.30361177106276,54.26167043421707,0.0001295089750783,0.0906038731336593,0,0,0
5198,175307.87417995415,2010-09-23 16:29:39,5162.611777399355,2,16,0.5499359965324402,4.135222434997559,15.641038812059833,14.860230885879208,62.32257039249155,54.26167043421707,6.47544875391759e-05,0.0906038731336593,0,0,0
5199,175337.88943698345,2010-09-23 16:30:09,5192.627034343419,2,16,0.5501165986061096,4.138622283935547,15.645625096839,14.860230885879208,62.3415440971905,54.26167043421707,6.47544875391759e-05,0.0906038731336593,0,0,0
5200,175367.90472655394,2010-09-23 16:30:39,5222.642323913923,2,16,0.5499359965324402,4.142021656036377,15.650211488639338,14.860230885879208,62.36053353057544,54.26167043421707,9.70840483205393e-05,0.0906038731336593,0,0,0
5201,175397.9200054929,2010-09-23 16:31:09,5252.657602842865,2,16,0.5501165986061096,4.145583152770996,15.654797890932096,14.860230885879208,62.37953862440239,54.26167043421707,9.70840483205393e-05,0.0906038731336593,0,0,0
5202,175427.935276066,2010-09-23 16:31:39,5282.672873441013,2,16,0.5499359965324402,4.148820877075195,15.65938440341218,14.860230885879208,62.39856012299284,54.26167043421707,6.47544875391759e-05,0.0906038731336593,0,0,0
5203,175457.9505605989,2010-09-23 16:32:09,5312.688157948881,2,16,0.550297200679779,4.152544498443604,15.663970885052656,14.860230885879208,62.417597208278615,54.26167043421707,9.71794142969884e-05,0.0906038731336593,0,0,0
5204,175487.96582799908,2010-09-23 16:32:39,5342.703425354057,2,16,0.5501165986061096,4.155943870544434,15.668557318134622,14.860230885879208,62.43664981928925,54.26167043421707,9.70840483205393e-05,0.0906038731336593,0,0,0
5205,175517.98111899314,2010-09-23 16:33:09,5372.718716368165,2,16,0.5501165986061096,4.159343719482422,15.673143809252448,14.860230885879208,62.45571861743384,54.26167043421707,9.71794142969884e-05,0.0906038731336593,0,0,0
5206,175547.99649286407,2010-09-23 16:33:39,5402.734090224059,2,16,0.5501165986061096,4.162743091583252,15.677730320003477,14.860230885879208,62.474803559873465,54.26167043421707,6.47544875391759e-05,0.0906038731336593,0,0,0
5207,175578.01164276095,2010-09-23 16:34:09,5432.749240110892,2,16,0.5499359965324402,4.166304588317871,15.682316741261662,14.860230885879208,62.49390427829052,54.26167043421707,9.70840483205393e-05,0.0906038731336593,0,0,0
5208,175608.0269280157,2010-09-23 16:34:39,5462.764525365625,2,16,0.5501165986061096,4.16986608505249,15.686903160663745,14.860230885879208,62.51302134682902,54.26167043421707,6.47544875391759e-05,0.0906038731336593,0,0,0
5209,175638.0421983582,2010-09-23 16:35:09,5492.779795708133,2,16,0.5499359965324402,4.173589706420898,15.69148961687636,14.860230885879208,62.53215504466882,54.26167043421707,9.71794142969884e-05,0.0906038731336593,0,0,0
5210,175668.05761683543,2010-09-23 16:35:39,5522.795214195434,2,16,0.5501165986061096,4.177151203155518,15.696076111474763,14.860230885879208,62.5513054590541,54.26167043421707,9.71794142969884e-05,0.0906038731336593,0,0,0
5211,175698.07288821053,2010-09-23 16:36:09,5552.810485565507,2,16,0.5499359965324402,4.180874347686768,15.700662563600908,14.860230885879208,62.57047234364822,54.26167043421707,0.0001295089750783,0.0906038731336593,0,0,0
5212,175728.0880457264,2010-09-23 16:36:39,5582.825643106447,2,16,0.5501165986061096,4.184597969055176,15.705249079016156,14.860230885879208,62.58965635168048,54.26167043421707,9.71794142969884e-05,0.0906038731336593,0,0,0
5213,175758.10329309656,2010-09-23 16:37:09,5612.840890446538,2,16,0.5501165986061096,4.188159465789795,15.70983549217981,14.860230885879208,62.60885672133184,54.26167043421707,9.71794142969884e-05,0.0906038731336593,0,0,0
5214,175788.11861432611,2010-09-23 16:37:39,5642.856211766293,2,16,0.5501165986061096,4.191882610321045,15.714421972012632,14.860230885879208,62.62807446997108,54.26167043421707,9.70840483205393e-05,0.0906038731336593,0,0,0
5215,175818.1340030491,2010-09-23 16:38:09,5672.8716005895485,2,16,0.5501165986061096,4.195767879486084,15.719008445571337,14.860230885879208,62.64730937367979,54.26167043421707,9.71794142969884e-05,0.0906038731336593,0,0,0
5216,175848.14953068888,2010-09-23 16:38:39,5702.887128164148,2,16,0.5499359965324402,4.199491024017334,15.723594858698352,14.860230885879208,62.6665613802921,54.26167043421707,9.70840483205393e-05,0.0906038731336593,0,0,0
5217,175851.0553442215,2010-09-23 16:38:42,5705.792941571461,2,16,0.550297200679779,4.200138568878174,15.72403888246978,14.860230885879208,62.66842616663908,54.26167043421707,0.0001618385285837,0.0906038731336593,0,0,0
5218,175881.07264957947,2010-09-23 16:39:12,30.0152657059352,3,16,0.0,4.116605758666992,15.72403888246978,14.860230885879208,62.66842616663908,54.26167043421707,-0.0004208564641885,0.0906038731336593,0,0,0
5219,175911.08793807728,2010-09-23 16:39:42,60.03055420877498,3,16,0.0,4.106245040893555,15.72403888246978,14.860230885879208,62.66842616663908,54.26167043421707,-0.0001942634553415,0.0906038731336593,0,0,0
5220,175941.1032094674,2010-09-23 16:40:12,90.04582559388628,3,16,0.0,4.100093364715576,15.72403888246978,14.860230885879208,62.66842616663908,54.26167043421707,-9.71794142969884e-05,0.0906038731336593,0,0,0
5221,175971.0715985571,2010-09-23 16:40:42,120.01421468858804,3,16,0.0,4.096046447753906,15.72403888246978,14.860230885879208,62.66842616663908,54.26167043421707,-9.70840483205393e-05,0.0906038731336593,0,0,0
5222,175971.07505572535,2010-09-23 16:40:42,2.561393633e-06,4,16,1.012837529182434,4.199814796447754,15.724038883190412,14.860230885879208,62.6684261696656,54.26167043421707,0.0,0.0906038731336593,0,0,0
5223,175971.7000334108,2010-09-23 16:40:43,0.624980271909497,4,16,0.9619057774543762,4.199653148651123,15.72420862225538,14.860230885879208,62.66913902620889,54.26167043421707,-3.23295607813634e-05,0.0906038731336593,0,0,0
5224,175973.57500012114,2010-09-23 16:40:45,2.499946982274987,4,16,0.911515772342682,4.199653148651123,15.724695363428664,14.860230885879208,62.67118320568731,54.26167043421707,-3.23295607813634e-05,0.0906038731336593,0,0,0
5225,175976.49686061946,2010-09-23 16:40:48,5.421807480595795,4,16,0.861306369304657,4.199814796447754,15.725413720314432,14.860230885879208,62.674200107135455,54.26167043421707,0.0,0.0906038731336593,0,0,0
5226,175980.46565509605,2010-09-23 16:40:52,9.390601932130586,4,16,0.8112776279449463,4.199653148651123,15.726334571316798,14.860230885879208,62.67806744171583,54.26167043421707,0.0,0.0906038731336593,0,0,0
5227,175985.6375683472,2010-09-23 16:40:57,14.56251518829694,4,16,0.7612488865852356,4.199814796447754,15.727462987793064,14.860230885879208,62.68280648714878,54.26167043421707,3.23295607813634e-05,0.0906038731336593,0,0,0
5228,175992.37167126912,2010-09-23 16:41:04,21.29661811521837,4,16,0.7110394835472107,4.199814796447754,15.72883830217702,14.860230885879208,62.68858247072245,54.26167043421707,0.0,0.0906038731336593,0,0,0
5229,176001.1374384075,2010-09-23 16:41:12,30.062385434025703,4,16,0.6610106825828552,4.199814796447754,15.7305057666352,14.860230885879208,62.69558538890847,54.26167043421707,0.0,0.0906038731336593,0,0,0
5230,176012.9964080652,2010-09-23 16:41:24,41.92135499149801,4,16,0.6109819412231445,4.199814796447754,15.732596437077616,14.860230885879208,62.704365686315526,54.26167043421707,0.0,0.0906038731336593,0,0,0
5231,176030.2774514431,2010-09-23 16:41:41,59.20239827916608,4,16,0.5609531998634338,4.199653148651123,15.735401293021628,14.860230885879208,62.71614535675834,54.26167043421707,-3.23295607813634e-05,0.0906038731336593,0,0,0
5232,176058.12088798432,2010-09-23 16:42:09,87.04583482539107,4,16,0.5109243988990784,4.199653148651123,15.739530098261454,14.860230885879208,62.73348529483562,54.26167043421707,-3.23295607813634e-05,0.0906038731336593,0,0,0
5233,176107.40168436873,2010-09-23 16:42:59,136.3266312098276,4,16,0.4608956277370453,4.199653148651123,15.746150393843152,14.860230885879208,62.76128886046691,54.26167043421707,0.0,0.0906038731336593,0,0,0
5234,176189.22872285557,2010-09-23 16:44:20,218.153669726741,4,16,0.4108668565750122,4.199653148651123,15.756026097306249,14.860230885879208,62.80276437436966,54.26167043421707,0.0,0.0906038731336593,0,0,0
5235,176299.0556937163,2010-09-23 16:46:10,327.9806405523788,4,16,0.3608380854129791,4.199653148651123,15.767783470301964,14.860230885879208,62.85214238211485,54.26167043421707,-3.23295607813634e-05,0.0906038731336593,0,0,0
5236,176433.46060364918,2010-09-23 16:48:25,462.3855505855,4,16,0.310809314250946,4.199491024017334,15.780307767981643,14.860230885879208,62.9047413597087,54.26167043421707,-6.47544875391759e-05,0.0906038731336593,0,0,0
5237,176593.92719028157,2010-09-23 16:51:05,622.8521372379516,4,16,0.2605999410152435,4.199653148651123,15.793025049901948,14.860230885879208,62.95815078935728,54.26167043421707,0.0,0.0906038731336593,0,0,0
5238,176793.64356098344,2010-09-23 16:54:25,822.5685078195187,4,16,0.2105711698532104,4.199491024017334,15.806059126228948,14.860230885879208,63.01289068430448,54.26167043421707,-3.24249267578125e-05,0.0906038731336593,0,0,0
5239,177049.23433750833,2010-09-23 16:58:40,1078.1592843443827,4,16,0.1605423986911773,4.199814796447754,15.819167937325432,14.860230885879208,63.06794441615429,54.26167043421707,3.23295607813634e-05,0.0906038731336593,0,0,0
5240,177415.51146114423,2010-09-23 17:04:47,1444.4364079903296,4,16,0.1103330254554748,4.199814796447754,15.832822505368622,14.860230885879208,63.12529015456423,54.26167043421707,0.0,0.0906038731336593,0,0,0
5241,178045.97285348354,2010-09-23 17:15:17,2074.897800349719,4,16,0.0603042542934417,4.199814796447754,15.847351405108892,14.860230885879208,63.18630795551645,54.26167043421707,0.0,0.0906038731336593,0,0,0
5242,178255.06409030358,2010-09-23 17:18:46,2283.9890371446418,4,16,0.0498289167881011,4.199814796447754,15.8505589622908,14.860230885879208,63.19977886744808,54.26167043421707,-3.24249267578125e-05,0.0906038731336593,0,0,0
5243,178285.0781079321,2010-09-23 17:19:16,30.015259630770657,5,16,0.0,4.192206382751465,15.8505589622908,14.860230885879208,63.19977886744808,54.26167043421707,0.0,0.0906038731336593,0,0,0
5244,178315.07775873083,2010-09-23 17:19:46,60.014910444532696,5,16,0.0,4.190749645233154,15.8505589622908,14.860230885879208,63.19977886744808,54.26167043421707,-6.47544875391759e-05,0.0906038731336593,0,0,0
5245,178315.26475947123,2010-09-23 17:19:47,0.187511542658405,6,16,-1.9243103452026844e-05,4.190911293029785,15.850558965992215,14.860230885879208,63.19977888296008,54.26167043421707,3.23295607813634e-05,0.0938397273421287,0,0,0
5246,178320.0928198979,2010-09-23 17:19:52,5.015571944199174,6,16,0.0007031940040178,4.190587520599365,15.850559922588866,14.860230886046304,63.199782891952665,54.26167043491735,-6.47544875391759e-05,0.0938397273421287,0,0,0
5247,178350.10759222665,2010-09-23 17:20:22,30.01523684890361,7,16,-1.0993878841400146,4.017693519592285,15.850559922588866,14.869398735641072,63.199782891952665,54.298700626457055,-0.0008742332574911,0.0938397273421287,0,0,0
5248,178380.12301037312,2010-09-23 17:20:52,60.03065502041635,7,16,-1.0997490882873535,3.990334987640381,15.850559922588866,14.878566688814134,63.199782891952665,54.33539960793365,-0.0005827903514727,0.0938397273421287,0,0,0
5249,178410.1383944094,2010-09-23 17:21:22,90.04603903667233,7,16,-1.099568486213684,3.9717180728912354,15.850559922588866,14.887734512837286,63.199782891952665,54.37189310135103,-0.0004209041653666,0.0938397273421287,0,0,0
5250,178440.1535436296,2010-09-23 17:21:52,120.06118824681607,7,16,-1.099568486213684,3.957310199737549,15.850559922588866,14.89690220854561,63.199782891952665,54.40823704973907,-0.0003885269106831,0.0938397273421287,0,0,0
5251,178470.16869842866,2010-09-23 17:22:22,150.07634304591076,7,16,-1.099568486213684,3.945330619812012,15.850559922588866,14.90606990371818,63.199782891952665,54.444461381299256,-0.0002913951757363,0.0938397273421287,0,0,0
5252,178500.18398290646,2010-09-23 17:22:52,180.0916275186909,7,16,-1.099568486213684,3.934808015823364,15.850559922588866,14.915237625646908,63.199782891952665,54.48058261341784,-0.0002590179501567,0.0938397273421287,0,0,0
5253,178530.1992956799,2010-09-23 17:23:22,210.106940392364,7,16,-1.099568486213684,3.9249329566955566,15.850559922588866,14.92440539627354,63.199782891952665,54.51661096237756,-0.0002590179501567,0.0938397273421287,0,0,0
5254,178560.21457159633,2010-09-23 17:23:52,240.12221630377363,7,16,-1.099568486213684,3.915867328643799,15.850559922588866,14.933573151579242,63.199782891952665,54.55255252580446,-0.0002266406954731,0.0938397273421287,0,0,0
5255,178590.22982297145,2010-09-23 17:24:22,270.13746758369933,7,16,-1.0997490882873535,3.90696382522583,15.850559922588866,14.942740973497449,63.199782891952665,54.58841175097247,-0.0002590179501567,0.0938397273421287,0,0,0
5256,178620.24507910854,2010-09-23 17:24:52,300.15272372576163,7,16,-1.099568486213684,3.898545742034912,15.850559922588866,14.951908770070798,63.199782891952665,54.62419105284277,-0.0001942634553415,0.0938397273421287,0,0,0
5257,178650.26056983613,2010-09-23 17:25:22,330.1682144533856,7,16,-1.099568486213684,3.890127658843994,15.850559922588866,14.961076653465245,63.199782891952665,54.65989337582869,-0.0002266406954731,0.0938397273421287,0,0,0
5258,178680.27564640497,2010-09-23 17:25:52,360.1832910171929,7,16,-1.099568486213684,3.881871461868286,15.850559922588866,14.97024436821876,63.199782891952665,54.695519579323694,-0.0002913951757363,0.0938397273421287,0,0,0
5259,178710.29103286733,2010-09-23 17:26:22,390.1986774845672,7,16,-1.0997490882873535,3.873939037322998,15.850559922588866,14.979412197888047,63.199782891952665,54.73107206225944,-0.0001942634553415,0.0938397273421287,0,0,0
5260,178740.30618678924,2010-09-23 17:26:52,420.2138314064723,7,16,-1.099568486213684,3.86600661277771,15.850559922588866,14.988579983827234,63.199782891952665,54.76655163233485,-0.0002266406954731,0.0938397273421287,0,0,0
5261,178770.32146756278,2010-09-23 17:27:22,450.2291121900436,7,16,-1.0993878841400146,3.858397960662842,15.850559922588866,14.99774775758276,63.199782891952665,54.801959507964455,-0.0001942634553415,0.0938397273421287,0,0,0
5262,178800.33676327864,2010-09-23 17:27:52,480.24440792092565,7,16,-1.0997490882873535,3.8504655361175537,15.850559922588866,15.00691556629318,63.199782891952665,54.83729669078578,-0.0002266406954731,0.0938397273421287,0,0,0
5263,178830.35209445297,2010-09-23 17:28:22,510.2597390852551,7,16,-1.0997490882873535,3.843018770217896,15.850559922588866,15.016083415388916,63.199782891952665,54.87256451296362,-0.0002266406954731,0.0938397273421287,0,0,0
5264,178860.3672901241,2010-09-23 17:28:52,540.2749347413351,7,16,-1.0997490882873535,3.8357338905334473,15.850559922588866,15.0252511696789,63.199782891952665,54.9077637613233,-0.0001942634553415,0.0938397273421287,0,0,0
5265,178890.38255281252,2010-09-23 17:29:22,570.2901974247255,7,16,-1.099568486213684,3.828449249267578,15.850559922588866,15.034418953964328,63.199782891952665,54.942895463690455,-0.0002266406954731,0.0938397273421287,0,0,0
5266,178920.39789689909,2010-09-23 17:29:52,600.3055415163235,7,16,-1.0997490882873535,3.82116436958313,15.850559922588866,15.043586757165547,63.199782891952665,54.97796117716837,-0.0001942634553415,0.0938397273421287,0,0,0
5267,178950.41325250443,2010-09-23 17:30:22,630.3208971968492,7,16,-1.099568486213684,3.8142032623291016,15.850559922588866,15.052754532511893,63.199782891952665,55.01296142464104,-0.0001942634553415,0.0938397273421287,0,0,0
5268,178980.42841708293,2010-09-23 17:30:52,660.3360617051795,7,16,-1.0993878841400146,3.807404041290283,15.850559922588866,15.06192217119722,63.199782891952665,55.04789691520091,-0.0001618862152099,0.0938397273421287,0,0,0
5269,179010.44372794157,2010-09-23 17:31:22,690.3513725838728,7,16,-1.0997490882873535,3.800442934036255,15.850559922588866,15.071090448934484,63.199782891952665,55.08277196007464,-0.0002266406954731,0.0938397273421287,0,0,0
5270,179040.45896970775,2010-09-23 17:31:52,720.3666143300007,7,16,-1.0997490882873535,3.7938055992126474,15.850559922588866,15.080259051829817,63.199782891952665,55.11758665483043,-0.0001618862152099,0.0938397273421287,0,0,0
5271,179070.47426606016,2010-09-23 17:32:22,750.3819106774217,7,16,-1.0997490882873535,3.787330150604248,15.850559922588866,15.089427571563425,63.199782891952665,55.1523408403936,-0.0001942634553415,0.0938397273421287,0,0,0
5272,179100.4896678157,2010-09-23 17:32:52,780.3973124630328,7,16,-1.0993878841400146,3.78101658821106,15.850559922588866,15.09859631291788,63.199782891952665,55.187036712509865,-0.0001295089750783,0.0938397273421287,0,0,0
5273,179130.50520338526,2010-09-23 17:33:22,810.4128481278269,7,16,-1.0997490882873535,3.774703025817871,15.850559922588866,15.107765092898193,63.199782891952665,55.22167473281377,-0.0001942634553415,0.0938397273421287,0,0,0
5274,179160.52009748365,2010-09-23 17:33:52,840.4277421209096,7,16,-1.099929690361023,3.7683894634246826,15.850559922588866,15.116933831565078,63.199782891952665,55.25625579691218,-0.0001942634553415,0.0938397273421287,0,0,0
5275,179190.53534685378,2010-09-23 17:34:22,870.4429914760306,7,16,-1.099568486213684,3.762399673461914,15.850559922588866,15.126102323334342,63.199782891952665,55.29077974372173,-0.0001942634553415,0.0938397273421287,0,0,0
5276,179220.55069637395,2010-09-23 17:34:52,900.4583410112165,7,16,-1.0993878841400146,3.756571769714356,15.850559922588866,15.135270271691354,63.199782891952665,55.32524729496001,-0.0001942634553415,0.0938397273421287,0,0,0
5277,179250.5659615836,2010-09-23 17:35:22,930.4736062008628,7,16,-1.099568486213684,3.750905990600586,15.850559922588866,15.144438108751771,63.199782891952665,55.35966072427339,-9.713172767078504e-05,0.0938397273421287,0,0,0
5278,179280.58127987583,2010-09-23 17:35:52,960.4889244930614,7,16,-1.099568486213684,3.745239973068237,15.850559922588866,15.153605934263233,63.199782891952665,55.39402154962161,-9.713172767078504e-05,0.0938397273421287,0,0,0
5279,179310.5965016872,2010-09-23 17:36:22,990.5041463044292,7,16,-1.0997490882873535,3.739412069320679,15.850559922588866,15.162773822033758,63.199782891952665,55.42833085040116,-0.0001942634553415,0.0938397273421287,0,0,0
5280,179340.61178924266,2010-09-23 17:36:52,1020.519433879954,7,16,-1.099568486213684,3.73406982421875,15.850559922588866,15.171941703690022,63.199782891952665,55.46258936903544,-9.713172767078504e-05,0.0938397273421287,0,0,0
5281,179370.62719596562,2010-09-23 17:37:22,1050.5348405878522,7,16,-1.099568486213684,3.728727579116821,15.850559922588866,15.181109560184536,63.199782891952665,55.49679742984477,-9.713172767078504e-05,0.0938397273421287,0,0,0
5282,179400.64245766154,2010-09-23 17:37:52,1080.5501022787653,7,16,-1.099568486213684,3.7233853340148926,15.850559922588866,15.190277320384116,63.199782891952665,55.53095634873056,-9.713172767078504e-05,0.0938397273421287,0,0,0
5283,179430.65762199945,2010-09-23 17:38:22,1110.5652666417325,7,16,-1.0997490882873535,3.718204975128174,15.850559922588866,15.199445134440891,63.199782891952665,55.56506702307668,-0.0001295089750783,0.0938397273421287,0,0,0
5284,179460.67288207632,2010-09-23 17:38:52,1140.5805266935545,7,16,-1.099568486213684,3.712862730026245,15.850559922588866,15.208612937771424,63.199782891952665,55.59913025115078,-0.0001618862152099,0.0938397273421287,0,0,0
5285,179490.68831939565,2010-09-23 17:39:22,1170.595964022888,7,16,-1.0992072820663452,3.7080061435699454,15.850559922588866,15.217780867111165,63.199782891952665,55.63314693523803,-9.713172767078504e-05,0.0938397273421287,0,0,0
5286,179520.7034784704,2010-09-23 17:39:52,1200.6111230976553,7,16,-1.099568486213684,3.7029876708984375,15.850559922588866,15.226948664707775,63.199782891952665,55.6671170645882,-9.713172767078504e-05,0.0938397273421287,0,0,0
5287,179550.71870940953,2010-09-23 17:40:22,1230.6263540317948,7,16,-1.099568486213684,3.6979691982269287,15.850559922588866,15.236116535316167,63.199782891952665,55.701042166940425,-0.0001295089750783,0.0938397273421287,0,0,0
5288,179580.73402784212,2010-09-23 17:40:52,1260.641672469356,7,16,-1.099568486213684,3.69311261177063,15.850559922588866,15.245284382446084,63.199782891952665,55.73492268417834,-0.0001295089750783,0.0938397273421287,0,0,0
5289,179610.74947998338,2010-09-23 17:41:22,1290.6571246056503,7,16,-1.0993878841400146,3.688579797744751,15.850559922588866,15.254452310304298,63.199782891952665,55.7687596769885,-9.713172767078504e-05,0.0938397273421287,0,0,0
5290,179640.7645731336,2010-09-23 17:41:52,1320.6722177608724,7,16,-1.0997490882873535,3.683885097503662,15.850559922588866,15.263620118857512,63.199782891952665,55.80255292229545,-9.713172767078504e-05,0.0938397273421287,0,0,0
5291,179670.77981206772,2010-09-23 17:42:22,1350.6874566899685,7,16,-1.0997490882873535,3.679190397262573,15.850559922588866,15.272788002084662,63.199782891952665,55.836304183733965,-0.0001295089750783,0.0938397273421287,0,0,0
5292,179700.7950953425,2010-09-23 17:42:52,1380.7027399848082,7,16,-1.0997490882873535,3.674495697021485,15.850559922588866,15.281955867143068,63.199782891952665,55.870013615026224,-0.0001618862152099,0.0938397273421287,0,0,0
5293,179730.8103911185,2010-09-23 17:43:22,1410.7180357357404,7,16,-1.099568486213684,3.6701250076293945,15.850559922588866,15.291123761600062,63.199782891952665,55.903681734531006,-0.0001295089750783,0.0938397273421287,0,0,0
5294,179760.82563759142,2010-09-23 17:43:52,1440.7332822136796,7,16,-1.0997490882873535,3.6657540798187256,15.850559922588866,15.300291692068567,63.199782891952665,55.93730913077387,-0.0001618862152099,0.0938397273421287,0,0,0
5295,179790.8409181294,2010-09-23 17:44:22,1470.7485627566502,7,16,-1.099568486213684,3.6613831520080566,15.850559922588866,15.309459605965149,63.199782891952665,55.97089631396966,-0.0001295089750783,0.0938397273421287,0,0,0
5296,179820.85631489748,2010-09-23 17:44:52,1500.7639595247367,7,16,-1.0993878841400146,3.6571741104125977,15.850559922588866,15.318627456576817,63.199782891952665,56.00444365838579,-9.713172767078504e-05,0.0938397273421287,0,0,0
5297,179850.87148656367,2010-09-23 17:45:22,1530.7791311809092,7,16,-1.099568486213684,3.6529650688171382,15.850559922588866,15.327795206285428,63.199782891952665,56.03795180493135,-9.713172767078504e-05,0.0938397273421287,0,0,0
5298,179880.88686667517,2010-09-23 17:45:52,1560.7945112924183,7,16,-1.099568486213684,3.64875602722168,15.850559922588866,15.336963131479129,63.199782891952665,56.07142230531999,-9.713172767078504e-05,0.0938397273421287,0,0,0
5299,179910.90215477202,2010-09-23 17:46:22,1590.8097993942572,7,16,-1.099568486213684,3.644708871841431,15.850559922588866,15.346130923533732,63.199782891952665,56.10485455212475,-0.0001295089750783,0.0938397273421287,0,0,0
5300,179940.91728966642,2010-09-23 17:46:52,1620.8249342886668,7,16,-1.099568486213684,3.640823602676392,15.850559922588866,15.355298660971862,63.199782891952665,56.13824994029705,-9.713172767078504e-05,0.0938397273421287,0,0,0
5301,179970.93258544744,2010-09-23 17:47:23,1650.840230069674,7,16,-1.099568486213684,3.636776447296143,15.850559922588866,15.364466472958206,63.199782891952665,56.1716097644048,-9.713172767078504e-05,0.0938397273421287,0,0,0
5302,180000.9478474792,2010-09-23 17:47:53,1680.8554921164753,7,16,-1.099568486213684,3.633214950561523,15.850559922588866,15.373634299253723,63.199782891952665,56.204934532470574,-6.47544875391759e-05,0.0938397273421287,0,0,0
5303,180030.963150393,2010-09-23 17:48:23,1710.870795010237,7,16,-1.099568486213684,3.629329681396485,15.850559922588866,15.382802186373798,63.199782891952665,56.238225100639866,-9.713172767078504e-05,0.0938397273421287,0,0,0
5304,180060.97842017913,2010-09-23 17:48:53,1740.8860648164073,7,16,-1.0997490882873535,3.6256062984466553,15.850559922588866,15.391969972368898,63.199782891952665,56.27148117255911,-0.0001295089750783,0.0938397273421287,0,0,0
5305,180090.99369767949,2010-09-23 17:49:23,1770.901342306758,7,16,-1.099568486213684,3.622044801712036,15.850559922588866,15.401137781902564,63.199782891952665,56.304704215916736,-6.47544875391759e-05,0.0938397273421287,0,0,0
5306,180121.00896247817,2010-09-23 17:49:53,1800.9166070954036,7,16,-1.0993878841400146,3.618645191192627,15.850559922588866,15.410305683962104,63.199782891952665,56.33789504855699,-6.47544875391759e-05,0.0938397273421287,0,0,0
5307,180151.02422359263,2010-09-23 17:50:23,1830.9318682098776,7,16,-1.0993878841400146,3.6152455806732178,15.850559922588866,15.419473599734024,63.199782891952665,56.37105404862568,-6.47544875391759e-05,0.0938397273421287,0,0,0
5308,180181.039502687,2010-09-23 17:50:53,1860.9471473042324,7,16,-1.099568486213684,3.611684083938599,15.850559922588866,15.42864143873671,63.199782891952665,56.404181618252,-0.0001295089750783,0.0938397273421287,0,0,0
5309,180211.0547886485,2010-09-23 17:51:23,1890.9624332657288,7,16,-1.099568486213684,3.6084463596344,15.850559922588866,15.437809332422626,63.199782891952665,56.43727881536958,-6.47544875391759e-05,0.0938397273421287,0,0,0
5310,180241.0704630546,2010-09-23 17:51:53,1920.978107696905,7,16,-1.099568486213684,3.6052086353302,15.850559922588866,15.446977268202236,63.199782891952665,56.4703460630805,-9.713172767078504e-05,0.0938397273421287,0,0,0
5311,180271.0853427921,2010-09-23 17:52:23,1950.9929874293912,7,16,-1.099568486213684,3.601970911026001,15.850559922588866,15.456144928000032,63.199782891952665,56.50338264211428,-9.713172767078504e-05,0.0938397273421287,0,0,0
5312,180301.10060313463,2010-09-23 17:52:53,1981.0082477518883,7,16,-1.099568486213684,3.598895072937012,15.850559922588866,15.465312707546603,63.199782891952665,56.53639056028357,-6.47544875391759e-05,0.0938397273421287,0,0,0
5313,180331.11602548652,2010-09-23 17:53:23,2011.023670113861,7,16,-1.099568486213684,3.5956573486328125,15.850559922588866,15.474480638057674,63.199782891952665,56.569370256461305,-9.713172767078504e-05,0.0938397273421287,0,0,0
5314,180361.1312807665,2010-09-23 17:53:53,2041.0389253837463,7,16,-1.099568486213684,3.5925815105438232,15.850559922588866,15.483648492915178,63.199782891952665,56.60232135976944,-6.47544875391759e-05,0.0938397273421287,0,0,0
5315,180391.14643277365,2010-09-23 17:54:23,2071.054077390872,7,16,-1.099568486213684,3.589505910873413,15.850559922588866,15.492816286879243,63.199782891952665,56.63524431526531,-9.713172767078504e-05,0.0938397273421287,0,0,0
5316,180421.1617391912,2010-09-23 17:54:53,2101.069383903667,7,16,-1.099568486213684,3.586591958999634,15.850559922588866,15.50198412203322,63.199782891952665,56.66813948943527,-9.713172767078504e-05,0.0938397273421287,0,0,0
5317,180451.1770316439,2010-09-23 17:55:23,2131.084676276166,7,16,-1.099568486213684,3.5835161209106445,15.850559922588866,15.511151911469796,63.199782891952665,56.70100649073338,-9.713172767078504e-05,0.0938397273421287,0,0,0
5318,180481.19228424213,2010-09-23 17:55:53,2161.0999288844077,7,16,-1.099568486213684,3.580602169036865,15.850559922588866,15.520319778711611,63.199782891952665,56.73384586518786,-6.47544875391759e-05,0.0938397273421287,0,0,0
5319,180511.2075554969,2010-09-23 17:56:23,2191.1152001191435,7,16,-1.0993878841400146,3.577364444732666,15.850559922588866,15.52948759612379,63.199782891952665,56.766657090726746,-9.713172767078504e-05,0.0938397273421287,0,0,0
5320,180541.22280848608,2010-09-23 17:56:53,2221.130453103324,7,16,-1.099568486213684,3.5744504928588867,15.850559922588866,15.538655456892473,63.199782891952665,56.79944037346323,-6.47544875391759e-05,0.0938397273421287,0,0,0
5321,180571.23828918868,2010-09-23 17:57:23,2251.1459338059235,7,16,-1.099568486213684,3.571374654769897,15.850559922588866,15.54782328496149,63.199782891952665,56.832195661797485,-9.713172767078504e-05,0.0938397273421287,0,0,0
5322,180601.2533669254,2010-09-23 17:57:53,2281.161011572733,7,16,-1.099568486213684,3.568298816680908,15.850559922588866,15.556991127845295,63.199782891952665,56.86492269598149,-6.47544875391759e-05,0.0938397273421287,0,0,0
5323,180631.26863944333,2010-09-23 17:58:23,2311.1762840656097,7,16,-1.0997490882873535,3.565061092376709,15.850559922588866,15.566158917002396,63.199782891952665,56.89762110507549,-9.713172767078504e-05,0.0938397273421287,0,0,0
5324,180661.2839073498,2010-09-23 17:58:53,2341.1915519720383,7,16,-1.0997490882873535,3.56198525428772,15.850559922588866,15.575326762484233,63.199782891952665,56.930291175109645,-6.47544875391759e-05,0.0938397273421287,0,0,0
5325,180691.2992070205,2010-09-23 17:59:23,2371.2068516477666,7,16,-1.099568486213684,3.5589094161987305,15.850559922588866,15.58449462270926,63.199782891952665,56.962932994158535,-6.47544875391759e-05,0.0938397273421287,0,0,0
5326,180721.3144935083,2010-09-23 17:59:53,2401.2221382508646,7,16,-1.099568486213684,3.5555098056793213,15.850559922588866,15.593662453563375,63.199782891952665,56.99554548439038,-9.713172767078504e-05,0.0938397273421287,0,0,0
5327,180751.3297515802,2010-09-23 18:00:23,2431.2373962976817,7,16,-1.099568486213684,3.552595853805542,15.850559922588866,15.60283023033314,63.199782891952665,57.02812839810554,-3.237724376958795e-05,0.0938397273421287,0,0,0
5328,180781.34501772223,2010-09-23 18:00:53,2461.252662339455,7,16,-1.099568486213684,3.549196243286133,15.850559922588866,15.611998050063136,63.199782891952665,57.060681470478585,-3.237724376958795e-05,0.0938397273421287,0,0,0
5329,180811.36029662608,2010-09-23 18:01:23,2491.267941258372,7,16,-1.099568486213684,3.545796632766724,15.850559922588866,15.621165867334282,63.199782891952665,57.09320380494541,-3.237724376958795e-05,0.0938397273421287,0,0,0
5330,180841.37557176052,2010-09-23 18:01:53,2521.2832163778044,7,16,-1.099568486213684,3.5422351360321045,15.850559922588866,15.630333728226011,63.199782891952665,57.12569508444649,-9.713172767078504e-05,0.0938397273421287,0,0,0
5331,180871.39085181733,2010-09-23 18:02:23,2551.298496434561,7,16,-1.099568486213684,3.5388355255126958,15.850559922588866,15.63950161534453,63.199782891952665,57.15815425733989,-9.713172767078504e-05,0.0938397273421287,0,0,0
5332,180901.4061621296,2010-09-23 18:02:53,2581.313806751854,7,16,-1.0997490882873535,3.535112142562866,15.850559922588866,15.648669507821529,63.199782891952665,57.19058045910703,-9.713172767078504e-05,0.0938397273421287,0,0,0
5333,180931.42140004612,2010-09-23 18:03:23,2611.3290446634096,7,16,-1.0993878841400146,3.531388759613037,15.850559922588866,15.657837369738983,63.199782891952665,57.22297294430487,-6.47544875391759e-05,0.0938397273421287,0,0,0
5334,180961.43665905533,2010-09-23 18:03:53,2641.344303677641,7,16,-1.0997490882873535,3.527341604232788,15.850559922588866,15.667005264128209,63.199782891952665,57.255330483076335,-0.0001295089750783,0.0938397273421287,0,0,0
5335,180991.45193181897,2010-09-23 18:04:23,2671.3595764612437,7,16,-1.099568486213684,3.523294448852539,15.850559922588866,15.676173145890234,63.199782891952665,57.287651187191926,-0.0001618862152099,0.0938397273421287,0,0,0
5336,181021.46721389567,2010-09-23 18:04:53,2701.374858523005,7,16,-1.099568486213684,3.51908540725708,15.850559922588866,15.68534102774492,63.199782891952665,57.31993343218921,-9.713172767078504e-05,0.0938397273421287,0,0,0
5337,181051.4828953144,2010-09-23 18:05:23,2731.3905399616738,7,16,-1.0993878841400146,3.514714479446411,15.850559922588866,15.69450902296708,63.199782891952665,57.35217531993094,-6.47544875391759e-05,0.0938397273421287,0,0,0
5338,181081.497767498,2010-09-23 18:05:53,2761.4054121252666,7,16,-1.099568486213684,3.5095343589782715,15.850559922588866,15.70367675731779,63.199782891952665,57.38437278680281,-0.0001618862152099,0.0938397273421287,0,0,0
5339,181111.51315411075,2010-09-23 18:06:23,2791.420798858304,7,16,-1.0993878841400146,3.5043540000915527,15.850559922588866,15.712844683682729,63.199782891952665,57.416524433801335,-0.0001618862152099,0.0938397273421287,0,0,0
5340,181141.5283100978,2010-09-23 18:06:53,2821.435954740102,7,16,-1.099568486213684,3.498526096343994,15.850559922588866,15.722012470225824,63.199782891952665,57.44862580727778,-0.0002266406954731,0.0938397273421287,0,0,0
5341,181171.5436089665,2010-09-23 18:07:23,2851.4512535887657,7,16,-1.0997490882873535,3.4925363063812256,15.850559922588866,15.73118041860147,63.199782891952665,57.48067377714342,-0.0001618862152099,0.0938397273421287,0,0,0
5342,181201.55886756472,2010-09-23 18:07:53,2881.466512272172,7,16,-1.099568486213684,3.4857370853424072,15.850559922588866,15.740348335161984,63.199782891952665,57.51266186278751,-0.0001618862152099,0.0938397273421287,0,0,0
5343,181231.5741368997,2010-09-23 18:08:23,2911.4817815219526,7,16,-1.099568486213684,3.477966547012329,15.850559922588866,15.749516220910234,63.199782891952665,57.54458345403929,-0.0001942634553415,0.0938397273421287,0,0,0
5344,181261.58940855047,2010-09-23 18:08:53,2941.49705317774,7,16,-1.099568486213684,3.469386577606201,15.850559922588866,15.758684099529136,63.199782891952665,57.57643002443153,-0.0002266406954731,0.0938397273421287,0,0,0
5345,181291.6048447269,2010-09-23 18:09:23,2971.512489354196,7,16,-1.099568486213684,3.4595115184783936,15.850559922588866,15.767852018663833,63.199782891952665,57.60819253340258,-0.0002913951757363,0.0938397273421287,0,0,0
5346,181321.61998442333,2010-09-23 18:09:53,3001.527629070642,7,16,-1.099568486213684,3.4481794834136963,15.850559922588866,15.777019775617829,63.199782891952665,57.63985808526338,-0.0003561496851034,0.0938397273421287,0,0,0
5347,181351.6353602742,2010-09-23 18:10:23,3031.5430049014653,7,16,-1.0997490882873535,3.43458104133606,15.850559922588866,15.786187609926593,63.199782891952665,57.671411013005454,-0.0004209041653666,0.0938397273421287,0,0,0
5348,181381.6505020508,2010-09-23 18:10:53,3061.5581466730414,7,16,-1.099568486213684,3.4183926582336426,15.850559922588866,15.7953554540814,63.199782891952665,57.70282818079123,-0.0004856586456298,0.0938397273421287,0,0,0
5349,181411.66591955064,2010-09-23 18:11:23,3091.573564167865,7,16,-1.0993878841400146,3.397671222686768,15.850559922588866,15.804523340857314,63.199782891952665,57.73407668971598,-0.0006151676061563,0.0938397273421287,0,0,0
5350,181441.68105821943,2010-09-23 18:11:53,3121.5887028467214,7,16,-1.099568486213684,3.370312452316284,15.850559922588866,15.813691123698865,63.199782891952665,57.7651069683694,-0.0008094310760498,0.0938397273421287,0,0,0
5351,181471.6963451484,2010-09-23 18:12:23,3151.603989765608,7,16,-1.099568486213684,3.3319456577301025,15.850559922588866,15.822858976430846,63.199782891952665,57.79583926521016,-0.0011655807029455,0.0938397273421287,0,0,0
5352,181501.71163891937,2010-09-23 18:12:53,3181.6192836368477,7,16,-1.0997490882873535,3.276742458343506,15.850559922588866,15.832026795661209,63.199782891952665,57.82614824023104,-0.0017807483673095,0.0938397273421287,0,0,0
5353,181531.727152895,2010-09-23 18:13:23,3211.634797532302,7,16,-1.099568486213684,3.1961233615875244,15.850559922588866,15.84119469937758,63.199782891952665,57.85584368607051,-0.0025254250504076,0.0938397273421287,0,0,0
5354,181561.7421717949,2010-09-23 18:13:53,3241.6498164121213,7,16,-1.0997490882873535,3.070176362991333,15.850559922588866,15.850362484635925,63.199782891952665,57.88461636546603,-0.0041766641661524,0.0938397273421287,0,0,0
5355,181585.89812254423,2010-09-23 18:14:17,3265.805767166504,7,16,-1.0993878841400146,2.869923591613769,15.850559922588866,15.857740611294048,63.199782891952665,57.90663809538202,-0.0094865318387746,0.0938397273421287,0,0,0
5356,181596.99176724316,2010-09-23 18:14:29,3276.8994118703995,7,16,-1.0997490882873535,2.699458122253418,15.850559922588866,15.861129025142654,63.199782891952665,57.916087843109565,-0.0133393760770559,0.0938397273421287,0,0,0
5357,181657.0131932207,2010-09-23 18:15:29,60.01508123585411,8,16,0.0,3.38811993598938,15.850559922588866,15.861129025142654,63.199782891952665,57.916087843109565,0.0015217304462566,0.0938397273421287,0,0,0
5358,181657.20777298004,2010-09-23 18:15:29,0.187669923000104,9,16,-0.0018253359012305,3.3884437084198,15.850559922588866,15.861129120298392,63.199782891952665,57.91608816553942,0.0,0.0906038731336593,0,0,0
5359,181662.03565601885,2010-09-23 18:15:34,5.015552961816225,9,16,0.0008838032954372,3.3971855640411377,15.85056080070312,15.861129121547048,63.1997858717456,57.91608816977578,0.0012950897216796,0.0906038731336593,0,0,0
