Data_Point,Test_Time(s),Date_Time,Step_Time(s),Step_Index,Cycle_Index,Current(A),Voltage(V),Charge_Capacity(Ah),Discharge_Capacity(Ah),Charge_Energy(Wh),Discharge_Energy(Wh),dV/dt(V/s),Internal_Resistance(Ohm),Is_FC_Data,AC_Impedance(Ohm),ACI_Phase_Angle(Deg)
6040,205038.9844417626,2010-09-24 00:45:13,30.01531651776936,1,19,0.0,3.392005205154419,17.86123192258937,17.88220852168769,71.219831839853,65.32074345176757,0.0009389400365762,0.0859829038381576,0,0,0
6041,205068.99979708725,2010-09-24 00:45:43,60.03067182736908,1,19,0.0,3.4185545444488525,17.86123192258937,17.88220852168769,71.219831839853,65.32074345176757,0.0005827903514727,0.0859829038381576,0,0,0
6042,205099.01513297332,2010-09-24 00:46:13,90.04600771348481,1,19,0.0,3.4389519691467285,17.86123192258937,17.88220852168769,71.219831839853,65.32074345176757,0.0004532813909463,0.0859829038381576,0,0,0
6043,205128.98359332592,2010-09-24 00:46:43,120.0144680660572,1,19,0.0,3.4551405906677246,17.86123192258937,17.88220852168769,71.219831839853,65.32074345176757,0.0003885269106831,0.0859829038381576,0,0,0
6044,205159.0023067164,2010-09-24 00:47:13,30.01533609664123,2,19,0.550297200679779,3.597114324569702,17.86581934939499,17.88220852168769,71.23618070627175,65.32074345176757,0.0014569282066076,0.0859829038381576,0,0,0
6045,205189.0176714545,2010-09-24 00:47:43,60.03070081472599,2,19,0.5501165986061096,3.6421186923980713,17.87040676731425,17.88220852168769,71.25279235981363,65.32074345176757,0.0010036944877356,0.0859829038381576,0,0,0
6046,205219.03300054863,2010-09-24 00:48:13,90.0460299239255,2,19,0.5501165986061096,3.6746575832366943,17.87499414266507,17.88220852168769,71.26957861500536,65.32074345176757,0.0007122516399249,0.0859829038381576,0,0,0
6047,205249.0484647651,2010-09-24 00:48:43,120.06149412533593,2,19,0.550297200679779,3.700397491455078,17.87958150791852,17.88220852168769,71.2864970759815,65.32074345176757,0.0005827903514727,0.0859829038381576,0,0,0
6048,205279.0636901304,2010-09-24 00:49:13,150.0767195056121,2,19,0.550297200679779,3.721442699432373,17.884168885311446,17.88220852168769,71.30352172600449,65.32074345176757,0.0005504131549969,0.0859829038381576,0,0,0
6049,205309.0791505523,2010-09-24 00:49:43,180.09217991255096,2,19,0.5499359965324402,3.738116979598999,17.88875628085612,17.88220852168769,71.3206328294117,65.32074345176757,0.0003885269106831,0.0859829038381576,0,0,0
6050,205339.09439406288,2010-09-24 00:50:14,210.10742344313303,2,19,0.5499359965324402,3.750905990600586,17.893343609785564,17.88220852168769,71.33781223723118,65.32074345176757,0.0002590179501567,0.0859829038381576,0,0,0
6051,205369.1097361344,2010-09-24 00:50:44,240.12276558987628,2,19,0.550297200679779,3.758838176727295,17.897930970272917,17.88220852168769,71.35503934540077,65.32074345176757,0.0001618862152099,0.0859829038381576,0,0,0
6052,205399.1250854741,2010-09-24 00:51:14,270.13811483433653,2,19,0.5501165986061096,3.7636947631835938,17.902518280333588,17.88220852168769,71.37229408017856,65.32074345176757,9.713172767078504e-05,0.0859829038381576,0,0,0
6053,205429.14040458336,2010-09-24 00:51:44,300.1534339636246,2,19,0.5504778623580933,3.767256259918213,17.90710558636159,17.88220852168769,71.38956709239827,65.32074345176757,9.713172767078504e-05,0.0859829038381576,0,0,0
6054,205459.15576388792,2010-09-24 00:52:14,330.16879325315887,2,19,0.550297200679779,3.770493984222412,17.911692979589432,17.88220852168769,71.40685597360205,65.32074345176757,9.713172767078504e-05,0.0859829038381576,0,0,0
6055,205489.1711012026,2010-09-24 00:52:44,360.1841305778655,2,19,0.5504778623580933,3.773569822311402,17.916280366986307,17.88220852168769,71.42415960660136,65.32074345176757,6.47544875391759e-05,0.0859829038381576,0,0,0
6056,205519.1864409233,2010-09-24 00:53:14,390.1994702835154,2,19,0.5501165986061096,3.7768075466156006,17.92086773417766,17.88220852168769,71.44147789937225,65.32074345176757,9.713172767078504e-05,0.0859829038381576,0,0,0
6057,205549.2017943983,2010-09-24 00:53:44,420.21482375853566,2,19,0.550297200679779,3.7800452709198,17.92545505684331,17.88220852168769,71.45881054520488,65.32074345176757,9.713172767078504e-05,0.0859829038381576,0,0,0
6058,205579.21715662017,2010-09-24 00:54:14,450.2301859854021,2,19,0.5501165986061096,3.783121109008789,17.930042421816644,17.88220852168769,71.47615757565225,65.32074345176757,0.0001295089750783,0.0859829038381576,0,0,0
6059,205609.23249667668,2010-09-24 00:54:44,480.2455260569653,2,19,0.5501165986061096,3.786035060882568,17.934629750596812,17.88220852168769,71.49351851655804,65.32074345176757,9.713172767078504e-05,0.0859829038381576,0,0,0
6060,205639.24782961543,2010-09-24 00:55:14,510.2608589907114,2,19,0.550297200679779,3.789272785186768,17.939217044916752,17.88220852168769,71.51089315531695,65.32074345176757,0.0001295089750783,0.0859829038381576,0,0,0
6061,205669.26317323087,2010-09-24 00:55:44,540.2762026061206,2,19,0.5501165986061096,3.792186737060547,17.9438043729707,17.88220852168769,71.52828166503595,65.32074345176757,0.0001295089750783,0.0859829038381576,0,0,0
6062,205699.27865956756,2010-09-24 00:56:14,570.2916889327591,2,19,0.5501165986061096,3.794938802719116,17.948391675734076,17.88220852168769,71.5456836421512,65.32074345176757,6.47544875391759e-05,0.0859829038381576,0,0,0
6063,205729.2938692085,2010-09-24 00:56:44,600.3068985837726,2,19,0.550297200679779,3.797852754592896,17.952978922160757,17.88220852168769,71.56309893932443,65.32074345176757,6.47544875391759e-05,0.0859829038381576,0,0,0
6064,205759.30921215223,2010-09-24 00:57:14,630.3222415174802,2,19,0.5501165986061096,3.800766706466675,17.957566279319657,17.88220852168769,71.5805281440598,65.32074345176757,6.47544875391759e-05,0.0859829038381576,0,0,0
6065,205789.3245639481,2010-09-24 00:57:44,660.337593323334,2,19,0.5499359965324402,3.803680658340454,17.96215361457502,17.88220852168769,71.59797069482077,65.32074345176757,6.47544875391759e-05,0.0859829038381576,0,0,0
6066,205819.34004938247,2010-09-24 00:58:14,690.3530787577454,2,19,0.5499359965324402,3.8067564964294434,17.966740948266164,17.88220852168769,71.61542685072392,65.32074345176757,9.713172767078504e-05,0.0859829038381576,0,0,0
6067,205849.35527776525,2010-09-24 00:58:44,720.3683071304911,2,19,0.550297200679779,3.8099942207336426,17.97132831551457,17.88220852168769,71.63289709867219,65.32074345176757,9.713172767078504e-05,0.0859829038381576,0,0,0
6068,205879.3706765684,2010-09-24 00:59:14,750.3837059486949,2,19,0.550297200679779,3.813231945037842,17.975915684713527,17.88220852168769,71.6503817136422,65.32074345176757,0.0001295089750783,0.0859829038381576,0,0,0
6069,205909.38597036948,2010-09-24 00:59:44,780.3989997297099,2,19,0.5501165986061096,3.816307783126831,17.98050297423823,17.88220852168769,71.66788112150509,65.32074345176757,6.47544875391759e-05,0.0859829038381576,0,0,0
6070,205939.40151211448,2010-09-24 01:00:14,810.414541494731,2,19,0.550297200679779,3.81986927986145,17.985090314823204,17.88220852168769,71.6853959609139,65.32074345176757,9.713172767078504e-05,0.0859829038381576,0,0,0
6071,205969.41666522936,2010-09-24 01:00:44,840.4296945945841,2,19,0.5501165986061096,3.8231070041656494,17.989677616913458,17.88220852168769,71.70292624909608,65.32074345176757,6.47544875391759e-05,0.0859829038381576,0,0,0
6072,205999.4319793913,2010-09-24 01:01:14,870.4450087514604,2,19,0.5501165986061096,3.8265066146850586,17.994264993372976,17.88220852168769,71.72047261725615,65.32074345176757,9.713172767078504e-05,0.0859829038381576,0,0,0
6073,206029.44734696645,2010-09-24 01:01:44,900.460376326677,2,19,0.550297200679779,3.830229997634888,17.998852346251123,17.88220852168769,71.73803466237608,65.32074345176757,0.0001295089750783,0.0859829038381576,0,0,0
6074,206059.46282107252,2010-09-24 01:02:14,930.4758504328112,2,19,0.5501165986061096,3.833467483520508,18.00343968434294,17.88220852168769,71.75561228280591,65.32074345176757,0.0001294612884521,0.0859829038381576,0,0,0
6075,206089.47801861336,2010-09-24 01:02:44,960.4910479735956,2,19,0.5501165986061096,3.836867094039917,18.008026970359612,17.88220852168769,71.7732050944865,65.32074345176757,9.713172767078504e-05,0.0859829038381576,0,0,0
6076,206119.4934955215,2010-09-24 01:03:14,990.5065248967616,2,19,0.550297200679779,3.840104818344116,18.012614342284433,17.88220852168769,71.79081337960498,65.32074345176757,9.713172767078504e-05,0.0859829038381576,0,0,0
6077,206149.5087216737,2010-09-24 01:03:44,1020.5217511391896,2,19,0.5501165986061096,3.8431806564331055,18.017201626371666,17.88220852168769,71.80843614977782,65.32074345176757,6.47544875391759e-05,0.0859829038381576,0,0,0
6078,206179.5240778204,2010-09-24 01:04:14,1050.5371071856289,2,19,0.550297200679779,3.846580266952514,18.021789020539742,17.88220852168769,71.82607380138626,65.32074345176757,0.0001295089750783,0.0859829038381576,0,0,0
6079,206209.53942073404,2010-09-24 01:04:44,1080.5524501093114,2,19,0.5501165986061096,3.849332332611084,18.02637641589438,17.88220852168769,71.84372568058963,65.32074345176757,6.47544875391759e-05,0.0859829038381576,0,0,0
6080,206239.55478358248,2010-09-24 01:05:14,1110.5678129627415,2,19,0.550297200679779,3.852408170700073,18.03096378135383,17.88220852168769,71.86139124232038,65.32074345176757,9.713172767078504e-05,0.0859829038381576,0,0,0
6081,206269.55531948057,2010-09-24 01:05:44,1140.5683489510354,2,19,0.5501165986061096,3.8551602363586426,18.035548915593104,17.88220852168769,71.87906152888766,65.32074345176757,6.47544875391759e-05,0.0859829038381576,0,0,0
6082,206299.56985373065,2010-09-24 01:06:14,1170.5828832312193,2,19,0.550297200679779,3.857912302017212,18.04013612931065,17.88220852168769,71.89675273838917,65.32074345176757,6.47544875391759e-05,0.0859829038381576,0,0,0
6083,206329.5851970904,2010-09-24 01:06:44,1200.5982264556528,2,19,0.5501165986061096,3.860340595245361,18.0447235097854,17.88220852168769,71.91445686827244,65.32074345176757,3.237724376958795e-05,0.0859829038381576,0,0,0
6084,206359.60055649024,2010-09-24 01:07:14,1230.6135858554624,2,19,0.5501165986061096,3.8629307746887207,18.049310857983706,17.88220852168769,71.93217252005876,65.32074345176757,0.0,0.0859829038381576,0,0,0
6085,206389.61590142897,2010-09-24 01:07:44,1260.6289307891625,2,19,0.550297200679779,3.86535906791687,18.05389816404104,17.88220852168769,71.94989895282362,65.32074345176757,6.47544875391759e-05,0.0859829038381576,0,0,0
6086,206419.63134707903,2010-09-24 01:08:14,1290.6443764392657,2,19,0.5501165986061096,3.8676254749298096,18.058485504576065,17.88220852168769,71.96763589590607,65.32074345176757,6.47544875391759e-05,0.0859829038381576,0,0,0
6087,206449.6469294354,2010-09-24 01:08:44,1320.6599588908466,2,19,0.5501165986061096,3.869568109512329,18.06307289383735,17.88220852168769,71.98538274821678,65.32074345176757,6.47544875391759e-05,0.0859829038381576,0,0,0
6088,206479.66192186417,2010-09-24 01:09:14,1350.67495123944,2,19,0.550297200679779,3.8715107440948486,18.06766020979836,17.88220852168769,72.00313845611562,65.32074345176757,6.47544875391759e-05,0.0859829038381576,0,0,0
6089,206509.6772762565,2010-09-24 01:09:44,1380.6903056167123,2,19,0.550297200679779,3.873129606246948,18.07224756044516,17.88220852168769,72.0209027048286,65.32074345176757,0.0,0.0859829038381576,0,0,0
6090,206539.69263618765,2010-09-24 01:10:14,1410.7056655478482,2,19,0.550297200679779,3.874910354614258,18.07683495681664,17.88220852168769,72.03867490837179,65.32074345176757,3.237724376958795e-05,0.0859829038381576,0,0,0
6091,206569.7079738682,2010-09-24 01:10:44,1440.7210032434807,2,19,0.5501165986061096,3.876529216766357,18.0814223473822,17.88220852168769,72.05645444351782,65.32074345176757,3.237724376958795e-05,0.0859829038381576,0,0,0
6092,206599.72380891032,2010-09-24 01:11:14,1470.7368382755417,2,19,0.550297200679779,3.877986192703247,18.086009757670983,17.88220852168769,72.07424081099063,65.32074345176757,3.237724376958795e-05,0.0859829038381576,0,0,0
6093,206629.7386633346,2010-09-24 01:11:44,1500.7516926998546,2,19,0.5501165986061096,3.879119396209717,18.090597070902323,17.88220852168769,72.0920333367357,65.32074345176757,-3.237724376958795e-05,0.0859829038381576,0,0,0
6094,206659.75402906525,2010-09-24 01:12:14,1530.7670584254545,2,19,0.550297200679779,3.8805763721466064,18.09518446674396,17.88220852168769,72.1098321858087,65.32074345176757,3.237724376958795e-05,0.0859829038381576,0,0,0
6095,206689.7696106948,2010-09-24 01:12:44,1560.782640059996,2,19,0.5501165986061096,3.881871461868286,18.099771861879088,17.88220852168769,72.12763696160012,65.32074345176757,3.237724376958795e-05,0.0859829038381576,0,0,0
6096,206719.7847072936,2010-09-24 01:13:14,1590.7977366688388,2,19,0.550297200679779,3.883166551589966,18.104359169449506,17.88220852168769,72.14544701378662,65.32074345176757,3.237724376958795e-05,0.0859829038381576,0,0,0
6097,206749.80009117952,2010-09-24 01:13:44,1620.8131206500072,2,19,0.550297200679779,3.884299755096436,18.108946579777584,17.88220852168769,72.16326309634749,65.32074345176757,0.0,0.0859829038381576,0,0,0
6098,206779.8153988201,2010-09-24 01:14:14,1650.8284281803426,2,19,0.5501165986061096,3.885432958602905,18.11353395438609,17.88220852168769,72.18108435034527,65.32074345176757,0.0,0.0859829038381576,0,0,0
6099,206809.8307798289,2010-09-24 01:14:44,1680.8438091890912,2,19,0.5501165986061096,3.886566162109375,18.11812130041833,17.88220852168769,72.19891094709254,65.32074345176757,3.237724376958795e-05,0.0859829038381576,0,0,0
6100,206839.8460974243,2010-09-24 01:15:14,1710.8591267845509,2,19,0.550297200679779,3.887861251831055,18.122708714332315,17.88220852168769,72.2167431435009,65.32074345176757,6.47544875391759e-05,0.0859829038381576,0,0,0
6101,206869.86157190643,2010-09-24 01:15:44,1740.8746012816607,2,19,0.550297200679779,3.888994455337525,18.127296062147245,17.88220852168769,72.23458047181931,65.32074345176757,6.47544875391759e-05,0.0859829038381576,0,0,0
6102,206899.8768102791,2010-09-24 01:16:14,1770.8898396543682,2,19,0.550297200679779,3.890127658843994,18.13188342073408,17.88220852168769,72.25242313913465,65.32074345176757,3.237724376958795e-05,0.0859829038381576,0,0,0
6103,206929.89239180333,2010-09-24 01:16:44,1800.905421273872,2,19,0.550297200679779,3.891422748565674,18.13647085532413,17.88220852168769,72.27027149158914,65.32074345176757,3.237724376958795e-05,0.0859829038381576,0,0,0
6104,206959.90750624173,2010-09-24 01:17:14,1830.9205356019447,2,19,0.550297200679779,3.892555952072144,18.141058294529675,17.88220852168769,72.28812523426257,65.32074345176757,6.47544875391759e-05,0.0859829038381576,0,0,0
6105,206989.9228442732,2010-09-24 01:17:44,1860.9358736584784,2,19,0.550297200679779,3.893689155578613,18.145645724893743,17.88220852168769,72.30598434781255,65.32074345176757,3.237724376958795e-05,0.0859829038381576,0,0,0
6106,207019.93821844488,2010-09-24 01:18:14,1890.9512478101108,2,19,0.550297200679779,3.894822359085083,18.150233133432955,17.88220852168769,72.32384881164026,65.32074345176757,3.237724376958795e-05,0.0859829038381576,0,0,0
6107,207049.95369916756,2010-09-24 01:18:44,1920.9667285427856,2,19,0.5501165986061096,3.8959555625915527,18.154820489540988,17.88220852168769,72.34171790337467,65.32074345176757,0.0,0.0859829038381576,0,0,0
6108,207079.9688939314,2010-09-24 01:19:14,1950.981923296613,2,19,0.5501165986061096,3.8970887660980233,18.159407774038836,17.88220852168769,72.35959240281166,65.32074345176757,0.0,0.0859829038381576,0,0,0
6109,207109.9843685989,2010-09-24 01:19:44,1980.9973979641493,2,19,0.5501165986061096,3.898383855819702,18.16399518751233,17.88220852168769,72.3774728936159,65.32074345176757,3.237724376958795e-05,0.0859829038381576,0,0,0
6110,207139.99959376865,2010-09-24 01:20:14,2011.0126231288875,2,19,0.5501165986061096,3.899678945541382,18.16858256415751,17.88220852168769,72.39535887378543,65.32074345176757,9.713172767078504e-05,0.0859829038381576,0,0,0
6111,207170.0150785064,2010-09-24 01:20:44,2041.0281078665591,2,19,0.550297200679779,3.900812149047852,18.173169978092623,17.88220852168769,72.41325056510598,65.32074345176757,6.47544875391759e-05,0.0859829038381576,0,0,0
6112,207200.0302947538,2010-09-24 01:21:14,2071.043324129076,2,19,0.550297200679779,3.901945352554321,18.177757360383406,17.88220852168769,72.4311478344378,65.32074345176757,3.237724376958795e-05,0.0859829038381576,0,0,0
6113,207230.0456842137,2010-09-24 01:21:44,2101.0587136891704,2,19,0.5501165986061096,3.903240442276001,18.18234482010603,17.88220852168769,72.44905112860602,65.32074345176757,0.0,0.0859829038381576,0,0,0
6114,207260.06098535805,2010-09-24 01:22:14,2131.0740147182773,2,19,0.550297200679779,3.90469741821289,18.18693222003184,17.88220852168769,72.46695999435009,65.32074345176757,3.237724376958795e-05,0.0859829038381576,0,0,0
6115,207290.07633348476,2010-09-24 01:22:45,2161.089362859985,2,19,0.5499359965324402,3.90583062171936,18.19151962277159,17.88220852168769,72.4848745667458,65.32074345176757,3.237724376958795e-05,0.0859829038381576,0,0,0
6116,207320.0916889798,2010-09-24 01:23:15,2191.104718435248,2,19,0.5501165986061096,3.90696382522583,18.196106944081446,17.88220852168769,72.502794663942,65.32074345176757,0.0,0.0859829038381576,0,0,0
6117,207350.1070200088,2010-09-24 01:23:45,2221.1200493690017,2,19,0.550297200679779,3.9082589149475098,18.200694367485127,17.88220852168769,72.52072113568822,65.32074345176757,0.0,0.0859829038381576,0,0,0
6118,207380.12236252645,2010-09-24 01:24:15,2251.135391886671,2,19,0.550297200679779,3.9097158908844,18.20528173138684,17.88220852168769,72.53865335839177,65.32074345176757,3.237724376958795e-05,0.0859829038381576,0,0,0
6119,207410.1377481116,2010-09-24 01:24:45,2281.150777491893,2,19,0.550297200679779,3.911172866821289,18.20986918390436,17.88220852168769,72.55659198683459,65.32074345176757,6.47544875391759e-05,0.0859829038381576,0,0,0
6120,207440.1532130549,2010-09-24 01:25:15,2311.166242440168,2,19,0.5501165986061096,3.912306070327759,18.21445656041332,17.88220852168769,72.5745364656536,65.32074345176757,3.237724376958795e-05,0.0859829038381576,0,0,0
6121,207470.1683884855,2010-09-24 01:25:45,2341.1814178657496,2,19,0.5501165986061096,3.913762807846069,18.219043894869937,17.88220852168769,72.59248699359564,65.32074345176757,6.470680091297254e-05,0.0859829038381576,0,0,0
6122,207500.1837474993,2010-09-24 01:26:15,2371.196776859545,2,19,0.550297200679779,3.915219783782959,18.22363126646321,17.88220852168769,72.61044391131249,65.32074345176757,6.47544875391759e-05,0.0859829038381576,0,0,0
6123,207530.1991245933,2010-09-24 01:26:45,2401.2121539585346,2,19,0.5499359965324402,3.9163529872894287,18.22821866746336,17.88220852168769,72.62840709358649,65.32074345176757,0.0,0.0859829038381576,0,0,0
6124,207560.2144424444,2010-09-24 01:27:15,2431.22747180462,2,19,0.5501165986061096,3.9178099632263184,18.232806063719472,17.88220852168769,72.64637666341699,65.32074345176757,0.0,0.0859829038381576,0,0,0
6125,207590.2299183951,2010-09-24 01:27:45,2461.2429477703963,2,19,0.5501165986061096,3.919105052947998,18.23739353118757,17.88220852168769,72.66435286377695,65.32074345176757,0.0,0.0859829038381576,0,0,0
6126,207620.2451446476,2010-09-24 01:28:15,2491.2581740228493,2,19,0.550297200679779,3.9207239151000977,18.24198090249331,17.88220852168769,72.68233517212671,65.32074345176757,3.237724376958795e-05,0.0859829038381576,0,0,0
6127,207650.26063735012,2010-09-24 01:28:45,2521.273666715378,2,19,0.5501165986061096,3.922019004821777,18.246568348933323,17.88220852168769,72.70032425914918,65.32074345176757,3.237724376958795e-05,0.0859829038381576,0,0,0
6128,207680.275841312,2010-09-24 01:29:15,2551.2888706721774,2,19,0.550297200679779,3.923475980758667,18.25115575844648,17.88220852168769,72.71831981302506,65.32074345176757,3.237724376958795e-05,0.0859829038381576,0,0,0
6129,207710.29116501263,2010-09-24 01:29:45,2581.304194387915,2,19,0.5501165986061096,3.9249329566955566,18.25574309958141,17.88220852168769,72.73632165716435,65.32074345176757,3.237724376958795e-05,0.0859829038381576,0,0,0
6130,207740.30651996136,2010-09-24 01:30:15,2611.319549336614,2,19,0.5501165986061096,3.926228046417236,18.260330401234352,17.88220852168769,72.75432992832661,65.32074345176757,0.0,0.0859829038381576,0,0,0
6131,207770.3218808549,2010-09-24 01:30:45,2641.3349102301518,2,19,0.550297200679779,3.927846908569336,18.264917702056785,17.88220852168769,72.77234489904536,65.32074345176757,3.237724376958795e-05,0.0859829038381576,0,0,0
6132,207800.3372505504,2010-09-24 01:31:15,2671.3502799256607,2,19,0.5501165986061096,3.9293038845062256,18.269505014611426,17.88220852168769,72.79036668521262,65.32074345176757,3.237724376958795e-05,0.0859829038381576,0,0,0
6133,207830.352575018,2010-09-24 01:31:45,2701.365604383249,2,19,0.550297200679779,3.930922746658325,18.27409231578065,17.88220852168769,72.80839537633116,65.32074345176757,6.47544875391759e-05,0.0859829038381576,0,0,0
6134,207860.36806438223,2010-09-24 01:32:15,2731.381093747469,2,19,0.5501165986061096,3.932379722595215,18.278679729936048,17.88220852168769,72.82643147285535,65.32074345176757,3.237724376958795e-05,0.0859829038381576,0,0,0
6135,207890.38350456368,2010-09-24 01:32:45,2761.3965339289225,2,19,0.550297200679779,3.9339985847473145,18.28326713319009,17.88220852168769,72.84447453848574,65.32074345176757,6.47544875391759e-05,0.0859829038381576,0,0,0
6136,207920.39875477596,2010-09-24 01:33:15,2791.4117841361704,2,19,0.550297200679779,3.935455560684204,18.28785456404324,17.88220852168769,72.86252479867228,65.32074345176757,3.237724376958795e-05,0.0859829038381576,0,0,0
6137,207950.41394827663,2010-09-24 01:33:45,2821.426977651908,2,19,0.5501165986061096,3.937074422836304,18.29244199465354,17.88220852168769,72.88058201053751,65.32074345176757,6.47544875391759e-05,0.0859829038381576,0,0,0
6138,207980.4293011201,2010-09-24 01:34:15,2851.4423304803145,2,19,0.550297200679779,3.938531398773194,18.29702936569737,17.88220852168769,72.89864624533833,65.32074345176757,0.0,0.0859829038381576,0,0,0
6139,208010.44466257,2010-09-24 01:34:45,2881.4576919502915,2,19,0.5501165986061096,3.940150260925293,18.30161664435819,17.88220852168769,72.91671733419885,65.32074345176757,3.237724376958795e-05,0.0859829038381576,0,0,0
6140,208040.4601324456,2010-09-24 01:35:15,2911.473161805815,2,19,0.5501165986061096,3.9419310092926025,18.30620395914505,17.88220852168769,72.93479588813187,65.32074345176757,9.713172767078504e-05,0.0859829038381576,0,0,0
6141,208070.4754983416,2010-09-24 01:35:45,2941.48852770184,2,19,0.550297200679779,3.943549871444702,18.31079131902,17.88220852168769,72.95288203773397,65.32074345176757,6.47544875391759e-05,0.0859829038381576,0,0,0
6142,208100.49083860364,2010-09-24 01:36:15,2971.503867968892,2,19,0.550297200679779,3.945006847381592,18.31537882207037,17.88220852168769,72.97097624403567,65.32074345176757,3.237724376958795e-05,0.0859829038381576,0,0,0
6143,208130.50607044503,2010-09-24 01:36:45,3001.5190998203207,2,19,0.5501165986061096,3.9466257095336914,18.31996627024618,17.88220852168769,72.98907779456312,65.32074345176757,3.237724376958795e-05,0.0859829038381576,0,0,0
6144,208160.5215351076,2010-09-24 01:37:15,3031.5345644678446,2,19,0.5501165986061096,3.948244571685791,18.32455379113719,17.88220852168769,73.00718712735562,65.32074345176757,3.237724376958795e-05,0.0859829038381576,0,0,0
6145,208190.53677225727,2010-09-24 01:37:45,3061.5498016325364,2,19,0.5501165986061096,3.94986343383789,18.32914122242784,17.88220852168769,73.0253038162321,65.32074345176757,0.0,0.0859829038381576,0,0,0
6146,208220.55212927616,2010-09-24 01:38:15,3091.565158731603,2,19,0.550297200679779,3.9516441822052,18.333728705894885,17.88220852168769,73.04342842682398,65.32074345176757,3.237724376958795e-05,0.0859829038381576,0,0,0
6147,208250.56748634516,2010-09-24 01:38:45,3121.5805157203945,2,19,0.550297200679779,3.9534249305725098,18.33831619390912,17.88220852168769,73.06156081387084,65.32074345176757,3.237724376958795e-05,0.0859829038381576,0,0,0
6148,208280.58286136892,2010-09-24 01:39:15,3151.595890729166,2,19,0.550297200679779,3.955367565155029,18.34290365743559,17.88220852168769,73.07970102446981,65.32074345176757,6.47544875391759e-05,0.0859829038381576,0,0,0
6149,208310.5981724682,2010-09-24 01:39:45,3181.611201843448,2,19,0.550297200679779,3.956824541091919,18.347491195284423,17.88220852168769,73.09784952766158,65.32074345176757,3.237724376958795e-05,0.0859829038381576,0,0,0
6150,208340.61352779783,2010-09-24 01:40:15,3211.626557173098,2,19,0.550297200679779,3.9587671756744394,18.352078684099077,17.88220852168769,73.11600571328951,65.32074345176757,6.47544875391759e-05,0.0859829038381576,0,0,0
6151,208370.6292343693,2010-09-24 01:40:45,3241.642263734476,2,19,0.550297200679779,3.960386037826538,18.35666627026303,17.88220852168769,73.13417043785826,65.32074345176757,0.0,0.0859829038381576,0,0,0
6152,208400.6442325474,2010-09-24 01:41:15,3271.6572619276576,2,19,0.550297200679779,3.962166786193848,18.36125372692837,17.88220852168769,73.15234280654195,65.32074345176757,0.0,0.0859829038381576,0,0,0
6153,208430.65957763648,2010-09-24 01:41:45,3301.6726070167456,2,19,0.5501165986061096,3.964109420776367,18.36584120684263,17.88220852168769,73.17052346432202,65.32074345176757,6.47544875391759e-05,0.0859829038381576,0,0,0
6154,208460.67492684585,2010-09-24 01:42:15,3331.6879562211057,2,19,0.550297200679779,3.9658901691436768,18.37042868939825,17.88220852168769,73.18871250310849,65.32074345176757,6.47544875391759e-05,0.0859829038381576,0,0,0
6155,208490.690317218,2010-09-24 01:42:45,3361.703346603252,2,19,0.550297200679779,3.9676709175109854,18.37501620630425,17.88220852168769,73.20691014743969,65.32074345176757,6.47544875391759e-05,0.0859829038381576,0,0,0
6156,208520.7056696253,2010-09-24 01:43:15,3391.718698990557,2,19,0.550297200679779,3.969289779663086,18.37960370701644,17.88220852168769,73.22511625596603,65.32074345176757,-3.237724376958795e-05,0.0859829038381576,0,0,0
6157,208550.72098441373,2010-09-24 01:43:45,3421.734013773997,2,19,0.5504778623580933,3.9715561866760254,18.384191189875704,17.88220852168769,73.2433309474352,65.32074345176757,6.47544875391759e-05,0.0859829038381576,0,0,0
6158,208580.73633607928,2010-09-24 01:44:15,3451.749365439501,2,19,0.550297200679779,3.973498821258545,18.38877878817286,17.88220852168769,73.26155493646219,65.32074345176757,6.47544875391759e-05,0.0859829038381576,0,0,0
6159,208610.75183645097,2010-09-24 01:44:45,3481.76486581621,2,19,0.550297200679779,3.9752795696258554,18.39336630976277,17.88220852168769,73.2797874817204,65.32074345176757,6.47544875391759e-05,0.0859829038381576,0,0,0
6160,208640.7670496659,2010-09-24 01:45:15,3511.780079026108,2,19,0.550297200679779,3.977384090423584,18.397953829190865,17.88220852168769,73.29802904276337,65.32074345176757,6.47544875391759e-05,0.0859829038381576,0,0,0
6161,208670.78238978257,2010-09-24 01:45:45,3541.7954191628337,2,19,0.5501165986061096,3.979326725006104,18.402541355882505,17.88220852168769,73.31627935350254,65.32074345176757,3.237724376958795e-05,0.0859829038381576,0,0,0
6162,208700.79776006457,2010-09-24 01:46:15,3571.810789439794,2,19,0.550297200679779,3.981431245803833,18.407128777625,17.88220852168769,73.33453892873118,65.32074345176757,6.47544875391759e-05,0.0859829038381576,0,0,0
6163,208730.81312291292,2010-09-24 01:46:45,3601.8261522932244,2,19,0.550297200679779,3.983373880386353,18.411716242416865,17.88220852168769,73.35280794817544,65.32074345176757,3.237724376958795e-05,0.0859829038381576,0,0,0
6164,208760.82844742568,2010-09-24 01:47:15,3631.8414768009375,2,19,0.5501165986061096,3.985478401184082,18.416303616341185,17.88220852168769,73.37108596284844,65.32074345176757,3.237724376958795e-05,0.0859829038381576,0,0,0
6165,208790.8437965348,2010-09-24 01:47:45,3661.856825915073,2,19,0.5504778623580933,3.9877448081970215,18.42089106254691,17.88220852168769,73.38937378643537,65.32074345176757,9.713172767078504e-05,0.0859829038381576,0,0,0
6166,208820.85915715765,2010-09-24 01:48:15,3691.8721865329226,2,19,0.5501165986061096,3.989687442779541,18.425478428942228,17.88220852168769,73.40767079165559,65.32074345176757,6.47544875391759e-05,0.0859829038381576,0,0,0
6167,208850.8757734148,2010-09-24 01:48:45,3721.888802795053,2,19,0.5501165986061096,3.991630077362061,18.43006604834339,17.88220852168769,73.42597852253492,65.32074345176757,6.47544875391759e-05,0.0859829038381576,0,0,0
6168,208880.88986141092,2010-09-24 01:49:15,3751.902890786232,2,19,0.550297200679779,3.993896484375,18.434653308629784,17.88220852168769,73.44429458527966,65.32074345176757,9.713172767078504e-05,0.0859829038381576,0,0,0
6169,208910.90522660525,2010-09-24 01:49:45,3781.9182559654673,2,19,0.5504778623580933,3.99616265296936,18.439240805506685,17.88220852168769,73.46262142409465,65.32074345176757,9.713172767078504e-05,0.0859829038381576,0,0,0
6170,208940.920553529,2010-09-24 01:50:15,3811.933582914274,2,19,0.5501165986061096,3.99810528755188,18.4438282961659,17.88220852168769,73.48095815372676,65.32074345176757,3.237724376958795e-05,0.0859829038381576,0,0,0
6171,208970.93592131475,2010-09-24 01:50:45,3841.948950695004,2,19,0.550297200679779,4.000371932983398,18.448415757326966,17.88220852168769,73.49930463455368,65.32074345176757,6.47544875391759e-05,0.0859829038381576,0,0,0
6172,209000.9512639527,2010-09-24 01:51:15,3871.964293317936,2,19,0.550297200679779,4.002476215362549,18.453003211249936,17.88220852168769,73.51766123755795,65.32074345176757,3.23295607813634e-05,0.0859829038381576,0,0,0
6173,209030.96660725732,2010-09-24 01:51:45,3901.979636617557,2,19,0.5501165986061096,4.004904747009277,18.457590742868017,17.88220852168769,73.5360282646688,65.32074345176757,9.71794142969884e-05,0.0859829038381576,0,0,0
6174,209060.98196348423,2010-09-24 01:52:15,3931.994992859484,2,19,0.5504778623580933,4.007332801818848,18.462178301099684,17.88220852168769,73.55440560202395,65.32074345176757,0.0001295089750783,0.0859829038381576,0,0,0
6175,209090.99732369103,2010-09-24 01:52:45,3962.0103530562833,2,19,0.550297200679779,4.009437561035156,18.46676585676046,17.88220852168769,73.5727931690898,65.32074345176757,9.71794142969884e-05,0.0859829038381576,0,0,0
6176,209121.01268676,2010-09-24 01:53:15,3992.025716135276,2,19,0.5504778623580933,4.011541843414307,18.47135330297285,17.88220852168769,73.59119060664304,65.32074345176757,6.47544875391759e-05,0.0859829038381576,0,0,0
6177,209151.0280288115,2010-09-24 01:53:45,4022.041058176757,2,19,0.5501165986061096,4.013646602630615,18.47594078602549,17.88220852168769,73.60959864324457,65.32074345176757,3.24249267578125e-05,0.0859829038381576,0,0,0
6178,209181.0433730184,2010-09-24 01:54:15,4052.056402378631,2,19,0.5501165986061096,4.0160746574401855,18.480528219278565,17.88220852168769,73.62801692926392,65.32074345176757,9.70840483205393e-05,0.0859829038381576,0,0,0
6179,209211.05873250344,2010-09-24 01:54:46,4082.0717619588895,2,19,0.5501165986061096,4.018341064453125,18.485115709421542,17.88220852168769,73.64644605049516,65.32074345176757,6.47544875391759e-05,0.0859829038381576,0,0,0
6180,209241.0740714472,2010-09-24 01:55:16,4112.087100902638,2,19,0.550297200679779,4.020931243896484,18.48970323737621,17.88220852168769,73.66488588785612,65.32074345176757,9.70840483205393e-05,0.0859829038381576,0,0,0
6181,209271.08942290212,2010-09-24 01:55:46,4142.102452282428,2,19,0.550297200679779,4.023036003112793,18.49429071283101,17.88220852168769,73.68333638558566,65.32074345176757,6.47544875391759e-05,0.0859829038381576,0,0,0
6182,209301.1047761967,2010-09-24 01:56:16,4172.117805571986,2,19,0.5501165986061096,4.025464057922363,18.498878228763253,17.88220852168769,73.70179787783157,65.32074345176757,9.70840483205393e-05,0.0859829038381576,0,0,0
6183,209331.1201542932,2010-09-24 01:56:46,4202.133183653427,2,19,0.5501165986061096,4.027892589569092,18.50346574359966,17.88220852168769,73.72027028891978,65.32074345176757,3.24249267578125e-05,0.0859829038381576,0,0,0
6184,209361.1356095573,2010-09-24 01:57:16,4232.148638932566,2,19,0.550297200679779,4.030482769012451,18.50805327837693,17.88220852168769,73.73875374836479,65.32074345176757,9.71794142969884e-05,0.0859829038381576,0,0,0
6185,209391.1508286068,2010-09-24 01:57:46,4262.163857987052,2,19,0.5501165986061096,4.032587051391602,18.51264072327981,17.88220852168769,73.75724795580824,65.32074345176757,6.47544875391759e-05,0.0859829038381576,0,0,0
6186,209421.16623842745,2010-09-24 01:58:16,4292.179267802708,2,19,0.550297200679779,4.035177230834961,18.51722819005711,17.88220852168769,73.77575351874411,65.32074345176757,9.71794142969884e-05,0.0859829038381576,0,0,0
6187,209451.18183479377,2010-09-24 01:58:46,4322.194864153984,2,19,0.5499359965324402,4.037605285644531,18.521815778172243,17.88220852168769,73.79427093027863,65.32074345176757,6.47544875391759e-05,0.0859829038381576,0,0,0
6188,209481.1969177435,2010-09-24 01:59:16,4352.209947103733,2,19,0.550297200679779,4.04003381729126,18.526403211029585,17.88220852168769,73.8127991481534,65.32074345176757,6.47544875391759e-05,0.0859829038381576,0,0,0
6189,209511.21226163465,2010-09-24 01:59:46,4382.2252909998415,2,19,0.5501165986061096,4.042623996734619,18.5309906880642,17.88220852168769,73.83133905391739,65.32074345176757,3.24249267578125e-05,0.0859829038381576,0,0,0
6190,209541.22760766104,2010-09-24 02:00:16,4412.240637036295,2,19,0.550297200679779,4.0452141761779785,18.535578169041965,17.88220852168769,73.84989065391194,65.32074345176757,3.24249267578125e-05,0.0859829038381576,0,0,0
6191,209571.24307473464,2010-09-24 02:00:46,4442.256104114887,2,19,0.550297200679779,4.047804355621338,18.54016570369789,17.88220852168769,73.86845426862665,65.32074345176757,3.24249267578125e-05,0.0859829038381576,0,0,0
6192,209601.25829009488,2010-09-24 02:01:16,4472.271319475151,2,19,0.550297200679779,4.050232410430908,18.54475317623364,17.88220852168769,73.8870295686041,65.32074345176757,3.23295607813634e-05,0.0859829038381576,0,0,0
6193,209631.2736339609,2010-09-24 02:01:46,4502.286663341186,2,19,0.5501165986061096,4.052984714508057,18.54934071521573,17.88220852168769,73.90561709476205,65.32074345176757,3.24249267578125e-05,0.0859829038381576,0,0,0
6194,209661.2889880976,2010-09-24 02:02:16,4532.302017477858,2,19,0.550297200679779,4.055736541748047,18.55392820017712,17.88220852168769,73.92421653978592,65.32074345176757,9.70840483205393e-05,0.0859829038381576,0,0,0
6195,209691.30447791796,2010-09-24 02:02:46,4562.31750728318,2,19,0.550297200679779,4.058488845825195,18.55851569986897,17.88220852168769,73.94282828165002,65.32074345176757,9.71794142969884e-05,0.0859829038381576,0,0,0
6196,209721.3196990376,2010-09-24 02:03:16,4592.332728412846,2,19,0.550297200679779,4.060916900634766,18.56310327453755,17.88220852168769,73.9614525602784,65.32074345176757,6.47544875391759e-05,0.0859829038381576,0,0,0
6197,209751.3350561567,2010-09-24 02:03:46,4622.348085531962,2,19,0.550297200679779,4.063669204711914,18.567690752504703,17.88220852168769,73.98008864950663,65.32074345176757,6.47544875391759e-05,0.0859829038381576,0,0,0
6198,209781.3505322628,2010-09-24 02:04:16,4652.363561733327,2,19,0.5501165986061096,4.066421031951904,18.572278270648244,17.88220852168769,73.99873750621515,65.32074345176757,9.70840483205393e-05,0.0859829038381576,0,0,0
6199,209811.36575250028,2010-09-24 02:04:46,4682.378781875527,2,19,0.550297200679779,4.069497108459473,18.57686574370349,17.88220852168769,74.01739892016202,65.32074345176757,9.71794142969884e-05,0.0859829038381576,0,0,0
6200,209841.38109618085,2010-09-24 02:05:16,4712.394125561113,2,19,0.550297200679779,4.072087287902832,18.581453254250665,17.88220852168769,74.03607328579729,65.32074345176757,6.47544875391759e-05,0.0859829038381576,0,0,0
6201,209871.3964420619,2010-09-24 02:05:46,4742.409471442177,2,19,0.5501165986061096,4.075001239776611,18.586040684343185,17.88220852168769,74.05476027852453,65.32074345176757,0.0001295089750783,0.0859829038381576,0,0,0
6202,209901.4117916723,2010-09-24 02:06:16,4772.4248210325,2,19,0.5501165986061096,4.077753067016602,18.59062810386479,17.88220852168769,74.07346028738895,65.32074345176757,6.47544875391759e-05,0.0859829038381576,0,0,0
6203,209931.427161844,2010-09-24 02:06:46,4802.440191219236,2,19,0.550297200679779,4.08082914352417,18.59521569787562,17.88220852168769,74.09217423640709,65.32074345176757,6.47544875391759e-05,0.0859829038381576,0,0,0
6204,209961.44252718863,2010-09-24 02:07:16,4832.455556568897,2,19,0.5501165986061096,4.08358097076416,18.599803169498607,17.88220852168769,74.11090087246941,65.32074345176757,6.47544875391759e-05,0.0859829038381576,0,0,0
6205,209991.4578458718,2010-09-24 02:07:46,4862.470875252072,2,19,0.5501165986061096,4.08649492263794,18.60439064108291,17.88220852168769,74.12964094590451,65.32074345176757,9.70840483205393e-05,0.0859829038381576,0,0,0
6206,210021.47320441948,2010-09-24 02:08:16,4892.486233799754,2,19,0.550297200679779,4.089570999145508,18.60897810621428,17.88220852168769,74.1483944923966,65.32074345176757,9.71794142969884e-05,0.0859829038381576,0,0,0
6207,210051.4885630223,2010-09-24 02:08:46,4922.501592387536,2,19,0.550297200679779,4.092646598815918,18.613565632969536,17.88220852168769,74.16716196421307,65.32074345176757,0.0001295089750783,0.0859829038381576,0,0,0
6208,210081.50402399065,2010-09-24 02:09:16,4952.517053350864,2,19,0.5501165986061096,4.095560550689697,18.61815310443317,17.88220852168769,74.18594296238373,65.32074345176757,9.70840483205393e-05,0.0859829038381576,0,0,0
6209,210111.5192683984,2010-09-24 02:09:46,4982.532297758636,2,19,0.550297200679779,4.098636627197266,18.62274060438803,17.88220852168769,74.20473802332188,65.32074345176757,9.71794142969884e-05,0.0859829038381576,0,0,0
6210,210141.5346226153,2010-09-24 02:10:16,5012.547652070746,2,19,0.5501165986061096,4.101550579071045,18.62732817240893,17.88220852168769,74.22354735720867,65.32074345176757,6.47544875391759e-05,0.0859829038381576,0,0,0
6211,210171.5499840552,2010-09-24 02:10:46,5042.563013420423,2,19,0.550297200679779,4.104788303375244,18.63191565984788,17.88220852168769,74.24237041397828,65.32074345176757,9.71794142969884e-05,0.0859829038381576,0,0,0
6212,210201.56530187625,2010-09-24 02:11:16,5072.578331261495,2,19,0.550297200679779,4.107702255249023,18.636503185123097,17.88220852168769,74.26120796577305,65.32074345176757,6.47544875391759e-05,0.0859829038381576,0,0,0
6213,210231.5807901928,2010-09-24 02:11:46,5102.593819553038,2,19,0.550297200679779,4.1111016273498535,18.64109067643725,17.88220852168769,74.28005977771119,65.32074345176757,9.70840483205393e-05,0.0859829038381576,0,0,0
6214,210261.5961270012,2010-09-24 02:12:16,5132.609156386518,2,19,0.5501165986061096,4.114015579223633,18.64567821150554,17.88220852168769,74.29892623828533,65.32074345176757,3.23295607813634e-05,0.0859829038381576,0,0,0
6215,210291.6117013476,2010-09-24 02:12:46,5162.624730707806,2,19,0.550297200679779,4.117253303527832,18.65026571090266,17.88220852168769,74.31780720682545,65.32074345176757,6.47544875391759e-05,0.0859829038381576,0,0,0
6216,210321.62671192668,2010-09-24 02:13:16,5192.639741301942,2,19,0.550297200679779,4.120491027832031,18.654853195511567,17.88220852168769,74.33670281165587,65.32074345176757,6.47544875391759e-05,0.0859829038381576,0,0,0
6217,210351.6420478228,2010-09-24 02:13:46,5222.655077198083,2,19,0.5501165986061096,4.123728752136231,18.65944074659873,17.88220852168769,74.35561351451655,65.32074345176757,6.47544875391759e-05,0.0859829038381576,0,0,0
6218,210381.6574169169,2010-09-24 02:14:16,5252.670446292091,2,19,0.5501165986061096,4.1271281242370605,18.6640282867352,17.88220852168769,74.37453910590473,65.32074345176757,9.70840483205393e-05,0.0859829038381576,0,0,0
6219,210411.6727678305,2010-09-24 02:14:46,5282.68579719068,2,19,0.550297200679779,4.13036584854126,18.66861572559015,17.88220852168769,74.393479362884,65.32074345176757,9.70840483205393e-05,0.0859829038381576,0,0,0
6220,210441.6881065888,2010-09-24 02:15:16,5312.701135964003,2,19,0.550297200679779,4.133603572845459,18.673203281518543,17.88220852168769,74.41243531953428,65.32074345176757,6.47544875391759e-05,0.0859829038381576,0,0,0
6221,210471.7034630763,2010-09-24 02:15:46,5342.716492451542,2,19,0.5501165986061096,4.137003421783447,18.67779076010057,17.88220852168769,74.43140627984177,65.32074345176757,6.47544875391759e-05,0.0859829038381576,0,0,0
6222,210501.7188268069,2010-09-24 02:16:16,5372.7318561671245,2,19,0.5501165986061096,4.140402793884277,18.682378318078584,17.88220852168769,74.45039305123254,65.32074345176757,9.70840483205393e-05,0.0859829038381576,0,0,0
6223,210531.7342992088,2010-09-24 02:16:46,5402.747328574018,2,19,0.5504778623580933,4.143802642822266,18.686965891981345,17.88220852168769,74.46939541452296,65.32074345176757,6.47544875391759e-05,0.0859829038381576,0,0,0
6224,210561.74951628337,2010-09-24 02:17:16,5432.762545663599,2,19,0.5501165986061096,4.147364139556885,18.691553362703743,17.88220852168769,74.4884133509012,65.32074345176757,9.71794142969884e-05,0.0859829038381576,0,0,0
6225,210591.76487483105,2010-09-24 02:17:46,5462.777904211281,2,19,0.550297200679779,4.150763511657715,18.696140875708497,17.88220852168769,74.50744736675209,65.32074345176757,9.70840483205393e-05,0.0859829038381576,0,0,0
6226,210621.78020652165,2010-09-24 02:18:16,5492.793235906937,2,19,0.5501165986061096,4.154325008392334,18.70072829171827,17.88220852168769,74.52649685642415,65.32074345176757,9.70840483205393e-05,0.0859829038381576,0,0,0
6227,210651.79557309937,2010-09-24 02:18:46,5522.808602464614,2,19,0.5501165986061096,4.157724857330322,18.705315726368056,17.88220852168769,74.54556244224052,65.32074345176757,6.47544875391759e-05,0.0859829038381576,0,0,0
6228,210681.8109113163,2010-09-24 02:19:16,5552.823940691573,2,19,0.5501165986061096,4.161286354064941,18.70990320768675,17.88220852168769,74.56464443347699,65.32074345176757,6.47544875391759e-05,0.0859829038381576,0,0,0
6229,210711.8263953773,2010-09-24 02:19:46,5582.839424737518,2,19,0.5501165986061096,4.1648478507995605,18.71449069060592,17.88220852168769,74.5837426895423,65.32074345176757,9.71794142969884e-05,0.0859829038381576,0,0,0
6230,210741.841776752,2010-09-24 02:20:16,5612.854806117193,2,19,0.5501165986061096,4.16840934753418,18.71907808381061,17.88220852168769,74.60285695139682,65.32074345176757,9.71794142969884e-05,0.0859829038381576,0,0,0
6231,210771.8571329538,2010-09-24 02:20:46,5642.870162334057,2,19,0.5499359965324402,4.171970844268799,18.723665426303896,17.88220852168769,74.62198754192795,65.32074345176757,6.47544875391759e-05,0.0859829038381576,0,0,0
6232,210801.872296605,2010-09-24 02:21:16,5672.8853259802345,2,19,0.5499359965324402,4.175693988800049,18.728251978786567,17.88220852168769,74.64113128266247,65.32074345176757,9.70840483205393e-05,0.0859829038381576,0,0,0
6233,210831.8875512182,2010-09-24 02:21:46,5702.900580578444,2,19,0.550297200679779,4.179579257965088,18.732838562301257,17.88220852168769,74.66029193652275,65.32074345176757,0.0001295089750783,0.0859829038381576,0,0,0
6234,210861.90299471296,2010-09-24 02:22:16,5732.916024088205,2,19,0.5501165986061096,4.183140754699707,18.7374253335006,17.88220852168769,74.67947029853585,65.32074345176757,0.0001295089750783,0.0859829038381576,0,0,0
6235,210891.9183560977,2010-09-24 02:22:46,5762.931385482994,2,19,0.5501165986061096,4.186864376068115,18.74201195858386,17.88220852168769,74.69866507233854,65.32074345176757,9.71794142969884e-05,0.0859829038381576,0,0,0
6236,210921.93369801887,2010-09-24 02:23:16,5792.94672739415,2,19,0.550297200679779,4.190587520599365,18.74659855188234,17.88220852168769,74.71787694221558,65.32074345176757,0.0001295089750783,0.0859829038381576,0,0,0
6237,210951.9491931124,2010-09-24 02:23:46,5822.962222497696,2,19,0.5501165986061096,4.194311141967773,18.751185163939773,17.88220852168769,74.73710620500688,65.32074345176757,6.47544875391759e-05,0.0859829038381576,0,0,0
6238,210981.96440177097,2010-09-24 02:24:16,5852.977431151219,2,19,0.550297200679779,4.198195934295654,18.75577242941313,17.88220852168769,74.75635573472294,65.32074345176757,0.0001295089750783,0.0859829038381576,0,0,0
6239,210995.02680761053,2010-09-24 02:24:29,5866.039836985784,2,19,0.550297200679779,4.200138568878174,18.75776882860022,17.88220852168769,74.76473873754952,65.32074345176757,0.0001618385285837,0.0859829038381576,0,0,0
6240,211025.036911589,2010-09-24 02:25:00,30.01532595131694,3,19,0.0,4.121462345123291,18.75776882860022,17.88220852168769,74.76473873754952,65.32074345176757,-0.0003237724304199,0.0859829038381576,0,0,0
6241,211055.0522678309,2010-09-24 02:25:30,60.03068227845661,3,19,0.0,4.111749172210693,18.75776882860022,17.88220852168769,74.76473873754952,65.32074345176757,-0.0001619339018361,0.0859829038381576,0,0,0
6242,211085.0676246192,2010-09-24 02:26:00,90.04603897652217,3,19,0.0,4.106083393096924,18.75776882860022,17.88220852168769,74.76473873754952,65.32074345176757,-0.0001295089750783,0.0859829038381576,0,0,0
6243,211115.0360832976,2010-09-24 02:26:30,120.01449764990303,3,19,0.0,4.102198123931885,18.75776882860022,17.88220852168769,74.76473873754952,65.32074345176757,-9.70840483205393e-05,0.0859829038381576,0,0,0
6244,211115.04774116416,2010-09-24 02:26:30,0.015753026978882,4,19,0.9944154620170592,4.199814796447754,18.757773180003877,17.88220852168769,74.76475701263898,65.32074345176757,0.0,0.0859829038381576,0,0,0
6245,211116.00068776545,2010-09-24 02:26:31,0.968699623290444,4,19,0.9442060589790344,4.199653148651123,18.758028220563496,17.88220852168769,74.76582809219661,65.32074345176757,-3.23295607813634e-05,0.0859829038381576,0,0,0
6246,211118.04767549675,2010-09-24 02:26:33,3.015687354588955,4,19,0.894177258014679,4.199491024017334,18.75854979016357,17.88220852168769,74.76801849487245,65.32074345176757,-6.47544875391759e-05,0.0859829038381576,0,0,0
6247,211121.14141720705,2010-09-24 02:26:36,6.109429069870561,4,19,0.8439679145812988,4.199491024017334,18.759295733745056,17.88220852168769,74.77115117324819,65.32074345176757,-3.24249267578125e-05,0.0859829038381576,0,0,0
6248,211125.40685808368,2010-09-24 02:26:40,10.374869961557888,4,19,0.7937585115432739,4.199491024017334,18.760264890604223,17.88220852168769,74.77522130781412,65.32074345176757,-3.24249267578125e-05,0.0859829038381576,0,0,0
6249,211130.87557163407,2010-09-24 02:26:46,15.843583491870092,4,19,0.7435491681098938,4.199653148651123,18.761430971443843,17.88220852168769,74.78011844780958,65.32074345176757,0.0,0.0859829038381576,0,0,0
6250,211137.9225115402,2010-09-24 02:26:53,22.890523403032955,4,19,0.6933397650718689,4.199653148651123,18.76283539342188,17.88220852168769,74.78601655045463,65.32074345176757,0.0,0.0859829038381576,0,0,0
6251,211147.3290861225,2010-09-24 02:27:02,32.29709797533073,4,19,0.6433110237121582,4.199653148651123,18.764578495474368,17.88220852168769,74.79333700299114,65.32074345176757,0.0,0.0859829038381576,0,0,0
6252,211160.1253341212,2010-09-24 02:27:15,45.09334597900144,4,19,0.5931016206741333,4.199491024017334,18.766771125613577,17.88220852168769,74.80254532950087,65.32074345176757,-3.24249267578125e-05,0.0859829038381576,0,0,0
6253,211179.2501391268,2010-09-24 02:27:34,64.21815100462308,4,19,0.5430728793144226,4.199653148651123,18.769780438273767,17.88220852168769,74.81518345283321,65.32074345176757,0.0,0.0859829038381576,0,0,0
6254,211210.45309981707,2010-09-24 02:28:05,95.42111168994914,4,19,0.4928634762763977,4.199653148651123,18.77425220651654,17.88220852168769,74.83396340513656,65.32074345176757,0.0,0.0859829038381576,0,0,0
6255,211264.5462072252,2010-09-24 02:28:59,149.5142190830188,4,19,0.4428347051143646,4.199491024017334,18.781251711418825,17.88220852168769,74.86335905003104,65.32074345176757,0.0,0.0859829038381576,0,0,0
6256,211347.96732343527,2010-09-24 02:30:23,232.93533529810952,4,19,0.3928059339523315,4.199653148651123,18.79090821515707,17.88220852168769,74.90391319249662,65.32074345176757,0.0,0.0859829038381576,0,0,0
6257,211457.15382645972,2010-09-24 02:32:12,342.1218383326072,4,19,0.342596560716629,4.199653148651123,18.80204357173066,17.88220852168769,74.95067811189544,65.32074345176757,-3.23295607813634e-05,0.0859829038381576,0,0,0
6258,211588.3401258856,2010-09-24 02:34:23,473.3081377584817,4,19,0.2922065556049347,4.199653148651123,18.813596110789184,17.88220852168769,74.99919504510875,65.32074345176757,0.0,0.0859829038381576,0,0,0
6259,211748.1511682687,2010-09-24 02:37:03,633.1191801415841,4,19,0.2421777993440628,4.199653148651123,18.82543643243289,17.88220852168769,75.04892058541452,65.32074345176757,-3.23295607813634e-05,0.0859829038381576,0,0,0
6260,211945.9774920828,2010-09-24 02:40:21,830.945503945618,4,19,0.1921490281820297,4.199491024017334,18.83732900831016,17.88220852168769,75.0988655757688,65.32074345176757,-6.47544875391759e-05,0.0859829038381576,0,0,0
6261,212211.67817755573,2010-09-24 02:44:46,1096.6461894286122,4,19,0.1421202570199966,4.199814796447754,18.849581051912228,17.88220852168769,75.1503202008905,65.32074345176757,3.23295607813634e-05,0.0859829038381576,0,0,0
6262,212604.8621112591,2010-09-24 02:51:20,1489.8301231269593,4,19,0.0920914858579635,4.199491024017334,18.862200231368817,17.88220852168769,75.20331674618299,65.32074345176757,-3.24249267578125e-05,0.0859829038381576,0,0,0
6263,213216.9190266576,2010-09-24 03:01:32,2101.8870385153714,4,19,0.0498289167881011,4.199814796447754,18.873933347723344,17.88220852168769,75.25259209181225,65.32074345176757,6.47544875391759e-05,0.0859829038381576,0,0,0
6264,213246.9338269186,2010-09-24 03:02:02,30.01534683845445,5,19,0.0,4.192368507385254,18.873933347723344,17.88220852168769,75.25259209181225,65.32074345176757,-3.23295607813634e-05,0.0859829038381576,0,0,0
6265,213276.9335537722,2010-09-24 03:02:32,60.01507368199852,5,19,0.0,4.191397190093994,18.873933347723344,17.88220852168769,75.25259209181225,65.32074345176757,0.0,0.0859829038381576,0,0,0
6266,213277.12103591167,2010-09-24 03:02:32,0.187473141803965,6,19,-0.0009222895023413,4.192206382751465,18.873933347723344,17.88220856971672,75.25259209181225,65.32074365311519,0.0,0.0906038731336593,0,0,0
6267,213281.94926309955,2010-09-24 03:02:37,5.015700329669058,6,19,0.0008838032954372,4.191235065460205,18.87393442755182,17.88220856971672,75.25259661778436,65.32074365311519,-3.24249267578125e-05,0.0906038731336593,0,0,0
6268,213311.964524494,2010-09-24 03:03:07,30.015368387243544,7,19,-1.0997490882873535,4.028054237365723,18.87393442761132,17.89137697960802,75.25259661803373,65.35786040166873,-0.0008418083307333,0.0906038731336593,0,0,0
6269,213341.9798539591,2010-09-24 03:03:37,60.03069784731888,7,19,-1.099568486213684,4.003285884857178,18.87393442761132,17.90054535524873,75.25259661803373,65.39466848424877,-0.0005503654247149,0.0906038731336593,0,0,0
6270,213371.995725768,2010-09-24 03:04:07,90.04656964114271,7,19,-1.0997490882873535,3.986125946044922,18.87393442761132,17.90971389086551,75.25259661803373,65.43128953752202,-0.0003885269106831,0.0906038731336593,0,0,0
6271,213402.0107180614,2010-09-24 03:04:37,120.06156194963584,7,19,-1.099568486213684,3.972689390182495,18.87393442761132,17.91888206305582,75.25259661803373,65.46777147750734,-0.0003561496851034,0.0906038731336593,0,0,0
6272,213432.0259124343,2010-09-24 03:05:07,150.0767563124877,7,19,-1.099568486213684,3.961357355117798,18.87393442761132,17.928050318543153,75.25259661803373,65.50414148225748,-0.0002913951757363,0.0906038731336593,0,0,0
6273,213462.0412704206,2010-09-24 03:05:37,180.09211431881891,7,19,-1.0997490882873535,3.95132040977478,18.87393442761132,17.937218593047024,75.25259661803373,65.54041329740788,-0.0002913951757363,0.0906038731336593,0,0,0
6274,213492.05662568507,2010-09-24 03:06:07,210.107469563256,7,19,-1.0997490882873535,3.941607236862183,18.87393442761132,17.946386902422457,75.25259661803373,65.57659532141355,-0.0002590179501567,0.0906038731336593,0,0,0
6275,213522.0719883781,2010-09-24 03:06:37,240.12283227132343,7,19,-1.099929690361023,3.932541608810425,18.87393442761132,17.955555200498267,75.25259661803373,65.61269289429598,-0.0002913951757363,0.0906038731336593,0,0,0
6276,213552.08732421912,2010-09-24 03:07:07,270.13816811733903,7,19,-1.099568486213684,3.923961639404297,18.87393442761132,17.964723527395183,75.25259661803373,65.6487095798755,-0.0002266406954731,0.0906038731336593,0,0,0
6277,213582.10269254612,2010-09-24 03:07:37,300.15353643941995,7,19,-1.0997490882873535,3.915543556213379,18.87393442761132,17.973891925809262,75.25259661803373,65.68464794765654,-0.0002266406954731,0.0906038731336593,0,0,0
6278,213612.11817507332,2010-09-24 03:08:07,330.1690189565492,7,19,-1.099568486213684,3.90761137008667,18.87393442761132,17.983060404457227,75.25259661803373,65.72051003594245,-0.0001618862152099,0.0906038731336593,0,0,0
6279,213642.13338003267,2010-09-24 03:08:37,360.184223910839,7,19,-1.0993878841400146,3.899355173110962,18.87393442761132,17.99222875930228,75.25259661803373,65.7562969198607,-0.0001942634553415,0.0906038731336593,0,0,0
6280,213672.14872888607,2010-09-24 03:09:07,390.1995727793608,7,19,-1.099568486213684,3.891422748565674,18.87393442761132,18.001397096873447,75.25259661803373,65.79201054128434,-0.0001942634553415,0.0906038731336593,0,0,0
6281,213702.16407928348,2010-09-24 03:09:37,420.21492316166126,7,19,-1.099568486213684,3.883652210235596,18.87393442761132,18.010565481766214,75.25259661803373,65.82765231897382,-0.0001618862152099,0.0906038731336593,0,0,0
6282,213732.17945697892,2010-09-24 03:10:07,450.23030087217705,7,19,-1.0997490882873535,3.875719785690308,18.87393442761132,18.01973381564794,75.25259661803373,65.86322295212895,-0.0002266406954731,0.0906038731336593,0,0,0
6283,213762.19479235372,2010-09-24 03:10:37,480.2456362470165,7,19,-1.099568486213684,3.8684349060058594,18.87393442761132,18.02890214511408,75.25259661803373,65.89872342526671,-0.0001942634553415,0.0906038731336593,0,0,0
6284,213792.2102575126,2010-09-24 03:11:07,510.2611014108294,7,19,-1.099568486213684,3.860826253890991,18.87393442761132,18.03807076474761,75.25259661803373,65.93415595176903,-0.0001942634553415,0.0906038731336593,0,0,0
6285,213822.22550682252,2010-09-24 03:11:37,540.2763507108127,7,19,-1.099568486213684,3.853379487991333,18.87393442761132,18.047239266040904,75.25259661803373,65.96951992333341,-0.0001942634553415,0.0906038731336593,0,0,0
6286,213852.24107056748,2010-09-24 03:12:07,570.291914455699,7,19,-1.099568486213684,3.846256494522095,18.87393442761132,18.0564078273068,75.25259661803373,66.00481716355294,-0.0001942634553415,0.0906038731336593,0,0,0
6287,213882.2562011712,2010-09-24 03:12:37,600.3070450493733,7,19,-1.099568486213684,3.8389716148376474,18.87393442761132,18.065576267111524,75.25259661803373,66.04004778902193,-0.0001942634553415,0.0906038731336593,0,0,0
6288,213912.2715466412,2010-09-24 03:13:07,630.3223905344495,7,19,-1.0997490882873535,3.8321726322174072,18.87393442761132,18.074744601236937,75.25259661803373,66.07521322427081,-0.0001295089750783,0.0906038731336593,0,0,0
6289,213942.2869170936,2010-09-24 03:13:37,660.3377609818355,7,19,-1.099568486213684,3.825211524963379,18.87393442761132,18.08391303301704,75.25259661803373,66.11031540535309,-0.0001942634553415,0.0906038731336593,0,0,0
6290,213972.30226200225,2010-09-24 03:14:07,690.3531058904728,7,19,-1.0997490882873535,3.818250417709351,18.87393442761132,18.093081392889555,75.25259661803373,66.14535431529362,-0.0001942634553415,0.0906038731336593,0,0,0
6291,214002.31760802868,2010-09-24 03:14:37,720.3684519068753,7,19,-1.099568486213684,3.811451196670532,18.87393442761132,18.102249798930544,75.25259661803373,66.1803314087316,-0.0001618862152099,0.0906038731336593,0,0,0
6292,214032.33307898196,2010-09-24 03:15:07,750.3839228551268,7,19,-1.099568486213684,3.804975748062134,18.87393442761132,18.11141821657821,75.25259661803373,66.21524739122066,-0.0001942634553415,0.0906038731336593,0,0,0
6293,214062.34830541487,2010-09-24 03:15:37,780.399149303068,7,19,-1.0997490882873535,3.798500299453736,18.87393442761132,18.120586637179123,75.25259661803373,66.25010353372494,-0.0001618862152099,0.0906038731336593,0,0,0
6294,214092.3636883434,2010-09-24 03:16:07,810.4145323268466,7,19,-1.099568486213684,3.792348623275757,18.87393442761132,18.1297550817189,75.25259661803373,66.28490122258684,-0.0001618862152099,0.0906038731336593,0,0,0
6295,214122.3790161393,2010-09-24 03:16:37,840.4298600325427,7,19,-1.0997490882873535,3.786035060882568,18.87393442761132,18.13892353344596,75.25259661803373,66.31964142506116,-0.0001942634553415,0.0906038731336593,0,0,0
6296,214152.394404326,2010-09-24 03:17:07,870.4452482943965,7,19,-1.099568486213684,3.7800452709198,18.87393442761132,18.14809200300469,75.25259661803373,66.35432539742625,-0.0001295089750783,0.0906038731336593,0,0,0
6297,214182.4097172297,2010-09-24 03:17:37,900.4605611179443,7,19,-1.0997490882873535,3.773893594741821,18.87393442761132,18.15726043895902,75.25259661803373,66.38895413693488,-0.0001942634553415,0.0906038731336593,0,0,0
6298,214212.4250858125,2010-09-24 03:18:08,930.4759297006758,7,19,-1.0997490882873535,3.768065690994263,18.87393442761132,18.16642894057346,75.25259661803373,66.4235289401485,-0.0001618862152099,0.0906038731336593,0,0,0
6299,214242.44043661573,2010-09-24 03:18:38,960.4912804889898,7,19,-1.099568486213684,3.762561559677124,18.87393442761132,18.17559740463537,75.25259661803373,66.45805064397024,-9.713172767078504e-05,0.0906038731336593,0,0,0
6300,214272.4557838853,2010-09-24 03:19:08,990.5066277735576,7,19,-1.099568486213684,3.756895542144776,18.87393442761132,18.184765840944056,75.25259661803373,66.4925202611267,-0.0001618862152099,0.0906038731336593,0,0,0
6301,214302.4711327689,2010-09-24 03:19:38,1020.5219766571172,7,19,-1.0997490882873535,3.751391649246216,18.87393442761132,18.193934322356256,75.25259661803373,66.52693905590993,-0.0001295089750783,0.0906038731336593,0,0,0
6302,214332.48649186292,2010-09-24 03:20:08,1050.5373357611886,7,19,-1.0997490882873535,3.745887517929077,18.87393442761132,18.20310277677097,75.25259661803373,66.56130784737731,-0.0001618862152099,0.0906038731336593,0,0,0
6303,214362.5018662752,2010-09-24 03:20:38,1080.5527101634464,7,19,-1.0997490882873535,3.740545272827149,18.87393442761132,18.2122712527098,75.25259661803373,66.59562747905639,-0.0001295089750783,0.0906038731336593,0,0,0
6304,214392.51721807607,2010-09-24 03:21:08,1110.5680619642878,7,19,-1.0997490882873535,3.7353649139404297,18.87393442761132,18.221439793001277,75.25259661803373,66.62989913736475,-0.0001295089750783,0.0906038731336593,0,0,0
6305,214422.5326670094,2010-09-24 03:21:38,1140.5835108875615,7,19,-1.099568486213684,3.730184555053711,18.87393442761132,18.23060829327552,75.25259661803373,66.66412312753916,-0.0001618862152099,0.0906038731336593,0,0,0
6306,214452.5479753467,2010-09-24 03:22:08,1170.5988192349364,7,19,-1.099568486213684,3.725166082382202,18.87393442761132,18.239776687843104,75.25259661803373,66.69830051116428,-0.0001295089750783,0.0906038731336593,0,0,0
6307,214482.5633856536,2010-09-24 03:22:38,1200.614229622018,7,19,-1.099568486213684,3.7203094959259033,18.87393442761132,18.248945173989163,75.25259661803373,66.73243244123842,-9.713172767078504e-05,0.0906038731336593,0,0,0
6308,214512.57872882287,2010-09-24 03:23:08,1230.629572696076,7,19,-1.0997490882873535,3.715452909469605,18.87393442761132,18.25811363448834,75.25259661803373,66.76651890616154,-9.713172767078504e-05,0.0906038731336593,0,0,0
6309,214542.5939587746,2010-09-24 03:23:38,1260.6448026628004,7,19,-1.0997490882873535,3.7105963230133057,18.87393442761132,18.267282073564218,75.25259661803373,66.80056068313654,-9.713172767078504e-05,0.0906038731336593,0,0,0
6310,214572.60957771225,2010-09-24 03:24:08,1290.6604216004566,7,19,-1.099568486213684,3.705739736557007,18.87393442761132,18.27645066137107,75.25259661803373,66.83455908830594,-0.0001295089750783,0.0906038731336593,0,0,0
6311,214602.6247939096,2010-09-24 03:24:38,1320.6756377877855,7,19,-1.0997490882873535,3.700883150100708,18.87393442761132,18.285619132454272,75.25259661803373,66.86851398028595,-0.0001618862152099,0.0906038731336593,0,0,0
6312,214632.6400109591,2010-09-24 03:25:08,1350.6908548322544,7,19,-1.0997490882873535,3.696350336074829,18.87393442761132,18.294787608718348,75.25259661803373,66.90242616203652,-0.0001942634553415,0.0906038731336593,0,0,0
6313,214662.65549381703,2010-09-24 03:25:38,1380.706337705272,7,19,-1.0997490882873535,3.69197940826416,18.87393442761132,18.30395611785248,75.25259661803373,66.93629660609786,-0.0001295089750783,0.0906038731336593,0,0,0
6314,214692.6707312324,2010-09-24 03:26:08,1410.7215751205897,7,19,-1.0997490882873535,3.687608480453491,18.87393442761132,18.31312458356848,75.25259661803373,66.97012552913002,-6.47544875391759e-05,0.0906038731336593,0,0,0
6315,214722.68608488783,2010-09-24 03:26:38,1440.7369287810727,7,19,-1.0997490882873535,3.6829137802124015,18.87393442761132,18.322293093968508,75.25259661803373,67.00391390744959,-0.0001295089750783,0.0906038731336593,0,0,0
6316,214752.7014314957,2010-09-24 03:27:08,1470.7522753839387,7,19,-1.0997490882873535,3.678542852401733,18.87393442761132,18.331461557435727,75.25259661803373,67.03766194366847,-0.0001618862152099,0.0906038731336593,0,0,0
6317,214782.7168020183,2010-09-24 03:27:38,1500.7676458814503,7,19,-1.099929690361023,3.6743338108062735,18.87393442761132,18.34063004589396,75.25259661803373,67.0713706600615,-0.0001295089750783,0.0906038731336593,0,0,0
6318,214812.73236159777,2010-09-24 03:28:08,1530.7832054960268,7,19,-1.099568486213684,3.670286893844605,18.87393442761132,18.34979860019057,75.25259661803373,67.10504090900855,-0.0001295089750783,0.0906038731336593,0,0,0
6319,214842.7475071438,2010-09-24 03:28:38,1560.7983510319991,7,19,-1.099568486213684,3.666239738464356,18.87393442761132,18.35896701645327,75.25259661803373,67.13867234532813,-9.713172767078504e-05,0.0906038731336593,0,0,0
6320,214872.7628688343,2010-09-24 03:29:08,1590.8137127275393,7,19,-1.099568486213684,3.6621925830841056,18.87393442761132,18.368135523102705,75.25259661803373,67.17226674033756,-9.713172767078504e-05,0.0906038731336593,0,0,0
6321,214902.7783297024,2010-09-24 03:29:38,1620.829173575579,7,19,-1.0997490882873535,3.6581454277038574,18.87393442761132,18.377304089873792,75.25259661803373,67.20582444475573,-9.713172767078504e-05,0.0906038731336593,0,0,0
6322,214932.79357791465,2010-09-24 03:30:08,1650.8444219031353,7,19,-1.0997490882873535,3.654098272323608,18.87393442761132,18.386472513526947,75.25259661803373,67.23934551852388,-9.713172767078504e-05,0.0906038731336593,0,0,0
6323,214962.8089107833,2010-09-24 03:30:38,1680.859754681493,7,19,-1.099568486213684,3.650536775588989,18.87393442761132,18.39564103317729,75.25259661803373,67.2728316523562,-9.713172767078504e-05,0.0906038731336593,0,0,0
6324,214992.8242930201,2010-09-24 03:31:08,1710.8751369082825,7,19,-1.099568486213684,3.64648962020874,18.87393442761132,18.404809569617296,75.25259661803373,67.30628319000063,-0.0001618862152099,0.0906038731336593,0,0,0
6325,215022.8396215127,2010-09-24 03:31:38,1740.890465400943,7,19,-1.099568486213684,3.643090009689331,18.87393442761132,18.413977941827344,75.25259661803373,67.33969997536363,-6.47544875391759e-05,0.0906038731336593,0,0,0
6326,215052.8549794188,2010-09-24 03:32:08,1770.905823307024,7,19,-1.099568486213684,3.639366626739502,18.87393442761132,18.423146364832245,75.25259661803373,67.37308387730234,-0.0001295089750783,0.0906038731336593,0,0,0
6327,215082.870323741,2010-09-24 03:32:38,1800.9211676291975,7,19,-1.0993878841400146,3.6359670162200928,18.87393442761132,18.432314847170925,75.25259661803373,67.40643517370255,-6.47544875391759e-05,0.0906038731336593,0,0,0
6328,215112.88569360191,2010-09-24 03:33:08,1830.93653749012,7,19,-1.099568486213684,3.632567405700684,18.87393442761132,18.44148325877099,75.25259661803373,67.43975461067761,-3.237724376958795e-05,0.0906038731336593,0,0,0
6329,215142.9011943445,2010-09-24 03:33:38,1860.9520383179552,7,19,-1.099568486213684,3.6291677951812735,18.87393442761132,18.45065174039044,75.25259661803373,67.4730432513537,-9.713172767078504e-05,0.0906038731336593,0,0,0
6330,215172.91640079755,2010-09-24 03:34:08,1890.9672446757484,7,19,-1.0997490882873535,3.625768184661865,18.87393442761132,18.45982009449916,75.25259661803373,67.50630110504424,-0.0001295089750783,0.0906038731336593,0,0,0
6331,215202.9317639568,2010-09-24 03:34:38,1920.982607849979,7,19,-1.0997490882873535,3.622692346572876,18.87393442761132,18.46898856662132,75.25259661803373,67.53952974219122,-3.237724376958795e-05,0.0906038731336593,0,0,0
6332,215232.9470900835,2010-09-24 03:35:08,1950.9979339767344,7,19,-1.0997490882873535,3.6194546222686768,18.87393442761132,18.47815703298463,75.25259661803373,67.57272933635959,-9.713172767078504e-05,0.0906038731336593,0,0,0
6333,215262.96244359863,2010-09-24 03:35:38,1981.0132874918547,7,19,-1.0997490882873535,3.616378784179688,18.87393442761132,18.48732554873584,75.25259661803373,67.60590090706559,-9.713172767078504e-05,0.0906038731336593,0,0,0
6334,215292.978161378,2010-09-24 03:36:08,2011.029005246172,7,19,-1.0997490882873535,3.613464832305908,18.87393442761132,18.496494197366605,75.25259661803373,67.63904512995616,-3.237724376958795e-05,0.0906038731336593,0,0,0
6335,215322.9931632654,2010-09-24 03:36:38,2041.044007153626,7,19,-1.099568486213684,3.610550880432129,18.87393442761132,18.505662583463604,75.25259661803373,67.67216108445714,-6.47544875391759e-05,0.0906038731336593,0,0,0
6336,215353.00852524664,2010-09-24 03:37:08,2071.059369139892,7,19,-1.099568486213684,3.6076369285583496,18.87393442761132,18.51483109250137,75.25259661803373,67.70525055970664,-6.47544875391759e-05,0.0906038731336593,0,0,0
6337,215383.02401132768,2010-09-24 03:37:38,2101.0748552159043,7,19,-1.099568486213684,3.6047229766845694,18.87393442761132,18.523999625575367,75.25259661803373,67.73831353686354,-6.47544875391759e-05,0.0906038731336593,0,0,0
6338,215413.0392409185,2010-09-24 03:38:08,2131.0900848066904,7,19,-1.099568486213684,3.601970911026001,18.87393442761132,18.533168074092828,75.25259661803373,67.77135006648702,-3.237724376958795e-05,0.0906038731336593,0,0,0
6339,215443.0545779775,2010-09-24 03:38:38,2161.105421840672,7,19,-1.099568486213684,3.5990569591522217,18.87393442761132,18.542336489677208,75.25259661803373,67.80436042321091,-6.47544875391759e-05,0.0906038731336593,0,0,0
6340,215473.0699265603,2010-09-24 03:39:08,2191.12077044353,7,19,-1.099568486213684,3.5961430072784424,18.87393442761132,18.55150496010215,75.25259661803373,67.83734525911925,-0.0001295089750783,0.0906038731336593,0,0,0
6341,215503.08527766945,2010-09-24 03:39:38,2221.136121552645,7,19,-1.099568486213684,3.593390941619873,18.87393442761132,18.560673449693088,75.25259661803373,67.87030415823466,-6.47544875391759e-05,0.0906038731336593,0,0,0
6342,215533.1007766727,2010-09-24 03:40:08,2251.151620535876,7,19,-1.0997490882873535,3.590639114379883,18.87393442761132,18.56984194953613,75.25259661803373,67.90323724395535,-3.237724376958795e-05,0.0906038731336593,0,0,0
6343,215563.11599947652,2010-09-24 03:40:38,2281.166843364784,7,19,-1.099568486213684,3.587887048721313,18.87393442761132,18.579010445415733,75.25259661803373,67.93614426434767,-3.237724376958795e-05,0.0906038731336593,0,0,0
6344,215593.13134929247,2010-09-24 03:41:08,2311.18219318067,7,19,-1.099568486213684,3.584811210632324,18.87393442761132,18.58817899782832,75.25259661803373,67.96902543144789,-6.47544875391759e-05,0.0906038731336593,0,0,0
6345,215623.146717404,2010-09-24 03:41:38,2341.1975612922256,7,19,-1.0997490882873535,3.581897258758545,18.87393442761132,18.597347474509984,75.25259661803373,68.00187994085017,-6.47544875391759e-05,0.0906038731336593,0,0,0
6346,215653.1620640921,2010-09-24 03:42:08,2371.212907980305,7,19,-1.0997490882873535,3.5789833068847656,18.87393442761132,18.60651606690956,75.25259661803373,68.03470807937026,-9.713172767078504e-05,0.0906038731336593,0,0,0
6347,215683.1774460382,2010-09-24 03:42:38,2401.228289931406,7,19,-1.099568486213684,3.5760693550109863,18.87393442761132,18.615684634909467,75.25259661803373,68.06750891444982,-9.713172767078504e-05,0.0906038731336593,0,0,0
6348,215713.1927694532,2010-09-24 03:43:08,2431.243613341379,7,19,-1.099568486213684,3.572993516921997,18.87393442761132,18.62485316407955,75.25259661803373,68.10028196089684,-6.47544875391759e-05,0.0906038731336593,0,0,0
6349,215743.2081283517,2010-09-24 03:43:38,2461.258972239937,7,19,-1.0997490882873535,3.569917678833008,18.87393442761132,18.634021723095927,75.25259661803373,68.1330270669329,-9.713172767078504e-05,0.0906038731336593,0,0,0
6350,215773.2236942369,2010-09-24 03:44:08,2491.274538125166,7,19,-1.0997490882873535,3.5666799545288086,18.87393442761132,18.64319033830398,75.25259661803373,68.16574350193484,-9.713172767078504e-05,0.0906038731336593,0,0,0
6351,215803.2388410511,2010-09-24 03:44:38,2521.2896849393296,7,19,-1.099568486213684,3.5632803440093994,18.87393442761132,18.652358721205385,75.25259661803373,68.19842916717302,-9.713172767078504e-05,0.0906038731336593,0,0,0
6352,215833.2542105612,2010-09-24 03:45:08,2551.305054449376,7,19,-1.099568486213684,3.56020450592041,18.87393442761132,18.661527197105745,75.25259661803373,68.23108520195855,-6.47544875391759e-05,0.0906038731336593,0,0,0
6353,215863.26954123424,2010-09-24 03:45:38,2581.320385122479,7,19,-1.099929690361023,3.556481122970581,18.87393442761132,18.670695712588323,75.25259661803373,68.26370984498331,-9.713172767078504e-05,0.0906038731336593,0,0,0
6354,215893.28490818792,2010-09-24 03:46:08,2611.3357520811564,7,19,-1.0997490882873535,3.552919626235962,18.87393442761132,18.67986420697068,75.25259661803373,68.29630176040278,-9.713172767078504e-05,0.0906038731336593,0,0,0
6355,215923.3002587156,2010-09-24 03:46:38,2641.3511026038072,7,19,-1.0997490882873535,3.549034357070923,18.87393442761132,18.689032673367457,75.25259661803373,68.32885992024273,-0.0001295089750783,0.0906038731336593,0,0,0
6356,215953.31562390484,2010-09-24 03:47:08,2671.366467793068,7,19,-1.099568486213684,3.5453109741210938,18.87393442761132,18.69820121751625,75.25259661803373,68.36138323646664,-9.713172767078504e-05,0.0906038731336593,0,0,0
6357,215983.33098275328,2010-09-24 03:47:38,2701.381826641501,7,19,-1.0997490882873535,3.5412638187408447,18.87393442761132,18.70736969115909,75.25259661803373,68.39386986633338,-0.0001295089750783,0.0906038731336593,0,0,0
6358,216013.3463382283,2010-09-24 03:48:08,2731.3971821165146,7,19,-1.099568486213684,3.536892890930176,18.87393442761132,18.716538174938616,75.25259661803373,68.42631881079517,-0.0001618862152099,0.0906038731336593,0,0,0
6359,216043.36170390376,2010-09-24 03:48:38,2761.412547791989,7,19,-1.099568486213684,3.532683849334717,18.87393442761132,18.72570667832975,75.25259661803373,68.45872859705919,-0.0001295089750783,0.0906038731336593,0,0,0
6360,216073.37706552912,2010-09-24 03:49:08,2791.427909417353,7,19,-1.099568486213684,3.528151035308838,18.87393442761132,18.734875197695818,75.25259661803373,68.4910974034509,-9.713172767078504e-05,0.0906038731336593,0,0,0
6361,216103.3923924178,2010-09-24 03:49:38,2821.4432363110227,7,19,-1.099929690361023,3.523132562637329,18.87393442761132,18.744043740676013,75.25259661803373,68.52342308899328,-0.0001295089750783,0.0906038731336593,0,0,0
6362,216133.40785051897,2010-09-24 03:50:09,2851.458694502431,7,19,-1.0997490882873535,3.5179522037506104,18.87393442761132,18.75321233424025,75.25259661803373,68.5557028725454,-0.0001295089750783,0.0906038731336593,0,0,0
6363,216163.4231213828,2010-09-24 03:50:39,2881.473965276016,7,19,-1.099568486213684,3.512448072433472,18.87393442761132,18.762380911327416,75.25259661803373,68.58793297789964,-0.0001942634553415,0.0906038731336593,0,0,0
6364,216193.4384665571,2010-09-24 03:51:09,2911.489310445304,7,19,-1.0997490882873535,3.5062966346740723,18.87393442761132,18.771549497880372,75.25259661803373,68.62010950216948,-0.0001295089750783,0.0906038731336593,0,0,0
6365,216223.45381020257,2010-09-24 03:51:39,2941.5046540907883,7,19,-1.0997490882873535,3.499497413635254,18.87393442761132,18.78071807350308,75.25259661803373,68.65222732702314,-0.0002266406954731,0.0906038731336593,0,0,0
6366,216253.46933996765,2010-09-24 03:52:09,2971.5201838558555,7,19,-1.099568486213684,3.492050647735596,18.87393442761132,18.789886670298568,75.25259661803373,68.68427980986795,-0.0002266406954731,0.0906038731336593,0,0,0
6367,216283.48452417515,2010-09-24 03:52:39,3001.53536806837,7,19,-1.0997490882873535,3.483470678329468,18.87393442761132,18.79905516998776,75.25259661803373,68.71625880726145,-0.0002590179501567,0.0906038731336593,0,0,0
6368,216313.4998757905,2010-09-24 03:53:09,3031.5507196787366,7,19,-1.0997490882873535,3.47375750541687,18.87393442761132,18.80822370708974,75.25259661803373,68.74815409250792,-0.0002590179501567,0.0906038731336593,0,0,0
6369,216343.51535073377,2010-09-24 03:53:39,3061.566194606922,7,19,-1.0993878841400146,3.462425470352173,18.87393442761132,18.817392235899884,75.25259661803373,68.7799522825411,-0.0003237724304199,0.0906038731336593,0,0,0
6370,216373.5305970162,2010-09-24 03:54:09,3091.5814408993992,7,19,-1.099568486213684,3.4483413696289062,18.87393442761132,18.826560521101293,75.25259661803373,68.81163395085207,-0.0003885269106831,0.0906038731336593,0,0,0
6371,216403.5460944606,2010-09-24 03:54:39,3121.596938333764,7,19,-1.0997490882873535,3.4305341243743896,18.87393442761132,18.83572899828089,75.25259661803373,68.8431719022441,-0.0005179882282391,0.0906038731336593,0,0,0
6372,216433.56131791105,2010-09-24 03:55:09,3151.6121617842227,7,19,-1.099568486213684,3.406413078308105,18.87393442761132,18.84489746151281,75.25259661803373,68.87451966746302,-0.0007122993702068,0.0906038731336593,0,0,0
6373,216463.57669914537,2010-09-24 03:55:39,3181.627543033572,7,19,-1.099568486213684,3.3720932006835938,18.87393442761132,18.85406599517447,75.25259661803373,68.90560362848818,-0.0011008263099938,0.0906038731336593,0,0,0
6374,216493.5921834219,2010-09-24 03:56:09,3211.6430273000683,7,19,-1.099568486213684,3.322394371032715,18.87393442761132,18.86323458113616,75.25259661803373,68.9363074432978,-0.0015541076427325,0.0906038731336593,0,0,0
6375,216523.60736844144,2010-09-24 03:56:39,3241.6582123145854,7,19,-1.0997490882873535,3.250679016113281,18.87393442761132,18.87240303182924,75.25259661803373,68.96646036800628,-0.0022340298164635,0.0906038731336593,0,0,0
6376,216553.6228917303,2010-09-24 03:57:09,3271.673735623537,7,19,-1.099568486213684,3.1430249214172363,18.87393442761132,18.881571590610637,75.25259661803373,68.99580777286353,-0.0034643649123609,0.0906038731336593,0,0,0
6377,216583.60687510573,2010-09-24 03:57:39,3301.6577189939503,7,19,-1.099568486213684,2.942772388458252,18.87393442761132,18.890730549062905,75.25259661803373,69.02381710685964,-0.0081266406923532,0.0906038731336593,0,0,0
6378,216596.7005055668,2010-09-24 03:57:52,3314.751349444961,7,19,-1.099568486213684,2.742195844650269,18.87393442761132,18.894730132342502,75.25259661803373,69.03521965382008,-0.0142459394410252,0.0906038731336593,0,0,0
6379,216599.0599868952,2010-09-24 03:57:54,3317.1108307633285,7,19,-1.099568486213684,2.699620008468628,18.87393442761132,18.89545085310302,75.25259661803373,69.03718073175018,-0.0144078256562352,0.0906038731336593,0,0,0
6380,216659.073685217,2010-09-24 03:58:54,60.01510480468554,8,19,0.0,3.3395543098449707,18.87393442761132,18.89545085310302,75.25259661803373,69.03718073175018,0.0014245987404137,0.0906038731336593,0,0,0
6381,216659.2604223515,2010-09-24 03:58:55,0.18749940736685,9,19,0.0032317237928509,3.3405256271362305,18.87393459592973,18.89545085310302,75.25259718030571,69.03718073175018,0.0,0.0897949114441871,0,0,0
6382,216664.08862359964,2010-09-24 03:58:59,5.015700535182051,9,19,0.0008838032954372,3.3486199378967285,18.873935629245263,18.89545085310302,75.2526006366939,69.03718073175018,0.0012627125252038,0.0897949114441871,0,0,0
