Data_Point,Test_Time(s),Date_Time,Step_Time(s),Step_Index,Cycle_Index,Current(A),Voltage(V),Charge_Capacity(Ah),Discharge_Capacity(Ah),Charge_Energy(Wh),Discharge_Energy(Wh),dV/dt(V/s),Internal_Resistance(Ohm),Is_FC_Data,AC_Impedance(Ohm),ACI_Phase_Angle(Deg)
15603,528447.5117591828,2010-09-27 18:35:54,30.0157963154181,1,47,0.0,3.4093270301818848,46.08206933485765,46.11844897284285,183.555856475759,168.83636952683244,0.0008094310760498,0.0897949114441871,0,0,0
15604,528477.5265155925,2010-09-27 18:36:24,60.030552710033895,1,47,0.0,3.436038017272949,46.08206933485765,46.11844897284285,183.555856475759,168.83636952683244,0.0005827903514727,0.0897949114441871,0,0,0
15605,528507.5420055181,2010-09-27 18:36:54,90.04604264568096,1,47,0.0,3.4562737941741943,46.08206933485765,46.11844897284285,183.555856475759,168.83636952683244,0.0004856586456298,0.0897949114441871,0,0,0
15606,528537.5105457751,2010-09-27 18:37:24,120.01458291273217,1,47,0.0,3.4724624156951904,46.08206933485765,46.11844897284285,183.555856475759,168.83636952683244,0.0004209041653666,0.0897949114441871,0,0,0
15607,528567.5054631341,2010-09-27 18:37:54,30.01517413235345,2,47,0.5501165986061096,3.6201021671295166,46.08665476046095,46.11844897284285,183.5723035451416,168.83636952683244,0.0015217304462566,0.0897949114441871,0,0,0
15608,528597.5207372812,2010-09-27 18:38:24,60.03044828437137,2,47,0.5499359965324402,3.663973331451416,46.09124034618958,46.11844897284285,183.589011049421,168.83636952683244,0.0009713172912597,0.0897949114441871,0,0,0
15609,528627.5361375429,2010-09-27 18:38:54,90.04584856622878,2,47,0.5497553944587708,3.695379018783569,46.09582577586436,46.11844897284285,183.60588732700063,168.83636952683244,0.0007770538213662,0.0897949114441871,0,0,0
15610,528657.5514178905,2010-09-27 18:39:24,120.06112890368652,2,47,0.5497553944587708,3.719338178634644,46.100411193123016,46.11844897284285,183.62288968608777,168.83636952683244,0.0005504131549969,0.0897949114441871,0,0,0
15611,528687.5665878775,2010-09-27 18:39:54,150.07629890573008,2,47,0.5499359965324402,3.738926410675049,46.10499665186904,46.11844897284285,183.63999170762216,168.83636952683244,0.0004532813909463,0.0897949114441871,0,0,0
15612,528717.581866275,2010-09-27 18:40:24,180.09157726825808,2,47,0.5501165986061096,3.754467248916626,46.10958227884085,46.11844897284285,183.6571740936414,168.83636952683244,0.0003884792386088,0.0897949114441871,0,0,0
15613,528747.5971490035,2010-09-27 18:40:54,210.10686000670907,2,47,0.5499359965324402,3.7649898529052734,46.11416865345514,46.11844897284285,183.67441950571964,168.83636952683244,0.0001942634553415,0.0897949114441871,0,0,0
15614,528777.6124430351,2010-09-27 18:41:24,240.12215503583948,2,47,0.5501165986061096,3.771303415298462,46.11875504274617,46.11844897284285,183.6917030310889,168.83636952683244,0.0001618862152099,0.0897949114441871,0,0,0
15615,528807.6276901196,2010-09-27 18:41:54,270.1374011578903,2,47,0.5501165986061096,3.775674343109131,46.12334133011559,46.11844897284285,183.70900960298857,168.83636952683244,0.0001295089750783,0.0897949114441871,0,0,0
15616,528837.6430844667,2010-09-27 18:42:24,300.15279548989594,2,47,0.550297200679779,3.77923583984375,46.12792767815653,46.11844897284285,183.72633410357284,168.83636952683244,0.0001295089750783,0.0897949114441871,0,0,0
15617,528867.6583541074,2010-09-27 18:42:54,330.16806512062806,2,47,0.5501165986061096,3.782797336578369,46.13251402769375,46.11844897284285,183.74367475428195,168.83636952683244,0.0001295089750783,0.0897949114441871,0,0,0
15618,528897.6736627605,2010-09-27 18:43:24,360.1833737587285,2,47,0.5501165986061096,3.7861969470977774,46.13710032518755,46.11844897284285,183.7610309629008,168.83636952683244,0.0001295089750783,0.0897949114441871,0,0,0
15619,528927.688791279,2010-09-27 18:43:54,390.19850228223527,2,47,0.5501165986061096,3.7894346714019775,46.14168669337603,46.11844897284285,183.778403104437,168.83636952683244,6.47544875391759e-05,0.0897949114441871,0,0,0
15620,528957.7065357273,2010-09-27 18:44:24,420.21624682071786,2,47,0.550297200679779,3.7926723957061768,46.14627352958999,46.11844897284285,183.7957924491071,168.83636952683244,3.237724376958795e-05,0.0897949114441871,0,0,0
15621,528987.7193587158,2010-09-27 18:44:54,450.2290698142672,2,47,0.5501165986061096,3.796233892440796,46.1508595665979,46.11844897284285,183.8131940550538,168.83636952683244,0.0001295089750783,0.0897949114441871,0,0,0
15622,529017.7346687024,2010-09-27 18:45:24,480.2443798007334,2,47,0.550297200679779,3.799471616744995,46.15544602708869,46.11844897284285,183.8306123171493,168.83636952683244,9.713172767078504e-05,0.0897949114441871,0,0,0
15623,529047.7499266288,2010-09-27 18:45:54,510.25963764704966,2,47,0.5497553944587708,3.802547454833984,46.16003245103642,46.11844897284285,183.8480453118261,168.83636952683244,9.713172767078504e-05,0.0897949114441871,0,0,0
15624,529077.7652440087,2010-09-27 18:46:24,540.2749550269712,2,47,0.5501165986061096,3.805785179138184,46.16461888538634,46.11844897284285,183.8654929991481,168.83636952683244,9.713172767078504e-05,0.0897949114441871,0,0,0
15625,529107.7806253082,2010-09-27 18:46:54,570.2903363164206,2,47,0.5499359965324402,3.808699131011963,46.16920532372976,46.11844897284285,183.88295520224287,168.83636952683244,3.237724376958795e-05,0.0897949114441871,0,0,0
15626,529137.7957545185,2010-09-27 18:47:25,600.3054655166164,2,47,0.5499359965324402,3.811936855316162,46.173791719037055,46.11844897284285,183.9004316362592,168.83636952683244,3.237724376958795e-05,0.0897949114441871,0,0,0
15627,529167.8110322794,2010-09-27 18:47:55,630.3207433628558,2,47,0.5501165986061096,3.815174579620361,46.17837818465586,46.11844897284285,183.9179228078894,168.83636952683244,6.47544875391759e-05,0.0897949114441871,0,0,0
15628,529197.8263199201,2010-09-27 18:48:25,660.3360309233433,2,47,0.5499359965324402,3.818412303924561,46.182964664536726,46.11844897284285,183.93542843109876,168.83636952683244,9.713172767078504e-05,0.0897949114441871,0,0,0
15629,529227.8415873905,2010-09-27 18:48:55,690.3512984137328,2,47,0.5501165986061096,3.82148814201355,46.1875511146036,46.11844897284285,183.9529484120147,168.83636952683244,9.713172767078504e-05,0.0897949114441871,0,0,0
15630,529257.8568713721,2010-09-27 18:49:25,720.3665823752367,2,47,0.5501165986061096,3.824725866317749,46.19213752690555,46.11844897284285,183.9704828357087,168.83636952683244,6.47544875391759e-05,0.0897949114441871,0,0,0
15631,529287.8723387764,2010-09-27 18:49:55,750.3820498548299,2,47,0.5501165986061096,3.828287363052368,46.19672396541783,46.11844897284285,183.98803235438737,168.83636952683244,0.0001295089750783,0.0897949114441871,0,0,0
15632,529317.8876477253,2010-09-27 18:50:25,780.3973587385435,2,47,0.5499359965324402,3.831363201141357,46.20131033761466,46.11844897284285,184.0055968837324,168.83636952683244,6.47544875391759e-05,0.0897949114441871,0,0,0
15633,529347.9027217829,2010-09-27 18:50:55,810.4124327860698,2,47,0.5501165986061096,3.8349244594573975,46.205896736996486,46.11844897284285,184.02317702053807,168.83636952683244,9.713172767078504e-05,0.0897949114441871,0,0,0
15634,529377.9179991479,2010-09-27 18:51:25,840.4277101460955,2,47,0.5501165986061096,3.8380002975463863,46.21048311185062,46.11844897284285,184.04077272258803,168.83636952683244,3.237724376958795e-05,0.0897949114441871,0,0,0
15635,529407.9332735204,2010-09-27 18:51:55,870.4429845236765,2,47,0.5501165986061096,3.841561794281006,46.21506949070199,46.11844897284285,184.05838405203116,168.83636952683244,6.47544875391759e-05,0.0897949114441871,0,0,0
15636,529437.9485662339,2010-09-27 18:52:25,900.4582772270013,2,47,0.550297200679779,3.845123291015625,46.21965599169653,46.11844897284285,184.0760113328323,168.83636952683244,0.0001295089750783,0.0897949114441871,0,0,0
15637,529467.9638152882,2010-09-27 18:52:55,930.4735263114468,2,47,0.5499359965324402,3.8481991291046143,46.22424240480163,46.11844897284285,184.0936534275769,168.83636952683244,6.47544875391759e-05,0.0897949114441871,0,0,0
15638,529497.9792168833,2010-09-27 18:53:25,960.4889279767574,2,47,0.5501165986061096,3.851598739624024,46.22882886777818,46.11844897284285,184.1113105414555,168.83636952683244,0.0001295089750783,0.0897949114441871,0,0,0
15639,529527.994398379,2010-09-27 18:53:55,990.504109402316,2,47,0.5501165986061096,3.8546745777130127,46.233415288372775,46.11844897284285,184.12898200826083,168.83636952683244,9.713172767078504e-05,0.0897949114441871,0,0,0
15640,529558.0096677592,2010-09-27 18:54:25,1020.5193787523472,2,47,0.550297200679779,3.857750415802002,46.23800166763345,46.11844897284285,184.14666760145616,168.83636952683244,0.0001295089750783,0.0897949114441871,0,0,0
15641,529588.0250695648,2010-09-27 18:54:55,1050.5347805580082,2,47,0.5501165986061096,3.860664367675781,46.242588164796906,46.11844897284285,184.16436758966404,168.83636952683244,6.47544875391759e-05,0.0897949114441871,0,0,0
15642,529618.0404313204,2010-09-27 18:55:25,1080.5501423187109,2,47,0.5501165986061096,3.863578319549561,46.247174706986335,46.11844897284285,184.1820813444155,168.83636952683244,6.47544875391759e-05,0.0897949114441871,0,0,0
15643,529648.0555057089,2010-09-27 18:55:55,1110.5652167020758,2,47,0.5501165986061096,3.86633038520813,46.2517611461213,46.11844897284285,184.1998077112584,168.83636952683244,6.47544875391759e-05,0.0897949114441871,0,0,0
15644,529678.0708552741,2010-09-27 18:56:25,1140.5805663675867,2,47,0.5501165986061096,3.869082450866699,46.25634766895422,46.11844897284285,184.21754699238252,168.83636952683244,9.713172767078504e-05,0.0897949114441871,0,0,0
15645,529708.0860913912,2010-09-27 18:56:55,1170.595802469626,2,47,0.5501165986061096,3.8716726303100586,46.260934108377135,46.11844897284285,184.2352979051599,168.83636952683244,9.713172767078504e-05,0.0897949114441871,0,0,0
15646,529738.1013759342,2010-09-27 18:57:25,1200.6110869574438,2,47,0.5501165986061096,3.873939037322998,46.26552066733307,46.11844897284285,184.2530606673311,168.83636952683244,3.237724376958795e-05,0.0897949114441871,0,0,0
15647,529768.1167504417,2010-09-27 18:57:55,1230.6264614348893,2,47,0.5501165986061096,3.8762054443359375,46.27010720473341,46.11844897284285,184.27083385498668,168.83636952683244,6.47544875391759e-05,0.0897949114441871,0,0,0
15648,529798.1319214463,2010-09-27 18:58:25,1260.6416324695103,2,47,0.550297200679779,3.878471851348877,46.274693634656494,46.11844897284285,184.28861675925444,168.83636952683244,9.713172767078504e-05,0.0897949114441871,0,0,0
15649,529828.1471876234,2010-09-27 18:58:55,1290.656898621559,2,47,0.5499359965324402,3.880414485931397,46.27928013209315,46.11844897284285,184.30640943160896,168.83636952683244,9.713172767078504e-05,0.0897949114441871,0,0,0
15650,529858.1624653193,2010-09-27 18:59:25,1320.672176317423,2,47,0.5501165986061096,3.882033348083496,46.28386663094194,46.11844897284285,184.32421104694345,168.83636952683244,0.0,0.0897949114441871,0,0,0
15651,529888.1777584085,2010-09-27 18:59:55,1350.6874694167363,2,47,0.550297200679779,3.8841378688812256,46.28845323328587,46.11844897284285,184.3420215338096,168.83636952683244,6.47544875391759e-05,0.0897949114441871,0,0,0
15652,529918.1930624101,2010-09-27 19:00:25,1380.7027734232756,2,47,0.5501165986061096,3.885756731033325,46.293039790844205,46.11844897284285,184.35983955601603,168.83636952683244,6.47544875391759e-05,0.0897949114441871,0,0,0
15653,529948.208429053,2010-09-27 19:00:55,1410.7181400661652,2,47,0.5501165986061096,3.887213706970215,46.297626344541904,46.11844897284285,184.377664845339,168.83636952683244,3.237724376958795e-05,0.0897949114441871,0,0,0
15654,529978.2235926038,2010-09-27 19:01:25,1440.7333036221182,2,47,0.5501165986061096,3.8885087966918954,46.30221286996528,46.11844897284285,184.3954968176347,168.83636952683244,0.0,0.0897949114441871,0,0,0
15655,530008.238884395,2010-09-27 19:01:55,1470.7485953881032,2,47,0.550297200679779,3.890127658843994,46.30679949444891,46.11844897284285,184.41333561594152,168.83636952683244,9.713172767078504e-05,0.0897949114441871,0,0,0
15656,530038.2543437593,2010-09-27 19:02:25,1500.7640548476777,2,47,0.5501165986061096,3.891422748565674,46.3113860890564,46.11844897284285,184.43118042845617,168.83636952683244,3.237724376958795e-05,0.0897949114441871,0,0,0
15657,530068.2694878065,2010-09-27 19:02:55,1530.779198894934,2,47,0.5501165986061096,3.892555952072144,46.31597264728275,46.11844897284285,184.44903101795225,168.83636952683244,3.237724376958795e-05,0.0897949114441871,0,0,0
15658,530098.2847187556,2010-09-27 19:03:25,1560.7944297488732,2,47,0.5501165986061096,3.8938510417938232,46.32055919520898,46.11844897284285,184.46688732450804,168.83636952683244,3.237724376958795e-05,0.0897949114441871,0,0,0
15659,530128.2999976795,2010-09-27 19:03:55,1590.8097086728023,2,47,0.5501165986061096,3.894822359085083,46.32514580465689,46.11844897284285,184.4847494453437,168.83636952683244,0.0,0.0897949114441871,0,0,0
15660,530158.3153114857,2010-09-27 19:04:25,1620.825022508878,2,47,0.5501165986061096,3.8961174488067623,46.32973239456872,46.11844897284285,184.5026165477533,168.83636952683244,0.0,0.0897949114441871,0,0,0
15661,530188.3305543296,2010-09-27 19:04:55,1650.840265352746,2,47,0.5501165986061096,3.897250652313232,46.33431896373077,46.11844897284285,184.52048927322227,168.83636952683244,3.237724376958795e-05,0.0897949114441871,0,0,0
15662,530218.3462383796,2010-09-27 19:05:25,1680.8559494931578,2,47,0.5501165986061096,3.898545742034912,46.33890558042782,46.11844897284285,184.53836763096595,168.83636952683244,3.237724376958795e-05,0.0897949114441871,0,0,0
15663,530248.3611157964,2010-09-27 19:05:55,1710.8708268196383,2,47,0.5501165986061096,3.899678945541382,46.34349202953551,46.11844897284285,184.556250886145,168.83636952683244,3.237724376958795e-05,0.0897949114441871,0,0,0
15664,530278.3766958921,2010-09-27 19:06:25,1740.8864068852636,2,47,0.550297200679779,3.900812149047852,46.34807859862626,46.11844897284285,184.57414002267043,168.83636952683244,-3.237724376958795e-05,0.0897949114441871,0,0,0
15665,530308.3916814788,2010-09-27 19:06:55,1770.9013924820033,2,47,0.5501165986061096,3.9021072387695312,46.352665051943696,46.11844897284285,184.5920342552428,168.83636952683244,3.237724376958795e-05,0.0897949114441871,0,0,0
15666,530338.4069544278,2010-09-27 19:07:25,1800.9166654510682,2,47,0.5501165986061096,3.903240442276001,46.35725163140078,46.11844897284285,184.6099345405751,168.83636952683244,-3.237724376958795e-05,0.0897949114441871,0,0,0
15667,530368.4222626148,2010-09-27 19:07:55,1830.93197363303,2,47,0.550297200679779,3.90469741821289,46.361838114299,46.11844897284285,184.62784004773744,168.83636952683244,6.47544875391759e-05,0.0897949114441871,0,0,0
15668,530398.4375214736,2010-09-27 19:08:25,1860.9472324818487,2,47,0.5501165986061096,3.90583062171936,46.366424711277645,46.11844897284285,184.645751502232,168.83636952683244,3.237724376958795e-05,0.0897949114441871,0,0,0
15669,530428.4527985881,2010-09-27 19:08:55,1890.9625095912488,2,47,0.550297200679779,3.90696382522583,46.371011174145885,46.11844897284285,184.66366810403844,168.83636952683244,3.237724376958795e-05,0.0897949114441871,0,0,0
15670,530458.4682018323,2010-09-27 19:09:25,1920.977912825476,2,47,0.5499359965324402,3.9080970287323,46.37559771263314,46.11844897284285,184.68159070480772,168.83636952683244,6.47544875391759e-05,0.0897949114441871,0,0,0
15671,530488.4833570474,2010-09-27 19:09:55,1950.9930680406087,2,47,0.5501165986061096,3.9095540046691895,46.38018420163747,46.11844897284285,184.69951887351272,168.83636952683244,3.237724376958795e-05,0.0897949114441871,0,0,0
15672,530518.4986070843,2010-09-27 19:10:25,1981.0083181075067,2,47,0.5504778623580933,3.911010980606079,46.38477153053633,46.11844897284285,184.7174560887356,168.83636952683244,9.713172767078504e-05,0.0897949114441871,0,0,0
15673,530548.5138693416,2010-09-27 19:10:55,2011.023580455059,2,47,0.5501165986061096,3.911982297897339,46.38935883370347,46.11844897284285,184.73539904600145,168.83636952683244,3.237724376958795e-05,0.0897949114441871,0,0,0
15674,530578.5293115231,2010-09-27 19:11:25,2041.039022516204,2,47,0.5501165986061096,3.913439273834229,46.393946012907385,46.11844897284285,184.7533474269649,168.83636952683244,0.0,0.0897949114441871,0,0,0
15675,530608.5445537905,2010-09-27 19:11:55,2071.054264783633,2,47,0.5501165986061096,3.914572238922119,46.398533415047744,46.11844897284285,184.77130267406363,168.83636952683244,0.0,0.0897949114441871,0,0,0
15676,530638.559864995,2010-09-27 19:12:25,2101.06957598814,2,47,0.5501165986061096,3.915867328643799,46.40312082712301,46.11844897284285,184.7892638498157,168.83636952683244,3.237724376958795e-05,0.0897949114441871,0,0,0
15677,530668.5754383438,2010-09-27 19:12:55,2131.0851493369987,2,47,0.5501165986061096,3.9171624183654794,46.40770824983647,46.11844897284285,184.80723113395496,168.83636952683244,-3.237724376958795e-05,0.0897949114441871,0,0,0
15678,530698.5902964574,2010-09-27 19:13:25,2161.1000074505205,2,47,0.5499359965324402,3.918457508087158,46.41229495584321,46.11844897284285,184.8252017611293,168.83636952683244,0.0,0.0897949114441871,0,0,0
15679,530728.6055668449,2010-09-27 19:13:55,2191.11527793338,2,47,0.5501165986061096,3.920076370239258,46.4168815822263,46.11844897284285,184.8431782837173,168.83636952683244,6.47544875391759e-05,0.0897949114441871,0,0,0
15680,530758.6208551874,2010-09-27 19:14:25,2221.130566180582,2,47,0.550297200679779,3.9213714599609375,46.42146822088053,46.11844897284285,184.861161081799,168.83636952683244,6.47544875391759e-05,0.0897949114441871,0,0,0
15681,530788.6361425073,2010-09-27 19:14:55,2251.1458535305437,2,47,0.5499359965324402,3.922666549682617,46.42605486589521,46.11844897284285,184.87915017951352,168.83636952683244,3.237724376958795e-05,0.0897949114441871,0,0,0
15682,530818.6514011907,2010-09-27 19:15:25,2281.161112193899,2,47,0.5501165986061096,3.924123525619507,46.43064155100352,46.11844897284285,184.8971458332793,168.83636952683244,3.237724376958795e-05,0.0897949114441871,0,0,0
15683,530848.6666856284,2010-09-27 19:15:55,2311.1763966215667,2,47,0.5501165986061096,3.925580501556397,46.43522825706397,46.11844897284285,184.9151480110194,168.83636952683244,6.47544875391759e-05,0.0897949114441871,0,0,0
15684,530878.6846007477,2010-09-27 19:16:25,2341.194311936333,2,47,0.5501165986061096,3.927037477493286,46.43981527838834,46.11844897284285,184.9331577351839,168.83636952683244,6.47544875391759e-05,0.0897949114441871,0,0,0
15685,530908.6972923783,2010-09-27 19:16:55,2371.2070034667304,2,47,0.5501165986061096,3.928494453430176,46.44440148847208,46.11844897284285,184.9511708494625,168.83636952683244,3.237724376958795e-05,0.0897949114441871,0,0,0
15686,530938.7133911237,2010-09-27 19:17:25,2401.2231021468974,2,47,0.5501165986061096,3.929789543151856,46.448988381038,46.11844897284285,184.96919322029052,168.83636952683244,0.0,0.0897949114441871,0,0,0
15687,530968.7278018855,2010-09-27 19:17:55,2431.2375128786857,2,47,0.5501165986061096,3.931408405303955,46.45357500722128,46.11844897284285,184.98722121282916,168.83636952683244,9.713172767078504e-05,0.0897949114441871,0,0,0
15688,530998.7431277817,2010-09-27 19:18:25,2461.252838779877,2,47,0.5499359965324402,3.9328653812408447,46.45816173408791,46.11844897284285,185.00525625803863,168.83636952683244,3.237724376958795e-05,0.0897949114441871,0,0,0
15689,531028.7583691619,2010-09-27 19:18:55,2491.2680801651045,2,47,0.5501165986061096,3.9343223571777344,46.46274843774454,46.11844897284285,185.0232980176918,168.83636952683244,9.713172767078504e-05,0.0897949114441871,0,0,0
15690,531058.7736682361,2010-09-27 19:19:26,2521.2833792293072,2,47,0.5501165986061096,3.935779333114624,46.467335200488,46.11844897284285,185.04134681210425,168.83636952683244,3.237724376958795e-05,0.0897949114441871,0,0,0
15691,531088.7889166338,2010-09-27 19:19:56,2551.298627657113,2,47,0.5501165986061096,3.937398195266724,46.471921987437575,46.11844897284285,185.0594024388957,168.83636952683244,6.47544875391759e-05,0.0897949114441871,0,0,0
15692,531118.8042002395,2010-09-27 19:20:26,2581.313911242679,2,47,0.5501165986061096,3.9386932849884033,46.47650865387303,46.11844897284285,185.0774646063536,168.83636952683244,3.237724376958795e-05,0.0897949114441871,0,0,0
15693,531148.8194695845,2010-09-27 19:20:56,2611.329180587698,2,47,0.5501165986061096,3.940150260925293,46.48109543489645,46.11844897284285,185.09553414911497,168.83636952683244,3.237724376958795e-05,0.0897949114441871,0,0,0
15694,531178.8347458718,2010-09-27 19:21:26,2641.344456870034,2,47,0.5499359965324402,3.941607236862183,46.48568213706614,46.11844897284285,185.1136103779349,168.83636952683244,-3.237724376958795e-05,0.0897949114441871,0,0,0
15695,531208.8500512618,2010-09-27 19:21:56,2671.359762280076,2,47,0.5501165986061096,3.943387985229492,46.490268849498776,46.11844897284285,185.13169364841812,168.83636952683244,6.47544875391759e-05,0.0897949114441871,0,0,0
15696,531238.8655134181,2010-09-27 19:22:26,2701.375224411319,2,47,0.5499359965324402,3.944683074951172,46.49485557035202,46.11844897284285,185.14978409153883,168.83636952683244,3.237724376958795e-05,0.0897949114441871,0,0,0
15697,531268.8806993149,2010-09-27 19:22:56,2731.3904103080386,2,47,0.5501165986061096,3.9466257095336914,46.49944222818331,46.11844897284285,185.16788152265,168.83636952683244,9.713172767078504e-05,0.0897949114441871,0,0,0
15698,531298.8958632968,2010-09-27 19:23:26,2761.405574290055,2,47,0.5499359965324402,3.947920799255371,46.50402885513362,46.11844897284285,185.18598600430363,168.83636952683244,0.0,0.0897949114441871,0,0,0
15699,531328.9111810428,2010-09-27 19:23:56,2791.4208920358897,2,47,0.5501165986061096,3.9497015476226807,46.50861552486637,46.11844897284285,185.2040980139712,168.83636952683244,6.47544875391759e-05,0.0897949114441871,0,0,0
15700,531358.9264358415,2010-09-27 19:24:26,2821.4361468345987,2,47,0.550297200679779,3.95132040977478,46.51320216181735,46.11844897284285,185.2222173307411,168.83636952683244,6.47544875391759e-05,0.0897949114441871,0,0,0
15701,531388.941773878,2010-09-27 19:24:56,2851.45148496632,2,47,0.550297200679779,3.95293927192688,46.51778891102932,46.11844897284285,185.24034455175024,168.83636952683244,6.47544875391759e-05,0.0897949114441871,0,0,0
15702,531418.9571365308,2010-09-27 19:25:26,2881.466847534037,2,47,0.5501165986061096,3.95455813407898,46.52237559008817,46.11844897284285,185.2584790220852,168.83636952683244,6.47544875391759e-05,0.0897949114441871,0,0,0
15703,531448.9722533752,2010-09-27 19:25:56,2911.4819643783903,2,47,0.5501165986061096,3.956338882446289,46.52696229781514,46.11844897284285,185.27662120146,168.83636952683244,6.47544875391759e-05,0.0897949114441871,0,0,0
15704,531478.9875476073,2010-09-27 19:26:26,2941.4972586005065,2,47,0.550297200679779,3.9577958583831783,46.531549039498486,46.11844897284285,185.2947710218333,168.83636952683244,3.237724376958795e-05,0.0897949114441871,0,0,0
15705,531509.0028114787,2010-09-27 19:26:56,2971.512522471862,2,47,0.550297200679779,3.959576606750488,46.53613575318146,46.11844897284285,185.312928448629,168.83636952683244,3.237724376958795e-05,0.0897949114441871,0,0,0
15706,531539.0180878162,2010-09-27 19:27:26,3001.527798809336,2,47,0.5501165986061096,3.961195468902588,46.54072242499106,46.11844897284285,185.3310934285823,168.83636952683244,3.237724376958795e-05,0.0897949114441871,0,0,0
15707,531569.0333686749,2010-09-27 19:27:56,3031.5430796680944,2,47,0.5501165986061096,3.9629762172698975,46.5453091368321,46.11844897284285,185.34926643378645,168.83636952683244,3.237724376958795e-05,0.0897949114441871,0,0,0
15708,531599.0486551678,2010-09-27 19:28:26,3061.558366160917,2,47,0.5501165986061096,3.964756965637207,46.5498958601719,46.11844897284285,185.3674473822023,168.83636952683244,3.237724376958795e-05,0.0897949114441871,0,0,0
15709,531629.0639635703,2010-09-27 19:28:56,3091.5736745935046,2,47,0.5501165986061096,3.9662139415740967,46.55448260678216,46.11844897284285,185.3856363680762,168.83636952683244,0.0,0.0897949114441871,0,0,0
15710,531659.0792078777,2010-09-27 19:29:26,3121.588918875964,2,47,0.5501165986061096,3.968318462371826,46.55906936764189,46.11844897284285,185.40383342680937,168.83636952683244,6.47544875391759e-05,0.0897949114441871,0,0,0
15711,531689.0944818343,2010-09-27 19:29:56,3151.604192817456,2,47,0.5499359965324402,3.969775438308716,46.5636560534355,46.11844897284285,185.42203827706348,168.83636952683244,0.0,0.0897949114441871,0,0,0
15712,531719.109768683,2010-09-27 19:30:26,3181.6194796761915,2,47,0.550297200679779,3.971879959106445,46.56824280076896,46.11844897284285,185.44025159514075,168.83636952683244,6.47544875391759e-05,0.0897949114441871,0,0,0
15713,531749.1250399378,2010-09-27 19:30:56,3211.6347509359903,2,47,0.550297200679779,3.973660707473755,46.572829590787535,46.11844897284285,185.45847331157944,168.83636952683244,6.47544875391759e-05,0.0897949114441871,0,0,0
15714,531779.1404410768,2010-09-27 19:31:26,3241.65015208,2,47,0.5501165986061096,3.9752795696258554,46.577416297978246,46.11844897284285,185.47670302996676,168.83636952683244,3.237724376958795e-05,0.0897949114441871,0,0,0
15715,531809.1555910339,2010-09-27 19:31:56,3271.6653020269828,2,47,0.5501165986061096,3.977060317993164,46.582003052247664,46.11844897284285,185.4949414123051,168.83636952683244,3.237724376958795e-05,0.0897949114441871,0,0,0
15716,531839.1710576713,2010-09-27 19:32:26,3301.6807686694865,2,47,0.5499359965324402,3.9791648387908936,46.58658981650148,46.11844897284285,185.51318790042976,168.83636952683244,9.713172767078504e-05,0.0897949114441871,0,0,0
15717,531869.1862911218,2010-09-27 19:32:56,3331.6960021048694,2,47,0.5501165986061096,3.981107473373413,46.59117646989888,46.11844897284285,185.5314430051022,168.83636952683244,6.47544875391759e-05,0.0897949114441871,0,0,0
15718,531899.2014340211,2010-09-27 19:33:26,3361.7111451045107,2,47,0.5499359965324402,3.982888221740722,46.59576301983915,46.11844897284285,185.5497064234623,168.83636952683244,3.237724376958795e-05,0.0897949114441871,0,0,0
15719,531929.2167122483,2010-09-27 19:33:56,3391.726423241476,2,47,0.5501165986061096,3.984830856323242,46.60034965141258,46.11844897284285,185.56797886670967,168.83636952683244,6.47544875391759e-05,0.0897949114441871,0,0,0
15720,531959.2320197385,2010-09-27 19:34:26,3421.741730736724,2,47,0.5501165986061096,3.9867734909057617,46.60493622038432,46.11844897284285,185.5862599887922,168.83636952683244,6.47544875391759e-05,0.0897949114441871,0,0,0
15721,531989.2473486372,2010-09-27 19:34:56,3451.7570596253727,2,47,0.5499359965324402,3.988716125488281,46.60952287369001,46.11844897284285,185.6045504069323,168.83636952683244,3.237724376958795e-05,0.0897949114441871,0,0,0
15722,532019.2626781324,2010-09-27 19:35:26,3481.772389125548,2,47,0.5499359965324402,3.990658760070801,46.61410947730294,46.11844897284285,185.6228497134359,168.83636952683244,6.47544875391759e-05,0.0897949114441871,0,0,0
15723,532049.2778662145,2010-09-27 19:35:56,3511.7875773330347,2,47,0.550297200679779,3.9927632808685294,46.61869614491056,46.11844897284285,185.64115844693413,168.83636952683244,6.47544875391759e-05,0.0897949114441871,0,0,0
15724,532079.293236301,2010-09-27 19:36:26,3541.802947294207,2,47,0.5499359965324402,3.9948675632476807,46.623282811729055,46.11844897284285,185.6594764415077,168.83636952683244,6.47544875391759e-05,0.0897949114441871,0,0,0
15725,532109.3085085783,2010-09-27 19:36:56,3571.818219581571,2,47,0.5499359965324402,3.9966483116149902,46.62786943808731,46.11844897284285,185.67780369058184,168.83636952683244,3.237724376958795e-05,0.0897949114441871,0,0,0
15726,532139.3240520777,2010-09-27 19:37:26,3601.833763070896,2,47,0.550297200679779,3.9989147186279297,46.63245615766469,46.11844897284285,185.6961408089111,168.83636952683244,9.713172767078504e-05,0.0897949114441871,0,0,0
15727,532169.3389630131,2010-09-27 19:37:56,3631.848674006269,2,47,0.5499359965324402,4.001019477844238,46.63704275068891,46.11844897284285,185.7144870420102,168.83636952683244,6.47544875391759e-05,0.0897949114441871,0,0,0
15728,532199.3544661216,2010-09-27 19:38:26,3661.8641773052736,2,47,0.5501165986061096,4.003123760223389,46.641629438978086,46.11844897284285,185.73284333020743,168.83636952683244,3.23295607813634e-05,0.0897949114441871,0,0,0
15729,532229.369522851,2010-09-27 19:38:56,3691.8792339393335,2,47,0.5501165986061096,4.005228519439697,46.646216044131975,46.11844897284285,185.75120904788488,168.83636952683244,3.24249267578125e-05,0.0897949114441871,0,0,0
15730,532259.3848124314,2010-09-27 19:39:26,3721.894523429638,2,47,0.5501165986061096,4.007494926452637,46.65080274790295,46.11844897284285,185.76958508737377,168.83636952683244,6.47544875391759e-05,0.0897949114441871,0,0,0
15731,532289.4000516813,2010-09-27 19:39:56,3751.909762674522,2,47,0.5501165986061096,4.009599208831787,46.65538937454309,46.11844897284285,185.78797075563733,168.83636952683244,3.23295607813634e-05,0.0897949114441871,0,0,0
15732,532319.4154135974,2010-09-27 19:40:26,3781.9251245856,2,47,0.5499359965324402,4.011703968048096,46.65997604055247,46.11844897284285,185.80636668170428,168.83636952683244,3.24249267578125e-05,0.0897949114441871,0,0,0
15733,532349.4306065668,2010-09-27 19:40:56,3811.940317660237,2,47,0.5501165986061096,4.014132022857666,46.6645626496997,46.11844897284285,185.8247726092952,168.83636952683244,6.47544875391759e-05,0.0897949114441871,0,0,0
15734,532379.4460108636,2010-09-27 19:41:26,3841.9557218568657,2,47,0.5501165986061096,4.016236782073975,46.669149307466206,46.11844897284285,185.84318893680583,168.83636952683244,6.47544875391759e-05,0.0897949114441871,0,0,0
15735,532409.4612870809,2010-09-27 19:41:56,3871.970998084063,2,47,0.5501165986061096,4.018503189086914,46.673736016207656,46.11844897284285,185.86161579259587,168.83636952683244,9.71794142969884e-05,0.0897949114441871,0,0,0
15736,532439.476444732,2010-09-27 19:42:26,3901.986155735277,2,47,0.550297200679779,4.021093368530273,46.67832260205331,46.11844897284285,185.88005243681692,168.83636952683244,9.71794142969884e-05,0.0897949114441871,0,0,0
15737,532469.4917390896,2010-09-27 19:42:56,3932.001450107769,2,47,0.5499359965324402,4.023036003112793,46.682909296331225,46.11844897284285,185.89850010807933,168.83636952683244,3.24249267578125e-05,0.0897949114441871,0,0,0
15738,532499.5069937429,2010-09-27 19:43:26,3962.0167048312906,2,47,0.5501165986061096,4.025464057922363,46.68749591532424,46.11844897284285,185.91695802134083,168.83636952683244,6.47544875391759e-05,0.0897949114441871,0,0,0
15739,532529.5222701255,2010-09-27 19:43:56,3992.0319811236513,2,47,0.5501165986061096,4.027892589569092,46.69208254724718,46.11844897284285,185.9354266278164,168.83636952683244,9.71794142969884e-05,0.0897949114441871,0,0,0
15740,532559.5376849386,2010-09-27 19:44:26,4022.0473959417936,2,47,0.5499359965324402,4.029996871948242,46.696669249405566,46.11844897284285,185.95390619853308,168.83636952683244,3.23295607813634e-05,0.0897949114441871,0,0,0
15741,532589.5529658525,2010-09-27 19:44:56,4052.0626768657153,2,47,0.5499359965324402,4.032425403594971,46.70125590182391,46.11844897284285,185.9723963049193,168.83636952683244,6.47544875391759e-05,0.0897949114441871,0,0,0
15742,532619.568109198,2010-09-27 19:45:26,4082.0778202011934,2,47,0.5501165986061096,4.034853458404541,46.70584255889341,46.11844897284285,185.99089739025905,168.83636952683244,6.47544875391759e-05,0.0897949114441871,0,0,0
15743,532649.5834669487,2010-09-27 19:45:56,4112.09317793685,2,47,0.5501165986061096,4.037281513214111,46.71042926046888,46.11844897284285,186.00940966914465,168.83636952683244,6.47544875391759e-05,0.0897949114441871,0,0,0
15744,532679.5986802839,2010-09-27 19:46:26,4142.108391302135,2,47,0.5499359965324402,4.03971004486084,46.715015963443165,46.11844897284285,186.02793305670252,168.83636952683244,6.47544875391759e-05,0.0897949114441871,0,0,0
15745,532709.6139361152,2010-09-27 19:46:56,4172.123647118384,2,47,0.5499359965324402,4.041976451873779,46.71960267460858,46.11844897284285,186.04646761509,168.83636952683244,6.47544875391759e-05,0.0897949114441871,0,0,0
15746,532739.6292209037,2010-09-27 19:47:26,4202.138931896928,2,47,0.5499359965324402,4.044566631317139,46.72418933439753,46.11844897284285,186.06501326631968,168.83636952683244,3.24249267578125e-05,0.0897949114441871,0,0,0
15747,532769.6444950708,2010-09-27 19:47:56,4232.154206074008,2,47,0.5501165986061096,4.047156810760498,46.7287760427541,46.11844897284285,186.0835704650247,168.83636952683244,3.24249267578125e-05,0.0897949114441871,0,0,0
15748,532799.6622441657,2010-09-27 19:48:26,4262.171955284151,2,47,0.5501165986061096,4.049584865570068,46.7333630508201,46.11844897284285,186.1021404372953,168.83636952683244,3.23295607813634e-05,0.0897949114441871,0,0,0
15749,532829.6750665777,2010-09-27 19:48:56,4292.184777570937,2,47,0.550297200679779,4.052175045013428,46.73794936179604,46.11844897284285,186.1207191734157,168.83636952683244,6.47544875391759e-05,0.0897949114441871,0,0,0
15750,532859.6903511708,2010-09-27 19:49:26,4322.200062174042,2,47,0.5501165986061096,4.054765224456787,46.74253603950796,46.11844897284285,186.13931116420272,168.83636952683244,6.47544875391759e-05,0.0897949114441871,0,0,0
15751,532889.7056392175,2010-09-27 19:49:56,4352.215350230768,2,47,0.5499359965324402,4.0573554039001465,46.74712270452804,46.11844897284285,186.15791498360625,168.83636952683244,9.70840483205393e-05,0.0897949114441871,0,0,0
15752,532919.7210418703,2010-09-27 19:50:26,4382.230752868506,2,47,0.550297200679779,4.060107707977295,46.751709463803145,46.11844897284285,186.176531213385,168.83636952683244,9.71794142969884e-05,0.0897949114441871,0,0,0
15753,532949.736171697,2010-09-27 19:50:56,4412.245882695266,2,47,0.5501165986061096,4.062535762786865,46.75629617129938,46.11844897284285,186.1951589333184,168.83636952683244,6.47544875391759e-05,0.0897949114441871,0,0,0
15754,532979.7515254678,2010-09-27 19:51:27,4442.261236461012,2,47,0.5501165986061096,4.065125942230225,46.76088285591206,46.11844897284285,186.2137987674715,168.83636952683244,0.0,0.0897949114441871,0,0,0
15755,533009.7668636547,2010-09-27 19:51:57,4472.2765746679215,2,47,0.5499359965324402,4.067878246307373,46.76546956157988,46.11844897284285,186.23245100006287,168.83636952683244,6.47544875391759e-05,0.0897949114441871,0,0,0
15756,533039.7821658016,2010-09-27 19:52:27,4502.291876804793,2,47,0.5499359965324402,4.070468425750732,46.77005622096484,46.11844897284285,186.2511154648879,168.83636952683244,3.24249267578125e-05,0.0897949114441871,0,0,0
15757,533069.7974068159,2010-09-27 19:52:57,4532.307117814082,2,47,0.5501165986061096,4.073544025421143,46.774642842587646,46.11844897284285,186.26979226662283,168.83636952683244,9.70840483205393e-05,0.0897949114441871,0,0,0
15758,533099.8125840761,2010-09-27 19:53:27,4562.3222950892805,2,47,0.550297200679779,4.076134204864502,46.77922949495356,46.11844897284285,186.28848195027624,168.83636952683244,6.47544875391759e-05,0.0897949114441871,0,0,0
15759,533129.8278162683,2010-09-27 19:53:57,4592.33752726151,2,47,0.5501165986061096,4.078724384307861,46.78381616779152,46.11844897284285,186.3071844086676,168.83636952683244,3.23295607813634e-05,0.0897949114441871,0,0,0
15760,533159.8433011764,2010-09-27 19:54:27,4622.353012169608,2,47,0.5501165986061096,4.08180046081543,46.78840285167268,46.11844897284285,186.32589973246863,168.83636952683244,9.71794142969884e-05,0.0897949114441871,0,0,0
15761,533189.8583983417,2010-09-27 19:54:57,4652.36810933484,2,47,0.5499359965324402,4.08455228805542,46.79298943646048,46.11844897284285,186.34462769140356,168.83636952683244,6.47544875391759e-05,0.0897949114441871,0,0,0
15762,533219.8737013506,2010-09-27 19:55:27,4682.383412363939,2,47,0.5499359965324402,4.087466239929199,46.79757601659316,46.11844897284285,186.3633688817669,168.83636952683244,9.70840483205393e-05,0.0897949114441871,0,0,0
15763,533249.8889791468,2010-09-27 19:55:57,4712.398690140003,2,47,0.550297200679779,4.090542316436768,46.80216265007331,46.11844897284285,186.382123616615,168.83636952683244,0.0001295089750783,0.0897949114441871,0,0,0
15764,533279.9043882557,2010-09-27 19:56:27,4742.414099248895,2,47,0.5501165986061096,4.093456268310547,46.80674937773757,46.11844897284285,186.40089206634644,168.83636952683244,0.0001295089750783,0.0897949114441871,0,0,0
15765,533309.9195653705,2010-09-27 19:56:57,4772.429276373718,2,47,0.550297200679779,4.096370220184326,46.81133599298108,46.11844897284285,186.4196734976024,168.83636952683244,9.71794142969884e-05,0.0897949114441871,0,0,0
15766,533339.934950665,2010-09-27 19:57:27,4802.444661668164,2,47,0.5501165986061096,4.0992841720581055,46.81592275910809,46.11844897284285,186.43846914082013,168.83636952683244,9.71794142969884e-05,0.0897949114441871,0,0,0
15767,533369.9502136341,2010-09-27 19:57:57,4832.459924632255,2,47,0.5501165986061096,4.102198123931885,46.820509500586425,46.11844897284285,186.45727836790653,168.83636952683244,6.47544875391759e-05,0.0897949114441871,0,0,0
15768,533399.9653690347,2010-09-27 19:58:27,4862.475080057913,2,47,0.550297200679779,4.105273723602295,46.82509627084547,46.11844897284285,186.47610156208083,168.83636952683244,6.47544875391759e-05,0.0897949114441871,0,0,0
15769,533429.9806380739,2010-09-27 19:58:57,4892.490349077119,2,47,0.550297200679779,4.108349800109863,46.82968300517505,46.11844897284285,186.49493862764132,168.83636952683244,6.47544875391759e-05,0.0897949114441871,0,0,0
15770,533459.9959254338,2010-09-27 19:59:27,4922.505636437107,2,47,0.550297200679779,4.111749172210693,46.83426971314974,46.11844897284285,186.5137897145092,168.83636952683244,0.0001295089750783,0.0897949114441871,0,0,0
15771,533490.0112260871,2010-09-27 19:59:57,4952.5209371805,2,47,0.5501165986061096,4.114501476287842,46.83885634406518,46.11844897284285,186.53265464767657,168.83636952683244,6.47544875391759e-05,0.0897949114441871,0,0,0
15772,533520.026512209,2010-09-27 20:00:27,4982.536223227209,2,47,0.550297200679779,4.117900848388672,46.84344302475526,46.11844897284285,186.5515341450839,168.83636952683244,9.71794142969884e-05,0.0897949114441871,0,0,0
15773,533550.0418977239,2010-09-27 20:00:57,5012.551608747219,2,47,0.5501165986061096,4.120976448059082,46.84802974143994,46.11844897284285,186.57042826708485,168.83636952683244,6.47544875391759e-05,0.0897949114441871,0,0,0
15774,533580.0570379416,2010-09-27 20:01:27,5042.566748969928,2,47,0.5499359965324402,4.12405252456665,46.85261643971161,46.11844897284285,186.58933684351047,168.83636952683244,6.47544875391759e-05,0.0897949114441871,0,0,0
15775,533610.0723225598,2010-09-27 20:01:57,5072.582033552983,2,47,0.550297200679779,4.1276140213012695,46.857203097846245,46.11844897284285,186.60825985468844,168.83636952683244,0.0001942634553415,0.0897949114441871,0,0,0
15776,533640.0876125864,2010-09-27 20:02:27,5102.597323579628,2,47,0.5499359965324402,4.13036584854126,46.861789826473405,46.11844897284285,186.62719772842223,168.83636952683244,6.47544875391759e-05,0.0897949114441871,0,0,0
15777,533670.1028790693,2010-09-27 20:02:57,5132.612590062502,2,47,0.550297200679779,4.133603572845459,46.86637655414185,46.11844897284285,186.64615024678915,168.83636952683244,9.70840483205393e-05,0.0897949114441871,0,0,0
15778,533700.1182321283,2010-09-27 20:03:27,5162.627943121483,2,47,0.5501165986061096,4.136841297149658,46.87096328922223,46.11844897284285,186.66511751417835,168.83636952683244,6.47544875391759e-05,0.0897949114441871,0,0,0
15779,533730.1334640249,2010-09-27 20:03:57,5192.643175018025,2,47,0.5501165986061096,4.140079021453857,46.875550062248585,46.11844897284285,186.6840997575583,168.83636952683244,9.70840483205393e-05,0.0897949114441871,0,0,0
15780,533760.1487345077,2010-09-27 20:04:27,5222.658445525947,2,47,0.5499359965324402,4.143316745758057,46.88013687004273,46.11844897284285,186.7030970777291,168.83636952683244,6.47544875391759e-05,0.0897949114441871,0,0,0
15781,533790.1641449549,2010-09-27 20:04:57,5252.673855958142,2,47,0.550297200679779,4.146878242492676,46.88472356867209,46.11844897284285,186.7221090271563,168.83636952683244,0.0001295089750783,0.0897949114441871,0,0,0
15782,533820.1792855937,2010-09-27 20:05:27,5282.68899661694,2,47,0.550297200679779,4.150115966796875,46.88931017104967,46.11844897284285,186.74113586302528,168.83636952683244,9.70840483205393e-05,0.0897949114441871,0,0,0
15783,533850.1949172531,2010-09-27 20:05:57,5312.704628251289,2,47,0.5501165986061096,4.153515815734863,46.89389690676112,46.11844897284285,186.7601785091088,168.83636952683244,0.0001295089750783,0.0897949114441871,0,0,0
15784,533880.2098702084,2010-09-27 20:06:27,5342.719581221588,2,47,0.5501165986061096,4.156753540039063,46.89848359396044,46.11844897284285,186.77923626844847,168.83636952683244,6.47544875391759e-05,0.0897949114441871,0,0,0
15785,533910.2251306562,2010-09-27 20:06:57,5372.73484165436,2,47,0.5501165986061096,4.159991264343262,46.9030702731363,46.11844897284285,186.79830949387392,168.83636952683244,9.71794142969884e-05,0.0897949114441871,0,0,0
15786,533940.2404867677,2010-09-27 20:07:27,5402.7501978762375,2,47,0.5501165986061096,4.163552761077881,46.907656958661136,46.11844897284285,186.8173984149468,168.83636952683244,9.71794142969884e-05,0.0897949114441871,0,0,0
15787,533970.2557515614,2010-09-27 20:07:57,5432.765462554607,2,47,0.5501165986061096,4.166952133178711,46.91224369687069,46.11844897284285,186.8365032528992,168.83636952683244,6.47544875391759e-05,0.0897949114441871,0,0,0
15788,534000.2710677533,2010-09-27 20:08:27,5462.780778746564,2,47,0.550297200679779,4.170351982116699,46.91683036198947,46.11844897284285,186.85562364917035,168.83636952683244,6.47544875391759e-05,0.0897949114441871,0,0,0
15789,534030.2864282209,2010-09-27 20:08:57,5492.7961392340885,2,47,0.5501165986061096,4.173913478851318,46.92141707818582,46.11844897284285,186.87476025117127,168.83636952683244,9.71794142969884e-05,0.0897949114441871,0,0,0
15790,534060.3020356146,2010-09-27 20:09:27,5522.811746612892,2,47,0.5501165986061096,4.1774749755859375,46.92600389359824,46.11844897284285,186.89391327816725,168.83636952683244,0.0001295089750783,0.0897949114441871,0,0,0
15791,534090.3170503642,2010-09-27 20:09:57,5552.826761362401,2,47,0.5501165986061096,4.181036472320557,46.93059055471148,46.11844897284285,186.91308185299005,168.83636952683244,0.0001295089750783,0.0897949114441871,0,0,0
15792,534120.332427749,2010-09-27 20:10:27,5582.842138742091,2,47,0.5501165986061096,4.184435844421387,46.93517738911856,46.11844897284285,186.93226752076075,168.83636952683244,3.23295607813634e-05,0.0897949114441871,0,0,0
15793,534150.3475369292,2010-09-27 20:10:57,5612.857247947376,2,47,0.5501165986061096,4.188159465789795,46.93976412390478,46.11844897284285,186.9514691326623,168.83636952683244,6.47544875391759e-05,0.0897949114441871,0,0,0
15794,534180.3628053217,2010-09-27 20:11:27,5642.872516314956,2,47,0.5501165986061096,4.191720962524414,46.944350900214445,46.11844897284285,186.970687575898,168.83636952683244,9.71794142969884e-05,0.0897949114441871,0,0,0
15795,534210.3781006967,2010-09-27 20:11:57,5672.88781168995,2,47,0.5501165986061096,4.195281982421875,46.9489376939187,46.11844897284285,186.98992272760995,168.83636952683244,9.70840483205393e-05,0.0897949114441871,0,0,0
15796,534240.393412999,2010-09-27 20:12:27,5702.903123992196,2,47,0.550297200679779,4.199167251586914,46.953524474149134,46.11844897284285,187.00917455757707,168.83636952683244,9.70840483205393e-05,0.0897949114441871,0,0,0
15797,534247.2058447718,2010-09-27 20:12:34,5709.715555764968,2,47,0.550297200679779,4.200138568878174,46.95456552201863,46.11844897284285,187.0135464535332,168.83636952683244,0.0001618385285837,0.0897949114441871,0,0,0
15798,534277.2358007322,2010-09-27 20:13:04,30.01551559469599,3,47,0.0,4.117091178894043,46.95456552201863,46.11844897284285,187.0135464535332,168.83636952683244,-0.0003561973571777,0.0897949114441871,0,0,0
15799,534307.250875682,2010-09-27 20:13:34,60.03059051941192,3,47,0.0,4.106730937957764,46.95456552201863,46.11844897284285,187.0135464535332,168.83636952683244,-0.0002265930233988,0.0897949114441871,0,0,0
15800,534337.2661658489,2010-09-27 20:14:04,90.04588068640568,3,47,0.0,4.100579261779785,46.95456552201863,46.11844897284285,187.0135464535332,168.83636952683244,-0.0001618385285837,0.0897949114441871,0,0,0
15801,534367.2347983762,2010-09-27 20:14:34,120.01451321375278,3,47,0.0,4.096693992614746,46.95456552201863,46.11844897284285,187.0135464535332,168.83636952683244,-6.47544875391759e-05,0.0897949114441871,0,0,0
15802,534367.2503595527,2010-09-27 20:14:34,2.636581313e-06,4,47,1.0012786388397217,4.199814796447754,46.95456552275195,46.11844897284285,187.013546456613,168.83636952683244,0.0,0.0897949114441871,0,0,0
15803,534368.1566122387,2010-09-27 20:14:35,0.906255347771938,4,47,0.9510692358016968,4.199653148651123,46.9548097719177,46.11844897284285,187.01457223573183,168.83636952683244,-3.23295607813634e-05,0.0897949114441871,0,0,0
15804,534370.2346996998,2010-09-27 20:14:37,2.984342803767867,4,47,0.9006792306900024,4.199653148651123,46.95534307192392,46.11844897284285,187.01681193668733,168.83636952683244,-3.23295607813634e-05,0.0897949114441871,0,0,0
15805,534373.375324347,2010-09-27 20:14:40,6.124967486148116,4,47,0.8502892255783081,4.199814796447754,46.95610568100122,46.11844897284285,187.0200146813831,168.83636952683244,6.47544875391759e-05,0.0897949114441871,0,0,0
15806,534377.6252466821,2010-09-27 20:14:45,10.374889811105414,4,47,0.800079882144928,4.199653148651123,46.957078534289856,46.11844897284285,187.0241003932421,168.83636952683244,3.24249267578125e-05,0.0897949114441871,0,0,0
15807,534383.1251801071,2010-09-27 20:14:50,15.8748232160277,4,47,0.7500510811805725,4.199814796447754,46.95826110369415,46.11844897284285,187.02906686797408,168.83636952683244,0.0,0.0897949114441871,0,0,0
15808,534390.234483482,2010-09-27 20:14:57,22.984126585978075,4,47,0.6998416781425476,4.199653148651123,46.95969088970912,46.11844897284285,187.0350715965552,168.83636952683244,-3.23295607813634e-05,0.0897949114441871,0,0,0
15809,534399.6406419005,2010-09-27 20:15:07,32.39028503456705,4,47,0.649451732635498,4.199814796447754,46.96145171765075,46.11844897284285,187.04246662097745,168.83636952683244,0.0,0.0897949114441871,0,0,0
15810,534412.8280003009,2010-09-27 20:15:20,45.5776434349588,4,47,0.5994229316711426,4.199814796447754,46.963735013143385,46.11844897284285,187.0520558737299,168.83636952683244,0.0,0.0897949114441871,0,0,0
15811,534432.3121481866,2010-09-27 20:15:39,65.06179129558012,4,47,0.549032986164093,4.199814796447754,46.96683381019436,46.11844897284285,187.0650699930971,168.83636952683244,3.23295607813634e-05,0.0897949114441871,0,0,0
15812,534465.0774499056,2010-09-27 20:16:12,97.82709304456124,4,47,0.4990041851997375,4.199491024017334,46.97158467801703,46.11844897284285,187.08502241598632,168.83636952683244,-6.47544875391759e-05,0.0897949114441871,0,0,0
15813,534523.998667705,2010-09-27 20:17:11,156.74831080890377,4,47,0.4489754140377044,4.199653148651123,46.97930839869084,46.11844897284285,187.11746005560343,168.83636952683244,-6.47544875391759e-05,0.0897949114441871,0,0,0
15814,534616.0605835703,2010-09-27 20:18:43,248.81022668430043,4,47,0.3989466428756714,4.199653148651123,46.990120422202985,46.11844897284285,187.1628678470794,168.83636952683244,-3.23295607813634e-05,0.0897949114441871,0,0,0
15815,534732.6995782605,2010-09-27 20:20:40,365.4492213694954,4,47,0.3487372696399688,4.199814796447754,47.00222014678051,46.11844897284285,187.21368364144368,168.83636952683244,3.23295607813634e-05,0.0897949114441871,0,0,0
15816,534872.9168564888,2010-09-27 20:23:00,505.66649960285486,4,47,0.2985278964042663,4.199491024017334,47.01481810369405,46.11844897284285,187.2665918672677,168.83636952683244,-6.47544875391759e-05,0.0897949114441871,0,0,0
15817,535040.4464887949,2010-09-27 20:25:47,673.1961319038677,4,47,0.2484991252422332,4.199653148651123,47.02752897889359,46.11844897284285,187.3199741435897,168.83636952683244,3.24249267578125e-05,0.0897949114441871,0,0,0
15818,535248.1473529908,2010-09-27 20:29:15,880.89699609988,4,47,0.1984703540802002,4.199491024017334,47.04038318820519,46.11844897284285,187.37395801033577,168.83636952683244,-6.47544875391759e-05,0.0897949114441871,0,0,0
15819,535518.4571134541,2010-09-27 20:33:45,1151.2067565581008,4,47,0.1482609659433365,4.199653148651123,47.05333846099724,46.11844897284285,187.42836674031471,168.83636952683244,-3.23295607813634e-05,0.0897949114441871,0,0,0
15820,535911.4532597512,2010-09-27 20:40:18,1544.202902850191,4,47,0.098232202231884,4.199814796447754,47.06663880099179,46.11844897284285,187.48422460650835,168.83636952683244,0.0,0.0897949114441871,0,0,0
15821,536611.7117072733,2010-09-27 20:51:59,2244.4613503823007,4,47,0.0498289167881011,4.199491024017334,47.08049601826037,46.11844897284285,187.54242108113863,168.83636952683244,-6.47544875391759e-05,0.0897949114441871,0,0,0
15822,536641.7502245222,2010-09-27 20:52:29,30.01534475826197,5,47,0.0,4.192206382751465,47.08049601826037,46.11844897284285,187.54242108113863,168.83636952683244,0.0,0.0897949114441871,0,0,0
15823,536671.7499273658,2010-09-27 20:52:59,60.01504760189859,5,47,0.0,4.190911293029785,47.08049601826037,46.11844897284285,187.54242108113863,168.83636952683244,-9.71794142969884e-05,0.0897949114441871,0,0,0
15824,536671.9144004616,2010-09-27 20:52:59,0.187601316748345,6,47,-1.9243103452026844e-05,4.191073417663574,47.08049601826037,46.11844897384564,187.54242108113863,168.8363695310352,0.0,0.0929468795657157,0,0,0
15825,536676.7423661568,2010-09-27 20:53:04,5.015567011887365,6,47,0.0001613661734154,4.190911293029785,47.08049689914742,46.11844897392867,187.5424247730581,168.83636953138318,-6.47544875391759e-05,0.0929468795657157,0,0,0
15826,536706.7811020555,2010-09-27 20:53:34,30.01496169708233,7,47,-1.099568486213684,4.022712230682373,47.08049689914742,46.12761764454224,187.5424247730581,168.87344249641484,-0.0008418083307333,0.0929468795657157,0,0,0
15827,536736.7966218607,2010-09-27 20:54:04,60.03048139201314,7,47,-1.0997490882873535,3.9968101978302,47.08049689914742,46.1367865262277,187.5424247730581,168.91019729813382,-0.0005504131549969,0.0929468795657157,0,0,0
15828,536766.8117623691,2010-09-27 20:54:34,90.04562190043609,7,47,-1.0997490882873535,3.9788410663604736,47.08049689914742,46.14595514724378,187.5424247730581,168.94675652254548,-0.0004532813909463,0.0929468795657157,0,0,0
15829,536796.8270639145,2010-09-27 20:55:04,120.0609234458321,7,47,-1.099568486213684,3.965404510498047,47.08049689914742,46.15512385453536,187.5424247730581,168.98317403878914,-0.0002913951757363,0.0929468795657157,0,0,0
15830,536826.8423905475,2010-09-27 20:55:34,150.07625007885065,7,47,-1.099568486213684,3.9537487030029297,47.08049689914742,46.16429207329901,187.5424247730581,169.01947506038877,-0.0003237724304199,0.0929468795657157,0,0,0
15831,536856.8577080176,2010-09-27 20:56:04,180.0915675489973,7,47,-1.0993878841400146,3.943711757659912,47.08049689914742,46.17346006833796,187.5424247730581,169.05567566383206,-0.0002266406954731,0.0929468795657157,0,0,0
15832,536886.8731093521,2010-09-27 20:56:34,210.10696888348224,7,47,-1.099568486213684,3.9339985847473145,47.08049689914742,46.18262802324614,187.5424247730581,169.09178575652396,-0.0002590179501567,0.0929468795657157,0,0,0
15833,536916.8886688614,2010-09-27 20:57:04,240.12252839279583,7,47,-1.0997490882873535,3.9249329566955566,47.08049689914742,46.191795990394205,187.5424247730581,169.12781134415485,-0.0002590179501567,0.0929468795657157,0,0,0
15834,536946.9037655254,2010-09-27 20:57:34,270.1376250668014,7,47,-1.0997490882873535,3.9163529872894287,47.08049689914742,46.200964443302496,187.5424247730581,169.1637582979205,-0.0002266406954731,0.0929468795657157,0,0,0
15835,536976.9190822837,2010-09-27 20:58:04,300.1529418301838,7,47,-1.0997490882873535,3.90793514251709,47.08049689914742,46.2101332206511,187.5424247730581,169.19962843947118,-0.0002590179501567,0.0929468795657157,0,0,0
15836,537006.9343891726,2010-09-27 20:58:34,330.1682487239301,7,47,-1.099929690361023,3.899840831756592,47.08049689914742,46.21930198263294,187.5424247730581,169.2354228090617,-0.0002266406954731,0.0929468795657157,0,0,0
15837,537036.9497249584,2010-09-27 20:59:04,360.18358451480816,7,47,-1.099568486213684,3.8920702934265137,47.08049689914742,46.22847069403796,187.5424247730581,169.27114299891772,-0.0001618862152099,0.0929468795657157,0,0,0
15838,537066.9650471002,2010-09-27 20:59:34,390.19890665160347,7,47,-1.0997490882873535,3.8841378688812256,47.08049689914742,46.23763949244313,187.5424247730581,169.30679076558326,-0.0001618862152099,0.0929468795657157,0,0,0
15839,537096.9804092317,2010-09-27 21:00:04,420.2142687581695,7,47,-1.099568486213684,3.876367330551148,47.08049689914742,46.24680827533501,187.5424247730581,169.34236651953472,-0.0001618862152099,0.0929468795657157,0,0,0
15840,537126.9957617796,2010-09-27 21:00:34,450.2296213259251,7,47,-1.0997490882873535,3.8687586784362793,47.08049689914742,46.25597707298691,187.5424247730581,169.37787160206113,-0.0001295089750783,0.0929468795657157,0,0,0
15841,537157.0110699966,2010-09-27 21:01:04,480.244929527937,7,47,-1.099568486213684,3.861150026321411,47.08049689914742,46.26514582075271,187.5424247730581,169.41330697630983,-0.0001942634553415,0.0929468795657157,0,0,0
15842,537187.0263761886,2010-09-27 21:01:34,510.26023572494427,7,47,-1.0997490882873535,3.853541374206543,47.08049689914742,46.27431461393206,187.5424247730581,169.4486737019339,-0.0002266406954731,0.0929468795657157,0,0,0
15843,537217.0417860092,2010-09-27 21:02:04,540.275645555637,7,47,-1.099929690361023,3.846256494522095,47.08049689914742,46.28348345256595,187.5424247730581,169.48397300032403,-0.0002266406954731,0.0929468795657157,0,0,0
15844,537247.0571652537,2010-09-27 21:02:34,570.2910249002317,7,47,-1.0997490882873535,3.838809728622437,47.08049689914742,46.29265231051075,187.5424247730581,169.5192057563112,-0.0002266406954731,0.0929468795657157,0,0,0
15845,537277.072388684,2010-09-27 21:03:04,600.3062483055782,7,47,-1.0997490882873535,3.832010746002197,47.08049689914742,46.3018210527372,187.5424247730581,169.5543723889705,-0.0001618862152099,0.0929468795657157,0,0,0
15846,537307.0877170312,2010-09-27 21:03:34,630.3215765676631,7,47,-1.0997490882873535,3.824887752532959,47.08049689914742,46.31098994471079,187.5424247730581,169.58947504624956,-0.0001942634553415,0.0929468795657157,0,0,0
15847,537337.105540176,2010-09-27 21:04:04,660.3393999078469,7,47,-1.0997490882873535,3.818250417709351,47.08049689914742,46.32015956388682,187.5424247730581,169.6245172212588,-0.0001618862152099,0.0929468795657157,0,0,0
15848,537367.1183944176,2010-09-27 21:04:34,690.3522539438829,7,47,-1.099929690361023,3.811127424240112,47.08049689914742,46.32932789282986,187.5424247730581,169.65949172616,-0.0001618862152099,0.0929468795657157,0,0,0
15849,537397.1337832708,2010-09-27 21:05:04,720.367642807238,7,47,-1.0997490882873535,3.804490089416504,47.08049689914742,46.33849754895287,187.5424247730581,169.69440875644736,-0.0001618862152099,0.0929468795657157,0,0,0
15850,537427.1490597638,2010-09-27 21:05:34,750.3829193000992,7,47,-1.099568486213684,3.7980146408081055,47.08049689914742,46.34766690162155,187.5424247730581,169.7292642819092,-0.0001942634553415,0.0929468795657157,0,0,0
15851,537457.1644102363,2010-09-27 21:06:04,780.3982697625996,7,47,-1.0997490882873535,3.791701078414917,47.08049689914742,46.356835767832,187.5424247730581,169.76405931587715,-0.0001618862152099,0.0929468795657157,0,0,0
15852,537487.1798479465,2010-09-27 21:06:34,810.4137074829093,7,47,-1.099568486213684,3.785711288452149,47.08049689914742,46.36600458382748,187.5424247730581,169.79879671741713,-0.0001295089750783,0.0929468795657157,0,0,0
15853,537517.1951889454,2010-09-27 21:07:05,840.4290484968247,7,47,-1.0997490882873535,3.77955961227417,47.08049689914742,46.37517345207258,187.5424247730581,169.83347780746,-0.0001295089750783,0.0929468795657157,0,0,0
15854,537547.2104776388,2010-09-27 21:07:35,870.44433717009,7,47,-1.0997490882873535,3.773407936096192,47.08049689914742,46.38434230621721,187.5424247730581,169.86810346907365,-0.0001295089750783,0.0929468795657157,0,0,0
15855,537577.2257295402,2010-09-27 21:08:05,900.4595890916172,7,47,-1.0997490882873535,3.767580032348633,47.08049689914742,46.393511179242566,187.5424247730581,169.9026745602052,-0.0001295089750783,0.0929468795657157,0,0,0
15856,537607.2410564289,2010-09-27 21:08:35,930.4749159552111,7,47,-1.099568486213684,3.761914014816284,47.08049689914742,46.40268004908786,187.5424247730581,169.93719210179128,-0.0001295089750783,0.0929468795657157,0,0,0
15857,537637.2564956279,2010-09-27 21:09:05,960.4903551842868,7,47,-1.0997490882873535,3.7560861110687256,47.08049689914742,46.4118490453547,187.5424247730581,169.971657407136,-0.0001618862152099,0.0929468795657157,0,0,0
15858,537667.2717222864,2010-09-27 21:09:35,990.5055818126788,7,47,-1.0997490882873535,3.750420331954956,47.08049689914742,46.42101793949658,187.5424247730581,170.00607069545097,-0.0001618862152099,0.0929468795657157,0,0,0
15859,537697.2872662367,2010-09-27 21:10:05,1020.5211257631548,7,47,-1.0997490882873535,3.7449162006378174,47.08049689914742,46.43018691804174,187.5424247730581,170.04043372672004,-0.0001942634553415,0.0929468795657157,0,0,0
15860,537727.3023984445,2010-09-27 21:10:35,1050.5362579758705,7,47,-1.099568486213684,3.7395739555358887,47.08049689914742,46.43935579046706,187.5424247730581,170.0747467121401,-0.0001618862152099,0.0929468795657157,0,0,0
15861,537757.3178569868,2010-09-27 21:11:05,1080.55171654823,7,47,-1.099929690361023,3.73439359664917,47.08049689914742,46.44852478423105,187.5424247730581,170.10901168166998,-0.0001295089750783,0.0929468795657157,0,0,0
15862,537787.3330300916,2010-09-27 21:11:35,1110.5668896329685,7,47,-1.0997490882873535,3.729213237762451,47.08049689914742,46.457693692042206,187.5424247730581,170.14322850703638,-0.0001618862152099,0.0929468795657157,0,0,0
15863,537817.3483621832,2010-09-27 21:12:05,1140.5822217396503,7,47,-1.0997490882873535,3.7241947650909424,47.08049689914742,46.466862644245104,187.5424247730581,170.17739911646308,-0.0001942634553415,0.0929468795657157,0,0,0
15864,537847.3637562746,2010-09-27 21:12:35,1170.5976158059923,7,47,-1.099568486213684,3.7191762924194336,47.08049689914742,46.47603162542202,187.5424247730581,170.21152325547837,-0.0001295089750783,0.0929468795657157,0,0,0
15865,537877.3792804006,2010-09-27 21:13:05,1200.613139931984,7,47,-1.0997490882873535,3.714319705963135,47.08049689914742,46.48520058924064,187.5424247730581,170.245601402703,-6.47544875391759e-05,0.0929468795657157,0,0,0
15866,537907.394461721,2010-09-27 21:13:35,1230.6283212522796,7,47,-1.099568486213684,3.709463119506836,47.08049689914742,46.49436949362891,187.5424247730581,170.27963419605337,-9.713172767078504e-05,0.0929468795657157,0,0,0
15867,537937.4097637426,2010-09-27 21:14:05,1260.6436233039394,7,47,-1.0997490882873535,3.704606533050537,47.08049689914742,46.50353846059388,187.5424247730581,170.31362293203043,-9.713172767078504e-05,0.0929468795657157,0,0,0
15868,537967.4251092175,2010-09-27 21:14:35,1290.6589687589408,7,47,-1.099568486213684,3.6997499465942383,47.08049689914742,46.512707368458656,187.5424247730581,170.34756768101445,-0.0001618862152099,0.0929468795657157,0,0,0
15869,537997.440424387,2010-09-27 21:15:05,1320.6742839483943,7,47,-1.0997490882873535,3.69521713256836,47.08049689914742,46.52187630911524,187.5424247730581,170.38146907883225,-9.713172767078504e-05,0.0929468795657157,0,0,0
15870,538027.4557627793,2010-09-27 21:15:35,1350.6896223106908,7,47,-1.099568486213684,3.6905224323272714,47.08049689914742,46.53104530989095,187.5424247730581,170.4153283582088,-0.0001295089750783,0.0929468795657157,0,0,0
15871,538057.4711054424,2010-09-27 21:16:05,1380.704964983748,7,47,-1.0997490882873535,3.6858277320861816,47.08049689914742,46.540214263649446,187.5424247730581,170.44914539755712,-0.0001618862152099,0.0929468795657157,0,0,0
15872,538087.4864314689,2010-09-27 21:16:35,1410.7202910002277,7,47,-1.0997490882873535,3.6814568042755127,47.08049689914742,46.5493832397424,187.5424247730581,170.48292117700052,-9.713172767078504e-05,0.0929468795657157,0,0,0
15873,538117.5017734453,2010-09-27 21:17:05,1440.7356329765453,7,47,-1.099568486213684,3.677085876464844,47.08049689914742,46.55855230186068,187.5424247730581,170.5166564566486,-0.0001295089750783,0.0929468795657157,0,0,0
15874,538147.5172545237,2010-09-27 21:17:35,1470.7511141503214,7,47,-1.0997490882873535,3.672714948654175,47.08049689914742,46.56772135106811,187.5424247730581,170.5503516565101,-0.0001295089750783,0.0929468795657157,0,0,0
15875,538177.5324617185,2010-09-27 21:18:05,1500.7663212499665,7,47,-1.0997490882873535,3.668506145477295,47.08049689914742,46.5768903695346,187.5424247730581,170.5840071973149,-9.713172767078504e-05,0.0929468795657157,0,0,0
15876,538207.5478520957,2010-09-27 21:18:35,1530.7817116271,7,47,-1.0997490882873535,3.664297103881836,47.08049689914742,46.58605938126166,187.5424247730581,170.61762396947057,-9.713172767078504e-05,0.0929468795657157,0,0,0
15877,538237.563114293,2010-09-27 21:19:05,1560.7969738242768,7,47,-1.099568486213684,3.660088062286377,47.08049689914742,46.59522835000576,187.5424247730581,170.65120262855356,-0.0001295089750783,0.0929468795657157,0,0,0
15878,538267.5785782187,2010-09-27 21:19:35,1590.812437845237,7,47,-1.099568486213684,3.656202793121338,47.08049689914742,46.604397457201785,187.5424247730581,170.68474422909838,-6.47544875391759e-05,0.0929468795657157,0,0,0
15879,538297.5939222552,2010-09-27 21:20:05,1620.8277817914718,7,47,-1.0997490882873535,3.652155637741089,47.08049689914742,46.61356651479629,187.5424247730581,170.718249003303,-6.47544875391759e-05,0.0929468795657157,0,0,0
15880,538327.6091205728,2010-09-27 21:20:35,1650.842980104183,7,47,-1.0997490882873535,3.64827036857605,47.08049689914742,46.62273553732999,187.5424247730581,170.7517173701367,-9.713172767078504e-05,0.0929468795657157,0,0,0
15881,538357.624465306,2010-09-27 21:21:05,1680.8583248373827,7,47,-1.0997490882873535,3.6443850994110103,47.08049689914742,46.63190455939595,187.5424247730581,170.7851500781813,-9.713172767078504e-05,0.0929468795657157,0,0,0
15882,538387.6398115029,2010-09-27 21:21:35,1710.8736710592982,7,47,-1.0997490882873535,3.6406617164611816,47.08049689914742,46.64107349669296,187.5424247730581,170.81854798703316,-6.47544875391759e-05,0.0929468795657157,0,0,0
15883,538417.6551482512,2010-09-27 21:22:05,1740.8890078125785,7,47,-1.099929690361023,3.636938333511353,47.08049689914742,46.65024250278944,187.5424247730581,170.85191215552086,-9.713172767078504e-05,0.0929468795657157,0,0,0
15884,538447.6704763628,2010-09-27 21:22:35,1770.9043358942129,7,47,-1.0997490882873535,3.633538722991944,47.08049689914742,46.659411439053336,187.5424247730581,170.88524287450187,-6.47544875391759e-05,0.0929468795657157,0,0,0
15885,538477.6858108705,2010-09-27 21:23:05,1800.9196704069004,7,47,-1.099568486213684,3.629815340042114,47.08049689914742,46.66858043547988,187.5424247730581,170.9185413959761,-9.713172767078504e-05,0.0929468795657157,0,0,0
15886,538507.7012296836,2010-09-27 21:23:35,1830.9350893653773,7,47,-1.0993878841400146,3.626577615737915,47.08049689914742,46.677749481730295,187.5424247730581,170.9518083571312,-9.713172767078504e-05,0.0929468795657157,0,0,0
15887,538537.7167228723,2010-09-27 21:24:05,1860.9505824137943,7,47,-1.099568486213684,3.623339891433716,47.08049689914742,46.68691853453502,187.5424247730581,170.985044351461,-6.47544875391759e-05,0.0929468795657157,0,0,0
15888,538567.7317213463,2010-09-27 21:24:35,1890.9655809027147,7,47,-1.0997490882873535,3.619940280914306,47.08049689914742,46.69608742771635,187.5424247730581,171.01824957955958,-6.47544875391759e-05,0.0929468795657157,0,0,0
15889,538597.7475670952,2010-09-27 21:25:05,1920.9814266565388,7,47,-1.099568486213684,3.6167025566101074,47.08049689914742,46.70525659420768,187.5424247730581,171.0514262394283,-9.713172767078504e-05,0.0929468795657157,0,0,0
15890,538627.7624173139,2010-09-27 21:25:35,1950.996276855304,7,47,-1.099568486213684,3.613788604736328,47.08049689914742,46.71442543992202,187.5424247730581,171.08457290224058,-6.47544875391759e-05,0.0929468795657157,0,0,0
15891,538657.7780722565,2010-09-27 21:26:05,1981.011931908109,7,47,-1.099568486213684,3.610550880432129,47.08049689914742,46.723594534798856,187.5424247730581,171.1176923879765,-9.713172767078504e-05,0.0929468795657157,0,0,0
15892,538687.793203226,2010-09-27 21:26:35,2011.027062857672,7,47,-1.099929690361023,3.60747504234314,47.08049689914742,46.73276352204106,187.5424247730581,171.15078375454078,-0.0001295089750783,0.0929468795657157,0,0,0
15893,538717.8085524605,2010-09-27 21:27:05,2041.042411986844,7,47,-1.0997490882873535,3.60456109046936,47.08049689914742,46.74193260534388,187.5424247730581,171.18384799410677,-6.47544875391759e-05,0.0929468795657157,0,0,0
15894,538747.8238903065,2010-09-27 21:27:35,2071.057749852902,7,47,-1.099568486213684,3.601647138595581,47.08049689914742,46.75110167915155,187.5424247730581,171.21688530596043,-6.47544875391759e-05,0.0929468795657157,0,0,0
15895,538777.8392258518,2010-09-27 21:28:05,2101.0730853931545,7,47,-1.0997490882873535,3.598895072937012,47.08049689914742,46.76027073536223,187.5424247730581,171.24989594612555,-6.47544875391759e-05,0.0929468795657157,0,0,0
15896,538807.8545804597,2010-09-27 21:28:35,2131.0884400210525,7,47,-1.0997490882873535,3.5958192348480225,47.08049689914742,46.76943985435664,187.5424247730581,171.28288062727262,-9.713172767078504e-05,0.0929468795657157,0,0,0
15897,538837.8701352021,2010-09-27 21:29:05,2161.10399474843,7,47,-1.099568486213684,3.593229055404663,47.08049689914742,46.77860902303649,187.5424247730581,171.31583934415676,-6.47544875391759e-05,0.0929468795657157,0,0,0
15898,538867.8852976002,2010-09-27 21:29:35,2191.1191571565178,7,47,-1.099929690361023,3.590153455734253,47.08049689914742,46.78777808613242,187.5424247730581,171.3487717472047,-0.0001295089750783,0.0929468795657157,0,0,0
15899,538897.9005776468,2010-09-27 21:30:05,2221.1344372082626,7,47,-1.099568486213684,3.5875632762908936,47.08049689914742,46.79694723054054,187.5424247730581,171.38167831694824,-6.47544875391759e-05,0.0929468795657157,0,0,0
15900,538927.9160350462,2010-09-27 21:30:35,2251.149894587644,7,47,-1.0997490882873535,3.5844874382019043,47.08049689914742,46.80611634528918,187.5424247730581,171.41455868660162,-9.713172767078504e-05,0.0929468795657157,0,0,0
15901,538957.9312510281,2010-09-27 21:31:05,2281.16511058951,7,47,-1.0997490882873535,3.581573486328125,47.08049689914742,46.81528537144138,187.5424247730581,171.447412484026,-9.713172767078504e-05,0.0929468795657157,0,0,0
15902,538987.9465919217,2010-09-27 21:31:35,2311.1804514630758,7,47,-1.0997490882873535,3.578821420669556,47.08049689914742,46.82445443797384,187.5424247730581,171.4802401484062,-9.713172767078504e-05,0.0929468795657157,0,0,0
15903,539017.9619534067,2010-09-27 21:32:05,2341.19581296814,7,47,-1.099929690361023,3.5757455825805664,47.08049689914742,46.83362359681176,187.5424247730581,171.51304156123624,-9.713172767078504e-05,0.0929468795657157,0,0,0
15904,539047.9772728317,2010-09-27 21:32:35,2371.211132378128,7,47,-1.0997490882873535,3.572993516921997,47.08049689914742,46.842792715264935,187.5424247730581,171.54581565629894,-6.47544875391759e-05,0.0929468795657157,0,0,0
15905,539077.9926103719,2010-09-27 21:33:05,2401.2264699133607,7,47,-1.0997490882873535,3.569917678833008,47.08049689914742,46.851961812477,187.5424247730581,171.5785624784375,-9.713172767078504e-05,0.0929468795657157,0,0,0
15906,539108.007955376,2010-09-27 21:33:35,2431.241814917236,7,47,-1.0997490882873535,3.5670037269592285,47.08049689914742,46.86113098408464,187.5424247730581,171.6112815495052,-6.47544875391759e-05,0.0929468795657157,0,0,0
15907,539138.0233187205,2010-09-27 21:34:05,2461.2571782669047,7,47,-1.099568486213684,3.56360411643982,47.08049689914742,46.87030015111076,187.5424247730581,171.64397214061873,-9.713172767078504e-05,0.0929468795657157,0,0,0
15908,539168.0387685811,2010-09-27 21:34:35,2491.272628132531,7,47,-1.0997490882873535,3.56069016456604,47.08049689914742,46.87946931083814,187.5424247730581,171.676634222376,-9.713172767078504e-05,0.0929468795657157,0,0,0
15909,539198.0540319914,2010-09-27 21:35:05,2521.2878915226856,7,47,-1.0997490882873535,3.557290554046631,47.08049689914742,46.8886384506686,187.5424247730581,171.70926675273282,-9.713172767078504e-05,0.0929468795657157,0,0,0
15910,539228.0693160732,2010-09-27 21:35:35,2551.303175634565,7,47,-1.0997490882873535,3.5538909435272217,47.08049689914742,46.89780766888579,187.5424247730581,171.74186897958467,-0.0001295089750783,0.0929468795657157,0,0,0
15911,539258.0871425862,2010-09-27 21:36:05,2581.3210021276186,7,47,-1.099568486213684,3.5503294467926025,47.08049689914742,46.90697759040527,187.5424247730581,171.77444235951538,-0.0001295089750783,0.0929468795657157,0,0,0
15912,539288.100002502,2010-09-27 21:36:35,2611.3338621335565,7,47,-1.0997490882873535,3.5467679500579834,47.08049689914742,46.9161460272971,187.5424247730581,171.80697778545104,-0.0001295089750783,0.0929468795657157,0,0,0
15913,539318.1154962722,2010-09-27 21:37:05,2641.349355818563,7,47,-1.099929690361023,3.5428826808929443,47.08049689914742,46.9253152580486,187.5424247730581,171.8394821428313,-9.713172767078504e-05,0.0929468795657157,0,0,0
15914,539348.1306753268,2010-09-27 21:37:35,2671.3645348631776,7,47,-1.0997490882873535,3.5391592979431152,47.08049689914742,46.9344843270424,187.5424247730581,171.8719508820322,-0.0001295089750783,0.0929468795657157,0,0,0
15915,539378.1460397642,2010-09-27 21:38:05,2701.3798992955494,7,47,-1.0997490882873535,3.535112142562866,47.08049689914742,46.94365356250968,187.5424247730581,171.9043837741629,-9.713172767078504e-05,0.0929468795657157,0,0,0
15916,539408.1613544774,2010-09-27 21:38:35,2731.3952140188394,7,47,-1.0997490882873535,3.5309031009674072,47.08049689914742,46.952822755295486,187.5424247730581,171.93677887659138,-0.0001295089750783,0.0929468795657157,0,0,0
15917,539438.176850017,2010-09-27 21:39:06,2761.410709558475,7,47,-1.0997490882873535,3.5263702869415283,47.08049689914742,46.96199201810329,187.5424247730581,171.96913501452508,-0.0001618862152099,0.0929468795657157,0,0,0
15918,539468.1920613574,2010-09-27 21:39:36,2791.425921024017,7,47,-1.099568486213684,3.5218374729156494,47.08049689914742,46.971161125280304,187.5424247730581,172.00144927166633,-0.0001295089750783,0.0929468795657157,0,0,0
15919,539498.207522055,2010-09-27 21:40:06,2821.4413816765696,7,47,-1.099568486213684,3.5169808864593506,47.08049689914742,46.9803301384578,187.5424247730581,172.03371924252286,-0.0001295089750783,0.0929468795657157,0,0,0
15920,539528.2227150796,2010-09-27 21:40:36,2851.456574610856,7,47,-1.099568486213684,3.511476993560791,47.08049689914742,46.98949855710804,187.5424247730581,172.0659395731117,-0.0001294612884521,0.0929468795657157,0,0,0
15921,539558.2380867099,2010-09-27 21:41:06,2881.4719462411945,7,47,-1.0997490882873535,3.5056490898132324,47.08049689914742,46.99866725403419,187.5424247730581,172.09810912442106,-0.0001295089750783,0.0929468795657157,0,0,0
15922,539588.2535007912,2010-09-27 21:41:36,2911.487360322498,7,47,-1.099568486213684,3.499173641204834,47.08049689914742,47.007836569150605,187.5424247730581,172.13022403835012,-0.0001618862152099,0.0929468795657157,0,0,0
15923,539618.2689736641,2010-09-27 21:42:06,2941.5028331955536,7,47,-1.0997490882873535,3.4918887615203857,47.08049689914742,47.01700584135361,187.5424247730581,172.1622757882806,-0.0001942634553415,0.0929468795657157,0,0,0
15924,539648.2841309245,2010-09-27 21:42:36,2971.5179904557917,7,47,-1.099568486213684,3.483794450759888,47.08049689914742,47.02617508350842,187.5424247730581,172.19425681145998,-0.0001942634553415,0.0929468795657157,0,0,0
15925,539678.2994481189,2010-09-27 21:43:06,3001.533307655263,7,47,-1.099568486213684,3.4742431640625,47.08049689914742,47.035344264748666,187.5424247730581,172.22615681495563,-0.0002590179501567,0.0929468795657157,0,0,0
15926,539708.3147952732,2010-09-27 21:43:36,3031.548654809505,7,47,-1.0997490882873535,3.4630730152130127,47.08049689914742,47.04451352308562,187.5424247730581,172.25796398287153,-0.0003561496851034,0.0929468795657157,0,0,0
15927,539738.3301291894,2010-09-27 21:44:06,3061.5639887307166,7,47,-1.0997490882873535,3.450284004211426,47.08049689914742,47.0536827855587,187.5424247730581,172.289661335319,-0.0003561496851034,0.0929468795657157,0,0,0
15928,539768.3454608449,2010-09-27 21:44:36,3091.5793203962967,7,47,-1.0997490882873535,3.4337716102600098,47.08049689914742,47.06285208084169,187.5424247730581,172.32122495859971,-0.0005180359003134,0.0929468795657157,0,0,0
15929,539798.3610472714,2010-09-27 21:45:06,3121.5949068127748,7,47,-1.0997490882873535,3.412240982055664,47.08049689914742,47.072021483583406,187.5424247730581,172.35261768602228,-0.0006799221155233,0.0929468795657157,0,0,0
15930,539828.3761363265,2010-09-27 21:45:36,3151.6099958627497,7,47,-1.0997490882873535,3.382939577102661,47.08049689914742,47.08119071349975,187.5424247730581,172.38377855719747,-0.0008741855854168,0.0929468795657157,0,0,0
15931,539858.3915161522,2010-09-27 21:46:06,3181.625375708596,7,47,-1.099568486213684,3.3405256271362305,47.08049689914742,47.09036002279007,187.5424247730581,172.41461350257143,-0.0012950897216796,0.0929468795657157,0,0,0
15932,539888.4068305145,2010-09-27 21:46:36,3211.6406900459224,7,47,-1.099568486213684,3.2790088653564453,47.08049689914742,47.09952931499421,187.5424247730581,172.44497745240636,-0.0018778800731524,0.0929468795657157,0,0,0
15933,539918.4222388566,2010-09-27 21:47:06,3241.656098503187,7,47,-1.0997490882873535,3.1888387203216557,47.08049689914742,47.10869861199421,187.5424247730581,172.47465723884784,-0.0028491497505456,0.0929468795657157,0,0,0
15934,539948.4375213945,2010-09-27 21:47:36,3271.671380925849,7,47,-1.099929690361023,3.0433032512664795,47.08049689914742,47.11786787801477,187.5424247730581,172.50329273436313,-0.0049860952422022,0.0929468795657157,0,0,0
15935,539967.9217076108,2010-09-27 21:47:55,3291.155567142213,7,47,-1.0997490882873535,2.843050718307495,47.08049689914742,47.12382001764595,187.5424247730581,172.52089998556397,-0.0114291189238429,0.0929468795657157,0,0,0
15936,539976.1247695654,2010-09-27 21:48:03,3299.3586291068864,7,47,-1.099929690361023,2.699943780899048,47.08049689914742,47.12632592082823,187.5424247730581,172.52784960075977,-0.0144725795835256,0.0929468795657157,0,0,0
15937,540036.1639942391,2010-09-27 21:49:04,60.01506228855875,8,47,0.0,3.323527574539185,47.08049689914742,47.12632592082823,187.5424247730581,172.52784960075977,0.0014893531333655,0.0929468795657157,0,0,0
15938,540036.3763798736,2010-09-27 21:49:04,0.187647391758659,9,47,-1.9243103452026844e-05,3.3236894607543945,47.08049689914742,47.12632592183126,187.5424247730581,172.52784960409355,0.0,0.0898760333657264,0,0,0
15939,540041.2042958445,2010-09-27 21:49:09,5.015563262528388,9,47,0.0007031940040178,3.3325932025909424,47.08049765314542,47.12632592191418,187.5424272830169,172.52784960436915,0.0012950897216796,0.0898760333657264,0,0,0
