Data_Point,Test_Time(s),Date_Time,Step_Time(s),Step_Index,Cycle_Index,Current(A),Voltage(V),Charge_Capacity(Ah),Discharge_Capacity(Ah),Charge_Energy(Wh),Discharge_Energy(Wh),dV/dt(V/s),Internal_Resistance(Ohm),Is_FC_Data,AC_Impedance(Ohm),ACI_Phase_Angle(Deg)
11147,377223.1302562886,2010-09-26 00:35:15,30.01555438151385,1,34,0.0,3.363027572631836,32.91999307428965,32.95797611823703,131.16174433075895,120.57969856206834,0.0008741855854168,0.0883364379405975,0,0,0
11148,377253.1456716282,2010-09-26 00:35:45,60.03096969088224,1,34,0.0,3.389576911926269,32.91999307428965,32.95797611823703,131.16174433075895,120.57969856206834,0.0006475448608398,0.0883364379405975,0,0,0
11149,377283.1609862712,2010-09-26 00:36:15,90.04628433898462,1,34,0.0,3.4094889163970947,32.91999307428965,32.95797611823703,131.16174433075895,120.57969856206834,0.0004856586456298,0.0883364379405975,0,0,0
11150,377313.1294912151,2010-09-26 00:36:45,120.01478927785124,1,34,0.0,3.425353765487671,32.91999307428965,32.95797611823703,131.16174433075895,120.57969856206834,0.0003885269106831,0.0883364379405975,0,0,0
11151,377343.1409834205,2010-09-26 00:37:15,30.015531750022173,2,34,0.5501165986061096,3.570888996124268,32.92457985466553,32.95797611823703,131.177960877982,120.57969856206834,0.0015864849556237,0.0883364379405975,0,0,0
11152,377373.1562788506,2010-09-26 00:37:45,60.03082709494083,2,34,0.5501165986061096,3.619292736053467,32.92916654950955,32.95797611823703,131.19445761845458,120.57969856206834,0.0011008263099938,0.0883364379405975,0,0,0
11153,377403.1716792978,2010-09-26 00:38:15,90.04622753719862,2,34,0.5501165986061096,3.655069589614868,32.93375331449682,32.95797611823703,131.2111441023148,120.57969856206834,0.0008418083307333,0.0883364379405975,0,0,0
11154,377433.1872308273,2010-09-26 00:38:45,120.06177906659316,2,34,0.550297200679779,3.683075666427612,32.938339949204966,32.95797611823703,131.22797478300367,120.57969856206834,0.0006799221155233,0.0883364379405975,0,0,0
11155,377463.2024999919,2010-09-26 00:39:15,150.07704823116163,2,34,0.5501165986061096,3.7060635089874263,32.94292660266418,32.95797611823703,131.2449220194581,120.57969856206834,0.0005504131549969,0.0883364379405975,0,0,0
11156,377493.2181153305,2010-09-26 00:39:45,180.09266365504664,2,34,0.5499359965324402,3.725166082382202,32.947513338517005,32.95797611823703,131.26196584447655,120.57969856206834,0.0004856586456298,0.0883364379405975,0,0,0
11157,377523.23332553793,2010-09-26 00:40:15,210.10787380229883,2,34,0.550297200679779,3.7407071590423584,32.95209999464523,32.95797611823703,131.27908869748725,120.57969856206834,0.0003561496851034,0.0883364379405975,0,0,0
11158,377553.2487277095,2010-09-26 00:40:45,240.1232759488107,2,34,0.5501165986061096,3.7518773078918457,32.95668671285377,32.95797611823703,131.29627395821348,120.57969856206834,0.0002266406954731,0.0883364379405975,0,0,0
11159,377583.26413788105,2010-09-26 00:41:15,270.1386861454168,2,34,0.5499359965324402,3.758514404296875,32.96127336680932,32.95797611823703,131.3134993232405,120.57969856206834,0.0001618862152099,0.0883364379405975,0,0,0
11160,377613.2795592405,2010-09-26 00:41:45,300.1541075098997,2,34,0.5501165986061096,3.762399673461914,32.965860070224366,32.95797611823703,131.33074815528423,120.57969856206834,9.713172767078504e-05,0.0883364379405975,0,0,0
11161,377643.294987838,2010-09-26 00:42:15,330.1695360773623,2,34,0.550297200679779,3.765961170196533,32.97044677619499,32.95797611823703,131.34801351963347,120.57969856206834,0.0001295089750783,0.0883364379405975,0,0,0
11162,377673.3104989466,2010-09-26 00:42:45,360.1850472109226,2,34,0.550297200679779,3.769198894500733,32.97503349483468,32.95797611823703,131.3652937985255,120.57969856206834,9.713172767078504e-05,0.0883364379405975,0,0,0
11163,377703.3257761963,2010-09-26 00:43:15,390.20032444062286,2,34,0.5501165986061096,3.772112846374512,32.97962015178476,32.95797611823703,131.38258821081837,120.57969856206834,6.47544875391759e-05,0.0883364379405975,0,0,0
11164,377733.3412028841,2010-09-26 00:43:45,420.2157511233811,2,34,0.550297200679779,3.775512456893921,32.98420681450862,32.95797611823703,131.39989696363233,120.57969856206834,0.0001618862152099,0.0883364379405975,0,0,0
11165,377763.341234759,2010-09-26 00:44:15,450.21578300835546,2,34,0.5501165986061096,3.77826452255249,32.988791219544204,32.95797611823703,131.4172112622137,120.57969856206834,9.713172767078504e-05,0.0883364379405975,0,0,0
11166,377793.3564122999,2010-09-26 00:44:45,480.2309605692671,2,34,0.5501165986061096,3.78134036064148,32.99337785160356,32.95797611823703,131.43454781880757,120.57969856206834,9.713172767078504e-05,0.0883364379405975,0,0,0
11167,377823.3718527721,2010-09-26 00:45:15,510.2464010163832,2,34,0.5499359965324402,3.784254312515259,32.997964086800835,32.95797611823703,131.4518962652152,120.57969856206834,9.713172767078504e-05,0.0883364379405975,0,0,0
11168,377853.3876425561,2010-09-26 00:45:45,540.2621908105232,2,34,0.5499359965324402,3.787006378173828,33.00254997986045,32.95797611823703,131.46925662297113,120.57969856206834,6.47544875391759e-05,0.0883364379405975,0,0,0
11169,377883.4026852805,2010-09-26 00:46:15,570.2772335298496,2,34,0.550297200679779,3.789920330047608,33.00713624691661,32.95797611823703,131.4866316560018,120.57969856206834,6.47544875391759e-05,0.0883364379405975,0,0,0
11170,377913.4182030306,2010-09-26 00:46:45,600.2927512849382,2,34,0.550297200679779,3.7928342819213863,33.01172295423713,32.95797611823703,131.50402147954838,120.57969856206834,6.47544875391759e-05,0.0883364379405975,0,0,0
11171,377943.4334806964,2010-09-26 00:47:15,630.3080290409522,2,34,0.550297200679779,3.795748233795166,33.01630955616227,32.95797611823703,131.52142390268082,120.57969856206834,9.713172767078504e-05,0.0883364379405975,0,0,0
11172,377973.4490189777,2010-09-26 00:47:45,660.3235672470898,2,34,0.5501165986061096,3.798500299453736,33.02089636937487,32.95797611823703,131.53884015496237,120.57969856206834,3.237724376958795e-05,0.0883364379405975,0,0,0
11173,378003.4644670087,2010-09-26 00:48:15,690.339015263099,2,34,0.5501165986061096,3.8012523651123047,33.02548316254297,32.95797611823703,131.55626943703905,120.57969856206834,3.237724376958795e-05,0.0883364379405975,0,0,0
11174,378033.4797343538,2010-09-26 00:48:45,720.3542826231632,2,34,0.5499359965324402,3.804328203201294,33.03006988401969,32.95797611823703,131.57371168587034,120.57969856206834,6.47544875391759e-05,0.0883364379405975,0,0,0
11175,378063.49512090127,2010-09-26 00:49:15,750.3696691406626,2,34,0.5499359965324402,3.807242155075073,33.03465655750505,32.95797611823703,131.5911674171698,120.57969856206834,9.713172767078504e-05,0.0883364379405975,0,0,0
11176,378093.5106620147,2010-09-26 00:49:45,780.3852102590697,2,34,0.550297200679779,3.810479879379273,33.03924334618139,32.95797611823703,131.60863774567966,120.57969856206834,9.713172767078504e-05,0.0883364379405975,0,0,0
11177,378123.5259589987,2010-09-26 00:50:15,810.4005072380673,2,34,0.5501165986061096,3.813717603683472,33.04383011522721,32.95797611823703,131.62612271330403,120.57969856206834,9.713172767078504e-05,0.0883364379405975,0,0,0
11178,378153.5413577368,2010-09-26 00:50:45,840.4159059810835,2,34,0.5501165986061096,3.816955327987671,33.04841677647296,32.95797611823703,131.6436226429743,120.57969856206834,6.47544875391759e-05,0.0883364379405975,0,0,0
11179,378183.5567652366,2010-09-26 00:51:15,870.4313134759458,2,34,0.5501165986061096,3.82051682472229,33.053003492326546,32.95797611823703,131.66113829588295,120.57969856206834,9.713172767078504e-05,0.0883364379405975,0,0,0
11180,378213.572194175,2010-09-26 00:51:45,900.446742414334,2,34,0.550297200679779,3.824078321456909,33.05759096903742,32.95797611823703,131.67867257388917,120.57969856206834,0.0001295089750783,0.0883364379405975,0,0,0
11181,378243.58772997005,2010-09-26 00:52:15,930.4622782094536,2,34,0.550297200679779,3.8274779319763184,33.06217859568282,32.95797611823703,131.69622308842918,120.57969856206834,0.0001295089750783,0.0883364379405975,0,0,0
11182,378273.6030406884,2010-09-26 00:52:45,960.4775890279966,2,34,0.5501165986061096,3.830553770065308,33.06676535050549,32.95797611823703,131.71378583361675,120.57969856206834,6.47544875391759e-05,0.0883364379405975,0,0,0
11183,378303.61844142136,2010-09-26 00:53:15,990.49298966073,2,34,0.5501165986061096,3.8339531421661377,33.07135203076309,32.95797611823703,131.73136361635443,120.57969856206834,9.713172767078504e-05,0.0883364379405975,0,0,0
11184,378333.6338416531,2010-09-26 00:53:45,1020.5083898924624,2,34,0.5501165986061096,3.837352752685547,33.07593869409063,32.95797611823703,131.74895634596453,120.57969856206834,9.713172767078504e-05,0.0883364379405975,0,0,0
11185,378363.6492610176,2010-09-26 00:54:15,1050.523809256953,2,34,0.5501165986061096,3.840428590774536,33.08052537610172,32.95797611823703,131.76656385007144,120.57969856206834,6.47544875391759e-05,0.0883364379405975,0,0,0
11186,378393.6646624274,2010-09-26 00:54:45,1080.5392106666254,2,34,0.5501165986061096,3.843666315078736,33.08511206750883,32.95797611823703,131.7841857646141,120.57969856206834,9.713172767078504e-05,0.0883364379405975,0,0,0
11187,378423.6800967692,2010-09-26 00:55:15,1110.5546451338148,2,34,0.5501165986061096,3.846580266952514,33.08969885315301,32.95797611823703,131.80182210152634,120.57969856206834,9.713172767078504e-05,0.0883364379405975,0,0,0
11188,378453.6954830661,2010-09-26 00:55:45,1140.5700313104633,2,34,0.550297200679779,3.849494218826294,33.0942855669132,32.95797611823703,131.81947191701238,120.57969856206834,9.713172767078504e-05,0.0883364379405975,0,0,0
11189,378483.71111648495,2010-09-26 00:56:15,1170.585664724254,2,34,0.5501165986061096,3.8522462844848633,33.0988723255366,32.95797611823703,131.8371352007452,120.57969856206834,3.237724376958795e-05,0.0883364379405975,0,0,0
11190,378513.72630552447,2010-09-26 00:56:45,1200.600853763818,2,34,0.5499359965324402,3.8549983501434326,33.103459053159185,32.95797611823703,131.8548110712122,120.57969856206834,6.47544875391759e-05,0.0883364379405975,0,0,0
11191,378543.74171296926,2010-09-26 00:57:15,1230.616261323843,2,34,0.5499359965324402,3.857426643371582,33.108045646667634,32.95797611823703,131.87249863838218,120.57969856206834,3.237724376958795e-05,0.0883364379405975,0,0,0
11192,378573.7571412159,2010-09-26 00:57:45,1260.6316895554671,2,34,0.5501165986061096,3.860016822814941,33.11263235903395,32.95797611823703,131.89019826507402,120.57969856206834,3.237724376958795e-05,0.0883364379405975,0,0,0
11193,378603.77255037485,2010-09-26 00:58:15,1290.647098634283,2,34,0.5501165986061096,3.862445116043091,33.117219047640766,32.95797611823703,131.90790874895234,120.57969856206834,9.713172767078504e-05,0.0883364379405975,0,0,0
11194,378633.78797573433,2010-09-26 00:58:45,1320.662524003763,2,34,0.5501165986061096,3.86454963684082,33.12180578736544,32.95797611823703,131.92562969865693,120.57969856206834,6.47544875391759e-05,0.0883364379405975,0,0,0
11195,378663.80338231695,2010-09-26 00:59:15,1350.6779305612856,2,34,0.550297200679779,3.86665415763855,33.126392459031166,32.95797611823703,131.9433600362359,120.57969856206834,3.237724376958795e-05,0.0883364379405975,0,0,0
11196,378693.8187595964,2010-09-26 00:59:46,1380.6933078407253,2,34,0.5499359965324402,3.8684349060058594,33.13097916227295,32.95797611823703,131.96109959974322,120.57969856206834,3.237724376958795e-05,0.0883364379405975,0,0,0
11197,378723.8343091408,2010-09-26 01:00:16,1410.7088574052152,2,34,0.5499359965324402,3.870377540588379,33.135565851838976,32.95797611823703,131.9788474885449,120.57969856206834,6.47544875391759e-05,0.0883364379405975,0,0,0
11198,378753.84970548784,2010-09-26 01:00:46,1440.7242537372133,2,34,0.5501165986061096,3.8719964027404794,33.14015258215348,32.95797611823703,131.99660342112543,120.57969856206834,3.237724376958795e-05,0.0883364379405975,0,0,0
11199,378783.8650032889,2010-09-26 01:01:16,1470.7395515382627,2,34,0.5499359965324402,3.873453378677368,33.14473930119111,32.95797611823703,132.01436666046487,120.57969856206834,0.0,0.0883364379405975,0,0,0
11200,378813.8805546378,2010-09-26 01:01:46,1500.7551029022443,2,34,0.5501165986061096,3.874910354614258,33.14932604112881,32.95797611823703,132.0321367307831,120.57969856206834,3.237724376958795e-05,0.0883364379405975,0,0,0
11201,378843.8958607848,2010-09-26 01:02:16,1530.770409054139,2,34,0.5501165986061096,3.876367330551148,33.153912716846,32.95797611823703,132.0499130671525,120.57969856206834,3.237724376958795e-05,0.0883364379405975,0,0,0
11202,378873.91135787824,2010-09-26 01:02:46,1560.785906117578,2,34,0.5501165986061096,3.877662420272827,33.15849940483518,32.95797611823703,132.06769555858006,120.57969856206834,3.237724376958795e-05,0.0883364379405975,0,0,0
11203,378903.92663448135,2010-09-26 01:03:16,1590.801182725727,2,34,0.5501165986061096,3.878957509994507,33.16308600341996,32.95797611823703,132.08548367121148,120.57969856206834,6.47544875391759e-05,0.0883364379405975,0,0,0
11204,378933.94138730713,2010-09-26 01:03:46,1620.8159355363966,2,34,0.550297200679779,3.8802525997161865,33.1676703186684,32.95797611823703,132.10326854310318,120.57969856206834,6.47544875391759e-05,0.0883364379405975,0,0,0
11205,378963.9418324235,2010-09-26 01:04:16,1650.8163806628854,2,34,0.5501165986061096,3.881385803222656,33.17225701383098,32.95797611823703,132.12106823698224,120.57969856206834,6.47544875391759e-05,0.0883364379405975,0,0,0
11206,378993.9572767504,2010-09-26 01:04:46,1680.8318250197608,2,34,0.550297200679779,3.882680892944336,33.17684371374937,32.95797611823703,132.1388734250303,120.57969856206834,3.237724376958795e-05,0.0883364379405975,0,0,0
11207,379023.9727811622,2010-09-26 01:05:16,1710.8473294014675,2,34,0.5501165986061096,3.883652210235596,33.181430440008974,32.95797611823703,132.15668414977773,120.57969856206834,6.47544875391759e-05,0.0883364379405975,0,0,0
11208,379053.98803996085,2010-09-26 01:05:46,1740.8625882051736,2,34,0.5501165986061096,3.884623527526856,33.18601711079506,32.95797611823703,132.1744999739069,120.57969856206834,0.0,0.0883364379405975,0,0,0
11209,379084.00358525466,2010-09-26 01:06:16,1770.8781335040158,2,34,0.5501165986061096,3.885918617248535,33.19060379437291,32.95797611823703,132.19232102321143,120.57969856206834,0.0,0.0883364379405975,0,0,0
11210,379114.0188827298,2010-09-26 01:06:46,1800.8934309993022,2,34,0.5499359965324402,3.887051820755005,33.19519038970457,32.95797611823703,132.2101471223702,120.57969856206834,3.237724376958795e-05,0.0883364379405975,0,0,0
11211,379144.0343022398,2010-09-26 01:07:16,1830.908850509156,2,34,0.5499359965324402,3.8881850242614746,33.19977702034458,32.95797611823703,132.2279786559696,120.57969856206834,0.0,0.0883364379405975,0,0,0
11212,379174.0497247271,2010-09-26 01:07:46,1860.924272976391,2,34,0.5501165986061096,3.889642000198364,33.2043637345424,32.95797611823703,132.24581593519378,120.57969856206834,6.47544875391759e-05,0.0883364379405975,0,0,0
11213,379204.0651321868,2010-09-26 01:08:16,1890.939680456216,2,34,0.5501165986061096,3.890775203704834,33.20895059234325,32.95797611823703,132.26365919141267,120.57969856206834,3.237724376958795e-05,0.0883364379405975,0,0,0
11214,379234.0805308396,2010-09-26 01:08:46,1920.9550790889568,2,34,0.550297200679779,3.8917465209960938,33.21353738642309,32.95797611823703,132.28150766980437,120.57969856206834,3.237724376958795e-05,0.0883364379405975,0,0,0
11215,379264.0959260238,2010-09-26 01:09:16,1950.9704742630645,2,34,0.5501165986061096,3.893041610717773,33.21812424590637,32.95797611823703,132.29936186453608,120.57969856206834,6.47544875391759e-05,0.0883364379405975,0,0,0
11216,379294.1113322705,2010-09-26 01:09:46,1980.9858805148235,2,34,0.5501165986061096,3.894336700439453,33.22271106021017,32.95797611823703,132.31722137806057,120.57969856206834,3.237724376958795e-05,0.0883364379405975,0,0,0
11217,379324.1267485773,2010-09-26 01:10:16,2011.0012968266944,2,34,0.5501165986061096,3.895469903945923,33.22729794204162,32.95797611823703,132.33508632614732,120.57969856206834,6.47544875391759e-05,0.0883364379405975,0,0,0
11218,379354.1421772099,2010-09-26 01:10:46,2041.0167255495448,2,34,0.5499359965324402,3.896441221237183,33.231884724954,32.95797611823703,132.35295644927592,120.57969856206834,3.237724376958795e-05,0.0883364379405975,0,0,0
11219,379384.1575980732,2010-09-26 01:11:16,2071.0321463225514,2,34,0.5501165986061096,3.897898197174072,33.236471586698485,32.95797611823703,132.37083251327817,120.57969856206834,6.47544875391759e-05,0.0883364379405975,0,0,0
11220,379414.1730043049,2010-09-26 01:11:46,2101.047552654511,2,34,0.550297200679779,3.899193286895752,33.241058364908184,32.95797611823703,132.38871394535803,120.57969856206834,3.237724376958795e-05,0.0883364379405975,0,0,0
11221,379444.188477178,2010-09-26 01:12:16,2131.063025417292,2,34,0.5501165986061096,3.9003264904022217,33.24564517977613,32.95797611823703,132.40660124930102,120.57969856206834,0.0,0.0883364379405975,0,0,0
11222,379474.2040194442,2010-09-26 01:12:46,2161.078567683564,2,34,0.5501165986061096,3.901621580123901,33.250231950261515,32.95797611823703,132.42449407769098,120.57969856206834,6.47544875391759e-05,0.0883364379405975,0,0,0
11223,379504.2192193309,2010-09-26 01:13:16,2191.093767570204,2,34,0.5501165986061096,3.902916669845581,33.25481865851215,32.95797611823703,132.44239255455057,120.57969856206834,3.237724376958795e-05,0.0883364379405975,0,0,0
11224,379534.2347166499,2010-09-26 01:13:46,2221.1092648892813,2,34,0.5501165986061096,3.904049873352051,33.25940543578822,32.95797611823703,132.46029720960794,120.57969856206834,0.0,0.0883364379405975,0,0,0
11225,379564.2501629016,2010-09-26 01:14:16,2251.1247111408866,2,34,0.5501165986061096,3.905506849288941,33.26399224373164,32.95797611823703,132.47820790641148,120.57969856206834,6.47544875391759e-05,0.0883364379405975,0,0,0
11226,379594.2654635045,2010-09-26 01:14:46,2281.1400117439302,2,34,0.5501165986061096,3.90680193901062,33.268578985590466,32.95797611823703,132.49612430651518,120.57969856206834,3.237724376958795e-05,0.0883364379405975,0,0,0
11227,379624.28088818735,2010-09-26 01:15:16,2311.155436456771,2,34,0.5499359965324402,3.90793514251709,33.27316569422683,32.95797611823703,132.51404666410073,120.57969856206834,0.0,0.0883364379405975,0,0,0
11228,379654.2962694718,2010-09-26 01:15:46,2341.1708177161454,2,34,0.5501165986061096,3.9095540046691895,33.277752441449806,32.95797611823703,132.53197530024343,120.57969856206834,3.237724376958795e-05,0.0883364379405975,0,0,0
11229,379684.31171056046,2010-09-26 01:16:16,2371.1862587998503,2,34,0.5499359965324402,3.910687208175659,33.28233928186013,32.95797611823703,132.54991047602218,120.57969856206834,0.0,0.0883364379405975,0,0,0
11230,379714.3270957096,2010-09-26 01:16:46,2401.201643948934,2,34,0.5501165986061096,3.912144184112549,33.28692609376547,32.95797611823703,132.56785174845805,120.57969856206834,3.237724376958795e-05,0.0883364379405975,0,0,0
11231,379744.3425655551,2010-09-26 01:17:16,2431.217113889671,2,34,0.5501165986061096,3.913439273834229,33.29151286061937,32.95797611823703,132.58579915163526,120.57969856206834,3.237724376958795e-05,0.0883364379405975,0,0,0
11232,379774.3579091755,2010-09-26 01:17:46,2461.2324574148547,2,34,0.5501165986061096,3.914896011352539,33.29609966939381,32.95797611823703,132.60375311454976,120.57969856206834,3.237724376958795e-05,0.0883364379405975,0,0,0
11233,379804.37371194205,2010-09-26 01:18:16,2491.2482602014256,2,34,0.5501165986061096,3.9163529872894287,33.300686529429846,32.95797611823703,132.62171352641738,120.57969856206834,6.47544875391759e-05,0.0883364379405975,0,0,0
11234,379834.388757724,2010-09-26 01:18:46,2521.2633059884097,2,34,0.5501165986061096,3.917971849441528,33.30527316416558,32.95797611823703,132.63967954788745,120.57969856206834,9.713172767078504e-05,0.0883364379405975,0,0,0
11235,379864.40429872216,2010-09-26 01:19:16,2551.278847056692,2,34,0.5501165986061096,3.919105052947998,33.309859897137684,32.95797611823703,132.65765247021477,120.57969856206834,0.0,0.0883364379405975,0,0,0
11236,379894.4195520823,2010-09-26 01:19:46,2581.2941003265846,2,34,0.550297200679779,3.9207239151000977,33.31444655601948,32.95797611823703,132.6756317305519,120.57969856206834,6.47544875391759e-05,0.0883364379405975,0,0,0
11237,379924.4349595721,2010-09-26 01:20:16,2611.309507821447,2,34,0.5501165986061096,3.922019004821777,33.319033306122165,32.95797611823703,132.69361789654542,120.57969856206834,3.237724376958795e-05,0.0883364379405975,0,0,0
11238,379954.45039801416,2010-09-26 01:20:46,2641.3249462585454,2,34,0.550297200679779,3.923475980758667,33.32362007804128,32.95797611823703,132.71161088960076,120.57969856206834,3.237724376958795e-05,0.0883364379405975,0,0,0
11239,379984.465797484,2010-09-26 01:21:16,2671.340345723363,2,34,0.5501165986061096,3.925094842910767,33.32820684408331,32.95797611823703,132.7296106257101,120.57969856206834,6.47544875391759e-05,0.0883364379405975,0,0,0
11240,380014.4811940316,2010-09-26 01:21:46,2701.3557422709,2,34,0.5504778623580933,3.926713705062866,33.332793626353684,32.95797611823703,132.74761719419803,120.57969856206834,6.47544875391759e-05,0.0883364379405975,0,0,0
11241,380044.4967879969,2010-09-26 01:22:16,2731.3713362362205,2,34,0.5499359965324402,3.927846908569336,33.33738043852207,32.95797611823703,132.76563076260638,120.57969856206834,3.237724376958795e-05,0.0883364379405975,0,0,0
11242,380074.5120068408,2010-09-26 01:22:46,2761.386555090205,2,34,0.5501165986061096,3.929465770721436,33.34196720501268,32.95797611823703,132.7836510003096,120.57969856206834,0.0,0.0883364379405975,0,0,0
11243,380104.5275384456,2010-09-26 01:23:16,2791.4020866948654,2,34,0.5501165986061096,3.931084632873535,33.346553971166074,32.95797611823703,132.80167822268712,120.57969856206834,3.237724376958795e-05,0.0883364379405975,0,0,0
11244,380134.54281161504,2010-09-26 01:23:46,2821.4173598544057,2,34,0.5501165986061096,3.932541608810425,33.35114077152768,32.95797611823703,132.81971261527323,120.57969856206834,3.237724376958795e-05,0.0883364379405975,0,0,0
11245,380164.55816957634,2010-09-26 01:24:16,2851.4327178156245,2,34,0.550297200679779,3.934160470962525,33.3557275196734,32.95797611823703,132.83775395447682,120.57969856206834,6.47544875391759e-05,0.0883364379405975,0,0,0
11246,380194.573657933,2010-09-26 01:24:46,2881.448206182355,2,34,0.5499359965324402,3.935617446899414,33.36031441955158,32.95797611823703,132.85580324057807,120.57969856206834,3.237724376958795e-05,0.0883364379405975,0,0,0
11247,380224.5890832624,2010-09-26 01:25:16,2911.4636315117355,2,34,0.5501165986061096,3.937398195266724,33.364901259262226,32.95797611823703,132.87385944403923,120.57969856206834,3.237724376958795e-05,0.0883364379405975,0,0,0
11248,380254.604508276,2010-09-26 01:25:46,2941.479056640614,2,34,0.5499359965324402,3.938855171203613,33.369488109892856,32.95797611823703,132.8919231476595,120.57969856206834,0.0,0.0883364379405975,0,0,0
11249,380284.6198776056,2010-09-26 01:26:16,2971.4944258448977,2,34,0.5501165986061096,3.940635919570923,33.37407499705108,32.95797611823703,132.9099944122073,120.57969856206834,6.47544875391759e-05,0.0883364379405975,0,0,0
11250,380314.63545186166,2010-09-26 01:26:46,3001.510000101021,2,34,0.5499359965324402,3.942092895507813,33.37866190497228,32.95797611823703,132.92807326117347,120.57969856206834,3.237724376958795e-05,0.0883364379405975,0,0,0
11251,380344.65071384335,2010-09-26 01:27:16,3031.5252620876727,2,34,0.5501165986061096,3.944035530090332,33.383248718943484,32.95797611823703,132.94615930257555,120.57969856206834,6.47544875391759e-05,0.0883364379405975,0,0,0
11252,380374.6663195932,2010-09-26 01:27:46,3061.540867842422,2,34,0.550297200679779,3.945654392242432,33.38783567337458,32.95797611823703,132.96425352177357,120.57969856206834,3.237724376958795e-05,0.0883364379405975,0,0,0
11253,380404.6815124973,2010-09-26 01:28:16,3091.556060746633,2,34,0.550297200679779,3.9472732543945312,33.39242258367918,32.95797611823703,132.98235525686042,120.57969856206834,6.47544875391759e-05,0.0883364379405975,0,0,0
11254,380434.6971585426,2010-09-26 01:28:46,3121.5717068120034,2,34,0.5501165986061096,3.948730230331421,33.39700954399003,32.95797611823703,133.00046497284507,120.57969856206834,0.0,0.0883364379405975,0,0,0
11255,380464.7123659079,2010-09-26 01:29:16,3151.586914177312,2,34,0.550297200679779,3.950672864913941,33.401596429535644,32.95797611823703,133.01858221160262,120.57969856206834,3.237724376958795e-05,0.0883364379405975,0,0,0
11256,380494.7277569668,2010-09-26 01:29:46,3181.6023052361475,2,34,0.5501165986061096,3.95245361328125,33.40618336194608,32.95797611823703,133.03670759932052,120.57969856206834,3.237724376958795e-05,0.0883364379405975,0,0,0
11257,380524.7432678848,2010-09-26 01:30:16,3211.617816124094,2,34,0.5501165986061096,3.95423436164856,33.41077025512357,32.95797611823703,133.0548408174508,120.57969856206834,6.47544875391759e-05,0.0883364379405975,0,0,0
11258,380554.7587777702,2010-09-26 01:30:46,3241.63332614989,2,34,0.5501165986061096,3.955853223800659,33.41535718214665,32.95797611823703,133.0729822331807,120.57969856206834,3.237724376958795e-05,0.0883364379405975,0,0,0
11259,380584.77397614304,2010-09-26 01:31:16,3271.6485244174883,2,34,0.5501165986061096,3.9577958583831783,33.41994407841958,32.95797611823703,133.09113165361984,120.57969856206834,3.237724376958795e-05,0.0883364379405975,0,0,0
11260,380614.7893682846,2010-09-26 01:31:46,3301.6639165239385,2,34,0.550297200679779,3.959576606750488,33.42453092865466,32.95797611823703,133.10928913319088,120.57969856206834,6.47544875391759e-05,0.0883364379405975,0,0,0
11261,380644.8047740151,2010-09-26 01:32:17,3331.6793222543965,2,34,0.5501165986061096,3.961357355117798,33.429117794374726,32.95797611823703,133.1274550148891,120.57969856206834,6.47544875391759e-05,0.0883364379405975,0,0,0
11262,380674.82034565473,2010-09-26 01:32:47,3361.6948939190515,2,34,0.550297200679779,3.9631381034851074,33.43370472038819,32.95797611823703,133.1456295705945,120.57969856206834,3.237724376958795e-05,0.0883364379405975,0,0,0
11263,380704.83559907496,2010-09-26 01:33:17,3391.7101473192697,2,34,0.5501165986061096,3.965242624282837,33.43829156040236,32.95797611823703,133.1638123131164,120.57969856206834,9.713172767078504e-05,0.0883364379405975,0,0,0
11264,380734.8511400579,2010-09-26 01:33:47,3421.72568830234,2,34,0.5501165986061096,3.966861486434937,33.44287845151645,32.95797611823703,133.182003891565,120.57969856206834,3.237724376958795e-05,0.0883364379405975,0,0,0
11265,380764.8665477734,2010-09-26 01:34:17,3451.741096107977,2,34,0.5501165986061096,3.968804121017456,33.447465345030885,32.95797611823703,133.20020406681377,120.57969856206834,0.0,0.0883364379405975,0,0,0
11266,380794.8818477498,2010-09-26 01:34:47,3481.756395989219,2,34,0.5501165986061096,3.970746755599976,33.452052294790114,32.95797611823703,133.218413317982,120.57969856206834,3.237724376958795e-05,0.0883364379405975,0,0,0
11267,380824.8972701469,2010-09-26 01:35:17,3511.771818391292,2,34,0.5501165986061096,3.972689390182495,33.456639255912414,32.95797611823703,133.23663155343655,120.57969856206834,3.237724376958795e-05,0.0883364379405975,0,0,0
11268,380854.9126612008,2010-09-26 01:35:47,3541.7872094401023,2,34,0.550297200679779,3.974632024765015,33.461226200208586,32.95797611823703,133.2548586854,120.57969856206834,3.237724376958795e-05,0.0883364379405975,0,0,0
11269,380884.9280903045,2010-09-26 01:36:17,3571.8026385639537,2,34,0.5501165986061096,3.976736545562744,33.46581311369308,32.95797611823703,133.2730948046788,120.57969856206834,9.713172767078504e-05,0.0883364379405975,0,0,0
11270,380914.94349478686,2010-09-26 01:36:47,3601.818043031259,2,34,0.550297200679779,3.9788410663604736,33.47040016216303,32.95797611823703,133.2913403772925,120.57969856206834,0.0001295089750783,0.0883364379405975,0,0,0
11271,380944.9588910588,2010-09-26 01:37:17,3631.833439308119,2,34,0.5501165986061096,3.980621814727783,33.47498703344127,32.95797611823703,133.309594988628,120.57969856206834,3.237724376958795e-05,0.0883364379405975,0,0,0
11272,380974.9743053005,2010-09-26 01:37:47,3661.848853640048,2,34,0.5501165986061096,3.9827263355255127,33.47957386324865,32.95797611823703,133.3278588150416,120.57969856206834,3.237724376958795e-05,0.0883364379405975,0,0,0
11273,381004.9898409953,2010-09-26 01:38:17,3691.864389239679,2,34,0.5501165986061096,3.984992742538452,33.484160785291145,32.95797611823703,133.3461325057012,120.57969856206834,6.47544875391759e-05,0.0883364379405975,0,0,0
11274,381035.0051369668,2010-09-26 01:38:47,3721.879685211162,2,34,0.5501165986061096,3.9870972633361816,33.488747588207524,32.95797611823703,133.36441533117323,120.57969856206834,6.47544875391759e-05,0.0883364379405975,0,0,0
11275,381065.0206132183,2010-09-26 01:39:17,3751.8951614626512,2,34,0.5501165986061096,3.989039897918701,33.49333448071398,32.95797611823703,133.3827081413664,120.57969856206834,3.237724376958795e-05,0.0883364379405975,0,0,0
11276,381095.0361487778,2010-09-26 01:39:47,3781.9106970271946,2,34,0.5501165986061096,3.9913063049316406,33.49792131973347,32.95797611823703,133.4010104807684,120.57969856206834,9.713172767078504e-05,0.0883364379405975,0,0,0
11277,381125.0513649402,2010-09-26 01:40:17,3811.9259131844497,2,34,0.5501165986061096,3.99324893951416,33.50250818274916,32.95797611823703,133.4193227870058,120.57969856206834,3.237724376958795e-05,0.0883364379405975,0,0,0
11278,381155.0666865055,2010-09-26 01:40:47,3841.9412347448056,2,34,0.5501165986061096,3.995838880538941,33.50709501402724,32.95797611823703,133.4376449056797,120.57969856206834,0.0001295089750783,0.0883364379405975,0,0,0
11279,381185.0821681103,2010-09-26 01:41:17,3871.95671637472,2,34,0.5501165986061096,3.99778151512146,33.511681825032305,32.95797611823703,133.4559770038288,120.57969856206834,3.237724376958795e-05,0.0883364379405975,0,0,0
11280,381215.0975641015,2010-09-26 01:41:47,3901.9721123558425,2,34,0.5501165986061096,3.9998860359191895,33.51626861985321,32.95797611823703,133.47431897043742,120.57969856206834,6.47544875391759e-05,0.0883364379405975,0,0,0
11281,381245.11310389655,2010-09-26 01:42:17,3931.987652165983,2,34,0.5501165986061096,4.002314567565918,33.520855424971245,32.95797611823703,133.4926711887056,120.57969856206834,0.0001295089750783,0.0883364379405975,0,0,0
11282,381275.1283216478,2010-09-26 01:42:47,3962.0028698871415,2,34,0.5501165986061096,4.004418849945068,33.52544220122143,32.95797611823703,133.5110334585275,120.57969856206834,6.47544875391759e-05,0.0883364379405975,0,0,0
11283,381305.1438185709,2010-09-26 01:43:17,3992.018366835293,2,34,0.5501165986061096,4.006685256958008,33.530029051448544,32.95797611823703,133.52940622714607,120.57969856206834,3.23295607813634e-05,0.0883364379405975,0,0,0
11284,381335.1593527119,2010-09-26 01:43:47,4022.0339009562326,2,34,0.5501165986061096,4.008951663970947,33.53461598296106,32.95797611823703,133.54778970103322,120.57969856206834,3.23295607813634e-05,0.0883364379405975,0,0,0
11285,381365.1746400519,2010-09-26 01:44:17,4052.0491883212326,2,34,0.5501165986061096,4.011218070983887,33.5392028129887,32.95797611823703,133.5661830999048,120.57969856206834,9.70840483205393e-05,0.0883364379405975,0,0,0
11286,381395.19025642815,2010-09-26 01:44:47,4082.064804667419,2,34,0.5501165986061096,4.013484477996826,33.54378970056353,32.95797611823703,133.58458727016762,120.57969856206834,6.47544875391759e-05,0.0883364379405975,0,0,0
11287,381425.2054522045,2010-09-26 01:45:17,4112.080000448813,2,34,0.5501165986061096,4.015750885009766,33.54837648676536,32.95797611823703,133.60300160569602,120.57969856206834,6.47544875391759e-05,0.0883364379405975,0,0,0
11288,381455.2208611379,2010-09-26 01:45:47,4142.095409472491,2,34,0.5501165986061096,4.018341064453125,33.55296337986129,32.95797611823703,133.62142708487335,120.57969856206834,9.70840483205393e-05,0.0883364379405975,0,0,0
11289,381485.2362736704,2010-09-26 01:46:17,4172.110821924727,2,34,0.550297200679779,4.0206074714660645,33.55755030807416,32.95797611823703,133.63986337035564,120.57969856206834,9.70840483205393e-05,0.0883364379405975,0,0,0
11290,381515.2517354858,2010-09-26 01:46:47,4202.12628373517,2,34,0.5501165986061096,4.022873878479004,33.562137226645106,32.95797611823703,133.65831057249045,120.57969856206834,9.70840483205393e-05,0.0883364379405975,0,0,0
11291,381545.2672231257,2010-09-26 01:47:17,4232.141771460299,2,34,0.550297200679779,4.025464057922363,33.566724112752006,32.95797611823703,133.67676857310565,120.57969856206834,6.47544875391759e-05,0.0883364379405975,0,0,0
11292,381575.2826346808,2010-09-26 01:47:47,4262.157182930083,2,34,0.5499359965324402,4.027568817138672,33.57131099116832,32.95797611823703,133.69523759688622,120.57969856206834,3.24249267578125e-05,0.0883364379405975,0,0,0
11293,381605.2979092287,2010-09-26 01:48:17,4292.172457468065,2,34,0.5501165986061096,4.030158996582031,33.57589778590593,32.95797611823703,133.71371744171077,120.57969856206834,9.71794142969884e-05,0.0883364379405975,0,0,0
11294,381635.3133423174,2010-09-26 01:48:47,4322.187890556813,2,34,0.5501165986061096,4.032587051391602,33.580484647076055,32.95797611823703,133.73220876887268,120.57969856206834,6.47544875391759e-05,0.0883364379405975,0,0,0
11295,381665.32873486,2010-09-26 01:49:17,4352.203283104364,2,34,0.5501165986061096,4.035015106201172,33.585071580831304,32.95797611823703,133.75071178568055,120.57969856206834,6.47544875391759e-05,0.0883364379405975,0,0,0
11296,381695.34414806415,2010-09-26 01:49:47,4382.218696303466,2,34,0.5501165986061096,4.037605285644531,33.58965846300282,32.95797611823703,133.7692260561319,120.57969856206834,6.47544875391759e-05,0.0883364379405975,0,0,0
11297,381725.359970976,2010-09-26 01:50:17,4412.234519320535,2,34,0.5501165986061096,4.04003381729126,33.594245456486426,32.95797611823703,133.78775235698546,120.57969856206834,3.24249267578125e-05,0.0883364379405975,0,0,0
11298,381755.3749881465,2010-09-26 01:50:47,4442.249536385825,2,34,0.5501165986061096,4.042623996734619,33.59883232437295,32.95797611823703,133.80628981418425,120.57969856206834,3.24249267578125e-05,0.0883364379405975,0,0,0
11299,381785.390398268,2010-09-26 01:51:17,4472.264946632556,2,34,0.550297200679779,4.0452141761779785,33.60341920716694,32.95797611823703,133.82483917032266,120.57969856206834,6.47544875391759e-05,0.0883364379405975,0,0,0
11300,381815.4057646551,2010-09-26 01:51:47,4502.280313019807,2,34,0.5501165986061096,4.047966003417969,33.60800599870327,32.95797611823703,133.84339998528986,120.57969856206834,9.70840483205393e-05,0.0883364379405975,0,0,0
11301,381845.42117178405,2010-09-26 01:52:17,4532.295720113669,2,34,0.5501165986061096,4.050394535064697,33.612592824938034,32.95797611823703,133.86197294497296,120.57969856206834,3.24249267578125e-05,0.0883364379405975,0,0,0
11302,381875.436596136,2010-09-26 01:52:47,4562.311144405458,2,34,0.5501165986061096,4.053146362304688,33.61717965117359,32.95797611823703,133.88055801111048,120.57969856206834,9.70840483205393e-05,0.0883364379405975,0,0,0
11303,381905.45199454826,2010-09-26 01:53:17,4592.326542807624,2,34,0.5501165986061096,4.055736541748047,33.621766575735755,32.95797611823703,133.89915573800167,120.57969856206834,3.23295607813634e-05,0.0883364379405975,0,0,0
11304,381935.4674319778,2010-09-26 01:53:47,4622.3419802171575,2,34,0.5501165986061096,4.058650493621826,33.626353443454896,32.95797611823703,133.91776564423392,120.57969856206834,6.47544875391759e-05,0.0883364379405975,0,0,0
11305,381965.48296044464,2010-09-26 01:54:17,4652.357508709047,2,34,0.550297200679779,4.0612406730651855,33.630940413149794,32.95797611823703,133.93638837422975,120.57969856206834,0.0001295089750783,0.0883364379405975,0,0,0
11306,381995.49825207033,2010-09-26 01:54:47,4682.372800309619,2,34,0.550297200679779,4.064154624938965,33.63552728618868,32.95797611823703,133.95502315615497,120.57969856206834,9.70840483205393e-05,0.0883364379405975,0,0,0
11307,382025.51365103887,2010-09-26 01:55:17,4712.388199278198,2,34,0.5501165986061096,4.066906929016113,33.6401141775573,32.95797611823703,133.97367074484742,120.57969856206834,9.71794142969884e-05,0.0883364379405975,0,0,0
11308,382055.5290540375,2010-09-26 01:55:47,4742.403602372075,2,34,0.5501165986061096,4.069658756256104,33.644701063472496,32.95797611823703,133.99233117945894,120.57969856206834,9.70840483205393e-05,0.0883364379405975,0,0,0
11309,382085.54446100106,2010-09-26 01:56:17,4772.4190092453855,2,34,0.550297200679779,4.072411060333252,33.6492879455805,32.95797611823703,134.01100450257331,120.57969856206834,9.71794142969884e-05,0.0883364379405975,0,0,0
11310,382115.5598879445,2010-09-26 01:56:47,4802.434436183781,2,34,0.5501165986061096,4.075325012207031,33.653874814883245,32.95797611823703,134.02969086874742,120.57969856206834,9.71794142969884e-05,0.0883364379405975,0,0,0
11311,382145.5753355444,2010-09-26 01:57:17,4832.449883793778,2,34,0.550297200679779,4.0782389640808105,33.658461701106816,32.95797611823703,134.04839052337329,120.57969856206834,9.71794142969884e-05,0.0883364379405975,0,0,0
11312,382175.59071525495,2010-09-26 01:57:47,4862.465263589498,2,34,0.5501165986061096,4.08115291595459,33.66304854480874,32.95797611823703,134.0671033628046,120.57969856206834,3.24249267578125e-05,0.0883364379405975,0,0,0
11313,382205.6062310552,2010-09-26 01:58:17,4892.480779304495,2,34,0.5501165986061096,4.084066867828369,33.667635435448865,32.95797611823703,134.08582975556243,120.57969856206834,9.71794142969884e-05,0.0883364379405975,0,0,0
11314,382235.62153595896,2010-09-26 01:58:47,4922.496084198248,2,34,0.5501165986061096,4.086980819702148,33.67222227159332,32.95797611823703,134.10456952917804,120.57969856206834,6.47544875391759e-05,0.0883364379405975,0,0,0
11315,382265.6369864662,2010-09-26 01:59:17,4952.511534735551,2,34,0.5501165986061096,4.090056419372559,33.676809139073896,32.95797611823703,134.1233231360311,120.57969856206834,6.47544875391759e-05,0.0883364379405975,0,0,0
11316,382295.65235737467,2010-09-26 01:59:47,4982.526905729302,2,34,0.5501165986061096,4.092970371246338,33.681396014818084,32.95797611823703,134.14209053736013,120.57969856206834,9.70840483205393e-05,0.0883364379405975,0,0,0
11317,382325.66777016775,2010-09-26 02:00:17,5012.542318502338,2,34,0.5501165986061096,4.096208095550537,33.685982911677435,32.95797611823703,134.16087193841574,120.57969856206834,6.47544875391759e-05,0.0883364379405975,0,0,0
11318,382355.6836323025,2010-09-26 02:00:47,5042.558180657102,2,34,0.550297200679779,4.099122047424316,33.690569891139944,32.95797611823703,134.17966772191755,120.57969856206834,9.70840483205393e-05,0.0883364379405975,0,0,0
11319,382385.69858742313,2010-09-26 02:01:17,5072.57313566248,2,34,0.550297200679779,4.102198123931885,33.69515675819195,32.95797611823703,134.1984771811026,120.57969856206834,6.47544875391759e-05,0.0883364379405975,0,0,0
11320,382415.7141126619,2010-09-26 02:01:47,5102.58866090125,2,34,0.5501165986061096,4.105273723602295,33.69974369877031,32.95797611823703,134.2173011531398,120.57969856206834,6.47544875391759e-05,0.0883364379405975,0,0,0
11321,382445.7295647431,2010-09-26 02:02:17,5132.604113077644,2,34,0.5501165986061096,4.108511447906494,33.70433061664367,32.95797611823703,134.23613943178782,120.57969856206834,9.70840483205393e-05,0.0883364379405975,0,0,0
11322,382475.7448254566,2010-09-26 02:02:47,5162.619373695879,2,34,0.550297200679779,4.111749172210693,33.70891749392757,32.95797611823703,134.25499202622464,120.57969856206834,9.70840483205393e-05,0.0883364379405975,0,0,0
11323,382505.7602278136,2010-09-26 02:03:17,5192.634776062942,2,34,0.5501165986061096,4.114824771881104,33.71350443428804,32.95797611823703,134.27385945205296,120.57969856206834,6.46591215627268e-05,0.0883364379405975,0,0,0
11324,382535.7756308824,2010-09-26 02:03:47,5222.650179121731,2,34,0.5504778623580933,4.118224620819092,33.71809134420224,32.95797611823703,134.29274150875412,120.57969856206834,9.71794142969884e-05,0.0883364379405975,0,0,0
11325,382565.7910669536,2010-09-26 02:04:18,5252.665615217987,2,34,0.5501165986061096,4.121462345123291,33.72267832288896,32.95797611823703,134.31163874342198,120.57969856206834,0.0001295089750783,0.0883364379405975,0,0,0
11326,382595.80659139546,2010-09-26 02:04:48,5282.681139729942,2,34,0.5501165986061096,4.12470006942749,33.72726523254443,32.95797611823703,134.33055060329616,120.57969856206834,0.0001295089750783,0.0883364379405975,0,0,0
11327,382625.82185920153,2010-09-26 02:05:18,5312.696407445894,2,34,0.5499359965324402,4.1279377937316895,33.73185213661484,32.95797611823703,134.3494775661377,120.57969856206834,9.71794142969884e-05,0.0883364379405975,0,0,0
11328,382655.8373960744,2010-09-26 02:05:48,5342.711944323716,2,34,0.5501165986061096,4.13133716583252,33.73643903104424,32.95797611823703,134.368419677438,120.57969856206834,9.70840483205393e-05,0.0883364379405975,0,0,0
11329,382685.8528081156,2010-09-26 02:06:18,5372.727356369939,2,34,0.5501165986061096,4.134737014770508,33.74102595131926,32.95797611823703,134.38737725858488,120.57969856206834,0.0001295089750783,0.0883364379405975,0,0,0
11330,382715.8681008589,2010-09-26 02:06:48,5402.742649098326,2,34,0.5501165986061096,4.137974739074707,33.74561287416482,32.95797611823703,134.40635028758908,120.57969856206834,9.71794142969884e-05,0.0883364379405975,0,0,0
11331,382745.8835072461,2010-09-26 02:07:18,5432.758055485424,2,34,0.550297200679779,4.141374111175537,33.75019984803451,32.95797611823703,134.4253390925153,120.57969856206834,0.0001295089750783,0.0883364379405975,0,0,0
11332,382775.89892872586,2010-09-26 02:07:48,5462.7734769952685,2,34,0.550297200679779,4.144935607910156,33.754786904547394,32.95797611823703,134.44434397154973,120.57969856206834,6.47544875391759e-05,0.0883364379405975,0,0,0
11333,382805.9143246919,2010-09-26 02:08:18,5492.788872941303,2,34,0.5501165986061096,4.1483354568481445,33.759373810299344,32.95797611823703,134.46336435485438,120.57969856206834,3.24249267578125e-05,0.0883364379405975,0,0,0
11334,382835.9297467281,2010-09-26 02:08:48,5522.804294967438,2,34,0.550297200679779,4.151896953582764,33.76396068757684,32.95797611823703,134.48240051864738,120.57969856206834,9.71794142969884e-05,0.0883364379405975,0,0,0
11335,382865.9451520826,2010-09-26 02:09:18,5552.8197003219575,2,34,0.5501165986061096,4.155296325683594,33.76854759232991,32.95797611823703,134.50145278833023,120.57969856206834,6.47544875391759e-05,0.0883364379405975,0,0,0
11336,382895.9605639936,2010-09-26 02:09:48,5582.835112328081,2,34,0.5501165986061096,4.158857822418213,33.77313447235676,32.95797611823703,134.52052114268864,120.57969856206834,6.47544875391759e-05,0.0883364379405975,0,0,0
11337,382925.9761433323,2010-09-26 02:10:18,5612.850691576667,2,34,0.5501165986061096,4.162419319152832,33.77772140014278,32.95797611823703,134.5396059070897,120.57969856206834,9.70840483205393e-05,0.0883364379405975,0,0,0
11338,382955.9914282662,2010-09-26 02:10:48,5642.865976525635,2,34,0.5501165986061096,4.16614294052124,33.78230825203746,32.95797611823703,134.55870667552225,120.57969856206834,9.71794142969884e-05,0.0883364379405975,0,0,0
11339,382986.00697489845,2010-09-26 02:11:18,5672.881523263068,2,34,0.5501165986061096,4.169704437255859,33.78689512709088,32.95797611823703,134.5778240409306,120.57969856206834,9.71794142969884e-05,0.0883364379405975,0,0,0
11340,383016.0222834363,2010-09-26 02:11:48,5702.896831685631,2,34,0.5501165986061096,4.1731038093566895,33.79148193942985,32.95797611823703,134.59695778425953,120.57969856206834,6.47544875391759e-05,0.0883364379405975,0,0,0
11341,383046.0376132623,2010-09-26 02:12:18,5732.912161511619,2,34,0.5501165986061096,4.1769890785217285,33.79606876533126,32.95797611823703,134.6161083188898,120.57969856206834,0.0001295089750783,0.0883364379405975,0,0,0
11342,383076.05307020055,2010-09-26 02:12:48,5762.9276184499,2,34,0.5501165986061096,4.180712699890137,33.80065560086643,32.95797611823703,134.6352757096442,120.57969856206834,9.71794142969884e-05,0.0883364379405975,0,0,0
11343,383106.06856318377,2010-09-26 02:13:18,5792.943111523379,2,34,0.5501165986061096,4.184435844421387,33.80524245053486,32.95797611823703,134.65446017869309,120.57969856206834,0.0001295089750783,0.0883364379405975,0,0,0
11344,383136.0838491202,2010-09-26 02:13:48,5822.958397359563,2,34,0.5501165986061096,4.188159465789795,33.809829272044766,32.95797611823703,134.6736615787099,120.57969856206834,0.0001295089750783,0.0883364379405975,0,0,0
11345,383166.09927911125,2010-09-26 02:14:18,5852.973827445816,2,34,0.5501165986061096,4.191720962524414,33.81441620927095,32.95797611823703,134.69288078242278,120.57969856206834,6.47544875391759e-05,0.0883364379405975,0,0,0
11346,383196.11470719246,2010-09-26 02:14:48,5882.989255441853,2,34,0.550297200679779,4.195605754852295,33.819003129385656,32.95797611823703,134.71211726785734,120.57969856206834,9.70840483205393e-05,0.0883364379405975,0,0,0
11347,383226.1302130228,2010-09-26 02:15:18,5913.00476126215,2,34,0.5501165986061096,4.199653148651123,33.823590034655886,32.95797611823703,134.73137115838577,120.57969856206834,0.0001295089750783,0.0883364379405975,0,0,0
11348,383229.3801884565,2010-09-26 02:15:21,5916.254736725904,2,34,0.5504778623580933,4.200138568878174,33.82408668820248,32.95797611823703,134.73345695859038,120.57969856206834,0.0001295089750783,0.0883364379405975,0,0,0
11349,383259.38680905686,2010-09-26 02:15:51,30.015395179120187,3,34,0.0,4.122757434844971,33.82408668820248,32.95797611823703,134.73345695859038,120.57969856206834,-0.0004208564641885,0.0883364379405975,0,0,0
11350,383289.40223454166,2010-09-26 02:16:21,60.030820779175706,3,34,0.0,4.113691806793213,33.82408668820248,32.95797611823703,134.73345695859038,120.57969856206834,-0.0001942634553415,0.0883364379405975,0,0,0
11351,383319.4176480566,2010-09-26 02:16:51,90.04623418880205,3,34,0.0,4.108349800109863,33.82408668820248,32.95797611823703,134.73345695859038,120.57969856206834,-9.70840483205393e-05,0.0883364379405975,0,0,0
11352,383349.3861660931,2010-09-26 02:17:21,120.01475222035003,3,34,0.0,4.104788303375244,33.82408668820248,32.95797611823703,134.73345695859038,120.57969856206834,-9.70840483205393e-05,0.0883364379405975,0,0,0
11353,383349.3943488094,2010-09-26 02:17:21,0.015975276748499,4,34,0.9884553551673888,4.199491024017334,33.82409107454931,32.95797611823703,134.73347537901452,120.57969856206834,0.0,0.0883364379405975,0,0,0
11354,383350.3783767645,2010-09-26 02:17:22,1.000003236926019,4,34,0.9375234842300416,4.199814796447754,33.82435278580501,32.95797611823703,134.73457445270054,120.57969856206834,6.47544875391759e-05,0.0883364379405975,0,0,0
11355,383352.4566219292,2010-09-26 02:17:24,3.078248381536991,4,34,0.8874947428703308,4.199653148651123,33.824878465797944,32.95797611823703,134.73678207809968,120.57969856206834,3.24249267578125e-05,0.0883364379405975,0,0,0
11356,383355.6283369178,2010-09-26 02:17:28,6.249963380129631,4,34,0.836924135684967,4.199653148651123,33.82563695165681,32.95797611823703,134.7399674040926,120.57969856206834,6.47544875391759e-05,0.0883364379405975,0,0,0
11357,383359.8782858542,2010-09-26 02:17:32,10.499912296463096,4,34,0.7868953943252563,4.199653148651123,33.826594464969965,32.95797611823703,134.74398855980152,120.57969856206834,-3.23295607813634e-05,0.0883364379405975,0,0,0
11358,383365.41005462,2010-09-26 02:17:37,16.03168106234408,4,34,0.7368665933609009,4.199329376220703,33.82776409559614,32.95797611823703,134.74890052495897,120.57969856206834,-6.47544875391759e-05,0.0883364379405975,0,0,0
11359,383372.6127089233,2010-09-26 02:17:45,23.234335365585636,4,34,0.6868378520011902,4.199653148651123,33.82918654041497,32.95797611823703,134.75487421678872,120.57969856206834,3.24249267578125e-05,0.0883364379405975,0,0,0
11360,383382.1907519973,2010-09-26 02:17:54,32.81237845969362,4,34,0.6366284489631653,4.199653148651123,33.83094422158994,32.95797611823703,134.76225579847912,120.57969856206834,3.24249267578125e-05,0.0883364379405975,0,0,0
11361,383395.42512530414,2010-09-26 02:18:07,46.04675174647485,4,34,0.5864191055297852,4.199653148651123,33.833187711882466,32.95797611823703,134.7716775695638,120.57969856206834,3.24249267578125e-05,0.0883364379405975,0,0,0
11362,383415.1748964263,2010-09-26 02:18:27,65.79652286862206,4,34,0.5363903045654297,4.199653148651123,33.83625911074512,32.95797611823703,134.7845762529267,120.57969856206834,3.24249267578125e-05,0.0883364379405975,0,0,0
11363,383447.5651602579,2010-09-26 02:19:00,98.18678670527588,4,34,0.4863615334033966,4.199653148651123,33.84084240498584,32.95797611823703,134.80382429542348,120.57969856206834,0.0,0.0883364379405975,0,0,0
11364,383502.9871342064,2010-09-26 02:19:55,153.60876067375872,4,34,0.4361521601676941,4.199491024017334,33.847915111840145,32.95797611823703,134.83352692104913,120.57969856206834,-3.24249267578125e-05,0.0883364379405975,0,0,0
11365,383587.2360368738,2010-09-26 02:21:19,237.85766332113624,4,34,0.386123389005661,4.199653148651123,33.857510733973804,32.95797611823703,134.87382481912823,120.57969856206834,0.0,0.0883364379405975,0,0,0
11366,383693.4540420208,2010-09-26 02:23:05,344.07566847322744,4,34,0.3360946178436279,4.199653148651123,33.86815112411751,32.95797611823703,134.91851036673265,120.57969856206834,0.0,0.0883364379405975,0,0,0
11367,383823.0468472802,2010-09-26 02:25:15,473.66847373250926,4,34,0.2860658466815948,4.199653148651123,33.87933888114508,32.95797611823703,134.96549463405813,120.57969856206834,0.0,0.0883364379405975,0,0,0
11368,383979.4988829658,2010-09-26 02:27:52,630.1205094281495,4,34,0.2360370755195617,4.199491024017334,33.89066324336908,32.95797611823703,135.01305255551696,120.57969856206834,0.0,0.0883364379405975,0,0,0
11369,384176.2943538473,2010-09-26 02:31:08,826.915980299671,4,34,0.1858277022838592,4.199491024017334,33.90216010198321,32.95797611823703,135.06133493029756,120.57969856206834,-3.24249267578125e-05,0.0883364379405975,0,0,0
11370,384443.5268007575,2010-09-26 02:35:36,1094.148427199818,4,34,0.1357989311218261,4.199491024017334,33.91401788833667,32.95797611823703,135.11113307696675,120.57969856206834,-3.24249267578125e-05,0.0883364379405975,0,0,0
11371,384849.6957874507,2010-09-26 02:42:22,1500.317413918203,4,34,0.085770159959793,4.199491024017334,33.92631930562894,32.95797611823703,135.16279429101755,120.57969856206834,-3.24249267578125e-05,0.0883364379405975,0,0,0
11372,385379.535683024,2010-09-26 02:51:12,2030.1573095615595,4,34,0.0498289167881011,4.199814796447754,33.93606893824211,32.95797611823703,135.2037387544226,120.57969856206834,3.23295607813634e-05,0.0883364379405975,0,0,0
11373,385409.5423614944,2010-09-26 02:51:42,30.015532953025048,5,34,0.0,4.192368507385254,33.93606893824211,32.95797611823703,135.2037387544226,120.57969856206834,-6.47544875391759e-05,0.0883364379405975,0,0,0
11374,385439.54205376667,2010-09-26 02:52:12,60.01522510497357,5,34,0.0,4.191397190093994,33.93606893824211,32.95797611823703,135.2037387544226,120.57969856206834,-3.23295607813634e-05,0.0883364379405975,0,0,0
11375,385439.721218408,2010-09-26 02:52:12,0.187633612363168,6,34,-1.9243103452026844e-05,4.191558837890625,33.93606893824211,32.95797611923999,135.2037387544226,120.57969856627231,0.0,0.0883364379405975,0,0,0
11376,385444.5491826846,2010-09-26 02:52:17,5.015597888961292,6,34,0.0003419754502829,4.191397190093994,33.93607000215128,32.95797611932314,135.20374321384057,120.57969856662086,-3.23295607813634e-05,0.0883364379405975,0,0,0
11377,385474.55616277753,2010-09-26 02:52:47,30.015394657818938,7,34,-1.0997490882873535,4.032101631164551,33.93607000215128,32.9671452909485,135.20374321384057,120.61685103723164,-0.0008741378551349,0.0883364379405975,0,0,0
11378,385504.57154652814,2010-09-26 02:53:17,60.03077840841177,7,34,-1.0997490882873535,4.008304119110107,33.93607000215128,32.97631439670538,135.20374321384057,120.65370540045586,-0.0005504608270712,0.0883364379405975,0,0,0
11379,385534.5869699026,2010-09-26 02:53:47,90.04620178291196,7,34,-1.0997490882873535,3.991953849792481,33.93607000215128,32.98548356019353,135.20374321384057,120.69038017092178,-0.0003885269106831,0.0883364379405975,0,0,0
11380,385564.60250839446,2010-09-26 02:54:17,120.0617402847878,7,34,-1.0997490882873535,3.979002952575684,33.93607000215128,32.99465331552591,135.20374321384057,120.72692476388336,-0.0003237724304199,0.0883364379405975,0,0,0
11381,385594.6178053886,2010-09-26 02:54:47,150.07703736403562,7,34,-1.0997490882873535,3.967832803726196,33.93607000215128,33.00382294023837,135.20374321384057,120.76335934756938,-0.0003237724304199,0.0883364379405975,0,0,0
11382,385624.6332018809,2010-09-26 02:55:17,180.09243376119622,7,34,-1.0997490882873535,3.9579577445983887,33.93607000215128,33.012992597192365,135.20374321384057,120.79969782428174,-0.0002590179501567,0.0883364379405975,0,0,0
11383,385654.64863470406,2010-09-26 02:55:47,210.1078666093441,7,34,-1.0997490882873535,3.948730230331421,33.93607000215128,33.02216231305837,135.20374321384057,120.83594808732744,-0.0002266406954731,0.0883364379405975,0,0,0
11384,385684.66402263,2010-09-26 02:56:17,240.12325451029685,7,34,-1.099568486213684,3.939826488494873,33.93607000215128,33.03133194273782,135.20374321384057,120.87211434058798,-0.0002266406954731,0.0883364379405975,0,0,0
11385,385714.67942295707,2010-09-26 02:56:47,270.13865482724185,7,34,-1.0997490882873535,3.931084632873535,33.93607000215128,33.0405015798254,135.20374321384057,120.90819992932109,-0.0002266406954731,0.0883364379405975,0,0,0
11386,385744.69524967833,2010-09-26 02:57:17,300.1544815686078,7,34,-1.099929690361023,3.922666549682617,33.93607000215128,33.04967135541104,135.20374321384057,120.94420819221808,-0.0002266406954731,0.0883364379405975,0,0,0
11387,385774.71025763085,2010-09-26 02:57:47,330.16948951112585,7,34,-1.0997490882873535,3.914572238922119,33.93607000215128,33.0588409501746,135.20374321384057,120.98014000874008,-0.0001942634553415,0.0883364379405975,0,0,0
11388,385804.725784198,2010-09-26 02:58:17,360.18501617846084,7,34,-1.099929690361023,3.9063162803649902,33.93607000215128,33.06801074520161,135.20374321384057,121.01599827942783,-0.0002266406954731,0.0883364379405975,0,0,0
11389,385834.74106295645,2010-09-26 02:58:47,390.20029492695227,7,34,-1.0997490882873535,3.898545742034912,33.93607000215128,33.07718043599827,135.20374321384057,121.0517829097002,-0.0002266406954731,0.0883364379405975,0,0,0
11390,385864.7564995039,2010-09-26 02:59:17,420.2157313841088,7,34,-1.099929690361023,3.890775203704834,33.93607000215128,33.08635014869486,135.20374321384057,121.08749572606452,-0.0002266406954731,0.0883364379405975,0,0,0
11391,385894.7719025928,2010-09-26 02:59:47,450.23113447297294,7,34,-1.0997490882873535,3.883004665374756,33.93607000215128,33.09551989746298,135.20374321384057,121.12313779999788,-0.0001942634553415,0.0883364379405975,0,0,0
11392,385924.7872974009,2010-09-26 03:00:17,480.2465292811672,7,34,-1.0997490882873535,3.8755578994750977,33.93607000215128,33.10468967939924,135.20374321384057,121.15870981187142,-0.0001942634553415,0.0883364379405975,0,0,0
11393,385954.80270649976,2010-09-26 03:00:47,510.2619383900582,7,34,-1.099929690361023,3.8679492473602295,33.93607000215128,33.113859456743505,135.20374321384057,121.19421237857576,-0.0001942634553415,0.0883364379405975,0,0,0
11394,385984.8182508864,2010-09-26 03:01:17,540.2774827665982,7,34,-1.0997490882873535,3.860664367675781,33.93607000215128,33.12302925654151,135.20374321384057,121.22964630465572,-0.0001942634553415,0.0883364379405975,0,0,0
11395,386014.8335662112,2010-09-26 03:01:47,570.2927981114397,7,34,-1.0997490882873535,3.853217601776123,33.93607000215128,33.1321989260021,135.20374321384057,121.26501222096572,-0.0001942634553415,0.0883364379405975,0,0,0
11396,386044.8489482073,2010-09-26 03:02:17,600.3081800876033,7,34,-1.099929690361023,3.845932722091675,33.93607000215128,33.1413685907861,135.20374321384057,121.30031155714278,-0.0001618862152099,0.0883364379405975,0,0,0
11397,386074.8648668381,2010-09-26 03:02:47,630.3240988336271,7,34,-1.0997490882873535,3.8389716148376474,33.93607000215128,33.15053841987111,135.20374321384057,121.33554609926318,-0.0002266406954731,0.0883364379405975,0,0,0
11398,386104.8797682397,2010-09-26 03:03:17,660.3390001199148,7,34,-1.0997490882873535,3.8318488597869873,33.93607000215128,33.159707978126185,135.20374321384057,121.37071492754758,-0.0001942634553415,0.0883364379405975,0,0,0
11399,386134.8951947269,2010-09-26 03:03:47,690.3544267024225,7,34,-1.099929690361023,3.825049638748169,33.93607000215128,33.16887772029174,135.20374321384057,121.40582120191912,-0.0001942634553415,0.0883364379405975,0,0,0
11400,386164.9106120614,2010-09-26 03:04:17,720.3698441320836,7,34,-1.099929690361023,3.818250417709351,33.93607000215128,33.17804743238362,135.20374321384057,121.44086479520604,-0.0001942634553415,0.0883364379405975,0,0,0
11401,386194.92601069406,2010-09-26 03:04:47,750.3852425743491,7,34,-1.099929690361023,3.811613082885742,33.93607000215128,33.187217099467546,135.20374321384057,121.4758467388594,-0.0001942634553415,0.0883364379405975,0,0,0
11402,386224.9414114371,2010-09-26 03:05:17,780.40064332237,7,34,-1.0997490882873535,3.805137634277344,33.93607000215128,33.19638677220477,135.20374321384057,121.51076799006648,-0.0001618862152099,0.0883364379405975,0,0,0
11403,386254.9568376838,2010-09-26 03:05:47,810.416069564027,7,34,-1.0997490882873535,3.798662185668945,33.93607000215128,33.20555632380711,135.20374321384057,121.54562967069177,-0.0001942634553415,0.0883364379405975,0,0,0
11404,386284.97227411583,2010-09-26 03:06:17,840.4315059961211,7,34,-1.099929690361023,3.792348623275757,33.93607000215128,33.21472576041808,135.20374321384057,121.58043287957511,-0.0001942634553415,0.0883364379405975,0,0,0
11405,386314.9876482324,2010-09-26 03:06:47,870.4468801076533,7,34,-1.099568486213684,3.786358833312988,33.93607000215128,33.22389510815757,135.20374321384057,121.61517889243348,-0.0001618862152099,0.0883364379405975,0,0,0
11406,386345.00305516087,2010-09-26 03:07:17,900.4622870361017,7,34,-1.0997490882873535,3.78036904335022,33.93607000215128,33.23306453913932,135.20374321384057,121.64986967781778,-0.0001295089750783,0.0883364379405975,0,0,0
11407,386375.0187407248,2010-09-26 03:07:47,930.4779726251296,7,34,-1.099929690361023,3.774379253387451,33.93607000215128,33.24223422220552,135.20374321384057,121.68450704418872,-0.0001295089750783,0.0883364379405975,0,0,0
11408,386405.0338881605,2010-09-26 03:08:17,960.4931200508192,7,34,-1.099929690361023,3.7685513496398926,33.93607000215128,33.25140383603082,135.20374321384057,121.71909053949544,-0.0001942634553415,0.0883364379405975,0,0,0
11409,386435.0494269882,2010-09-26 03:08:47,990.5086588684832,7,34,-1.099929690361023,3.762885332107544,33.93607000215128,33.260573552243024,135.20374321384057,121.75362186222009,-0.0001618862152099,0.0883364379405975,0,0,0
11410,386465.06472259376,2010-09-26 03:09:17,1020.5239544740524,7,34,-1.099568486213684,3.7575430870056152,33.93607000215128,33.269743307216004,135.20374321384057,121.78810149528074,-0.0001295089750783,0.0883364379405975,0,0,0
11411,386495.0803221531,2010-09-26 03:09:47,1050.5395541536373,7,34,-1.099929690361023,3.7518773078918457,33.93607000215128,33.27891313061296,135.20374321384057,121.82253079901264,-0.0001618862152099,0.0883364379405975,0,0,0
11412,386525.09553035046,2010-09-26 03:10:17,1080.5547622206973,7,34,-1.099568486213684,3.746696949005127,33.93607000215128,33.288082796576354,135.20374321384057,121.85690977860376,-9.713172767078504e-05,0.0883364379405975,0,0,0
11413,386555.1109305522,2010-09-26 03:10:47,1110.5701624323792,7,34,-1.099568486213684,3.7413547039031982,33.93607000215128,33.297252582757096,135.20374321384057,121.8912404377502,-0.0001295089750783,0.0883364379405975,0,0,0
11414,386585.1264717307,2010-09-26 03:11:18,1140.585703610937,7,34,-1.0997490882873535,3.73617434501648,33.93607000215128,33.3064224237372,135.20374321384057,121.92552346843183,-0.0001295089750783,0.0883364379405975,0,0,0
11415,386615.14181996265,2010-09-26 03:11:48,1170.601051938107,7,34,-1.0997490882873535,3.730832099914551,33.93607000215128,33.31559215382833,135.20374321384057,121.9597590446366,-0.0001618862152099,0.0883364379405975,0,0,0
11416,386645.15729941207,2010-09-26 03:12:18,1200.6165312923413,7,34,-1.0997490882873535,3.726137399673462,33.93607000215128,33.32476190683964,135.20374321384057,121.99394869352145,-0.0001295089750783,0.0883364379405975,0,0,0
11417,386675.1727560797,2010-09-26 03:12:48,1230.6319880551837,7,34,-1.1001102924346924,3.721118927001953,33.93607000215128,33.33393157983334,135.20374321384057,122.0280930023544,-0.0001295089750783,0.0883364379405975,0,0,0
11418,386705.1881369731,2010-09-26 03:13:18,1260.6473688534072,7,34,-1.0997490882873535,3.7162623405456543,33.93607000215128,33.34310129091739,135.20374321384057,122.06219272879667,-0.0001295089750783,0.0883364379405975,0,0,0
11419,386735.2034229497,2010-09-26 03:13:48,1290.6626549251785,7,34,-1.0997490882873535,3.711729526519776,33.93607000215128,33.35227092849642,135.20374321384057,122.09624818538076,-9.713172767078504e-05,0.0883364379405975,0,0,0
11420,386765.2188152968,2010-09-26 03:14:18,1320.678047182004,7,34,-1.099929690361023,3.706872940063477,33.93607000215128,33.36144065743959,135.20374321384057,122.13026040981896,-0.0001295089750783,0.0883364379405975,0,0,0
11421,386795.2342242001,2010-09-26 03:14:48,1350.6934560853822,7,34,-1.0997490882873535,3.702178239822388,33.93607000215128,33.37061040365759,135.20374321384057,122.164230050263,-0.0001295089750783,0.0883364379405975,0,0,0
11422,386825.2497546068,2010-09-26 03:15:18,1380.7089864870388,7,34,-1.0997490882873535,3.697807312011719,33.93607000215128,33.379780186232,135.20374321384057,122.19815752507128,-6.47544875391759e-05,0.0883364379405975,0,0,0
11423,386855.26505235775,2010-09-26 03:15:48,1410.7242842429755,7,34,-1.0997490882873535,3.69311261177063,33.93607000215128,33.38894995733338,135.20374321384057,122.232043401732,-0.0001295089750783,0.0883364379405975,0,0,0
11424,386885.280580228,2010-09-26 03:16:18,1440.7398121083013,7,34,-1.0997490882873535,3.688741683959961,33.93607000215128,33.3981197994453,135.20374321384057,122.26588843375184,-6.47544875391759e-05,0.0883364379405975,0,0,0
11425,386915.2958318689,2010-09-26 03:16:48,1470.7550637491277,7,34,-1.0997490882873535,3.684370756149292,33.93607000215128,33.40728952123265,135.20374321384057,122.299692418397,-9.713172767078504e-05,0.0883364379405975,0,0,0
11426,386945.311402877,2010-09-26 03:17:18,1500.770634767169,7,34,-1.099929690361023,3.679837942123413,33.93607000215128,33.41645936215513,135.20374321384057,122.33345703782544,-0.0001618862152099,0.0883364379405975,0,0,0
11427,386975.3266925527,2010-09-26 03:17:48,1530.7859244329115,7,34,-1.099929690361023,3.675628900527954,33.93607000215128,33.425629124882235,135.20374321384057,122.36718213813332,-0.0001295089750783,0.0883364379405975,0,0,0
11428,387005.3422322274,2010-09-26 03:18:18,1560.80146411774,7,34,-1.0997490882873535,3.671743869781494,33.93607000215128,33.43479896708483,135.20374321384057,122.40086888565476,-9.713172767078504e-05,0.0883364379405975,0,0,0
11429,387035.3574563245,2010-09-26 03:18:48,1590.8166881997756,7,34,-1.099929690361023,3.667372941970825,33.93607000215128,33.44396866157872,135.20374321384057,122.43451724844866,-0.0001295089750783,0.0883364379405975,0,0,0
11430,387065.3729213229,2010-09-26 03:19:18,1620.832153198175,7,34,-1.0997490882873535,3.663487672805786,33.93607000215128,33.45313841350632,135.20374321384057,122.46812845864036,-9.713172767078504e-05,0.0883364379405975,0,0,0
11431,387095.3883414443,2010-09-26 03:19:48,1650.8475733345929,7,34,-1.0997490882873535,3.659602403640747,33.93607000215128,33.462308313321884,135.20374321384057,122.5017035136181,-6.47544875391759e-05,0.0883364379405975,0,0,0
11432,387125.40375771606,2010-09-26 03:20:18,1680.8629895963384,7,34,-1.0997490882873535,3.655879020690918,33.93607000215128,33.47147808859399,135.20374321384057,122.53524234943602,-6.47544875391759e-05,0.0883364379405975,0,0,0
11433,387155.4192735313,2010-09-26 03:20:48,1710.8785054165974,7,34,-1.0997490882873535,3.651993751525879,33.93607000215128,33.48064790601031,135.20374321384057,122.568746297414,-6.47544875391759e-05,0.0883364379405975,0,0,0
11434,387185.43455662567,2010-09-26 03:21:18,1740.8937885059245,7,34,-1.099929690361023,3.64794659614563,33.93607000215128,33.48981757539954,135.20374321384057,122.60221524795855,-0.0001618862152099,0.0883364379405975,0,0,0
11435,387215.45012709737,2010-09-26 03:21:48,1770.909358977602,7,34,-1.099929690361023,3.6443850994110103,33.93607000215128,33.498987290978086,135.20374321384057,122.6356502372362,-9.713172767078504e-05,0.0883364379405975,0,0,0
11436,387245.4653848234,2010-09-26 03:22:18,1800.9246167136428,7,34,-1.0997490882873535,3.6409854888916016,33.93607000215128,33.50815694742719,135.20374321384057,122.66905216115182,-9.713172767078504e-05,0.0883364379405975,0,0,0
11437,387275.4807978821,2010-09-26 03:22:48,1830.940029757356,7,34,-1.099929690361023,3.637262105941773,33.93607000215128,33.517326752433604,135.20374321384057,122.7024224231567,-0.0001295089750783,0.0883364379405975,0,0,0
11438,387305.4961966101,2010-09-26 03:23:18,1860.955428490347,7,34,-1.099568486213684,3.634186267852783,33.93607000215128,33.526496466617665,135.20374321384057,122.7357609979424,-6.47544875391759e-05,0.0883364379405975,0,0,0
11439,387335.51182342746,2010-09-26 03:23:48,1890.9710553227096,7,34,-1.099929690361023,3.630624771118164,33.93607000215128,33.535666212204795,135.20374321384057,122.76906898391492,-0.0001295089750783,0.0883364379405975,0,0,0
11440,387365.5270276047,2010-09-26 03:24:18,1920.9862594800093,7,34,-1.099929690361023,3.627387046813965,33.93607000215128,33.544835882451395,135.20374321384057,122.80234683394372,-0.0001295089750783,0.0883364379405975,0,0,0
11441,387395.5424293352,2010-09-26 03:24:48,1951.001661220508,7,34,-1.0997490882873535,3.6244730949401855,33.93607000215128,33.5540056301332,135.20374321384057,122.835595678012,-6.47544875391759e-05,0.0883364379405975,0,0,0
11442,387425.5578474215,2010-09-26 03:25:18,1981.017079311821,7,34,-1.099929690361023,3.6212353706359854,33.93607000215128,33.563175394318506,135.20374321384057,122.86881608486468,-9.713172767078504e-05,0.0883364379405975,0,0,0
11443,387455.57328864565,2010-09-26 03:25:48,2011.0325205258507,7,34,-1.099929690361023,3.618321418762207,33.93607000215128,33.572345182509764,135.20374321384057,122.90200859262674,-6.47544875391759e-05,0.0883364379405975,0,0,0
11444,387485.58868113806,2010-09-26 03:26:18,2041.0479131034776,7,34,-1.0997490882873535,3.6152455806732178,33.93607000215128,33.58151496806493,135.20374321384057,122.93517353623116,-6.47544875391759e-05,0.0883364379405975,0,0,0
11445,387515.6040773948,2010-09-26 03:26:48,2071.0633092700623,7,34,-1.0997490882873535,3.6123316287994394,33.93607000215128,33.59068473944056,135.20374321384057,122.96831164138288,-9.713172767078504e-05,0.0883364379405975,0,0,0
11446,387545.6195051753,2010-09-26 03:27:18,2101.078737050561,7,34,-1.099929690361023,3.609417676925659,33.93607000215128,33.59985448866689,135.20374321384057,123.00142310030095,-9.713172767078504e-05,0.0883364379405975,0,0,0
11447,387575.6349386801,2010-09-26 03:27:48,2131.0941705804103,7,34,-1.0997490882873535,3.60666561126709,33.93607000215128,33.609024237395545,135.20374321384057,123.03450849497584,-6.47544875391759e-05,0.0883364379405975,0,0,0
11448,387605.6504427811,2010-09-26 03:28:18,2161.109674756604,7,34,-1.0997490882873535,3.603913545608521,33.93607000215128,33.618194038647815,135.20374321384057,123.06756813758764,-6.47544875391759e-05,0.0883364379405975,0,0,0
11449,387635.6657154094,2010-09-26 03:28:48,2191.124947284568,7,34,-1.0997490882873535,3.601161479949951,33.93607000215128,33.627363745711776,135.20374321384057,123.10060178090248,-6.47544875391759e-05,0.0883364379405975,0,0,0
11450,387665.68153405545,2010-09-26 03:29:18,2221.14076601594,7,34,-1.0997490882873535,3.598409414291382,33.93607000215128,33.636533663338376,135.20374321384057,123.13361068494184,-6.47544875391759e-05,0.0883364379405975,0,0,0
11451,387695.6965510105,2010-09-26 03:29:48,2251.1557828907544,7,34,-1.0997490882873535,3.5954954624176025,33.93607000215128,33.64570334555599,135.20374321384057,123.16659324855706,-6.47544875391759e-05,0.0883364379405975,0,0,0
11452,387725.7119533425,2010-09-26 03:30:18,2281.171185222729,7,34,-1.099929690361023,3.592743396759033,33.93607000215128,33.65487315984558,135.20374321384057,123.19955080314745,-9.713172767078504e-05,0.0883364379405975,0,0,0
11453,387755.7274514686,2010-09-26 03:30:48,2311.186683368871,7,34,-1.0997490882873535,3.589991569519043,33.93607000215128,33.66404298729805,135.20374321384057,123.23248274189108,-6.47544875391759e-05,0.0883364379405975,0,0,0
11454,387785.74277195625,2010-09-26 03:31:18,2341.202003831487,7,34,-1.0997490882873535,3.5869157314300537,33.93607000215128,33.67321273545415,135.20374321384057,123.26538863888808,-0.0001295089750783,0.0883364379405975,0,0,0
11455,387815.7581925138,2010-09-26 03:31:48,2371.217424388956,7,34,-1.099929690361023,3.5841636657714844,33.93607000215128,33.68238255623176,135.20374321384057,123.29826845186794,-9.713172767078504e-05,0.0883364379405975,0,0,0
11456,387845.7735951565,2010-09-26 03:32:18,2401.2328270617813,7,34,-1.099929690361023,3.581249713897705,33.93607000215128,33.69155230454632,135.20374321384057,123.33112168673166,-6.47544875391759e-05,0.0883364379405975,0,0,0
11457,387875.78899141325,2010-09-26 03:32:48,2431.248223323604,7,34,-1.099929690361023,3.578335762023926,33.93607000215128,33.70072211534624,135.20374321384057,123.36394800752628,-6.47544875391759e-05,0.0883364379405975,0,0,0
11458,387905.8046507368,2010-09-26 03:33:18,2461.263882627019,7,34,-1.099929690361023,3.5752599239349365,33.93607000215128,33.70989199622358,135.20374321384057,123.39674688171476,-6.47544875391759e-05,0.0883364379405975,0,0,0
11459,387935.81983184646,2010-09-26 03:33:48,2491.279063726764,7,34,-1.099929690361023,3.5721840858459477,33.93607000215128,33.71906173572468,135.20374321384057,123.42951716392422,-9.713172767078504e-05,0.0883364379405975,0,0,0
11460,387965.83525316085,2010-09-26 03:34:18,2521.2944850661843,7,34,-1.0997490882873535,3.568946361541748,33.93607000215128,33.7282315587428,135.20374321384057,123.46225888542511,-9.713172767078504e-05,0.0883364379405975,0,0,0
11461,387995.8506458639,2010-09-26 03:34:48,2551.309877744061,7,34,-1.0997490882873535,3.565708637237549,33.93607000215128,33.7374013612358,135.20374321384057,123.49497079762584,-3.237724376958795e-05,0.0883364379405975,0,0,0
11462,388025.86603450665,2010-09-26 03:35:18,2581.3252663868657,7,34,-1.0997490882873535,3.56230902671814,33.93607000215128,33.74657114125881,135.20374321384057,123.52765170959944,-9.713172767078504e-05,0.0883364379405975,0,0,0
11463,388055.88159409614,2010-09-26 03:35:48,2611.34082599643,7,34,-1.099929690361023,3.5585856437683105,33.93607000215128,33.75574101754001,135.20374321384057,123.56030127824562,-0.0001295089750783,0.0883364379405975,0,0,0
11464,388085.8969319071,2010-09-26 03:36:18,2641.356163902588,7,34,-1.0997490882873535,3.5550241470336914,33.93607000215128,33.76491083342097,135.20374321384057,123.59291734021356,-9.713172767078504e-05,0.0883364379405975,0,0,0
11465,388115.9123451963,2010-09-26 03:36:48,2671.371577076626,7,34,-1.0997490882873535,3.5513007640838623,33.93607000215128,33.77408066436772,135.20374321384057,123.6254987573254,-9.713172767078504e-05,0.0883364379405975,0,0,0
11466,388145.9277282803,2010-09-26 03:37:18,2701.3869601605543,7,34,-1.099929690361023,3.5470917224884038,33.93607000215128,33.78325047544044,135.20374321384057,123.6580438885797,-0.0001295089750783,0.0883364379405975,0,0,0
11467,388175.9431682612,2010-09-26 03:37:48,2731.402400161557,7,34,-1.0997490882873535,3.5428826808929443,33.93607000215128,33.792420357803586,135.20374321384057,123.6905515459406,-0.0001618862152099,0.0883364379405975,0,0,0
11468,388205.9585575957,2010-09-26 03:38:18,2761.4177894710256,7,34,-1.0997490882873535,3.5386736392974854,33.93607000215128,33.80159009817834,135.20374321384057,123.72302005003604,-0.0001295089750783,0.0883364379405975,0,0,0
11469,388235.97396423353,2010-09-26 03:38:48,2791.433196113761,7,34,-1.0997490882873535,3.5343027114868164,33.93607000215128,33.81075993820959,135.20374321384057,123.75544855573868,-0.0001295089750783,0.0883364379405975,0,0,0
11470,388265.9893827108,2010-09-26 03:39:18,2821.448614591037,7,34,-1.099929690361023,3.5294461250305176,33.93607000215128,33.819929749849045,135.20374321384057,123.78783506748222,-0.0001618862152099,0.0883364379405975,0,0,0
11471,388296.0051273873,2010-09-26 03:39:48,2851.464359267556,7,34,-1.0997490882873535,3.5245895385742188,33.93607000215128,33.829099709515006,135.20374321384057,123.8201778994102,-0.0001295089750783,0.0883364379405975,0,0,0
11472,388326.02034288296,2010-09-26 03:40:18,2881.479574768171,7,34,-1.099929690361023,3.51908540725708,33.93607000215128,33.838269484800925,135.20374321384057,123.85247292190289,-0.0001618862152099,0.0883364379405975,0,0,0
11473,388356.035746473,2010-09-26 03:40:48,2911.4949783582865,7,34,-1.0997490882873535,3.5135812759399414,33.93607000215128,33.84743924596654,135.20374321384057,123.884717327712,-0.0001295089750783,0.0883364379405975,0,0,0
11474,388386.0510578129,2010-09-26 03:41:18,2941.5102897181814,7,34,-1.099929690361023,3.507267951965332,33.93607000215128,33.85660904580023,135.20374321384057,123.91690677611264,-0.0001295089750783,0.0883364379405975,0,0,0
11475,388416.06659501645,2010-09-26 03:41:48,2971.5258268967536,7,34,-1.0997490882873535,3.5001449584960938,33.93607000215128,33.86577894767711,135.20374321384057,123.9490358053586,-0.0001942634553415,0.0883364379405975,0,0,0
11476,388446.0818825018,2010-09-26 03:42:18,3001.541114377041,7,34,-1.0997490882873535,3.4925363063812256,33.93607000215128,33.874948862743835,135.20374321384057,123.981096985774,-0.0001618862152099,0.0883364379405975,0,0,0
11477,388476.0972573602,2010-09-26 03:42:48,3031.5564892404504,7,34,-1.0997490882873535,3.483470678329468,33.93607000215128,33.88411874577066,135.20374321384057,124.01308141567505,-0.0002590179501567,0.0883364379405975,0,0,0
11478,388506.1127993709,2010-09-26 03:43:19,3061.5720312510844,7,34,-1.099929690361023,3.4729480743408203,33.93607000215128,33.89328853857066,135.20374321384057,124.04497691919045,-0.0002913951757363,0.0883364379405975,0,0,0
11479,388536.1281148962,2010-09-26 03:43:49,3091.5873468766267,7,34,-1.099568486213684,3.4606447219848637,33.93607000215128,33.90245839592036,135.20374321384057,124.07676818549795,-0.0003237724304199,0.0883364379405975,0,0,0
11480,388566.143505985,2010-09-26 03:44:19,3121.602737865287,7,34,-1.0997490882873535,3.444779872894287,33.93607000215128,33.91162821144036,135.20374321384057,124.10843114874162,-0.0004532813909463,0.0883364379405975,0,0,0
11481,388596.1589349284,2010-09-26 03:44:49,3151.6181668086874,7,34,-1.0997490882873535,3.4237349033355717,33.93607000215128,33.92079796396554,135.20374321384057,124.13992713755032,-0.0006475448608398,0.0883364379405975,0,0,0
11482,388626.1743349698,2010-09-26 03:45:19,3181.6335668499446,7,34,-1.0997490882873535,3.3944334983825684,33.93607000215128,33.9299677357185,135.20374321384057,124.17119502577444,-0.0008741855854168,0.0883364379405975,0,0,0
11483,388656.18977605336,2010-09-26 03:45:49,3211.649007933649,7,34,-1.099929690361023,3.3520193099975586,33.93607000215128,33.93913753723077,135.20374321384057,124.20213843692363,-0.0012950897216796,0.0883364379405975,0,0,0
11484,388686.1901827389,2010-09-26 03:46:19,3241.649414709409,7,34,-1.0997490882873535,3.2911503314971924,33.93607000215128,33.9483027864531,135.20374321384057,124.23259778043608,-0.0018455028766766,0.0883364379405975,0,0,0
11485,388716.2051715537,2010-09-26 03:46:49,3271.6644035291943,7,34,-1.099929690361023,3.202275037765503,33.93607000215128,33.95747248194322,135.20374321384057,124.26239591360157,-0.0027844428550451,0.0883364379405975,0,0,0
11486,388746.2203752298,2010-09-26 03:47:19,3301.6796072153184,7,34,-1.099929690361023,3.061920166015625,33.93607000215128,33.966642228056024,135.20374321384057,124.29117535009428,-0.0047270776703953,0.0883364379405975,0,0,0
11487,388766.51729571086,2010-09-26 03:47:39,3321.976527606217,7,34,-1.0997490882873535,2.8615057468414307,33.93607000215128,33.97284296111147,135.20374321384057,124.30964006102371,-0.0114291189238429,0.0883364379405975,0,0,0
11488,388775.6738507459,2010-09-26 03:47:48,3331.1330827264983,7,34,-1.099929690361023,2.699620008468628,33.93607000215128,33.975640307802564,135.20374321384057,124.31742418498716,-0.0146344657987356,0.0883364379405975,0,0,0
11489,388835.6882864778,2010-09-26 03:48:48,60.01533912458406,8,34,0.0,3.312843084335327,33.93607000215128,33.975640307802564,135.20374321384057,124.31742418498716,0.0014569759368896,0.0883364379405975,0,0,0
11490,388835.8756870544,2010-09-26 03:48:49,0.187431282316243,9,34,0.0023286775685846,3.313490629196167,33.93607012339211,33.975640307802564,135.20374361557094,124.31742418498716,0.0,0.0867155864834785,0,0,0
11491,388840.7044301801,2010-09-26 03:48:53,5.016174538366924,9,34,0.0005225847125984,3.321584939956665,33.936070954494326,33.975640307802564,135.2037463730915,124.31742418498716,0.0012950897216796,0.0867155864834785,0,0,0
