Data_Point,Test_Time(s),Date_Time,Step_Time(s),Step_Index,Cycle_Index,Current(A),Voltage(V),Charge_Capacity(Ah),Discharge_Capacity(Ah),Charge_Energy(Wh),Discharge_Energy(Wh),dV/dt(V/s),Internal_Resistance(Ohm),Is_FC_Data,AC_Impedance(Ohm),ACI_Phase_Angle(Deg)
1670,56019.600020318976,2010-09-22 07:21:18,30.01525763579088,1,6,0.0,3.4564356803894043,4.929784396306172,4.934750631307023,19.646961586346265,18.02138416563084,0.0009065627818927,0.0914128422737121,0,0,0
1671,56049.61529943338,2010-09-22 07:21:48,60.03053675019568,1,6,0.0,3.482661247253418,4.929784396306172,4.934750631307023,19.646961586346265,18.02138416563084,0.0006475448608398,0.0914128422737121,0,0,0
1672,56079.63057028216,2010-09-22 07:22:18,90.0458075989682,1,6,0.0,3.5019257068634038,4.929784396306172,4.934750631307023,19.646961586346265,18.02138416563084,0.0004856586456298,0.0914128422737121,0,0,0
1673,56109.59893340202,2010-09-22 07:22:48,120.0141707188328,1,6,0.0,3.5169808864593506,4.929784396306172,4.934750631307023,19.646961586346265,18.02138416563084,0.0003237724304199,0.0914128422737121,0,0,0
1674,56139.61330338982,2010-09-22 07:23:19,30.015302497773288,2,6,0.5501165986061096,3.6531269550323486,4.934370871620685,4.934750631307023,19.663584934307256,18.02138416563084,0.0012627125252038,0.0914128422737121,0,0,0
1675,56169.62853944174,2010-09-22 07:23:49,60.030538549687485,2,6,0.5501165986061096,3.6901986598968506,4.938957264748762,4.934750631307023,19.680430379203536,18.02138416563084,0.0008418083307333,0.0914128422737121,0,0,0
1676,56199.64380530306,2010-09-22 07:24:19,90.04580443607313,2,6,0.5501165986061096,3.716586112976074,4.943543637624214,4.934750631307023,19.697418598541116,18.02138416563084,0.0006151676061563,0.0914128422737121,0,0,0
1677,56229.65919524912,2010-09-22 07:24:49,120.06119445731846,2,6,0.5501165986061096,3.736660003662109,4.948130050598275,4.934750631307023,19.7145124527714,18.02138416563084,0.0004532813909463,0.0914128422737121,0,0,0
1678,56259.67686543701,2010-09-22 07:25:19,150.07886454496028,2,6,0.550297200679779,3.752362966537476,4.952716839334516,4.934750631307023,19.73168910677908,18.02138416563084,0.0003885269106831,0.0914128422737121,0,0,0
1679,56289.689608681496,2010-09-22 07:25:49,180.09160778944366,2,6,0.5501165986061096,3.763209104537964,4.957302863033722,4.934750631307023,19.748923690675,18.02138416563084,0.0002266406954731,0.0914128422737121,0,0,0
1680,56319.70489185604,2010-09-22 07:26:19,210.10689107927092,2,6,0.5501165986061096,3.769846439361572,4.961889209368801,4.934750631307023,19.766199066471188,18.02138416563084,0.0001618862152099,0.0914128422737121,0,0,0
1681,56349.72023352659,2010-09-22 07:26:49,240.12223263955025,2,6,0.5501165986061096,3.774217367172241,4.966475582047258,4.934750631307023,19.78349882811188,18.02138416563084,0.0001618862152099,0.0914128422737121,0,0,0
1682,56379.73560768324,2010-09-22 07:27:19,270.13760680120765,2,6,0.5499359965324402,3.777778863906861,4.971061847815109,4.934750631307023,19.800816225391557,18.02138416563084,9.713172767078504e-05,0.0914128422737121,0,0,0
1683,56409.750635024175,2010-09-22 07:27:49,300.1526341371346,2,6,0.5499359965324402,3.7811784744262695,4.975648120950955,4.934750631307023,19.818150219482444,18.02138416563084,6.47544875391759e-05,0.0914128422737121,0,0,0
1684,56439.76606036859,2010-09-22 07:28:19,330.1680593863143,2,6,0.5501165986061096,3.784901857376098,4.980234386027375,4.934750631307023,19.83550034526571,18.02138416563084,9.713172767078504e-05,0.0914128422737121,0,0,0
1685,56469.78131102195,2010-09-22 07:28:49,360.1833100446885,2,6,0.5501165986061096,3.788301467895508,4.98482070075192,4.934750631307023,19.85286684907383,18.02138416563084,6.47544875391759e-05,0.0914128422737121,0,0,0
1686,56499.79642575604,2010-09-22 07:29:19,390.1984247687497,2,6,0.5499359965324402,3.791862964630127,4.989407110715688,4.934750631307023,19.870249745003303,18.02138416563084,0.0001295089750783,0.0914128422737121,0,0,0
1687,56529.81173985276,2010-09-22 07:29:49,420.2137389607135,2,6,0.5499359965324402,3.795262575149536,4.993993495004299,4.934750631307023,19.887648474862463,18.02138416563084,9.713172767078504e-05,0.0914128422737121,0,0,0
1688,56559.8269886916,2010-09-22 07:30:19,450.2289877293706,2,6,0.550297200679779,3.798662185668945,4.998579926472611,4.934750631307023,19.90506301882641,18.02138416563084,9.713172767078504e-05,0.0914128422737121,0,0,0
1689,56589.84222336507,2010-09-22 07:30:49,480.2442223777815,2,6,0.5501165986061096,3.801899909973145,5.003166341974364,4.934750631307023,19.922492751886644,18.02138416563084,6.47544875391759e-05,0.0914128422737121,0,0,0
1690,56619.85751573256,2010-09-22 07:31:19,510.259514745268,2,6,0.5501165986061096,3.805137634277344,5.007752763630657,4.934750631307023,19.93993758098556,18.02138416563084,6.47544875391759e-05,0.0914128422737121,0,0,0
1691,56649.87275507267,2010-09-22 07:31:49,540.274754115465,2,6,0.5501165986061096,3.808537244796753,5.012339183016729,4.934750631307023,19.957397363733968,18.02138416563084,9.713172767078504e-05,0.0914128422737121,0,0,0
1692,56679.88818919902,2010-09-22 07:32:19,570.2901882217536,2,6,0.5501165986061096,3.811774969100952,5.016925642513258,4.934750631307023,19.97487217281652,18.02138416563084,6.47544875391759e-05,0.0914128422737121,0,0,0
1693,56709.90329538176,2010-09-22 07:32:49,600.3052944195318,2,6,0.5501165986061096,3.815012693405152,5.021512164711795,4.934750631307023,19.99236222224605,18.02138416563084,9.713172767078504e-05,0.0914128422737121,0,0,0
1694,56739.91857358389,2010-09-22 07:33:19,630.3205725965969,2,6,0.550297200679779,3.818412303924561,5.026098805815503,4.934750631307023,20.009867672912577,18.02138416563084,9.713172767078504e-05,0.0914128422737121,0,0,0
1695,56769.93398338952,2010-09-22 07:33:49,660.3359824072396,2,6,0.5501165986061096,3.82148814201355,5.030685353093246,4.934750631307023,20.027387483027823,18.02138416563084,9.713172767078504e-05,0.0914128422737121,0,0,0
1696,56799.94908095074,2010-09-22 07:34:19,690.3510799634472,2,6,0.5501165986061096,3.824725866317749,5.035271821023239,4.934750631307023,20.044921850228164,18.02138416563084,9.713172767078504e-05,0.0914128422737121,0,0,0
1697,56829.96434394991,2010-09-22 07:34:49,720.3663429876885,2,6,0.5501165986061096,3.828125476837158,5.039858295663175,4.934750631307023,20.062471435631178,18.02138416563084,9.713172767078504e-05,0.0914128422737121,0,0,0
1698,56859.97976741464,2010-09-22 07:35:19,750.3817664373764,2,6,0.5501165986061096,3.831363201141357,5.044444898217387,4.934750631307023,20.080037029353985,18.02138416563084,6.47544875391759e-05,0.0914128422737121,0,0,0
1699,56889.99495682514,2010-09-22 07:35:49,780.3969560483669,2,6,0.5499359965324402,3.834762573242188,5.049031483050925,4.934750631307023,20.09761815822604,18.02138416563084,6.47544875391759e-05,0.0914128422737121,0,0,0
1700,56920.01016142354,2010-09-22 07:36:19,810.4121604362429,2,6,0.5501165986061096,3.8381621837615967,5.053617989632381,4.934750631307023,20.115214737468936,18.02138416563084,6.47544875391759e-05,0.0914128422737121,0,0,0
1701,56950.02542407685,2010-09-22 07:36:49,840.427423089558,2,6,0.5501165986061096,3.841723680496216,5.058204508334316,4.934750631307023,20.13282716821301,18.02138416563084,6.47544875391759e-05,0.0914128422737121,0,0,0
1702,56980.04070670503,2010-09-22 07:37:19,870.4427057177338,2,6,0.5501165986061096,3.845123291015625,5.062791058796258,4.934750631307023,20.150455258384056,18.02138416563084,0.0001295089750783,0.0914128422737121,0,0,0
1703,57010.05595347369,2010-09-22 07:37:49,900.4579525716115,2,6,0.5501165986061096,3.848522901535034,5.067377570502791,4.934750631307023,20.168098553985907,18.02138416563084,9.713172767078504e-05,0.0914128422737121,0,0,0
1704,57040.071219410194,2010-09-22 07:38:19,930.4732185081224,2,6,0.5499359965324402,3.8517606258392334,5.071964074967221,4.934750631307023,20.18575687144665,18.02138416563084,9.713172767078504e-05,0.0914128422737121,0,0,0
1705,57070.086870603365,2010-09-22 07:38:49,960.4888697413928,2,6,0.550297200679779,3.8549983501434326,5.076550659188936,4.934750631307023,20.203430094305386,18.02138416563084,9.713172767078504e-05,0.0914128422737121,0,0,0
1706,57100.10179672665,2010-09-22 07:39:19,990.5037958346026,2,6,0.550297200679779,3.857912302017212,5.081137136066079,4.934750631307023,20.22111719806857,18.02138416563084,6.47544875391759e-05,0.0914128422737121,0,0,0
1707,57130.11700860322,2010-09-22 07:39:49,1020.5190077111712,2,6,0.550297200679779,3.860988140106201,5.085723646281753,4.934750631307023,20.238818338482357,18.02138416563084,6.47544875391759e-05,0.0914128422737121,0,0,0
1708,57160.13229109606,2010-09-22 07:40:19,1050.5342902040093,2,6,0.5499359965324402,3.8637402057647705,5.09031020660489,4.934750631307023,20.25653318388322,18.02138416563084,6.47544875391759e-05,0.0914128422737121,0,0,0
1709,57190.14755957392,2010-09-22 07:40:49,1080.5495586818636,2,6,0.5501165986061096,3.86649227142334,5.094896749429994,4.934750631307023,20.274260891573604,18.02138416563084,3.237724376958795e-05,0.0914128422737121,0,0,0
1710,57220.16282805177,2010-09-22 07:41:19,1110.56482706448,2,6,0.5501165986061096,3.869244337081909,5.099483330890992,4.934750631307023,20.292001243359405,18.02138416563084,6.47544875391759e-05,0.0914128422737121,0,0,0
1711,57250.17820229864,2010-09-22 07:41:49,1140.5802013213754,2,6,0.5501165986061096,3.8716726303100586,5.104069906467382,4.934750631307023,20.30975347516348,18.02138416563084,6.47544875391759e-05,0.0914128422737121,0,0,0
1712,57280.19333973439,2010-09-22 07:42:19,1170.595338772166,2,6,0.5499359965324402,3.874100923538208,5.10865644876684,4.934750631307023,20.32751688641945,18.02138416563084,3.237724376958795e-05,0.0914128422737121,0,0,0
1713,57310.208786477226,2010-09-22 07:42:49,1200.6107854899344,2,6,0.5499359965324402,3.876367330551148,5.113243052733402,4.934750631307023,20.34529107225812,18.02138416563084,3.237724376958795e-05,0.0914128422737121,0,0,0
1714,57340.224240207484,2010-09-22 07:43:19,1230.6262394106827,2,6,0.5501165986061096,3.878471851348877,5.117829597630429,4.934750631307023,20.36307504437567,18.02138416563084,3.237724376958795e-05,0.0914128422737121,0,0,0
1715,57370.2391466266,2010-09-22 07:43:49,1260.641145940058,2,6,0.5499359965324402,3.880414485931397,5.122416086401803,4.934750631307023,20.38086812172407,18.02138416563084,6.47544875391759e-05,0.0914128422737121,0,0,0
1716,57400.254410949085,2010-09-22 07:44:19,1290.6564100520145,2,6,0.5501165986061096,3.882195234298706,5.127002667942457,4.934750631307023,20.39867029818853,18.02138416563084,6.47544875391759e-05,0.0914128422737121,0,0,0
1717,57430.269667296656,2010-09-22 07:44:49,1320.6716663093646,2,6,0.5499359965324402,3.883975982666016,5.131589288653947,4.934750631307023,20.41648087904933,18.02138416563084,3.237724376958795e-05,0.0914128422737121,0,0,0
1718,57460.28494165418,2010-09-22 07:45:19,1350.6869407571207,2,6,0.5501165986061096,3.885432958602905,5.136175891329373,4.934750631307023,20.434298842567085,18.02138416563084,3.237724376958795e-05,0.0914128422737121,0,0,0
1719,57490.30019735014,2010-09-22 07:45:49,1380.7021963628442,2,6,0.5499359965324402,3.887051820755005,5.140762463209292,4.934750631307023,20.452123726715907,18.02138416563084,0.0,0.0914128422737121,0,0,0
1720,57520.31554113597,2010-09-22 07:46:19,1410.717540339154,2,6,0.5501165986061096,3.8885087966918954,5.145349017743075,4.934750631307023,20.46995517126994,18.02138416563084,3.237724376958795e-05,0.0914128422737121,0,0,0
1721,57550.33074725316,2010-09-22 07:46:49,1440.732746351084,2,6,0.5499359965324402,3.889803886413574,5.149935597751026,4.934750631307023,20.487793013039923,18.02138416563084,3.237724376958795e-05,0.0914128422737121,0,0,0
1722,57580.34602019716,2010-09-22 07:47:19,1470.748019209874,2,6,0.550297200679779,3.890937089920044,5.154522191488353,4.934750631307023,20.50563681404319,18.02138416563084,0.0,0.0914128422737121,0,0,0
1723,57610.36126021898,2010-09-22 07:47:49,1500.7632592316977,2,6,0.5501165986061096,3.892232179641724,5.159108725128704,4.934750631307023,20.52348614966984,18.02138416563084,3.237724376958795e-05,0.0914128422737121,0,0,0
1724,57640.37653262665,2010-09-22 07:48:19,1530.7785316393613,2,6,0.5501165986061096,3.8935272693634033,5.163695335371756,4.934750631307023,20.54134133890892,18.02138416563084,3.237724376958795e-05,0.0914128422737121,0,0,0
1725,57670.3917952148,2010-09-22 07:48:49,1560.793794227514,2,6,0.5501165986061096,3.894660472869873,5.168281933574383,4.934750631307023,20.559201927891618,18.02138416563084,3.237724376958795e-05,0.0914128422737121,0,0,0
1726,57700.40708438932,2010-09-22 07:49:19,1590.809083412055,2,6,0.5499359965324402,3.895793676376343,5.172868554028338,4.934750631307023,20.57706740254044,18.02138416563084,3.237724376958795e-05,0.0914128422737121,0,0,0
1727,57730.422333764494,2010-09-22 07:49:49,1620.8243327872267,2,6,0.5501165986061096,3.8970887660980233,5.17745503634246,4.934750631307023,20.59493780566931,18.02138416563084,3.237724376958795e-05,0.0914128422737121,0,0,0
1728,57760.43757722991,2010-09-22 07:50:19,1650.839576242621,2,6,0.5501165986061096,3.898221969604492,5.182041561475375,4.934750631307023,20.612813643369226,18.02138416563084,6.47544875391759e-05,0.0914128422737121,0,0,0
1729,57790.453047366136,2010-09-22 07:50:49,1680.8550465141834,2,6,0.5499359965324402,3.899031400680542,5.186628078313667,4.934750631307023,20.630694772925526,18.02138416563084,0.0,0.0914128422737121,0,0,0
1730,57820.46811576456,2010-09-22 07:51:19,1710.8701149677463,2,6,0.5501165986061096,3.900164604187012,5.191214614848153,4.934750631307023,20.648581271211,18.02138416563084,0.0,0.0914128422737121,0,0,0
1731,57850.48335803199,2010-09-22 07:51:49,1740.8853570396875,2,6,0.5501165986061096,3.9014596939086914,5.195801192412038,4.934750631307023,20.66647321143344,18.02138416563084,0.0,0.0914128422737121,0,0,0
1732,57880.49879125608,2010-09-22 07:52:19,1770.9007903690367,2,6,0.5499359965324402,3.902592897415161,5.200387805972919,4.934750631307023,20.68437061173347,18.02138416563084,0.0,0.0914128422737121,0,0,0
1733,57910.51389797516,2010-09-22 07:52:50,1800.915897073079,2,6,0.5501165986061096,3.903887987136841,5.204974397388241,4.934750631307023,20.702273290873148,18.02138416563084,6.47544875391759e-05,0.0914128422737121,0,0,0
1734,57940.52920865836,2010-09-22 07:53:20,1830.9312076710712,2,6,0.5501165986061096,3.905183076858521,5.209561026768655,4.934750631307023,20.720181570185964,18.02138416563084,6.47544875391759e-05,0.0914128422737121,0,0,0
1735,57970.54443517146,2010-09-22 07:53:50,1860.9464342643755,2,6,0.5501165986061096,3.9063162803649902,5.214147645912227,4.934750631307023,20.73809508360805,18.02138416563084,3.237724376958795e-05,0.0914128422737121,0,0,0
1736,58000.55973290736,2010-09-22 07:54:20,1890.9617321105377,2,6,0.5501165986061096,3.90744948387146,5.21873419641013,4.934750631307023,20.756013851902505,18.02138416563084,6.47544875391759e-05,0.0914128422737121,0,0,0
1737,58030.57499898922,2010-09-22 07:54:50,1920.9769981924112,2,6,0.5497553944587708,3.9085826873779297,5.223320844668669,4.934750631307023,20.77393846136983,18.02138416563084,3.237724376958795e-05,0.0914128422737121,0,0,0
1738,58060.5902433168,2010-09-22 07:55:20,1950.992242424745,2,6,0.5501165986061096,3.90987777709961,5.227907442751743,4.934750631307023,20.79186848390136,18.02138416563084,6.47544875391759e-05,0.0914128422737121,0,0,0
1739,58090.60548736868,2010-09-22 07:55:50,1981.007486476628,2,6,0.5501165986061096,3.911010980606079,5.232493625116361,4.934750631307023,20.809802337892368,18.02138416563084,0.0,0.0914128422737121,0,0,0
1740,58120.62075809214,2010-09-22 07:56:20,2011.0227572301635,2,6,0.5501165986061096,3.912306070327759,5.237079299873103,4.934750631307023,20.827739745553725,18.02138416563084,6.47544875391759e-05,0.0914128422737121,0,0,0
1741,58150.63621901537,2010-09-22 07:56:50,2041.0382180330903,2,6,0.5499359965324402,3.913439273834229,5.24166494280006,4.934750631307023,20.845682704275006,18.02138416563084,3.237724376958795e-05,0.0914128422737121,0,0,0
1742,58180.653932205605,2010-09-22 07:57:20,2071.055931428836,2,6,0.5499359965324402,3.914734125137329,5.246251030987461,4.934750631307023,20.86363321358783,18.02138416563084,0.0,0.0914128422737121,0,0,0
1743,58210.66671994615,2010-09-22 07:57:50,2101.0687191543507,2,6,0.5501165986061096,3.9161911010742183,5.250836730426123,4.934750631307023,20.881588017245832,18.02138416563084,6.47544875391759e-05,0.0914128422737121,0,0,0
1744,58240.681826650194,2010-09-22 07:58:20,2131.083825758142,2,6,0.5501165986061096,3.917324304580689,5.255423226513679,4.934750631307023,20.899551993768945,18.02138416563084,0.0,0.0914128422737121,0,0,0
1745,58270.69724554351,2010-09-22 07:58:50,2161.099244656469,2,6,0.5501165986061096,3.918619394302368,5.260009852849755,4.934750631307023,20.91752244851812,18.02138416563084,0.0,0.0914128422737121,0,0,0
1746,58300.71258003113,2010-09-22 07:59:20,2191.114579139082,2,6,0.5501165986061096,3.919914484024048,5.264596449425968,4.934750631307023,20.935498867258023,18.02138416563084,0.0,0.0914128422737121,0,0,0
1747,58330.72779035382,2010-09-22 07:59:50,2221.1297895620223,2,6,0.550297200679779,3.9213714599609375,5.269182996261066,4.934750631307023,20.95348108909437,18.02138416563084,6.47544875391759e-05,0.0914128422737121,0,0,0
1748,58360.742927754494,2010-09-22 08:00:20,2251.1449268624374,2,6,0.550297200679779,3.922666549682617,5.273769555661617,4.934750631307023,20.971469480169137,18.02138416563084,3.237724376958795e-05,0.0914128422737121,0,0,0
1749,58390.75815003202,2010-09-22 08:00:50,2281.160149235206,2,6,0.550297200679779,3.924123525619507,5.278356149609349,4.934750631307023,20.989464200790447,18.02138416563084,3.237724376958795e-05,0.0914128422737121,0,0,0
1750,58420.77342851986,2010-09-22 08:01:20,2311.175427557634,2,6,0.550297200679779,3.9254186153411865,5.282942833144432,4.934750631307023,21.00746556153325,18.02138416563084,3.237724376958795e-05,0.0914128422737121,0,0,0
1751,58450.78868547896,2010-09-22 08:01:50,2341.190684586911,2,6,0.550297200679779,3.926875591278076,5.287530111357095,4.934750631307023,21.025475482337956,18.02138416563084,6.47544875391759e-05,0.0914128422737121,0,0,0
1752,58480.80395771119,2010-09-22 08:02:20,2371.205956819137,2,6,0.5501165986061096,3.928170680999756,5.292117311702609,4.934750631307023,21.04349149575043,18.02138416563084,3.237724376958795e-05,0.0914128422737121,0,0,0
1753,58510.81917375316,2010-09-22 08:02:50,2401.221172765865,2,6,0.550297200679779,3.9296276569366455,5.296704532566162,4.934750631307023,21.061513987227848,18.02138416563084,6.47544875391759e-05,0.0914128422737121,0,0,0
1754,58540.83448177973,2010-09-22 08:03:20,2431.236480802465,2,6,0.5501165986061096,3.930922746658325,5.301291664233235,4.934750631307023,21.07954272653292,18.02138416563084,3.237724376958795e-05,0.0914128422737121,0,0,0
1755,58570.84996381064,2010-09-22 08:03:50,2461.2519628584428,2,6,0.5501165986061096,3.932541608810425,5.305878247345148,4.934750631307023,21.09757578294328,18.02138416563084,9.713172767078504e-05,0.0914128422737121,0,0,0
1756,58600.86496404893,2010-09-22 08:04:20,2491.26696305663,2,6,0.5501165986061096,3.933836698532105,5.310464724839119,4.934750631307023,21.115615106972932,18.02138416563084,3.237724376958795e-05,0.0914128422737121,0,0,0
1757,58630.88023940395,2010-09-22 08:04:50,2521.282238446738,2,6,0.5501165986061096,3.935293674468994,5.315051265860285,4.934750631307023,21.1336613440422,18.02138416563084,3.237724376958795e-05,0.0914128422737121,0,0,0
1758,58660.8955803076,2010-09-22 08:05:20,2551.2975794456165,2,6,0.5501165986061096,3.936750650405884,5.319637793264628,4.934750631307023,21.151714137945163,18.02138416563084,0.0,0.0914128422737121,0,0,0
1759,58690.91075355774,2010-09-22 08:05:50,2581.31275258048,2,6,0.5499359965324402,3.938207626342773,5.324224218832058,4.934750631307023,21.169773389274848,18.02138416563084,0.0,0.0914128422737121,0,0,0
1760,58720.92602414586,2010-09-22 08:06:20,2611.3280231686017,2,6,0.5497553944587708,3.939664602279663,5.328810700808963,4.934750631307023,21.187839665235423,18.02138416563084,0.0,0.0914128422737121,0,0,0
1761,58750.94129388186,2010-09-22 08:06:50,2641.343292894572,2,6,0.5499359965324402,3.9411215782165527,5.333397165392098,4.934750631307023,21.20591279851481,18.02138416563084,3.237724376958795e-05,0.0914128422737121,0,0,0
1762,58780.95657708648,2010-09-22 08:07:20,2671.3585761041986,2,6,0.5501165986061096,3.9429023265838623,5.337983694894149,4.934750631307023,21.22399309090116,18.02138416563084,6.47544875391759e-05,0.0914128422737121,0,0,0
1763,58810.97182995538,2010-09-22 08:07:50,2701.3738289680778,2,6,0.5499359965324402,3.944197416305542,5.342570291054809,4.934750631307023,21.242080686659943,18.02138416563084,3.237724376958795e-05,0.0914128422737121,0,0,0
1764,58840.98708834304,2010-09-22 08:08:20,2731.3890873607584,2,6,0.5501165986061096,3.9458162784576416,5.347156868786511,4.934750631307023,21.260175312623527,18.02138416563084,3.237724376958795e-05,0.0914128422737121,0,0,0
1765,58871.00247834925,2010-09-22 08:08:50,2761.4044773920286,2,6,0.5501165986061096,3.947435140609741,5.351743486283159,4.934750631307023,21.27827712048065,18.02138416563084,3.237724376958795e-05,0.0914128422737121,0,0,0
1766,58901.0177676992,2010-09-22 08:09:20,2791.41976671692,2,6,0.5501165986061096,3.949054002761841,5.356330051367062,4.934750631307023,21.29638597884568,18.02138416563084,3.237724376958795e-05,0.0914128422737121,0,0,0
1767,58931.032888328,2010-09-22 08:09:50,2821.4348873457207,2,6,0.5499359965324402,3.950672864913941,5.360916550712112,4.934750631307023,21.31450179759192,18.02138416563084,3.237724376958795e-05,0.0914128422737121,0,0,0
1768,58961.04815839983,2010-09-22 08:10:20,2851.4501574225665,2,6,0.5499359965324402,3.95229172706604,5.365503177291425,4.934750631307023,21.332625493045235,18.02138416563084,3.237724376958795e-05,0.0914128422737121,0,0,0
1769,58991.06382811925,2010-09-22 08:10:50,2881.4658271620315,2,6,0.5501165986061096,3.95391058921814,5.370089783021355,4.934750631307023,21.350756434949144,18.02138416563084,6.47544875391759e-05,0.0914128422737121,0,0,0
1770,59021.07873133535,2010-09-22 08:11:20,2911.480730348061,2,6,0.5499359965324402,3.955367565155029,5.374676210097662,4.934750631307023,21.36889412097684,18.02138416563084,3.237724376958795e-05,0.0914128422737121,0,0,0
1771,59051.09395350762,2010-09-22 08:11:50,2941.4959525453924,2,6,0.5499359965324402,3.956986427307129,5.379262746193673,4.934750631307023,21.387039737842304,18.02138416563084,3.237724376958795e-05,0.0914128422737121,0,0,0
1772,59081.10921863712,2010-09-22 08:12:20,2971.511217679901,2,6,0.5501165986061096,3.9587671756744394,5.38384932859892,4.934750631307023,21.40519304463392,18.02138416563084,6.47544875391759e-05,0.0914128422737121,0,0,0
1773,59111.124607360114,2010-09-22 08:12:50,3001.526606513181,2,6,0.5499359965324402,3.960386037826538,5.388435905778745,4.934750631307023,21.423354028212263,18.02138416563084,6.47544875391759e-05,0.0914128422737121,0,0,0
1774,59141.139894274,2010-09-22 08:13:20,3031.541893311767,2,6,0.5497553944587708,3.9620048999786377,5.393022375854756,4.934750631307023,21.44152233105649,18.02138416563084,3.237724376958795e-05,0.0914128422737121,0,0,0
1775,59171.15501051684,2010-09-22 08:13:50,3061.557009539581,2,6,0.5501165986061096,3.963947534561157,5.397608885394786,4.934750631307023,21.459698545667276,18.02138416563084,6.47544875391759e-05,0.0914128422737121,0,0,0
1776,59201.1704339515,2010-09-22 08:14:20,3091.5724329642067,2,6,0.5501165986061096,3.965404510498047,5.40219549005154,4.934750631307023,21.477883045297915,18.02138416563084,3.237724376958795e-05,0.0914128422737121,0,0,0
1777,59231.1856699583,2010-09-22 08:14:50,3121.5876689710085,2,6,0.5501165986061096,3.9673471450805664,5.406781983491885,4.934750631307023,21.49607505277017,18.02138416563084,3.237724376958795e-05,0.0914128422737121,0,0,0
1778,59261.201038145045,2010-09-22 08:15:20,3151.603037162764,2,6,0.5499359965324402,3.968966007232666,5.411368545428951,4.934750631307023,21.51427520900842,18.02138416563084,3.237724376958795e-05,0.0914128422737121,0,0,0
1779,59291.21607836312,2010-09-22 08:15:50,3181.618077375834,2,6,0.5499359965324402,3.970746755599976,5.415955064883286,4.934750631307023,21.53248334535573,18.02138416563084,3.237724376958795e-05,0.0914128422737121,0,0,0
1780,59321.23134529212,2010-09-22 08:16:20,3211.6333443048225,2,6,0.5501165986061096,3.972689390182495,5.4205415629264,4.934750631307023,21.55069954410136,18.02138416563084,6.47544875391759e-05,0.0914128422737121,0,0,0
1781,59351.24661710329,2010-09-22 08:16:50,3241.6486161260223,2,6,0.5504778623580933,3.9744701385498047,5.425128114062018,4.934750631307023,21.56892419147925,18.02138416563084,3.237724376958795e-05,0.0914128422737121,0,0,0
1782,59381.26189745578,2010-09-22 08:17:20,3271.6638964835297,2,6,0.5499359965324402,3.976089000701904,5.429714639286685,4.934750631307023,21.587157123828344,18.02138416563084,0.0,0.0914128422737121,0,0,0
1783,59411.27716273064,2010-09-22 08:17:50,3301.679161758389,2,6,0.5501165986061096,3.977869749069214,5.434301225001801,4.934750631307023,21.605398597730417,18.02138416563084,3.237724376958795e-05,0.0914128422737121,0,0,0
1784,59441.2924457147,2010-09-22 08:18:20,3331.6944447524784,2,6,0.550297200679779,3.980136156082153,5.43888770040729,4.934750631307023,21.62364803114984,18.02138416563084,6.47544875391759e-05,0.0914128422737121,0,0,0
1785,59471.30767419773,2010-09-22 08:18:50,3361.709673220462,2,6,0.550297200679779,3.981916904449463,5.443474137852781,4.934750631307023,21.64190625089628,18.02138416563084,6.47544875391759e-05,0.0914128422737121,0,0,0
1786,59501.3230070613,2010-09-22 08:19:20,3391.7250061692457,2,6,0.5501165986061096,3.983697652816773,5.448060675779034,4.934750631307023,21.660173580660764,18.02138416563084,6.47544875391759e-05,0.0914128422737121,0,0,0
1787,59531.33824230118,2010-09-22 08:19:50,3421.740241414145,2,6,0.5499359965324402,3.985640287399292,5.452647137541503,4.934750631307023,21.678449445268097,18.02138416563084,3.237724376958795e-05,0.0914128422737121,0,0,0
1788,59561.35347348595,2010-09-22 08:20:20,3451.75547251871,2,6,0.5501165986061096,3.987582921981812,5.457233626412058,4.934750631307023,21.69673440493396,18.02138416563084,3.237724376958795e-05,0.0914128422737121,0,0,0
1789,59591.368860725255,2010-09-22 08:20:50,3481.770859737961,2,6,0.5501165986061096,3.989687442779541,5.461820100065353,4.934750631307023,21.71502823415831,18.02138416563084,6.47544875391759e-05,0.0914128422737121,0,0,0
1790,59621.38416734331,2010-09-22 08:21:20,3511.7861663660447,2,6,0.5501165986061096,3.991630077362061,5.466406545279278,4.934750631307023,21.733331165940548,18.02138416563084,3.237724376958795e-05,0.0914128422737121,0,0,0
1791,59651.39927393206,2010-09-22 08:21:50,3541.8012729447737,2,6,0.5501165986061096,3.99373459815979,5.470992972039352,4.934750631307023,21.751643319381905,18.02138416563084,6.47544875391759e-05,0.0914128422737121,0,0,0
1792,59681.41453585355,2010-09-22 08:22:20,3571.816534886312,2,6,0.5499359965324402,3.995515108108521,5.475579446659267,4.934750631307023,21.769965030013253,18.02138416563084,0.0,0.0914128422737121,0,0,0
1793,59711.43115088761,2010-09-22 08:22:50,3601.8331499103533,2,6,0.5501165986061096,3.99778151512146,5.480166129252796,4.934750631307023,21.788297029511384,18.02138416563084,6.47544875391759e-05,0.0914128422737121,0,0,0
1794,59741.44506666392,2010-09-22 08:23:20,3631.8470656766312,2,6,0.5501165986061096,3.9998860359191895,5.484752422829821,4.934750631307023,21.80663688645294,18.02138416563084,6.47544875391759e-05,0.0914128422737121,0,0,0
1795,59771.46034305151,2010-09-22 08:23:50,3661.862342159467,2,6,0.5501165986061096,4.001990795135498,5.489338884803527,4.934750631307023,21.82498706697029,18.02138416563084,3.24249267578125e-05,0.0914128422737121,0,0,0
1796,59801.47565879736,2010-09-22 08:24:20,3691.877657810072,2,6,0.5501165986061096,4.004095077514648,5.493925323040479,4.934750631307023,21.8433468600592,18.02138416563084,6.47544875391759e-05,0.0914128422737121,0,0,0
1797,59831.49085842335,2010-09-22 08:24:51,3721.8928574460874,2,6,0.5501165986061096,4.006199836730957,5.49851176504964,4.934750631307023,21.86171649324336,18.02138416563084,6.47544875391759e-05,0.0914128422737121,0,0,0
1798,59861.50611474085,2010-09-22 08:25:21,3751.9081137485496,2,6,0.5499359965324402,4.0084662437438965,5.503098228827176,4.934750631307023,21.880096164890777,18.02138416563084,6.47544875391759e-05,0.0914128422737121,0,0,0
1799,59891.52136958969,2010-09-22 08:25:51,3781.923368602396,2,6,0.5499359965324402,4.010570526123047,5.507684595774243,4.934750631307023,21.89848535762513,18.02138416563084,3.23295607813634e-05,0.0914128422737121,0,0,0
1800,59921.53663898484,2010-09-22 08:26:21,3811.938638007565,2,6,0.5501165986061096,4.012836933135986,5.512271032598204,4.934750631307023,21.91688498741133,18.02138416563084,3.23295607813634e-05,0.0914128422737121,0,0,0
1801,59951.55189900156,2010-09-22 08:26:51,3841.953898014274,2,6,0.5501165986061096,4.015103340148926,5.51685751096241,4.934750631307023,21.93529491878052,18.02138416563084,6.47544875391759e-05,0.0914128422737121,0,0,0
1802,59981.56717927887,2010-09-22 08:27:21,3871.969178301608,2,6,0.5501165986061096,4.017208099365234,5.521443980975953,4.934750631307023,21.95371498693305,18.02138416563084,3.24249267578125e-05,0.0914128422737121,0,0,0
1803,60011.582435887096,2010-09-22 08:27:51,3901.984434909833,2,6,0.550297200679779,4.019474506378174,5.526030549275146,4.934750631307023,21.97214571558045,18.02138416563084,6.47544875391759e-05,0.0914128422737121,0,0,0
1804,60041.59771578847,2010-09-22 08:28:21,3931.999714796164,2,6,0.5501165986061096,4.021740913391113,5.530616968645178,4.934750631307023,21.99058621862606,18.02138416563084,6.47544875391759e-05,0.0914128422737121,0,0,0
1805,60071.61308756417,2010-09-22 08:28:51,3962.015086581891,2,6,0.5501165986061096,4.024168968200684,5.535203414026918,4.934750631307023,22.00903733462686,18.02138416563084,6.47544875391759e-05,0.0914128422737121,0,0,0
1806,60101.62979585602,2010-09-22 08:29:21,3992.03179486873,2,6,0.5501165986061096,4.026435375213623,5.539790103456834,4.934750631307023,22.02749989891258,18.02138416563084,6.47544875391759e-05,0.0914128422737121,0,0,0
1807,60131.64352792877,2010-09-22 08:29:51,4022.0455270367183,2,6,0.5501165986061096,4.0287017822265625,5.544376314637074,4.934750631307023,22.045971152686956,18.02138416563084,3.23295607813634e-05,0.0914128422737121,0,0,0
1808,60161.65876782027,2010-09-22 08:30:21,4052.060766843004,2,6,0.5499359965324402,4.030968189239502,5.548962719270397,4.934750631307023,22.06445381220715,18.02138416563084,3.23295607813634e-05,0.0914128422737121,0,0,0
1809,60191.67415105958,2010-09-22 08:30:51,4082.076150082321,2,6,0.5499359965324402,4.033396720886231,5.55354908263351,4.934750631307023,22.082947099226587,18.02138416563084,6.47544875391759e-05,0.0914128422737121,0,0,0
1810,60221.68950980276,2010-09-22 08:31:21,4112.091508815466,2,6,0.5501165986061096,4.035824775695801,5.558135556456489,4.934750631307023,22.101451727061008,18.02138416563084,9.71794142969884e-05,0.0914128422737121,0,0,0
1811,60251.704720596616,2010-09-22 08:31:51,4142.106719619357,2,6,0.5501165986061096,4.03809118270874,5.562722030450253,4.934750631307023,22.119967361011973,18.02138416563084,3.24249267578125e-05,0.0914128422737121,0,0,0
1812,60281.719822238025,2010-09-22 08:32:21,4172.121821280813,2,6,0.5501165986061096,4.040519237518311,5.56730846622388,4.934750631307023,22.138493892140065,18.02138416563084,3.23295607813634e-05,0.0914128422737121,0,0,0
1813,60311.735210946,2010-09-22 08:32:51,4202.13721004893,2,6,0.550297200679779,4.043271541595459,5.571894876119004,4.934750631307023,22.15703153697217,18.02138416563084,9.71794142969884e-05,0.0914128422737121,0,0,0
1814,60341.75049654659,2010-09-22 08:33:21,4232.1524955593,2,6,0.5501165986061096,4.045699596405029,5.576481344061161,4.934750631307023,22.175580779240143,18.02138416563084,9.70840483205393e-05,0.0914128422737121,0,0,0
1815,60371.76562871419,2010-09-22 08:33:51,4262.167627756979,2,6,0.5499359965324402,4.048128128051758,5.581067790292196,4.934750631307023,22.19414134773985,18.02138416563084,9.71794142969884e-05,0.0914128422737121,0,0,0
1816,60401.78088843518,2010-09-22 08:34:21,4292.182887442886,2,6,0.5501165986061096,4.050556182861328,5.585654272189545,4.934750631307023,22.21271357467171,18.02138416563084,3.23295607813634e-05,0.0914128422737121,0,0,0
1817,60431.796157213794,2010-09-22 08:34:51,4322.198156326754,2,6,0.5499359965324402,4.053146362304688,5.590240715272043,4.934750631307023,22.23129720962265,18.02138416563084,9.70840483205393e-05,0.0914128422737121,0,0,0
1818,60461.81144579683,2010-09-22 08:35:21,4352.213444804532,2,6,0.5501165986061096,4.055736541748047,5.594827222412405,4.934750631307023,22.24989282696593,18.02138416563084,6.47544875391759e-05,0.0914128422737121,0,0,0
1819,60491.82685669518,2010-09-22 08:35:51,4382.228855717926,2,6,0.5499359965324402,4.058165073394775,5.599413787932335,4.934750631307023,22.26850056116121,18.02138416563084,3.24249267578125e-05,0.0914128422737121,0,0,0
1820,60521.84203303305,2010-09-22 08:36:21,4412.244032140999,2,6,0.5499359965324402,4.060755252838135,5.603999841897698,4.934750631307023,22.28711806543777,18.02138416563084,3.24249267578125e-05,0.0914128422737121,0,0,0
1821,60551.85721599244,2010-09-22 08:36:51,4442.259215005147,2,6,0.5499359965324402,4.063507080078125,5.608585297690754,4.934750631307023,22.305744624098395,18.02138416563084,6.47544875391759e-05,0.0914128422737121,0,0,0
1822,60581.87264456492,2010-09-22 08:37:21,4472.274643682885,2,6,0.5501165986061096,4.066097259521484,5.613171144742617,4.934750631307023,22.32438512347765,18.02138416563084,6.47544875391759e-05,0.0914128422737121,0,0,0
1823,60611.88788096269,2010-09-22 08:37:51,4502.289880000463,2,6,0.5501165986061096,4.068849563598633,5.617757548196664,4.934750631307023,22.34304037526804,18.02138416563084,6.47544875391759e-05,0.0914128422737121,0,0,0
1824,60641.90303739085,2010-09-22 08:38:21,4532.3050363985485,2,6,0.5501165986061096,4.071601390838623,5.622343994247555,4.934750631307023,22.36170822245221,18.02138416563084,9.70840483205393e-05,0.0914128422737121,0,0,0
1825,60671.91832504658,2010-09-22 08:38:51,4562.320324059287,2,6,0.5501165986061096,4.074353694915772,5.626930412750174,4.934750631307023,22.38038848472199,18.02138416563084,9.71794142969884e-05,0.0914128422737121,0,0,0
1826,60701.93358160467,2010-09-22 08:39:21,4592.335580612375,2,6,0.5501165986061096,4.076943874359131,5.631516890999215,4.934750631307023,22.3990817185958,18.02138416563084,3.24249267578125e-05,0.0914128422737121,0,0,0
1827,60731.94884971662,2010-09-22 08:39:51,4622.350848729328,2,6,0.5499359965324402,4.07985782623291,5.636103306362092,4.934750631307023,22.417787489551763,18.02138416563084,6.47544875391759e-05,0.0914128422737121,0,0,0
1828,60761.9641016582,2010-09-22 08:40:21,4652.366100665893,2,6,0.5501165986061096,4.0826096534729,5.640689765124703,4.934750631307023,22.43650625470655,18.02138416563084,6.47544875391759e-05,0.0914128422737121,0,0,0
1829,60791.97948883233,2010-09-22 08:40:51,4682.381487845044,2,6,0.5499359965324402,4.085361957550049,5.645276187423107,4.934750631307023,22.45523785776344,18.02138416563084,0.0,0.0914128422737121,0,0,0
1830,60821.99476611717,2010-09-22 08:41:21,4712.396765129882,2,6,0.550297200679779,4.088599681854248,5.649862658402378,4.934750631307023,22.47398278928729,18.02138416563084,0.0001295089750783,0.0914128422737121,0,0,0
1831,60852.009898786026,2010-09-22 08:41:51,4742.411897798736,2,6,0.5501165986061096,4.091351509094238,5.654449104267726,4.934750631307023,22.49274085360256,18.02138416563084,6.47544875391759e-05,0.0914128422737121,0,0,0
1832,60882.02518971492,2010-09-22 08:42:21,4772.427188722619,2,6,0.5501165986061096,4.094265460968018,5.659035566884584,4.934750631307023,22.51151225633304,18.02138416563084,9.70840483205393e-05,0.0914128422737121,0,0,0
1833,60912.0408695947,2010-09-22 08:42:51,4802.442868662546,2,6,0.5501165986061096,4.097341537475586,5.663622046565974,4.934750631307023,22.530297199263646,18.02138416563084,0.0001295089750783,0.0914128422737121,0,0,0
1834,60942.05571228974,2010-09-22 08:43:21,4832.457711307456,2,6,0.5501165986061096,4.100093364715576,5.668208374074264,4.934750631307023,22.549095157386372,18.02138416563084,6.47544875391759e-05,0.0914128422737121,0,0,0
1835,60972.07095794562,2010-09-22 08:43:51,4862.4729569583305,2,6,0.5501165986061096,4.1031694412231445,5.672794762234698,4.934750631307023,22.567907044036893,18.02138416563084,6.47544875391759e-05,0.0914128422737121,0,0,0
1836,61002.0862251904,2010-09-22 08:44:21,4892.488224198095,2,6,0.5497553944587708,4.106083393096924,5.677381106613528,4.934750631307023,22.5867326844748,18.02138416563084,3.24249267578125e-05,0.0914128422737121,0,0,0
1837,61032.10149328229,2010-09-22 08:44:51,4922.503492325073,2,6,0.5501165986061096,4.109321117401123,5.68196759154423,4.934750631307023,22.60557290988904,18.02138416563084,9.71794142969884e-05,0.0914128422737121,0,0,0
1838,61062.11679389536,2010-09-22 08:45:21,4952.5187930083175,2,6,0.5501165986061096,4.112396717071533,5.686553995328297,4.934750631307023,22.62442692994168,18.02138416563084,9.70840483205393e-05,0.0914128422737121,0,0,0
1839,61092.1320513156,2010-09-22 08:45:51,4982.534050358394,2,6,0.5501165986061096,4.115634441375732,5.691140427313312,4.934750631307023,22.64329522314137,18.02138416563084,0.0001295089750783,0.0914128422737121,0,0,0
1840,61122.14729528228,2010-09-22 08:46:21,5012.54929439524,2,6,0.5499359965324402,4.118548393249512,5.695726882186909,4.934750631307023,22.66217800669759,18.02138416563084,3.24249267578125e-05,0.0914128422737121,0,0,0
1841,61152.1626802459,2010-09-22 08:46:51,5042.564679268636,2,6,0.5501165986061096,4.121786117553711,5.700313356336197,4.934750631307023,22.681075356073777,18.02138416563084,6.47544875391759e-05,0.0914128422737121,0,0,0
1842,61182.178053906304,2010-09-22 08:47:21,5072.580052939067,2,6,0.5499359965324402,4.124861717224121,5.704899835455509,4.934750631307023,22.69998730784367,18.02138416563084,6.47544875391759e-05,0.0914128422737121,0,0,0
1843,61212.193085898856,2010-09-22 08:47:51,5102.595084921593,2,6,0.5501165986061096,4.12842321395874,5.70948618760236,4.934750631307023,22.718913456393363,18.02138416563084,9.70840483205393e-05,0.0914128422737121,0,0,0
1844,61242.20834593565,2010-09-22 08:48:21,5132.610344948352,2,6,0.550297200679779,4.13166093826294,5.71407299381979,4.934750631307023,22.737856315947177,18.02138416563084,0.0001295089750783,0.0914128422737121,0,0,0
1845,61272.22361486463,2010-09-22 08:48:51,5162.625613877332,2,6,0.550297200679779,4.134898662567139,5.718660271809179,4.934750631307023,22.75681602291823,18.02138416563084,0.0001295089750783,0.0914128422737121,0,0,0
1846,61302.2389599487,2010-09-22 08:49:21,5192.6409589814575,2,6,0.5501165986061096,4.138136386871338,5.723247113282599,4.934750631307023,22.775789060215324,18.02138416563084,0.0001295089750783,0.0914128422737121,0,0,0
1847,61332.25429477717,2010-09-22 08:49:51,5222.656293794896,2,6,0.5504778623580933,4.141536235809326,5.72783360580577,4.934750631307023,22.79477592855753,18.02138416563084,0.0001295089750783,0.0914128422737121,0,0,0
1848,61362.26943589712,2010-09-22 08:50:21,5252.671434914845,2,6,0.5501165986061096,4.144935607910156,5.732420036808806,4.934750631307023,22.813777881267725,18.02138416563084,0.0001295089750783,0.0914128422737121,0,0,0
1849,61392.28469379858,2010-09-22 08:50:51,5282.686692831337,2,6,0.5501165986061096,4.1483354568481445,5.737006462993734,4.934750631307023,22.83279563664613,18.02138416563084,9.71794142969884e-05,0.0914128422737121,0,0,0
1850,61422.29997473753,2010-09-22 08:51:21,5312.701973735208,2,6,0.5501165986061096,4.151573181152344,5.74159284312115,4.934750631307023,22.851828706104424,18.02138416563084,6.47544875391759e-05,0.0914128422737121,0,0,0
1851,61452.31522666408,2010-09-22 08:51:51,5342.717225676785,2,6,0.5499359965324402,4.155134677886963,5.746179292738258,4.934750631307023,22.870877807146183,18.02138416563084,9.71794142969884e-05,0.0914128422737121,0,0,0
1852,61482.33065768767,2010-09-22 08:52:21,5372.732656710404,2,6,0.550297200679779,4.158696174621582,5.750765651964198,4.934750631307023,22.889942362914045,18.02138416563084,9.71794142969884e-05,0.0914128422737121,0,0,0
1853,61512.34582423108,2010-09-22 08:52:51,5402.747823258826,2,6,0.5499359965324402,4.161933898925781,5.755352050461084,4.934750631307023,22.90902307656099,18.02138416563084,9.71794142969884e-05,0.0914128422737121,0,0,0
1854,61542.36112793186,2010-09-22 08:53:21,5432.763126944566,2,6,0.5501165986061096,4.1654953956604,5.759938480433549,4.934750631307023,22.928120003098147,18.02138416563084,6.47544875391759e-05,0.0914128422737121,0,0,0
1855,61572.37642022917,2010-09-22 08:53:51,5462.77841924689,2,6,0.550297200679779,4.16905689239502,5.764524838834321,4.934750631307023,22.9472327978681,18.02138416563084,6.47544875391759e-05,0.0914128422737121,0,0,0
1856,61602.39155193562,2010-09-22 08:54:21,5492.793550953342,2,6,0.550297200679779,4.1727800369262695,5.769111175403504,4.934750631307023,22.966361763646056,18.02138416563084,9.70840483205393e-05,0.0914128422737121,0,0,0
1857,61632.4068431001,2010-09-22 08:54:51,5522.808842112812,2,6,0.5497553944587708,4.176179885864258,5.773697607641219,4.934750631307023,22.98550752728699,18.02138416563084,9.71794142969884e-05,0.0914128422737121,0,0,0
1858,61662.42209784367,2010-09-22 08:55:21,5552.824096856383,2,6,0.5501165986061096,4.179741382598877,5.778284045206307,4.934750631307023,23.004669773319517,18.02138416563084,6.47544875391759e-05,0.0914128422737121,0,0,0
1859,61692.437365614765,2010-09-22 08:55:51,5582.839364742761,2,6,0.550297200679779,4.183464527130127,5.782870486041873,4.934750631307023,23.023848700422786,18.02138416563084,6.47544875391759e-05,0.0914128422737121,0,0,0
1860,61722.45264567152,2010-09-22 08:56:21,5612.854644699269,2,6,0.5499359965324402,4.187349796295166,5.787456957842452,4.934750631307023,23.043044604063404,18.02138416563084,0.0001295089750783,0.0914128422737121,0,0,0
1861,61752.4678840342,2010-09-22 08:56:52,5642.869883046913,2,6,0.5501165986061096,4.190911293029785,5.792043380184699,4.934750631307023,23.06225731146963,18.02138416563084,9.70840483205393e-05,0.0914128422737121,0,0,0
1862,61782.48316246189,2010-09-22 08:57:22,5672.8851614746045,2,6,0.5501165986061096,4.194634914398193,5.796629792255166,4.934750631307023,23.081487039459976,18.02138416563084,0.0001295089750783,0.0914128422737121,0,0,0
1863,61812.49841356136,2010-09-22 08:57:52,5702.900412574079,2,6,0.5501165986061096,4.198358058929443,5.801216204630451,4.934750631307023,23.100733944880417,18.02138416563084,0.0001295089750783,0.0914128422737121,0,0,0
1864,61824.93580194622,2010-09-22 08:58:04,5715.337800958932,2,6,0.5501165986061096,4.200138568878174,5.803116664110058,4.934750631307023,23.10871435962464,18.02138416563084,0.0001295089750783,0.0914128422737121,0,0,0
1865,61854.95207393342,2010-09-22 08:58:34,30.015210753766137,3,6,0.0,4.116281986236572,5.803116664110058,4.934750631307023,23.10871435962464,18.02138416563084,-0.0003561019839253,0.0914128422737121,0,0,0
1866,61884.9673221908,2010-09-22 08:59:04,60.03045901114706,3,6,0.0,4.105759620666504,5.803116664110058,4.934750631307023,23.10871435962464,18.02138416563084,-0.0002265930233988,0.0914128422737121,0,0,0
1867,61914.98259083907,2010-09-22 08:59:34,90.04572768950187,3,6,0.0,4.0992841720581055,5.803116664110058,4.934750631307023,23.10871435962464,18.02138416563084,-0.0001618385285837,0.0914128422737121,0,0,0
1868,61944.95097740747,2010-09-22 09:00:04,120.0141142578976,3,6,0.0,4.095398902893066,5.803116664110058,4.934750631307023,23.10871435962464,18.02138416563084,-6.47544875391759e-05,0.0914128422737121,0,0,0
1869,61944.96524294872,2010-09-22 09:00:04,0.015638255491592,4,6,1.0012786388397217,4.199653148651123,5.803121013624481,4.934750631307023,23.108732626076584,18.02138416563084,0.0,0.0914128422737121,0,0,0
1870,61945.88723839119,2010-09-22 09:00:05,0.93763369796145,4,6,0.9512498378753662,4.199814796447754,5.803369453809162,4.934750631307023,23.109776008071016,18.02138416563084,3.23295607813634e-05,0.0914128422737121,0,0,0
1871,61948.02771692993,2010-09-22 09:00:07,3.078112246723552,4,6,0.9006792306900024,4.199814796447754,5.803918866853187,4.934750631307023,23.112083407574136,18.02138416563084,3.23295607813634e-05,0.0914128422737121,0,0,0
1872,61951.19952851962,2010-09-22 09:00:11,6.24992382639743,4,6,0.8504698276519775,4.199814796447754,5.80468908063635,4.934750631307023,23.115318121020746,18.02138416563084,0.0,0.0914128422737121,0,0,0
1873,61955.44948493468,2010-09-22 09:00:15,10.499880266511408,4,6,0.800079882144928,4.199653148651123,5.805662156007819,4.934750631307023,23.119404802194257,18.02138416563084,0.0,0.0914128422737121,0,0,0
1874,61960.98065885573,2010-09-22 09:00:20,16.03105416250564,4,6,0.7500510811805725,4.199814796447754,5.806851630393385,4.934750631307023,23.124400319080927,18.02138416563084,3.23295607813634e-05,0.0914128422737121,0,0,0
1875,61968.02754845631,2010-09-22 09:00:27,23.077943763085543,4,6,0.7000223398208618,4.199814796447754,5.808269043537369,4.934750631307023,23.130353132331432,18.02138416563084,0.0,0.0914128422737121,0,0,0
1876,61977.46486833864,2010-09-22 09:00:37,32.51526364540719,4,6,0.6498129367828369,4.199814796447754,5.810035620273332,4.934750631307023,23.13777236996619,18.02138416563084,0.0,0.0914128422737121,0,0,0
1877,61990.32420438477,2010-09-22 09:00:50,45.37459969655024,4,6,0.599603533744812,4.199653148651123,5.812262578854893,4.934750631307023,23.14712509910107,18.02138416563084,-3.23295607813634e-05,0.0914128422737121,0,0,0
1878,62009.433229145405,2010-09-22 09:01:09,64.4836245424155,4,6,0.5495747923851013,4.199653148651123,5.815304235992613,4.934750631307023,23.159899417676986,18.02138416563084,-3.23295607813634e-05,0.0914128422737121,0,0,0
1879,62041.120512279085,2010-09-22 09:01:40,96.1709076861088,4,6,0.4995460212230682,4.199814796447754,5.819902527243285,4.934750631307023,23.17921124188833,18.02138416563084,-3.24249267578125e-05,0.0914128422737121,0,0,0
1880,62097.34091115397,2010-09-22 09:02:37,152.39130655598012,4,6,0.4495172500610351,4.199814796447754,5.827280658409437,4.934750631307023,23.21019781719633,18.02138416563084,3.23295607813634e-05,0.0914128422737121,0,0,0
1881,62188.181191022944,2010-09-22 09:04:07,243.2315863547856,4,6,0.3993078768253326,4.199653148651123,5.837963699786174,4.934750631307023,23.25506418939181,18.02138416563084,0.0,0.0914128422737121,0,0,0
1882,62305.72650849926,2010-09-22 09:06:05,360.7769038060389,4,6,0.3492791056632995,4.199814796447754,5.850173171119232,4.934750631307023,23.306341165751185,18.02138416563084,0.0,0.0914128422737121,0,0,0
1883,62446.36565180776,2010-09-22 09:08:26,501.4160471395907,4,6,0.299069732427597,4.199653148651123,5.8628251765939,4.934750631307023,23.35947682364659,18.02138416563084,0.0,0.0914128422737121,0,0,0
1884,62617.082231750384,2010-09-22 09:11:16,672.1326270872293,4,6,0.2490409463644027,4.199814796447754,5.875798163932346,4.934750631307023,23.41396064605337,18.02138416563084,0.0,0.0914128422737121,0,0,0
1885,62828.22029928472,2010-09-22 09:14:48,883.2706945914995,4,6,0.1990121752023697,4.199653148651123,5.88889192777262,4.934750631307023,23.468951627101852,18.02138416563084,0.0,0.0914128422737121,0,0,0
1886,63107.513877604455,2010-09-22 09:19:27,1162.5642729112285,4,6,0.1489834040403366,4.199814796447754,5.902313147350196,4.934750631307023,23.525317830143585,18.02138416563084,3.23295607813634e-05,0.0914128422737121,0,0,0
1887,63517.79018679664,2010-09-22 09:26:17,1572.8405821084168,4,6,0.0989546403288841,4.199814796447754,5.916258895335666,4.934750631307023,23.58388678389177,18.02138416563084,3.23295607813634e-05,0.0914128422737121,0,0,0
1888,64256.40638028885,2010-09-22 09:38:36,2311.456775595622,4,6,0.0498289167881011,4.199653148651123,5.930959473759017,4.934750631307023,23.64562587496841,18.02138416563084,-3.23295607813634e-05,0.0914128422737121,0,0,0
1889,64286.42052705188,2010-09-22 09:39:06,30.01526333501702,5,6,0.0,4.192044734954834,5.930959473759017,4.934750631307023,23.64562587496841,18.02138416563084,0.0,0.0914128422737121,0,0,0
1890,64316.42028331386,2010-09-22 09:39:36,60.01501959699403,5,6,0.0,4.190749645233154,5.930959473759017,4.934750631307023,23.64562587496841,18.02138416563084,-3.23295607813634e-05,0.0914128422737121,0,0,0
1891,64316.60717593356,2010-09-22 09:39:36,0.187414219725391,6,6,0.002509286860004,4.191558837890625,5.930959604391252,4.934750631307023,23.645626422521104,18.02138416563084,0.0,0.0917440429329872,0,0,0
1892,64321.43525611949,2010-09-22 09:39:41,5.015494380588469,6,6,0.0007031940040178,4.190749645233154,5.93096050656944,4.934750631307023,23.645630203447222,18.02138416563084,-3.23295607813634e-05,0.0917440429329872,0,0,0
1893,64351.450155551225,2010-09-22 09:40:11,30.01525160573894,7,6,-1.099568486213684,4.0163984298706055,5.93096050656944,4.943918521609081,23.645630203447222,18.05840477957545,-0.0009065627818927,0.0917440429329872,0,0,0
1894,64381.465420620574,2010-09-22 09:40:41,60.03051668009763,7,6,-1.099568486213684,3.989039897918701,5.93096050656944,4.953086410664822,23.645630203447222,18.095091413885697,-0.0005827903514727,0.0917440429329872,0,0,0
1895,64411.48098023515,2010-09-22 09:41:11,90.04607638991175,7,6,-1.099568486213684,3.9702610969543457,5.93096050656944,4.962254330507828,23.645630203447222,18.131571881280813,-0.0004532813909463,0.0917440429329872,0,0,0
1896,64441.49596828802,2010-09-22 09:41:41,120.06106434754446,7,6,-1.0997490882873535,3.956015110015869,5.93096050656944,4.971422037002806,23.645630203447222,18.16790215818278,-0.0003237724304199,0.0917440429329872,0,0,0
1897,64471.51122056544,2010-09-22 09:42:11,150.07631662496,7,6,-1.0997490882873535,3.943873643875122,5.93096050656944,4.980589806714284,23.645630203447222,18.204112868988588,-0.0003237724304199,0.0917440429329872,0,0,0
1898,64501.52649190042,2010-09-22 09:42:41,180.09158795994617,7,6,-1.099568486213684,3.9333510398864746,5.93096050656944,4.989757597612718,23.645630203447222,18.240220713598884,-0.0002590179501567,0.0917440429329872,0,0,0
1899,64531.54188550562,2010-09-22 09:43:11,210.10698159521263,7,6,-1.0997490882873535,3.923475980758667,5.93096050656944,4.998925422149069,23.645630203447222,18.276235889363967,-0.0002590179501567,0.0917440429329872,0,0,0
1900,64561.55725636402,2010-09-22 09:43:41,240.1223524435996,7,6,-1.099568486213684,3.914410352706909,5.93096050656944,5.00809324688387,23.645630203447222,18.31216473134524,-0.0002590179501567,0.0917440429329872,0,0,0
1901,64591.57231393042,2010-09-22 09:44:11,270.13741008016166,7,6,-1.099568486213684,3.90583062171936,5.93096050656944,5.017260952014667,23.645630203447222,18.34801110420626,-0.0001942634553415,0.0917440429329872,0,0,0
1902,64621.58774486879,2010-09-22 09:44:41,300.15284093332974,7,6,-1.099568486213684,3.8970887660980233,5.93096050656944,5.02642881109329,23.645630203447222,18.38377875493312,-0.0001942634553415,0.0917440429329872,0,0,0
1903,64651.60296034936,2010-09-22 09:45:11,330.1680564088822,7,6,-1.099568486213684,3.8888325691223145,5.93096050656944,5.035596576652712,23.645630203447222,18.41946913896576,-0.0002590179501567,0.0917440429329872,0,0,0
1904,64681.61810596052,2010-09-22 09:45:41,360.1832020200424,7,6,-1.099568486213684,3.880738258361816,5.93096050656944,5.044764351234359,23.645630203447222,18.45508441051353,-0.0002266406954731,0.0917440429329872,0,0,0
1905,64711.633487906605,2010-09-22 09:46:11,390.19858397114336,7,6,-1.099568486213684,3.872805833816528,5.93096050656944,5.053932223202447,23.645630203447222,18.49062656357447,-0.0002266406954731,0.0917440429329872,0,0,0
1906,64741.64869107143,2010-09-22 09:46:41,420.2137871309537,7,6,-1.099568486213684,3.86503529548645,5.93096050656944,5.063100024719226,23.645630203447222,18.526095882924736,-0.0001618862152099,0.0917440429329872,0,0,0
1907,64771.66402155406,2010-09-22 09:47:11,450.2291176135816,7,6,-1.099568486213684,3.857102870941162,5.93096050656944,5.072267885937131,23.645630203447222,18.561493854958872,-0.0002266406954731,0.0917440429329872,0,0,0
1908,64801.6791765336,2010-09-22 09:47:41,480.2442725881142,7,6,-1.099929690361023,3.849494218826294,5.93096050656944,5.081435705224257,23.645630203447222,18.596821267301667,-0.0002266406954731,0.0917440429329872,0,0,0
1909,64831.694457041485,2010-09-22 09:48:11,510.2595531260724,7,6,-1.099568486213684,3.842047452926636,5.93096050656944,5.090603588393404,23.645630203447222,18.63207981573814,-0.0002266406954731,0.0917440429329872,0,0,0
1910,64861.70970015102,2010-09-22 09:48:41,540.2747962155535,7,6,-1.099568486213684,3.8349244594573975,5.93096050656944,5.099771432667808,23.645630203447222,18.66727048143033,-0.0001618862152099,0.0917440429329872,0,0,0
1911,64891.72496786196,2010-09-22 09:49:11,570.2900639164684,7,6,-1.0997490882873535,3.827639818191528,5.93096050656944,5.108939247396293,23.645630203447222,18.70239473880791,-0.0001618862152099,0.0917440429329872,0,0,0
1912,64921.74025767306,2010-09-22 09:49:41,600.3053537325864,7,6,-1.099568486213684,3.82035493850708,5.93096050656944,5.118107108887157,23.645630203447222,18.737453589056827,-0.0002590179501567,0.0917440429329872,0,0,0
1913,64951.75550649686,2010-09-22 09:50:11,630.3206025513687,7,6,-1.099568486213684,3.8135557174682617,5.93096050656944,5.127275033112891,23.645630203447222,18.772448012600268,-0.0001942634553415,0.0917440429329872,0,0,0
1914,64981.77079282427,2010-09-22 09:50:41,660.3358889690033,7,6,-1.099568486213684,3.8067564964294434,5.93096050656944,5.136442857148681,23.645630203447222,18.80737795770457,-0.0001942634553415,0.0917440429329872,0,0,0
1915,65011.78628787769,2010-09-22 09:51:11,690.3513839322001,7,6,-1.0993878841400146,3.799957275390625,5.93096050656944,5.145610755799912,23.645630203447222,18.84224589159652,-0.0001618862152099,0.0917440429329872,0,0,0
1916,65041.80134065211,2010-09-22 09:51:41,720.3664367116379,7,6,-1.099568486213684,3.7933199405670166,5.93096050656944,5.154778544873791,23.645630203447222,18.877052429455897,-0.0001618862152099,0.0917440429329872,0,0,0
1917,65071.81658387192,2010-09-22 09:52:11,750.3816799264317,7,6,-1.099568486213684,3.786844491958618,5.93096050656944,5.163946387581277,23.645630203447222,18.911799582487173,-0.0001618862152099,0.0917440429329872,0,0,0
1918,65101.83184684102,2010-09-22 09:52:41,780.3969428955354,7,6,-1.0997490882873535,3.7805309295654297,5.93096050656944,5.173114257978287,23.645630203447222,18.94648859542225,-0.0001942634553415,0.0917440429329872,0,0,0
1919,65131.84710773495,2010-09-22 09:53:12,810.412203789459,7,6,-1.0997490882873535,3.774379253387451,5.93096050656944,5.182282076692133,23.645630203447222,18.98112039581512,-0.0001942634553415,0.0917440429329872,0,0,0
1920,65161.862326283175,2010-09-22 09:53:42,840.427422342694,7,6,-1.0993878841400146,3.7683894634246826,5.93096050656944,5.191449879773459,23.645630203447222,19.015695928442955,-0.0001618862152099,0.0917440429329872,0,0,0
1921,65191.8776368962,2010-09-22 09:54:12,870.442732955724,7,6,-1.099568486213684,3.762399673461914,5.93096050656944,5.200617535158854,23.645630203447222,19.050215220458835,-0.0001618862152099,0.0917440429329872,0,0,0
1922,65221.89291421612,2010-09-22 09:54:42,900.4580102756496,7,6,-1.0997490882873535,3.7564098834991455,5.93096050656944,5.209785129038449,23.645630203447222,19.084680015686093,-0.0001618862152099,0.0917440429329872,0,0,0
1923,65251.90820541069,2010-09-22 09:55:12,930.4733014702084,7,6,-1.099568486213684,3.750744104385376,5.93096050656944,5.218952763576924,23.645630203447222,19.119091692604584,-0.0001295089750783,0.0917440429329872,0,0,0
1924,65281.92338512196,2010-09-22 09:55:42,960.4884811764751,7,6,-1.099568486213684,3.7450780868530273,5.93096050656944,5.228120291103806,23.645630203447222,19.15345048803133,-9.713172767078504e-05,0.0917440429329872,0,0,0
1925,65311.93870918858,2010-09-22 09:56:12,990.5038052481002,7,6,-1.099568486213684,3.739412069320679,5.93096050656944,5.23728818863253,23.645630203447222,19.18775906966013,-0.0001618862152099,0.0917440429329872,0,0,0
1926,65341.95397530053,2010-09-22 09:56:42,1020.5190713600488,7,6,-1.0993878841400146,3.73406982421875,5.93096050656944,5.246455994869706,23.645630203447222,19.22201665705053,-0.0001295089750783,0.0917440429329872,0,0,0
1927,65371.9692552069,2010-09-22 09:57:12,1050.5343513867308,7,6,-1.0993878841400146,3.7288894653320312,5.93096050656944,5.255623827692324,23.645630203447222,19.256224806065827,-6.47544875391759e-05,0.0917440429329872,0,0,0
1928,65401.98702816634,2010-09-22 09:57:42,1080.5521243160815,7,6,-1.0997490882873535,3.7233853340148926,5.93096050656944,5.264792497596578,23.645630203447222,19.290388067648763,-0.0001295089750783,0.0917440429329872,0,0,0
1929,65431.99983331033,2010-09-22 09:58:12,1110.5649294650875,7,6,-1.099568486213684,3.718366861343384,5.93096050656944,5.27395965938979,23.645630203447222,19.32449776997061,-9.713172767078504e-05,0.0917440429329872,0,0,0
1930,65462.01508266545,2010-09-22 09:58:42,1140.5801787249711,7,6,-1.099568486213684,3.713186502456665,5.93096050656944,5.283127543756772,23.645630203447222,19.358562763795767,-0.0001295089750783,0.0917440429329872,0,0,0
1931,65492.03045099254,2010-09-22 09:59:12,1170.5955470570773,7,6,-1.099568486213684,3.7080061435699454,5.93096050656944,5.292295481930042,23.645630203447222,19.39258106033155,-0.0001295089750783,0.0917440429329872,0,0,0
1932,65522.04560780667,2010-09-22 09:59:42,1200.6107038661892,7,6,-1.0997490882873535,3.703149557113648,5.93096050656944,5.301463400894349,23.645630203447222,19.426553237958597,-0.0001295089750783,0.0917440429329872,0,0,0
1933,65552.06085718685,2010-09-22 10:00:12,1230.6259532463728,7,6,-1.0997490882873535,3.6979691982269287,5.93096050656944,5.310631372232751,23.645630203447222,19.46048033193248,-0.0001618862152099,0.0917440429329872,0,0,0
1934,65582.07612655693,2010-09-22 10:00:42,1260.6412226114417,7,6,-1.099568486213684,3.69327449798584,5.93096050656944,5.319799303023554,23.645630203447222,19.4943632484317,-0.0001618862152099,0.0917440429329872,0,0,0
1935,65612.09152454807,2010-09-22 10:01:12,1290.656620702831,7,6,-1.099568486213684,3.688741683959961,5.93096050656944,5.328967331438407,23.645630203447222,19.528202522979463,-0.0001295089750783,0.0917440429329872,0,0,0
1936,65642.10682460977,2010-09-22 10:01:42,1320.6719206793111,7,6,-1.0997490882873535,3.683723211288452,5.93096050656944,5.338135219835744,23.645630203447222,19.561997764863765,-0.0001618862152099,0.0917440429329872,0,0,0
1937,65672.1220871929,2010-09-22 10:02:12,1350.6871832774889,7,6,-1.099568486213684,3.679190397262573,5.93096050656944,5.347303127007761,23.645630203447222,19.595750204571942,-0.0001295089750783,0.0917440429329872,0,0,0
1938,65702.13732424732,2010-09-22 10:02:42,1380.7024203118551,7,6,-1.0993878841400146,3.6746575832366943,5.93096050656944,5.35647105871931,23.645630203447222,19.62946083455197,-0.0001295089750783,0.0917440429329872,0,0,0
1939,65732.15245758786,2010-09-22 10:03:12,1410.7175536423613,7,6,-1.099568486213684,3.670286893844605,5.93096050656944,5.36563899793601,23.645630203447222,19.663129954571,-9.713172767078504e-05,0.0917440429329872,0,0,0
1940,65762.16773209075,2010-09-22 10:03:42,1440.732828265555,7,6,-1.099568486213684,3.6657540798187256,5.93096050656944,5.374807019226381,23.645630203447222,19.696758685112723,-0.0001295089750783,0.0917440429329872,0,0,0
1941,65792.1829789747,2010-09-22 10:04:12,1470.7480750292077,7,6,-1.0997490882873535,3.6613831520080566,5.93096050656944,5.383974996773504,23.645630203447222,19.730347565648497,-0.0001295089750783,0.0917440429329872,0,0,0
1942,65822.19829761777,2010-09-22 10:04:42,1500.7633936772943,7,6,-1.0993878841400146,3.657335996627808,5.93096050656944,5.393143055178413,23.645630203447222,19.76389736296788,-9.713172767078504e-05,0.0917440429329872,0,0,0
1943,65852.21357364948,2010-09-22 10:05:12,1530.7786697140168,7,6,-1.0997490882873535,3.6531269550323486,5.93096050656944,5.402310981082901,23.645630203447222,19.79740825970353,-9.713172767078504e-05,0.0917440429329872,0,0,0
1944,65882.22885099446,2010-09-22 10:05:42,1560.7939470539925,7,6,-1.099568486213684,3.6490797996521,5.93096050656944,5.411478965875417,23.645630203447222,19.83088153153734,-9.713172767078504e-05,0.0917440429329872,0,0,0
1945,65912.24408742733,2010-09-22 10:06:12,1590.8091834868576,7,6,-1.0997490882873535,3.6450326442718506,5.93096050656944,5.420646812113089,23.645630203447222,19.86431673965692,-0.0001618862152099,0.0917440429329872,0,0,0
1946,65942.25948187463,2010-09-22 10:06:42,1620.824577954201,7,6,-1.0997490882873535,3.6409854888916016,5.93096050656944,5.42981473149722,23.645630203447222,19.897715649252724,-9.713172767078504e-05,0.0917440429329872,0,0,0
1947,65972.27463548075,2010-09-22 10:07:12,1650.8397315352552,7,6,-1.099568486213684,3.6371002197265625,5.93096050656944,5.438982673880348,23.645630203447222,19.931078905097177,-0.0001295089750783,0.0917440429329872,0,0,0
1948,66002.2900838777,2010-09-22 10:07:42,1680.855179947253,7,6,-1.0997490882873535,3.633214950561523,5.93096050656944,5.448150635826222,23.645630203447222,19.96440717436693,-0.0001618862152099,0.0917440429329872,0,0,0
1949,66032.30516293274,2010-09-22 10:08:12,1710.8702589872412,7,6,-1.099568486213684,3.629653453826904,5.93096050656944,5.457318524353449,23.645630203447222,19.997700828263408,-9.713172767078504e-05,0.0917440429329872,0,0,0
1950,66062.32042462866,2010-09-22 10:08:42,1740.885520693192,7,6,-1.099568486213684,3.626091957092285,5.93096050656944,5.466486588358482,23.645630203447222,20.030961229471107,-6.47544875391759e-05,0.0917440429329872,0,0,0
1951,66092.33572613396,2010-09-22 10:09:12,1770.9008221884628,7,6,-1.099568486213684,3.622530460357666,5.93096050656944,5.47565449513215,23.645630203447222,20.064188157373493,-6.47544875391759e-05,0.0917440429329872,0,0,0
1952,66122.35097233119,2010-09-22 10:09:42,1800.9160683907137,7,6,-1.099568486213684,3.618968963623047,5.93096050656944,5.484822464923929,23.645630203447222,20.097382931259524,-9.713172767078504e-05,0.0917440429329872,0,0,0
1953,66152.36623483914,2010-09-22 10:10:12,1830.9313308936537,7,6,-1.0997490882873535,3.6155693531036377,5.93096050656944,5.493990503635446,23.645630203447222,20.13054638465933,-9.713172767078504e-05,0.0917440429329872,0,0,0
1954,66182.3815033621,2010-09-22 10:10:42,1860.9465994216328,7,6,-1.099568486213684,3.612169742584229,5.93096050656944,5.503158500425056,23.645630203447222,20.163678441259048,-6.47544875391759e-05,0.0917440429329872,0,0,0
1955,66212.39717223942,2010-09-22 10:11:12,1890.9622683240088,7,6,-1.099568486213684,3.608932018280029,5.93096050656944,5.512326640768786,23.645630203447222,20.1967804861598,-9.713172767078504e-05,0.0917440429329872,0,0,0
1956,66242.41204827769,2010-09-22 10:11:42,1920.977144337211,7,6,-1.099568486213684,3.60585618019104,5.93096050656944,5.52149454621345,23.645630203447222,20.229851777089003,-3.237724376958795e-05,0.0917440429329872,0,0,0
1957,66272.42744003829,2010-09-22 10:12:12,1950.9925360927857,7,6,-1.0993878841400146,3.602456569671631,5.93096050656944,5.530662479170939,23.645630203447222,20.26289361617929,-9.713172767078504e-05,0.0917440429329872,0,0,0
1958,66302.44258972461,2010-09-22 10:12:42,1981.0076857841304,7,6,-1.099568486213684,3.599218845367432,5.93096050656944,5.539830389030231,23.645630203447222,20.29590654233874,-9.713172767078504e-05,0.0917440429329872,0,0,0
1959,66332.45783452837,2010-09-22 10:13:12,2011.0229305878904,7,6,-1.099568486213684,3.5963048934936523,5.93096050656944,5.548998384024037,23.645630203447222,20.328890890250804,-6.47544875391759e-05,0.0917440429329872,0,0,0
1960,66362.47311571795,2010-09-22 10:13:42,2041.038211777476,7,6,-1.0997490882873535,3.593229055404663,5.93096050656944,5.558166395225745,23.645630203447222,20.3618466455677,-3.237724376958795e-05,0.0917440429329872,0,0,0
1961,66392.48849404,2010-09-22 10:14:12,2071.05359010453,7,6,-1.0997490882873535,3.590153455734253,5.93096050656944,5.567334446048789,23.645630203447222,20.394774561389507,-3.237724376958795e-05,0.0917440429329872,0,0,0
1962,66422.50364345565,2010-09-22 10:14:42,2101.0687395151745,7,6,-1.099568486213684,3.5869157314300537,5.93096050656944,5.576502461369254,23.645630203447222,20.427674148049235,-9.713172767078504e-05,0.0917440429329872,0,0,0
1963,66452.51903034408,2010-09-22 10:15:12,2131.0841264286623,7,6,-1.099568486213684,3.5838398933410645,5.93096050656944,5.585670511809675,23.645630203447222,20.46054568092947,-0.0001295089750783,0.0917440429329872,0,0,0
1964,66482.53439321756,2010-09-22 10:15:42,2161.099489272068,7,6,-1.0997490882873535,3.580925941467285,5.93096050656944,5.594838526296286,23.645630203447222,20.49338937649473,-6.47544875391759e-05,0.0917440429329872,0,0,0
1965,66512.54946812222,2010-09-22 10:16:12,2191.114564181746,7,6,-1.0993878841400146,3.578011989593506,5.93096050656944,5.604006471794084,23.645630203447222,20.526205056389045,-6.47544875391759e-05,0.0917440429329872,0,0,0
1966,66542.56473394846,2010-09-22 10:16:42,2221.1298300581066,7,6,-1.0997490882873535,3.574774265289306,5.93096050656944,5.61317449313323,23.645630203447222,20.55899316540324,-0.0001295089750783,0.0917440429329872,0,0,0
1967,66572.5799760605,2010-09-22 10:17:12,2251.14507211501,7,6,-1.099568486213684,3.571860313415528,5.93096050656944,5.622342436145861,23.645630203447222,20.5917535906954,-6.47544875391759e-05,0.0917440429329872,0,0,0
1968,66602.59526396183,2010-09-22 10:17:42,2281.1603600163485,7,6,-1.099568486213684,3.568784475326538,5.93096050656944,5.631510430061418,23.645630203447222,20.624486061650405,-6.47544875391759e-05,0.0917440429329872,0,0,0
1969,66632.61051466031,2010-09-22 10:18:12,2311.1756107148226,7,6,-1.0997490882873535,3.565384864807129,5.93096050656944,5.640678444741522,23.645630203447222,20.657190283317103,-0.0001295089750783,0.0917440429329872,0,0,0
1970,66662.62571658705,2010-09-22 10:18:42,2341.190812646568,7,6,-1.099568486213684,3.56263279914856,5.93096050656944,5.649846362032553,23.645630203447222,20.689865313443004,-9.713172767078504e-05,0.0917440429329872,0,0,0
1971,66692.6410286487,2010-09-22 10:19:12,2371.2061247132265,7,6,-1.099568486213684,3.5593950748443604,5.93096050656944,5.659014412885873,23.645630203447222,20.722512851206723,-6.47544875391759e-05,0.0917440429329872,0,0,0
1972,66722.65626827453,2010-09-22 10:19:42,2401.2213643440746,7,6,-1.099568486213684,3.556157350540161,5.93096050656944,5.66818237980427,23.645630203447222,20.755130658277672,-9.713172767078504e-05,0.0917440429329872,0,0,0
1973,66752.67160551903,2010-09-22 10:20:12,2431.236701578556,7,6,-1.099568486213684,3.552919626235962,5.93096050656944,5.677350362274496,23.645630203447222,20.787718529630883,-6.47544875391759e-05,0.0917440429329872,0,0,0
1974,66782.68687048813,2010-09-22 10:20:42,2461.2519665576765,7,6,-1.099568486213684,3.5495200157165527,5.93096050656944,5.686518304934611,23.645630203447222,20.82027636840909,-9.713172767078504e-05,0.0917440429329872,0,0,0
1975,66812.70226885019,2010-09-22 10:21:12,2491.2673649197422,7,6,-1.099568486213684,3.546120405197144,5.93096050656944,5.695686307986046,23.645630203447222,20.852803548519265,-0.0001295089750783,0.0917440429329872,0,0,0
1976,66842.71743841615,2010-09-22 10:21:42,2521.2825344806843,7,6,-1.099568486213684,3.5427207946777344,5.93096050656944,5.704854283450943,23.645630203447222,20.885299254238337,-9.713172767078504e-05,0.0917440429329872,0,0,0
1977,66872.73267723498,2010-09-22 10:22:12,2551.297773294493,7,6,-1.099568486213684,3.539321184158325,5.93096050656944,5.714022286067996,23.645630203447222,20.91776323436561,-9.713172767078504e-05,0.0917440429329872,0,0,0
1978,66902.74794630932,2010-09-22 10:22:42,2581.313042368836,7,6,-1.099568486213684,3.535597801208496,5.93096050656944,5.723190299192132,23.645630203447222,20.950194052982425,-0.0001295089750783,0.0917440429329872,0,0,0
1979,66932.76339469124,2010-09-22 10:23:12,2611.3284908510086,7,6,-1.099568486213684,3.531712532043457,5.93096050656944,5.732358374736005,23.645630203447222,20.982590660991853,-9.713172767078504e-05,0.0917440429329872,0,0,0
1980,66962.77862629705,2010-09-22 10:23:42,2641.343722361587,7,6,-1.099568486213684,3.527827262878418,5.93096050656944,5.7415264222363,23.645630203447222,21.01495188660272,-0.0001295089750783,0.0917440429329872,0,0,0
1981,66992.79378413873,2010-09-22 10:24:12,2671.358880198264,7,6,-1.0997490882873535,3.523780107498169,5.93096050656944,5.750694451573612,23.645630203447222,21.04727637025977,-9.713172767078504e-05,0.0917440429329872,0,0,0
1982,67022.80901187992,2010-09-22 10:24:42,2701.374107944446,7,6,-1.099568486213684,3.5194091796875,5.93096050656944,5.759862450961246,23.645630203447222,21.0795622103345,-9.713172767078504e-05,0.0917440429329872,0,0,0
1983,67052.82428232266,2010-09-22 10:25:13,2731.3893783821923,7,6,-1.099568486213684,3.515038251876831,5.93096050656944,5.769030559667815,23.645630203447222,21.1118086165856,-0.0001295089750783,0.0917440429329872,0,0,0
1984,67082.83955473034,2010-09-22 10:25:43,2761.4046507898565,7,6,-1.099568486213684,3.5103437900543213,5.93096050656944,5.778198616085155,23.645630203447222,21.14401264336548,-9.713172767078504e-05,0.0917440429329872,0,0,0
1985,67112.85493877165,2010-09-22 10:26:13,2791.4200348311747,7,6,-1.099568486213684,3.5051634311676025,5.93096050656944,5.787366681153465,23.645630203447222,21.176171720150364,-0.0001618862152099,0.0917440429329872,0,0,0
1986,67142.87010332008,2010-09-22 10:26:43,2821.4351993896303,7,6,-1.099568486213684,3.499659299850464,5.93096050656944,5.796534749724538,23.645630203447222,21.20828230449901,-0.0001295089750783,0.0917440429329872,0,0,0
1987,67172.88547658449,2010-09-22 10:27:13,2851.450572764323,7,6,-1.0997490882873535,3.4935076236724854,5.93096050656944,5.805702816274516,23.645630203447222,21.24034027267048,-0.0001942634553415,0.0917440429329872,0,0,0
1988,67202.90064314796,2010-09-22 10:27:43,2881.465739212496,7,6,-1.099568486213684,3.487032175064087,5.93096050656944,5.814870838493027,23.645630203447222,21.27233982275325,-0.0001618862152099,0.0917440429329872,0,0,0
1989,67232.91601292868,2010-09-22 10:28:13,2911.4811089982304,7,6,-1.099568486213684,3.479261636734009,5.93096050656944,5.824038911269367,23.645630203447222,21.30427431704137,-0.0002266406954731,0.0917440429329872,0,0,0
1990,67262.93118452972,2010-09-22 10:28:43,2941.49628058924,7,6,-1.0997490882873535,3.4711673259735107,5.93096050656944,5.8332068318878,23.645630203447222,21.336135715932816,-0.0002266406954731,0.0917440429329872,0,0,0
1991,67292.94658996443,2010-09-22 10:29:13,2971.51168602396,7,6,-1.0993878841400146,3.461777925491333,5.93096050656944,5.842374916988139,23.645630203447222,21.36791633913021,-0.0002266406954731,0.0917440429329872,0,0,0
1992,67322.96419795709,2010-09-22 10:29:43,3001.529294111841,7,6,-1.099568486213684,3.450769662857056,5.93096050656944,5.851543664903529,23.645630203447222,21.399606384589497,-0.0002913951757363,0.0917440429329872,0,0,0
1993,67352.97700051461,2010-09-22 10:30:13,3031.542096679404,7,6,-1.099568486213684,3.4381425380706787,5.93096050656944,5.860711051303062,23.645630203447222,21.431184041442396,-0.0002913951757363,0.0917440429329872,0,0,0
1994,67382.99223195002,2010-09-22 10:30:43,3061.5573280095314,7,6,-1.0992072820663452,3.4226016998291016,5.93096050656944,5.869879115229118,23.645630203447222,21.46263545892499,-0.0004532813909463,0.0917440429329872,0,0,0
1995,67413.0076276805,2010-09-22 10:31:13,3091.5727237450405,7,6,-1.099568486213684,3.4031753540039062,5.93096050656944,5.879047185054012,23.645630203447222,21.493927865604597,-0.0005504131549969,0.0917440429329872,0,0,0
1996,67443.02297010293,2010-09-22 10:31:43,3121.5880661875217,7,6,-1.099568486213684,3.3779211044311523,5.93096050656944,5.888215223539435,23.645630203447222,21.52501816190241,-0.0007770538213662,0.0917440429329872,0,0,0
1997,67473.03802986981,2010-09-22 10:32:13,3151.603125929339,7,6,-1.0997490882873535,3.34295392036438,5.93096050656944,5.897383249971124,23.645630203447222,21.55583541048568,-0.0010684489971026,0.0917440429329872,0,0,0
1998,67503.05330338023,2010-09-22 10:32:43,3181.618399439755,7,6,-1.099568486213684,3.292931079864502,5.93096050656944,5.90655120782326,23.645630203447222,21.58626768623505,-0.0015217304462566,0.0917440429329872,0,0,0
1999,67533.06856982301,2010-09-22 10:33:13,3211.6336658825294,7,6,-1.099568486213684,3.2204062938690186,5.93096050656944,5.915719253324802,23.645630203447222,21.616145483028824,-0.0022664070129394,0.0917440429329872,0,0,0
2000,67563.08399769873,2010-09-22 10:33:43,3241.6490937632784,7,6,-1.099568486213684,3.109352827072144,5.93096050656944,5.924887394026039,23.645630203447222,21.64520008365528,-0.0036585808265954,0.0917440429329872,0,0,0
2001,67591.86474781383,2010-09-22 10:34:12,3270.429843873361,7,6,-1.099568486213684,2.90910005569458,5.93096050656944,5.933678391472808,23.645630203447222,21.671784945426268,-0.0082237720489501,0.0917440429329872,0,0,0
2002,67605.81770700158,2010-09-22 10:34:26,3284.3828030611025,7,6,-1.099568486213684,2.7085235118865967,5.93096050656944,5.937940269627412,23.645630203447222,21.68378700717272,-0.0131451608613133,0.0917440429329872,0,0,0
2003,67606.33333560992,2010-09-22 10:34:26,3284.8984316694364,7,6,-1.0997490882873535,2.699943780899048,5.93096050656944,5.938097766920833,23.645630203447222,21.684212951680216,-0.0132098672911524,0.0917440429329872,0,0,0
2004,67666.3478621084,2010-09-22 10:35:26,60.014876098800464,8,6,0.0,3.399128198623657,5.93096050656944,5.938097766920833,23.645630203447222,21.684212951680216,0.0014893531333655,0.0917440429329872,0,0,0
2005,67666.53571740602,2010-09-22 10:35:26,0.187448740895543,9,6,-1.9243103452026844e-05,3.399128198623657,5.93096050656944,5.938097767922804,23.645630203447222,21.684212955086046,0.0,0.0898760333657264,0,0,0
2006,67671.36375313599,2010-09-22 10:35:31,5.01548446583973,9,6,0.0001613661734154,3.408193826675415,5.930961027544615,5.938097768173257,23.645631977056368,21.68421295593773,0.0012950897216796,0.0898760333657264,0,0,0
