Data_Point,Test_Time(s),Date_Time,Step_Time(s),Step_Index,Cycle_Index,Current(A),Voltage(V),Charge_Capacity(Ah),Discharge_Capacity(Ah),Charge_Energy(Wh),Discharge_Energy(Wh),dV/dt(V/s),Internal_Resistance(Ohm),Is_FC_Data,AC_Impedance(Ohm),ACI_Phase_Angle(Deg)
644,20797.25947120527,2010-09-21 21:34:13,30.01531523456628,1,3,0.0,3.4099745750427246,1.881397301920064,1.900650168294494,7.495287946215453,6.917591134609094,0.0008741855854168,0.0882566422224044,0,0,0
645,20827.27494039413,2010-09-21 21:34:43,60.03078443345118,1,3,0.0,3.4357142448425293,1.881397301920064,1.900650168294494,7.495287946215453,6.917591134609094,0.0005827903514727,0.0882566422224044,0,0,0
646,20857.290077258465,2010-09-21 21:35:13,90.04592128775289,1,3,0.0,3.4551405906677246,1.881397301920064,1.900650168294494,7.495287946215453,6.917591134609094,0.0004532813909463,0.0882566422224044,0,0,0
647,20887.25848048344,2010-09-21 21:35:43,120.01432452776352,1,3,0.0,3.470519781112671,1.881397301920064,1.900650168294494,7.495287946215453,6.917591134609094,0.0003561496851034,0.0882566422224044,0,0,0
648,20917.26200900993,2010-09-21 21:36:13,30.002166262709608,2,3,0.5501165986061096,3.6111984252929688,1.885981953731613,1.900650168294494,7.511696825873846,6.917591134609094,0.0014245987404137,0.0882566422224044,0,0,0
649,20947.2748517227,2010-09-21 21:36:43,60.01500884515579,2,3,0.550297200679779,3.6542601585388175,1.890568309777293,1.900650168294494,7.528363746794482,6.917591134609094,0.0009713172912597,0.0882566422224044,0,0,0
650,20977.290138360888,2010-09-21 21:37:13,90.0302954833411,2,3,0.5501165986061096,3.685018301010132,1.895154995221511,1.900650168294494,7.545197883009461,6.917591134609094,0.0007446765666827,0.0882566422224044,0,0,0
651,21007.30556035193,2010-09-21 21:37:43,120.04571747438798,2,3,0.5501165986061096,3.708977460861206,1.899741691317418,1.900650168294494,7.56215711231831,6.917591134609094,0.0005180359003134,0.0882566422224044,0,0,0
652,21037.320944683976,2010-09-21 21:38:13,150.06110181144473,2,3,0.5501165986061096,3.7285656929016113,1.90432839524296,1.900650168294494,7.57921615783776,6.917591134609094,0.0004209041653666,0.0882566422224044,0,0,0
653,21067.336039322905,2010-09-21 21:38:43,180.07619644535785,2,3,0.5501165986061096,3.7442686557769775,1.908915037443911,1.900650168294494,7.596355208229708,6.917591134609094,0.0004209041653666,0.0882566422224044,0,0,0
654,21097.35134167532,2010-09-21 21:39:13,210.09149878774323,2,3,0.550297200679779,3.7554385662078857,1.913501707964476,1.900650168294494,7.613556209068195,6.917591134609094,0.0002266406954731,0.0882566422224044,0,0,0
655,21127.36664579714,2010-09-21 21:39:43,240.106802924608,2,3,0.5501165986061096,3.761914014816284,1.91808841817018,1.900650168294494,7.630797859836971,6.917591134609094,0.0001295089750783,0.0882566422224044,0,0,0
656,21157.382150885613,2010-09-21 21:40:13,270.1223080180913,2,3,0.5501165986061096,3.766284942626953,1.922675121898991,1.900650168294494,7.648063609079892,6.917591134609094,9.713172767078504e-05,0.0882566422224044,0,0,0
657,21187.39736725339,2010-09-21 21:40:43,300.1375243758458,2,3,0.5501165986061096,3.769846439361572,1.927261744475478,1.900650168294494,7.665346401114376,6.917591134609094,0.0001295089750783,0.0882566422224044,0,0,0
658,21217.412712136964,2010-09-21 21:41:13,330.15286926944566,2,3,0.5501165986061096,3.773246049880981,1.93184846688587,1.900650168294494,7.68264512011338,6.917591134609094,9.713172767078504e-05,0.0882566422224044,0,0,0
659,21247.42788630942,2010-09-21 21:41:43,360.1680434418992,2,3,0.5501165986061096,3.7764837741851807,1.936435117887921,1.900650168294494,7.699958672595656,6.917591134609094,0.0001295089750783,0.0882566422224044,0,0,0
660,21277.44320575951,2010-09-21 21:42:13,390.18336289198805,2,3,0.5501165986061096,3.77955961227417,1.941021809057825,1.900650168294494,7.717287251582035,6.917591134609094,6.47544875391759e-05,0.0882566422224044,0,0,0
661,21307.45849975606,2010-09-21 21:42:43,420.198656878516,2,3,0.550297200679779,3.782959222793579,1.945608482338416,1.900650168294494,7.734630485466074,6.917591134609094,0.0001295089750783,0.0882566422224044,0,0,0
662,21337.47380567237,2010-09-21 21:43:13,450.2139628800352,2,3,0.550297200679779,3.786035060882568,1.950195251292941,1.900650168294494,7.751988651343162,6.917591134609094,6.47544875391759e-05,0.0882566422224044,0,0,0
663,21367.489144826643,2010-09-21 21:43:43,480.22930194909605,2,3,0.550297200679779,3.7891108989715576,1.954781975217486,1.900650168294494,7.769360916245584,6.917591134609094,9.713172767078504e-05,0.0882566422224044,0,0,0
664,21397.504439199136,2010-09-21 21:44:13,510.2445963215874,2,3,0.550297200679779,3.792186737060547,1.959368747971968,1.900650168294494,7.786747510641015,6.917591134609094,9.713172767078504e-05,0.0882566422224044,0,0,0
665,21427.51973093003,2010-09-21 21:44:43,540.2598880524848,2,3,0.5501165986061096,3.795100688934326,1.963955418189143,1.900650168294494,7.804147637824797,6.917591134609094,6.47544875391759e-05,0.0882566422224044,0,0,0
666,21457.535030650877,2010-09-21 21:45:13,570.2751877733265,2,3,0.5501165986061096,3.798176527023315,1.968542168140122,1.900650168294494,7.821561916299131,6.917591134609094,3.237724376958795e-05,0.0882566422224044,0,0,0
667,21487.55033483285,2010-09-21 21:45:43,600.2904919603163,2,3,0.550297200679779,3.8012523651123047,1.97312884938497,1.900650168294494,7.838989706561241,6.917591134609094,9.713172767078504e-05,0.0882566422224044,0,0,0
668,21517.56565669396,2010-09-21 21:46:13,630.3058138214235,2,3,0.5501165986061096,3.804166316986084,1.977715584898777,1.900650168294494,7.856431426022827,6.917591134609094,6.47544875391759e-05,0.0882566422224044,0,0,0
669,21547.58099985824,2010-09-21 21:46:43,660.3211569907191,2,3,0.5501165986061096,3.8070802688598633,1.982302400392935,1.900650168294494,7.873887251259416,6.917591134609094,6.47544875391759e-05,0.0882566422224044,0,0,0
670,21577.596285258333,2010-09-21 21:47:13,690.3364423858014,2,3,0.5499359965324402,3.810156106948853,1.98688918334755,1.900650168294494,7.891356852073124,6.917591134609094,9.713172767078504e-05,0.0882566422224044,0,0,0
671,21607.611558212364,2010-09-21 21:47:43,720.3517153348165,2,3,0.5499359965324402,3.813393831253052,1.991475990816608,1.900650168294494,7.908840783819798,6.917591134609094,6.47544875391759e-05,0.0882566422224044,0,0,0
672,21637.62687801833,2010-09-21 21:48:13,750.3670351407937,2,3,0.550297200679779,3.816793441772461,1.996062773286962,1.900650168294494,7.926339493574214,6.917591134609094,9.713172767078504e-05,0.0882566422224044,0,0,0
673,21667.642174335684,2010-09-21 21:48:43,780.3823314681648,2,3,0.550297200679779,3.82003116607666,2.000649545554711,1.900650168294494,7.943853125861969,6.917591134609094,0.0001295089750783,0.0882566422224044,0,0,0
674,21697.657482472536,2010-09-21 21:49:13,810.3976396050139,2,3,0.5499359965324402,3.8232688903808594,2.005236293440145,1.900650168294494,7.961382024713743,6.917591134609094,6.47544875391759e-05,0.0882566422224044,0,0,0
675,21727.67319103892,2010-09-21 21:49:43,840.4133481663845,2,3,0.5501165986061096,3.826668500900269,2.009823111812307,1.900650168294494,7.978926838427176,6.917591134609094,6.47544875391759e-05,0.0882566422224044,0,0,0
676,21757.688136490448,2010-09-21 21:50:13,870.4282936129031,2,3,0.5501165986061096,3.830229997634888,2.014409821434224,1.900650168294494,7.996487071266372,6.917591134609094,9.713172767078504e-05,0.0882566422224044,0,0,0
677,21787.703432481983,2010-09-21 21:50:43,900.4435896094482,2,3,0.550297200679779,3.833791255950928,2.018996591810401,1.900650168294494,8.0140632765912,6.917591134609094,0.0001294612884521,0.0882566422224044,0,0,0
678,21817.718709671582,2010-09-21 21:51:13,930.4588667990485,2,3,0.550297200679779,3.837028980255127,2.023583298387858,1.900650168294494,8.03165489998636,6.917591134609094,9.713172767078504e-05,0.0882566422224044,0,0,0
679,21847.734019322208,2010-09-21 21:51:43,960.4741764496764,2,3,0.5501165986061096,3.840266704559326,2.028170011087363,1.900650168294494,8.049261958526708,6.917591134609094,6.47544875391759e-05,0.0882566422224044,0,0,0
680,21877.74934762439,2010-09-21 21:52:13,990.489504847099,2,3,0.5501165986061096,3.843666315078736,2.032756739782259,1.900650168294494,8.066884180835803,6.917591134609094,9.713172767078504e-05,0.0882566422224044,0,0,0
681,21907.764656788808,2010-09-21 21:52:43,1020.5048140115134,2,3,0.5501165986061096,3.8467421531677246,2.03734345480082,1.900650168294494,8.084521071593027,6.917591134609094,6.47544875391759e-05,0.0882566422224044,0,0,0
682,21937.779944188896,2010-09-21 21:53:13,1050.5201013113503,2,3,0.550297200679779,3.849979877471924,2.041930217557372,1.900650168294494,8.102172637066841,6.917591134609094,0.0001295089750783,0.0882566422224044,0,0,0
683,21967.795399788836,2010-09-21 21:53:43,1080.5355569163023,2,3,0.550297200679779,3.853055715560913,2.046517012072914,1.900650168294494,8.119838470001435,6.917591134609094,9.713172767078504e-05,0.0882566422224044,0,0,0
684,21997.810781785047,2010-09-21 21:54:13,1110.5509389275535,2,3,0.5501165986061096,3.855969667434693,2.051103708784956,1.900650168294494,8.13751755048531,6.917591134609094,9.713172767078504e-05,0.0882566422224044,0,0,0
685,22027.82586708065,2010-09-21 21:54:43,1140.566024203107,2,3,0.5499359965324402,3.8587217330932617,2.055690461357227,1.900650168294494,8.155210191499828,6.917591134609094,9.713172767078504e-05,0.0882566422224044,0,0,0
686,22057.84116675137,2010-09-21 21:55:13,1170.5813238738235,2,3,0.5501165986061096,3.861473798751831,2.06027723570589,1.900650168294494,8.17291567807446,6.917591134609094,0.0001295089750783,0.0882566422224044,0,0,0
687,22087.85647284312,2010-09-21 21:55:43,1200.596629965568,2,3,0.5501165986061096,3.863902091979981,2.064863956566852,1.900650168294494,8.190633143232134,6.917591134609094,3.237724376958795e-05,0.0882566422224044,0,0,0
688,22117.87179411776,2010-09-21 21:56:13,1230.6119512502362,2,3,0.550297200679779,3.86649227142334,2.069450651937962,1.900650168294494,8.208361996972128,6.917591134609094,6.47544875391759e-05,0.0882566422224044,0,0,0
689,22147.88709424461,2010-09-21 21:56:43,1260.6272513670665,2,3,0.5501165986061096,3.8687586784362793,2.074037367463142,1.900650168294494,8.226101856136923,6.917591134609094,6.47544875391759e-05,0.0882566422224044,0,0,0
690,22177.902428230987,2010-09-21 21:57:13,1290.6425853584526,2,3,0.5501165986061096,3.8710250854492183,2.078624138641744,1.900650168294494,8.24385220287511,6.917591134609094,9.713172767078504e-05,0.0882566422224044,0,0,0
691,22207.917773605783,2010-09-21 21:57:43,1320.657930728241,2,3,0.550297200679779,3.8729677200317374,2.083210848839381,1.900650168294494,8.261611949776157,6.917591134609094,6.47544875391759e-05,0.0882566422224044,0,0,0
692,22237.93302206367,2010-09-21 21:58:13,1350.6731791861223,2,3,0.5499359965324402,3.874748468399048,2.087797622474882,1.900650168294494,8.279380897743366,6.917591134609094,3.237724376958795e-05,0.0882566422224044,0,0,0
693,22267.948325624093,2010-09-21 21:58:43,1380.6884827515607,2,3,0.5501165986061096,3.876529216766357,2.092384314809972,1.900650168294494,8.297157913869032,6.917591134609094,3.237724376958795e-05,0.0882566422224044,0,0,0
694,22297.963629475245,2010-09-21 21:59:13,1410.7037866077246,2,3,0.5501165986061096,3.878309965133667,2.096971046197422,1.900650168294494,8.314942867160786,6.917591134609094,3.237724376958795e-05,0.0882566422224044,0,0,0
695,22327.97894464465,2010-09-21 21:59:43,1440.7191017771283,2,3,0.5501165986061096,3.8796050548553462,2.101557876775303,1.900650168294494,8.332735499788214,6.917591134609094,0.0,0.0882566422224044,0,0,0
696,22357.99434509693,2010-09-21 22:00:13,1470.734502269511,2,3,0.550297200679779,3.881385803222656,2.10614465077294,1.900650168294494,8.350534689274143,6.917591134609094,6.47544875391759e-05,0.0882566422224044,0,0,0
697,22388.00955279808,2010-09-21 22:00:43,1500.7497099255447,2,3,0.5501165986061096,3.882680892944336,2.110731404070424,1.900650168294494,8.368340195468154,6.917591134609094,6.47544875391759e-05,0.0882566422224044,0,0,0
698,22418.02500112988,2010-09-21 22:01:13,1530.7651582473177,2,3,0.5501165986061096,3.883975982666016,2.11531826684377,1.900650168294494,8.38615223551272,6.917591134609094,3.237724376958795e-05,0.0882566422224044,0,0,0
699,22448.040278439777,2010-09-21 22:01:43,1560.780435572255,2,3,0.5501165986061096,3.885109186172485,2.119905082073954,1.900650168294494,8.403969818389957,6.917591134609094,6.47544875391759e-05,0.0882566422224044,0,0,0
700,22478.055487704823,2010-09-21 22:02:13,1590.7956448322927,2,3,0.5499359965324402,3.886404275894165,2.124491838591997,1.900650168294494,8.421792842234485,6.917591134609094,3.237724376958795e-05,0.0882566422224044,0,0,0
701,22508.07079326023,2010-09-21 22:02:43,1620.810950392711,2,3,0.5501165986061096,3.8876993656158447,2.129078609830671,1.900650168294494,8.439621415218314,6.917591134609094,6.47544875391759e-05,0.0882566422224044,0,0,0
702,22538.086092860773,2010-09-21 22:03:13,1650.82624998824,2,3,0.5501165986061096,3.888670682907105,2.133665395087005,1.900650168294494,8.457455465517894,6.917591134609094,3.237724376958795e-05,0.0882566422224044,0,0,0
703,22568.101409990068,2010-09-21 22:03:44,1680.8415671175358,2,3,0.5501165986061096,3.889965772628784,2.138252166620898,1.900650168294494,8.475294890452835,6.917591134609094,3.237724376958795e-05,0.0882566422224044,0,0,0
704,22598.116719956484,2010-09-21 22:04:14,1710.8568770789395,2,3,0.5501165986061096,3.890937089920044,2.142838922714867,1.900650168294494,8.493139550841535,6.917591134609094,3.237724376958795e-05,0.0882566422224044,0,0,0
705,22628.13216257903,2010-09-21 22:04:44,1740.8723197115105,2,3,0.5501165986061096,3.892232179641724,2.147425743648863,1.900650168294494,8.510989835326981,6.917591134609094,3.237724376958795e-05,0.0882566422224044,0,0,0
706,22658.1474678788,2010-09-21 22:05:14,1770.887625011278,2,3,0.5501165986061096,3.893203496932984,2.152012537347845,1.900650168294494,8.528845342064843,6.917591134609094,0.0,0.0882566422224044,0,0,0
707,22688.162834321185,2010-09-21 22:05:44,1800.902991453667,2,3,0.5501165986061096,3.894498586654663,2.156599347867384,1.900650168294494,8.546706306134626,6.917591134609094,3.237724376958795e-05,0.0882566422224044,0,0,0
708,22718.178111410536,2010-09-21 22:06:14,1830.918268543017,2,3,0.5499359965324402,3.895631790161133,2.161186165803833,1.900650168294494,8.564572146937737,6.917591134609094,3.237724376958795e-05,0.0882566422224044,0,0,0
709,22748.193408770487,2010-09-21 22:06:44,1860.9335658929404,2,3,0.5501165986061096,3.896926879882813,2.165772933068122,1.900650168294494,8.582443276744435,6.917591134609094,6.47544875391759e-05,0.0882566422224044,0,0,0
710,22778.208559364084,2010-09-21 22:07:14,1890.948716586788,2,3,0.5501165986061096,3.897898197174072,2.17035972081043,1.900650168294494,8.600319838829238,6.917591134609094,3.237724376958795e-05,0.0882566422224044,0,0,0
711,22808.22386877912,2010-09-21 22:07:44,1920.9640259065893,2,3,0.550297200679779,3.899193286895752,2.174946493633527,1.900650168294494,8.618201820629999,6.917591134609094,3.237724376958795e-05,0.0882566422224044,0,0,0
712,22838.241694184464,2010-09-21 22:08:14,1950.981851502404,2,3,0.550297200679779,3.9003264904022217,2.179533694778957,1.900650168294494,8.636090898810181,6.917591134609094,3.237724376958795e-05,0.0882566422224044,0,0,0
713,22868.254497178088,2010-09-21 22:08:44,1980.9946543005424,2,3,0.5501165986061096,3.9014596939086914,2.184120060200417,1.900650168294494,8.65398223228975,6.917591134609094,3.237724376958795e-05,0.0882566422224044,0,0,0
714,22898.26980793147,2010-09-21 22:09:14,2011.009965063948,2,3,0.5501165986061096,3.902754783630371,2.188706800680832,1.900650168294494,8.671880606087726,6.917591134609094,3.237724376958795e-05,0.0882566422224044,0,0,0
715,22928.28524575704,2010-09-21 22:09:44,2041.025402884508,2,3,0.5501165986061096,3.903887987136841,2.19329357560226,1.900650168294494,8.689784685197496,6.917591134609094,-3.237724376958795e-05,0.0882566422224044,0,0,0
716,22958.30063112668,2010-09-21 22:10:14,2071.040788249129,2,3,0.5499359965324402,3.905183076858521,2.197880397003897,1.900650168294494,8.707694620958641,6.917591134609094,0.0,0.0882566422224044,0,0,0
717,22988.315705184224,2010-09-21 22:10:44,2101.0558623167058,2,3,0.5501165986061096,3.9063162803649902,2.202467159334146,1.900650168294494,8.725609831783547,6.917591134609094,0.0,0.0882566422224044,0,0,0
718,23018.331011050406,2010-09-21 22:11:14,2131.0711681728626,2,3,0.5501165986061096,3.90777325630188,2.207054045436829,1.900650168294494,8.743531338275403,6.917591134609094,6.47544875391759e-05,0.0882566422224044,0,0,0
719,23048.346375422632,2010-09-21 22:11:44,2161.086532545084,2,3,0.5501165986061096,3.90906834602356,2.211640894339104,1.900650168294494,8.761458482608651,6.917591134609094,3.237724376958795e-05,0.0882566422224044,0,0,0
720,23078.36163904336,2010-09-21 22:12:14,2191.101796175839,2,3,0.5501165986061096,3.910201549530029,2.216227738441035,1.900650168294494,8.779391491013383,6.917591134609094,0.0,0.0882566422224044,0,0,0
721,23108.376950984704,2010-09-21 22:12:44,2221.11710810716,2,3,0.5499359965324402,3.911496639251709,2.220814567869045,1.900650168294494,8.797330306759205,6.917591134609094,3.237724376958795e-05,0.0882566422224044,0,0,0
722,23138.3922504048,2010-09-21 22:13:14,2251.1324075272505,2,3,0.5499359965324402,3.912953615188599,2.225401347858469,1.900650168294494,8.815274984122615,6.917591134609094,3.237724376958795e-05,0.0882566422224044,0,0,0
723,23168.407556666967,2010-09-21 22:13:44,2281.147713789421,2,3,0.5501165986061096,3.914248466491699,2.22998812144081,1.900650168294494,8.833225572141497,6.917591134609094,3.237724376958795e-05,0.0882566422224044,0,0,0
724,23198.42300782081,2010-09-21 22:14:14,2311.163164943262,2,3,0.550297200679779,3.915543556213379,2.234574902143461,1.900650168294494,8.851182286897483,6.917591134609094,3.237724376958795e-05,0.0882566422224044,0,0,0
725,23228.438202093435,2010-09-21 22:14:44,2341.1783592209017,2,3,0.5501165986061096,3.9168386459350586,2.239161606640727,1.900650168294494,8.869144616502322,6.917591134609094,3.237724376958795e-05,0.0882566422224044,0,0,0
726,23258.45353974396,2010-09-21 22:15:14,2371.1936968714213,2,3,0.5499359965324402,3.9181337356567374,2.243748376087226,1.900650168294494,8.887113500306596,6.917591134609094,6.47544875391759e-05,0.0882566422224044,0,0,0
727,23288.46902213076,2010-09-21 22:15:44,2401.2091794436883,2,3,0.5501165986061096,3.919590711593628,2.248335211187535,1.900650168294494,8.905088851034172,6.917591134609094,3.237724376958795e-05,0.0882566422224044,0,0,0
728,23318.48413138116,2010-09-21 22:16:14,2431.224288508623,2,3,0.5499359965324402,3.920885801315308,2.252921971007754,1.900650168294494,8.923070187821438,6.917591134609094,3.237724376958795e-05,0.0882566422224044,0,0,0
729,23348.499430731077,2010-09-21 22:16:44,2461.239587863552,2,3,0.5501165986061096,3.922342777252197,2.257508735017823,1.900650168294494,8.941057854585445,6.917591134609094,3.237724376958795e-05,0.0882566422224044,0,0,0
730,23378.51473305341,2010-09-21 22:17:14,2491.2548901758623,2,3,0.5499359965324402,3.923637866973877,2.262095439899357,1.900650168294494,8.959051668720763,6.917591134609094,3.237724376958795e-05,0.0882566422224044,0,0,0
731,23408.530041285496,2010-09-21 22:17:44,2521.270198407949,2,3,0.5501165986061096,3.925256729125977,2.266682209124048,1.900650168294494,8.977052263957495,6.917591134609094,9.713172767078504e-05,0.0882566422224044,0,0,0
732,23438.545527872782,2010-09-21 22:18:14,2551.2856849952386,2,3,0.5501165986061096,3.926551818847656,2.271269046325219,1.900650168294494,8.995059486133172,6.917591134609094,3.237724376958795e-05,0.0882566422224044,0,0,0
733,23468.5606924162,2010-09-21 22:18:44,2581.300849543669,2,3,0.550297200679779,3.927846908569336,2.275855769951565,1.900650168294494,9.013072853178604,6.917591134609094,0.0,0.0882566422224044,0,0,0
734,23498.57597285892,2010-09-21 22:19:14,2611.316129981377,2,3,0.5501165986061096,3.929465770721436,2.280442482393847,1.900650168294494,9.031092722873678,6.917591134609094,3.237724376958795e-05,0.0882566422224044,0,0,0
735,23528.591286334096,2010-09-21 22:19:44,2641.331443456551,2,3,0.5501165986061096,3.9307608604431152,2.285029250902366,1.900650168294494,9.049119535475125,6.917591134609094,0.0,0.0882566422224044,0,0,0
736,23558.606607814258,2010-09-21 22:20:14,2671.34676494172,2,3,0.5501165986061096,3.932379722595215,2.289616035734723,1.900650168294494,9.067153053721436,6.917591134609094,3.237724376958795e-05,0.0882566422224044,0,0,0
737,23588.621910186717,2010-09-21 22:20:44,2701.3620673141804,2,3,0.550297200679779,3.933836698532105,2.294202842807375,1.900650168294494,9.085193430534106,6.917591134609094,6.47544875391759e-05,0.0882566422224044,0,0,0
738,23618.63722037368,2010-09-21 22:21:14,2731.3773774961346,2,3,0.5501165986061096,3.935293674468994,2.298789670666167,1.900650168294494,9.103240720163038,6.917591134609094,3.237724376958795e-05,0.0882566422224044,0,0,0
739,23648.652926839823,2010-09-21 22:21:44,2761.393083982325,2,3,0.550297200679779,3.9369125366210938,2.30337659305979,1.900650168294494,9.121295183735276,6.917591134609094,9.713172767078504e-05,0.0882566422224044,0,0,0
740,23678.66786703323,2010-09-21 22:22:14,2791.408024155681,2,3,0.5499359965324402,3.938207626342773,2.307963256081051,1.900650168294494,9.139355620107244,6.917591134609094,0.0,0.0882566422224044,0,0,0
741,23708.6831592754,2010-09-21 22:22:44,2821.42331638783,2,3,0.5501165986061096,3.939988374710083,2.312550085944306,1.900650168294494,9.157423741086369,6.917591134609094,3.237724376958795e-05,0.0882566422224044,0,0,0
742,23738.698471281907,2010-09-21 22:23:14,2851.438628404363,2,3,0.5504778623580933,3.941607236862183,2.317136915689549,1.900650168294494,9.175498920159296,6.917591134609094,9.713172767078504e-05,0.0882566422224044,0,0,0
743,23768.714242153816,2010-09-21 22:23:44,2881.4543992762706,2,3,0.5501165986061096,3.9429023265838623,2.321723836521967,1.900650168294494,9.193581497351364,6.917591134609094,3.237724376958795e-05,0.0882566422224044,0,0,0
744,23798.729106262304,2010-09-21 22:24:14,2911.4692633847567,2,3,0.550297200679779,3.944683074951172,2.326310576450898,1.900650168294494,9.211670552592633,6.917591134609094,6.47544875391759e-05,0.0882566422224044,0,0,0
745,23828.74440988288,2010-09-21 22:24:44,2941.4845670053323,2,3,0.5501165986061096,3.9461400508880615,2.330897405832345,1.900650168294494,9.22976724972591,6.917591134609094,3.237724376958795e-05,0.0882566422224044,0,0,0
746,23858.75969266644,2010-09-21 22:25:14,2971.4998497888964,2,3,0.5501165986061096,3.947758913040161,2.335484258040536,1.900650168294494,9.247871201148714,6.917591134609094,6.47544875391759e-05,0.0882566422224044,0,0,0
747,23888.775147208744,2010-09-21 22:25:44,3001.515304331196,2,3,0.550297200679779,3.949539661407471,2.340071062234794,1.900650168294494,9.265982304685371,6.917591134609094,6.47544875391759e-05,0.0882566422224044,0,0,0
748,23918.79053512473,2010-09-21 22:26:14,3031.530692272249,2,3,0.5501165986061096,3.95099663734436,2.344657931210781,1.900650168294494,9.284101091521258,6.917591134609094,6.47544875391759e-05,0.0882566422224044,0,0,0
749,23948.805637733552,2010-09-21 22:26:44,3061.5457948610187,2,3,0.5499359965324402,3.95261549949646,2.349244746539294,1.900650168294494,9.302227164675834,6.917591134609094,6.47544875391759e-05,0.0882566422224044,0,0,0
750,23978.820939870424,2010-09-21 22:27:14,3091.561096997891,2,3,0.5501165986061096,3.95423436164856,2.353831564615684,1.900650168294494,9.3203608617085,6.917591134609094,3.237724376958795e-05,0.0882566422224044,0,0,0
751,24008.83624664387,2010-09-21 22:27:44,3121.576403761312,2,3,0.5499359965324402,3.955853223800659,2.358418302176165,1.900650168294494,9.338501858966644,6.917591134609094,3.237724376958795e-05,0.0882566422224044,0,0,0
752,24038.85169593807,2010-09-21 22:28:14,3151.591853060524,2,3,0.5501165986061096,3.9576339721679688,2.363005213269908,1.900650168294494,9.35665121981687,6.917591134609094,3.237724376958795e-05,0.0882566422224044,0,0,0
753,24068.866877599216,2010-09-21 22:28:44,3181.6070347316954,2,3,0.5501165986061096,3.959252834320069,2.36759200490216,1.900650168294494,9.374807893674951,6.917591134609094,0.0,0.0882566422224044,0,0,0
754,24098.88221441265,2010-09-21 22:29:14,3211.622371540114,2,3,0.550297200679779,3.961033582687378,2.372178856375321,1.900650168294494,9.392972636160886,6.917591134609094,3.237724376958795e-05,0.0882566422224044,0,0,0
755,24128.89753015849,2010-09-21 22:29:44,3241.637687285956,2,3,0.5499359965324402,3.9626524448394775,2.376765713318163,1.900650168294494,9.411145299393942,6.917591134609094,3.237724376958795e-05,0.0882566422224044,0,0,0
756,24158.912836846725,2010-09-21 22:30:14,3271.6529939792026,2,3,0.5499359965324402,3.964433193206787,2.381352543581782,1.900650168294494,9.429325807627825,6.917591134609094,0.0,0.0882566422224044,0,0,0
757,24188.928117204232,2010-09-21 22:30:44,3301.6682743367096,2,3,0.5501165986061096,3.9662139415740967,2.3859393861794,1.900650168294494,9.447514414804484,6.917591134609094,3.237724376958795e-05,0.0882566422224044,0,0,0
758,24218.943578047256,2010-09-21 22:31:14,3331.683735179737,2,3,0.5501165986061096,3.9679946899414062,2.390526321530685,1.900650168294494,9.465711519401356,6.917591134609094,6.47544875391759e-05,0.0882566422224044,0,0,0
759,24248.95873642027,2010-09-21 22:31:44,3361.69889354774,2,3,0.5501165986061096,3.969775438308716,2.395113203493205,1.900650168294494,9.483916700881911,6.917591134609094,3.237724376958795e-05,0.0882566422224044,0,0,0
760,24278.97418870193,2010-09-21 22:32:14,3391.7143458293976,2,3,0.5501165986061096,3.9717180728912354,2.399700178334289,1.900650168294494,9.502130606997168,6.917591134609094,6.47544875391759e-05,0.0882566422224044,0,0,0
761,24308.989380713912,2010-09-21 22:32:44,3421.729537841381,2,3,0.550297200679779,3.973660707473755,2.404287105505011,1.900650168294494,9.520352781887652,6.917591134609094,6.47544875391759e-05,0.0882566422224044,0,0,0
762,24339.004682189137,2010-09-21 22:33:14,3451.744839321614,2,3,0.5501165986061096,3.9752795696258554,2.408874041536675,1.900650168294494,9.538583526786772,6.917591134609094,0.0,0.0882566422224044,0,0,0
763,24369.02003042608,2010-09-21 22:33:44,3481.760187553547,2,3,0.550297200679779,3.977384090423584,2.413460985136215,1.900650168294494,9.556822959175086,6.917591134609094,6.47544875391759e-05,0.0882566422224044,0,0,0
764,24399.03531424222,2010-09-21 22:34:14,3511.7754713646755,2,3,0.5501165986061096,3.9791648387908936,2.418047868642884,1.900650168294494,9.575070466377182,6.917591134609094,0.0,0.0882566422224044,0,0,0
765,24429.050617406658,2010-09-21 22:34:44,3541.7907745241005,2,3,0.5501165986061096,3.981269359588623,2.422634689758098,1.900650168294494,9.593327052312892,6.917591134609094,6.47544875391759e-05,0.0882566422224044,0,0,0
766,24459.066532192795,2010-09-21 22:35:14,3571.8066893353025,2,3,0.550297200679779,3.9830501079559326,2.427221636374767,1.900650168294494,9.611593086982854,6.917591134609094,3.237724376958795e-05,0.0882566422224044,0,0,0
767,24489.08124260764,2010-09-21 22:35:45,3601.821399735108,2,3,0.5499359965324402,3.985154628753662,2.431808413249705,1.900650168294494,9.62986748488238,6.917591134609094,3.237724376958795e-05,0.0882566422224044,0,0,0
768,24519.09659013281,2010-09-21 22:36:15,3631.836747265289,2,3,0.5501165986061096,3.987259149551392,2.436395260482779,1.900650168294494,9.64815134403767,6.917591134609094,6.47544875391759e-05,0.0882566422224044,0,0,0
769,24549.11186652041,2010-09-21 22:36:45,3661.852023642863,2,3,0.5501165986061096,3.989039897918701,2.440982117550778,1.900650168294494,9.66644450356798,6.917591134609094,3.237724376958795e-05,0.0882566422224044,0,0,0
770,24579.127167048264,2010-09-21 22:37:15,3691.867324175731,2,3,0.5501165986061096,3.9913063049316406,2.445568916913313,1.900650168294494,9.684746774864903,6.917591134609094,6.47544875391759e-05,0.0882566422224044,0,0,0
771,24609.14264504912,2010-09-21 22:37:45,3721.8828021615486,2,3,0.5501165986061096,3.99324893951416,2.450155815836701,1.900650168294494,9.703058981704372,6.917591134609094,3.237724376958795e-05,0.0882566422224044,0,0,0
772,24639.157799086315,2010-09-21 22:38:15,3751.897956208767,2,3,0.5501165986061096,3.995353221893311,2.454742645156824,1.900650168294494,9.72138043172559,6.917591134609094,3.237724376958795e-05,0.0882566422224044,0,0,0
773,24669.173111634173,2010-09-21 22:38:45,3781.9132687616393,2,3,0.550297200679779,3.99761962890625,2.459329471367438,1.900650168294494,9.739711556878554,6.917591134609094,6.47544875391759e-05,0.0882566422224044,0,0,0
774,24699.188421199586,2010-09-21 22:39:15,3811.928578332067,2,3,0.5501165986061096,3.9995622634887695,2.463916308497951,1.900650168294494,9.758052399631694,6.917591134609094,6.47544875391759e-05,0.0882566422224044,0,0,0
775,24729.20376933127,2010-09-21 22:39:45,3841.943926463749,2,3,0.5501165986061096,4.001828670501709,2.468503161983983,1.900650168294494,9.776403142107656,6.917591134609094,6.47544875391759e-05,0.0882566422224044,0,0,0
776,24759.221537062644,2010-09-21 22:40:15,3871.961694280338,2,3,0.5499359965324402,4.003933429718018,2.473090317947166,1.900650168294494,9.794764954763256,6.917591134609094,6.47544875391759e-05,0.0882566422224044,0,0,0
777,24789.234365178985,2010-09-21 22:40:45,3901.974522301437,2,3,0.5499359965324402,4.005876064300537,2.477676764397127,1.900650168294494,9.813133867254995,6.917591134609094,3.24249267578125e-05,0.0882566422224044,0,0,0
778,24819.249666213105,2010-09-21 22:41:15,3931.9898233355566,2,3,0.550297200679779,4.008304119110107,2.482263537054944,1.900650168294494,9.831514012307348,6.917591134609094,6.47544875391759e-05,0.0882566422224044,0,0,0
779,24849.265113361947,2010-09-21 22:41:45,3962.0052704894138,2,3,0.5499359965324402,4.010570526123047,2.4868502829857,1.900650168294494,9.849904062359746,6.917591134609094,6.47544875391759e-05,0.0882566422224044,0,0,0
780,24879.280501012272,2010-09-21 22:42:15,3992.020658134729,2,3,0.550297200679779,4.012675285339356,2.491436989953593,1.900650168294494,9.868304134836883,6.917591134609094,6.47544875391759e-05,0.0882566422224044,0,0,0
781,24909.29560635793,2010-09-21 22:42:45,4022.035763480379,2,3,0.5501165986061096,4.014941692352295,2.496023773332226,1.900650168294494,9.88671477623388,6.917591134609094,3.24249267578125e-05,0.0882566422224044,0,0,0
782,24939.31094944702,2010-09-21 22:43:15,4052.051106569475,2,3,0.550297200679779,4.017208099365234,2.500610623169144,1.900650168294494,9.905136070797967,6.917591134609094,6.47544875391759e-05,0.0882566422224044,0,0,0
783,24969.326222411077,2010-09-21 22:43:45,4082.066379533528,2,3,0.5501165986061096,4.019312381744385,2.505197476804321,1.900650168294494,9.92356779504976,6.917591134609094,6.47544875391759e-05,0.0882566422224044,0,0,0
784,24999.34170361994,2010-09-21 22:44:15,4112.081860742392,2,3,0.550297200679779,4.021902561187744,2.509784349881302,1.900650168294494,9.942010103260303,6.917591134609094,6.47544875391759e-05,0.0882566422224044,0,0,0
785,25029.356862749843,2010-09-21 22:44:45,4142.097019872296,2,3,0.5499359965324402,4.024007320404053,2.514371141271758,1.900650168294494,9.960462705256855,6.917591134609094,3.24249267578125e-05,0.0882566422224044,0,0,0
786,25059.37216368371,2010-09-21 22:45:15,4172.112320806166,2,3,0.5501165986061096,4.026435375213623,2.518957889125315,1.900650168294494,9.978925803561316,6.917591134609094,6.47544875391759e-05,0.0882566422224044,0,0,0
787,25089.38747467268,2010-09-21 22:45:45,4202.127631800147,2,3,0.5501165986061096,4.029025554656982,2.523544747301359,1.900650168294494,9.997400192368948,6.917591134609094,6.47544875391759e-05,0.0882566422224044,0,0,0
788,25119.4028009047,2010-09-21 22:46:15,4232.142958027152,2,3,0.550297200679779,4.031291961669922,2.528131558528353,1.900650168294494,10.015885167380471,6.917591134609094,6.47544875391759e-05,0.0882566422224044,0,0,0
789,25149.41811954276,2010-09-21 22:46:45,4262.158276665215,2,3,0.5504778623580933,4.03372049331665,2.532718335211407,1.900650168294494,10.034380939162247,6.917591134609094,9.71794142969884e-05,0.0882566422224044,0,0,0
790,25179.433413103223,2010-09-21 22:47:15,4292.173570235704,2,3,0.5501165986061096,4.036148548126221,2.537305158070807,1.900650168294494,10.0528879633513,6.917591134609094,9.71794142969884e-05,0.0882566422224044,0,0,0
791,25209.44872870872,2010-09-21 22:47:45,4322.18888583117,2,3,0.550297200679779,4.038576602935791,2.541891983528278,1.900650168294494,10.071406199670257,6.917591134609094,6.47544875391759e-05,0.0882566422224044,0,0,0
792,25239.464178714697,2010-09-21 22:48:15,4352.204335837148,2,3,0.5499359965324402,4.0408430099487305,2.546478874933495,1.900650168294494,10.089935928659369,6.917591134609094,3.23295607813634e-05,0.0882566422224044,0,0,0
793,25269.479363598883,2010-09-21 22:48:45,4382.219520721339,2,3,0.550297200679779,4.043595314025879,2.551065652068687,1.900650168294494,10.108476522558504,6.917591134609094,9.71794142969884e-05,0.0882566422224044,0,0,0
794,25299.494673790865,2010-09-21 22:49:15,4412.234830913319,2,3,0.550297200679779,4.045861721038818,2.555652473263042,1.900650168294494,10.127028768677532,6.917591134609094,6.47544875391759e-05,0.0882566422224044,0,0,0
795,25329.509993586817,2010-09-21 22:49:45,4442.25015070927,2,3,0.5501165986061096,4.048451900482178,2.560239241899376,1.900650168294494,10.145592421086116,6.917591134609094,6.47544875391759e-05,0.0882566422224044,0,0,0
796,25359.52532217973,2010-09-21 22:50:15,4472.265479302181,2,3,0.5501165986061096,4.051042079925537,2.564826024122841,1.900650168294494,10.164167832752623,6.917591134609094,9.71794142969884e-05,0.0882566422224044,0,0,0
797,25389.54063672257,2010-09-21 22:50:45,4502.280793940258,2,3,0.5499359965324402,4.053470134735107,2.569412811423308,1.900650168294494,10.18275508574806,6.917591134609094,3.23295607813634e-05,0.0882566422224044,0,0,0
798,25419.55592155124,2010-09-21 22:51:15,4532.296078678702,2,3,0.5501165986061096,4.056222438812256,2.573999645855238,1.900650168294494,10.20135448768173,6.917591134609094,6.47544875391759e-05,0.0882566422224044,0,0,0
799,25449.571234094085,2010-09-21 22:51:45,4562.311391226562,2,3,0.550297200679779,4.058974266052246,2.578586517691449,1.900650168294494,10.219966116048242,6.917591134609094,6.47544875391759e-05,0.0882566422224044,0,0,0
800,25479.58669222534,2010-09-21 22:52:15,4592.326849347795,2,3,0.5501165986061096,4.061402797698975,2.583173389030612,1.900650168294494,10.23858971022233,6.917591134609094,6.47544875391759e-05,0.0882566422224044,0,0,0
801,25509.601866979247,2010-09-21 22:52:45,4622.342024106712,2,3,0.5501165986061096,4.064154624938965,2.587760125465561,1.900650168294494,10.257224905729808,6.917591134609094,6.47544875391759e-05,0.0882566422224044,0,0,0
802,25539.617666412447,2010-09-21 22:53:15,4652.357823544926,2,3,0.5499359965324402,4.066906929016113,2.592347018740131,1.900650168294494,10.275873212287095,6.917591134609094,6.47544875391759e-05,0.0882566422224044,0,0,0
803,25569.63305638858,2010-09-21 22:53:45,4682.373213516045,2,3,0.550297200679779,4.069820880889893,2.596933861428513,1.900650168294494,10.294533802358332,6.917591134609094,6.47544875391759e-05,0.0882566422224044,0,0,0
804,25599.647815575165,2010-09-21 22:54:15,4712.387972697618,2,3,0.5501165986061096,4.072411060333252,2.601520580589481,1.900650168294494,10.313206417775108,6.917591134609094,6.47544875391759e-05,0.0882566422224044,0,0,0
805,25629.663124819777,2010-09-21 22:54:45,4742.403281942233,2,3,0.5501165986061096,4.075162887573242,2.606107368245065,1.900650168294494,10.331892077661802,6.917591134609094,3.23295607813634e-05,0.0882566422224044,0,0,0
806,25659.678437492952,2010-09-21 22:55:15,4772.418594615406,2,3,0.5501165986061096,4.0780768394470215,2.610694253548438,1.900650168294494,10.35059101473938,6.917591134609094,0.0001295089750783,0.0882566422224044,0,0,0
807,25689.69375311849,2010-09-21 22:55:45,4802.433910250973,2,3,0.550297200679779,4.08082914352417,2.615281085880906,1.900650168294494,10.369302746130396,6.917591134609094,9.71794142969884e-05,0.0882566422224044,0,0,0
808,25719.709225069248,2010-09-21 22:56:15,4832.449382201727,2,3,0.5501165986061096,4.083743095397949,2.61986795722031,1.900650168294494,10.38802763621135,6.917591134609094,6.47544875391759e-05,0.0882566422224044,0,0,0
809,25749.72437787336,2010-09-21 22:56:45,4862.464534995816,2,3,0.5504778623580933,4.0866570472717285,2.624454756113841,1.900650168294494,10.406765434028957,6.917591134609094,6.47544875391759e-05,0.0882566422224044,0,0,0
810,25779.73972609025,2010-09-21 22:57:15,4892.479883307949,2,3,0.5501165986061096,4.089570999145508,2.629041598971921,1.900650168294494,10.425516715908277,6.917591134609094,9.71794142969884e-05,0.0882566422224044,0,0,0
811,25809.755123815736,2010-09-21 22:57:45,4922.495280938188,2,3,0.5501165986061096,4.092484951019287,2.633628461109387,1.900650168294494,10.444281510665846,6.917591134609094,9.71794142969884e-05,0.0882566422224044,0,0,0
812,25839.77052729557,2010-09-21 22:58:15,4952.510684443091,2,3,0.5501165986061096,4.095236778259277,2.638215297200375,1.900650168294494,10.463059708754471,6.917591134609094,6.47544875391759e-05,0.0882566422224044,0,0,0
813,25869.785623819203,2010-09-21 22:58:45,4982.525780941659,2,3,0.5501165986061096,4.098474502563477,2.64280208270268,1.900650168294494,10.481851434295956,6.917591134609094,6.47544875391759e-05,0.0882566422224044,0,0,0
814,25899.8009360613,2010-09-21 22:59:15,5012.541093183755,2,3,0.5501165986061096,4.101550579071045,2.647388928556141,1.900650168294494,10.500657235794089,6.917591134609094,9.71794142969884e-05,0.0882566422224044,0,0,0
815,25929.81636668891,2010-09-21 22:59:45,5042.556523836423,2,3,0.5501165986061096,4.104464530944824,2.651975670152855,1.900650168294494,10.519476453662154,6.917591134609094,6.47544875391759e-05,0.0882566422224044,0,0,0
816,25959.83157635496,2010-09-21 23:00:15,5072.571733477411,2,3,0.5499359965324402,4.107378482818604,2.656562465328594,1.900650168294494,10.538309997313382,6.917591134609094,3.24249267578125e-05,0.0882566422224044,0,0,0
817,25989.84690180001,2010-09-21 23:00:45,5102.587058922464,2,3,0.5501165986061096,4.110616207122803,2.66114932334486,1.900650168294494,10.557157945374534,6.917591134609094,6.47544875391759e-05,0.0882566422224044,0,0,0
818,26019.862200884265,2010-09-21 23:01:15,5132.602358006717,2,3,0.550297200679779,4.113853931427002,2.665736105597243,1.900650168294494,10.57601985066032,6.917591134609094,6.47544875391759e-05,0.0882566422224044,0,0,0
819,26049.87752503609,2010-09-21 23:01:45,5162.617682158542,2,3,0.5501165986061096,4.116929531097412,2.670322904677219,1.900650168294494,10.594896234331454,6.917591134609094,9.71794142969884e-05,0.0882566422224044,0,0,0
820,26079.892830320816,2010-09-21 23:02:15,5192.632987448284,2,3,0.5499359965324402,4.120005130767822,2.67490968312472,1.900650168294494,10.613787070304092,6.917591134609094,6.47544875391759e-05,0.0882566422224044,0,0,0
821,26109.908133811063,2010-09-21 23:02:45,5222.648290933523,2,3,0.5501165986061096,4.1232428550720215,2.679496514327844,1.900650168294494,10.632692784113308,6.917591134609094,6.47544875391759e-05,0.0882566422224044,0,0,0
822,26139.923449466685,2010-09-21 23:03:15,5252.66360658914,2,3,0.5499359965324402,4.126480579376221,2.684083308731412,1.900650168294494,10.65161303334385,6.917591134609094,6.47544875391759e-05,0.0882566422224044,0,0,0
823,26169.938765603503,2010-09-21 23:03:45,5282.678922730971,2,3,0.5501165986061096,4.129880428314209,2.688670176015419,1.900650168294494,10.670548510700067,6.917591134609094,9.71794142969884e-05,0.0882566422224044,0,0,0
824,26199.95424031615,2010-09-21 23:04:15,5312.694397448631,2,3,0.5501165986061096,4.133118152618408,2.693257031220671,1.900650168294494,10.68949899944718,6.917591134609094,6.47544875391759e-05,0.0882566422224044,0,0,0
825,26229.969391020026,2010-09-21 23:04:45,5342.709548142479,2,3,0.5499359965324402,4.136355876922607,2.697843908920319,1.900650168294494,10.708464692766366,6.917591134609094,9.71794142969884e-05,0.0882566422224044,0,0,0
826,26259.984703833547,2010-09-21 23:05:15,5372.724860956002,2,3,0.550297200679779,4.1397552490234375,2.702431269819227,1.900650168294494,10.727447746398338,6.917591134609094,6.47544875391759e-05,0.0882566422224044,0,0,0
827,26290.00018267149,2010-09-21 23:05:45,5402.740339793948,2,3,0.550297200679779,4.143155097961426,2.707018834109539,1.900650168294494,10.746447060446044,6.917591134609094,6.47544875391759e-05,0.0882566422224044,0,0,0
828,26320.01534911465,2010-09-21 23:06:15,5432.75550624212,2,3,0.550297200679779,4.146554470062256,2.711606352937923,1.900650168294494,10.7654618054717,6.917591134609094,9.70840483205393e-05,0.0882566422224044,0,0,0
829,26350.030676314087,2010-09-21 23:06:45,5462.77083343654,2,3,0.550297200679779,4.149954319000244,2.716193845413551,1.900650168294494,10.784492237215456,6.917591134609094,6.47544875391759e-05,0.0882566422224044,0,0,0
830,26380.04595928311,2010-09-21 23:07:15,5492.786116435642,2,3,0.5501165986061096,4.153515815734863,2.720780214488041,1.900650168294494,10.803533620926215,6.917591134609094,9.71794142969884e-05,0.0882566422224044,0,0,0
831,26410.061298587763,2010-09-21 23:07:46,5522.801455715228,2,3,0.5501165986061096,4.157077312469482,2.725366049248774,1.900650168294494,10.82258848236362,6.917591134609094,0.0001295089750783,0.0882566422224044,0,0,0
832,26440.0767284685,2010-09-21 23:08:16,5552.816885605994,2,3,0.5501165986061096,4.1604766845703125,2.729951846717108,1.900650168294494,10.841659194363968,6.917591134609094,9.70840483205393e-05,0.0882566422224044,0,0,0
833,26470.091904701098,2010-09-21 23:08:46,5582.832061843602,2,3,0.5499359965324402,4.163876533508301,2.734537575540098,1.900650168294494,10.86074577864675,6.917591134609094,9.71794142969884e-05,0.0882566422224044,0,0,0
834,26500.107337965284,2010-09-21 23:09:16,5612.847495182976,2,3,0.550297200679779,4.16776180267334,2.739123935433359,1.900650168294494,10.87985125066774,6.917591134609094,0.0001619339018361,0.0882566422224044,0,0,0
835,26530.122656643445,2010-09-21 23:09:46,5642.862813770913,2,3,0.5501165986061096,4.17116117477417,2.743710550314389,1.900650168294494,10.898974281923335,6.917591134609094,0.0001618385285837,0.0882566422224044,0,0,0
836,26560.137876199184,2010-09-21 23:10:16,5672.878033441937,2,3,0.5501165986061096,4.174722671508789,2.748297164811702,1.900650168294494,10.918113859902649,6.917591134609094,9.70840483205393e-05,0.0882566422224044,0,0,0
837,26590.15319358412,2010-09-21 23:10:46,5702.893350716597,2,3,0.5501165986061096,4.178284168243408,2.75288382576036,1.900650168294494,10.937270173276213,6.917591134609094,6.47544875391759e-05,0.0882566422224044,0,0,0
838,26620.16849741522,2010-09-21 23:11:16,5732.908654652961,2,3,0.5501165986061096,4.182169437408447,2.757470503016673,1.900650168294494,10.956443263604852,6.917591134609094,9.70840483205393e-05,0.0882566422224044,0,0,0
839,26650.18378873509,2010-09-21 23:11:46,5762.923945857545,2,3,0.5501165986061096,4.185893058776856,2.762057125625944,1.900650168294494,10.975632961102509,6.917591134609094,0.0001619339018361,0.0882566422224044,0,0,0
840,26680.201626681737,2010-09-21 23:12:16,5792.941783899426,2,3,0.5501165986061096,4.1892924308776855,2.766644181297203,1.900650168294494,10.99484152758748,6.917591134609094,6.47544875391759e-05,0.0882566422224044,0,0,0
841,26710.21445659756,2010-09-21 23:12:46,5822.954613820267,2,3,0.550297200679779,4.193177700042725,2.771230498861412,1.900650168294494,11.014064141957835,6.917591134609094,0.0001295089750783,0.0882566422224044,0,0,0
842,26740.229746423705,2010-09-21 23:13:16,5852.969903631372,2,3,0.5499359965324402,4.196739196777344,2.77581712053198,1.900650168294494,11.033305281462974,6.917591134609094,6.47544875391759e-05,0.0882566422224044,0,0,0
843,26763.588995869053,2010-09-21 23:13:39,5876.329152996519,2,3,0.550297200679779,4.200138568878174,2.77938671124412,1.900650168294494,11.048291967575391,6.917591134609094,0.0001618385285837,0.0882566422224044,0,0,0
844,26793.60461749964,2010-09-21 23:14:09,30.0152941068282,3,3,0.0,4.119843482971191,2.77938671124412,1.900650168294494,11.048291967575391,6.917591134609094,-0.0003885269106831,0.0882566422224044,0,0,0
845,26823.61992473925,2010-09-21 23:14:39,60.03060134142533,3,3,0.0,4.109806537628174,2.77938671124412,1.900650168294494,11.048291967575391,6.917591134609094,-0.0002266883820993,0.0882566422224044,0,0,0
846,26853.635364554797,2010-09-21 23:15:09,90.04604113691484,3,3,0.0,4.103978633880615,2.77938671124412,1.900650168294494,11.048291967575391,6.917591134609094,-0.0001295089750783,0.0882566422224044,0,0,0
847,26883.603688065785,2010-09-21 23:15:39,120.01436467297216,3,3,0.0,4.100093364715576,2.77938671124412,1.900650168294494,11.048291967575391,6.917591134609094,-9.71794142969884e-05,0.0882566422224044,0,0,0
848,26883.619042074708,2010-09-21 23:15:39,0.015617829505188,4,3,0.9940541982650756,4.199653148651123,2.779391038233283,1.900650168294494,11.048310139777808,6.917591134609094,-3.23295607813634e-05,0.0882566422224044,0,0,0
849,26884.681519386533,2010-09-21 23:15:40,1.07809514133356,4,3,0.943122386932373,4.199491024017334,2.779675554059317,1.900650168294494,11.049505007194208,6.917591134609094,-6.47544875391759e-05,0.0882566422224044,0,0,0
850,26886.853383167665,2010-09-21 23:15:43,3.249958927476663,4,3,0.8930936455726624,4.199814796447754,2.780228417090632,1.900650168294494,11.05182684158429,6.917591134609094,0.0,0.0882566422224044,0,0,0
851,26890.087691097844,2010-09-21 23:15:46,6.484266857656227,4,3,0.8428842425346375,4.199814796447754,2.781007051288874,1.900650168294494,11.055096859622816,6.917591134609094,3.23295607813634e-05,0.0882566422224044,0,0,0
852,26894.41581314634,2010-09-21 23:15:50,10.81238891116672,4,3,0.7926748991012573,4.199653148651123,2.781988868566555,1.900650168294494,11.059220180632884,6.917591134609094,0.0,0.0882566422224044,0,0,0
853,26900.00946787912,2010-09-21 23:15:56,16.40604363391697,4,3,0.7424654960632324,4.199814796447754,2.78317995622164,1.900650168294494,11.064222382437482,6.917591134609094,3.23295607813634e-05,0.0882566422224044,0,0,0
854,26907.212534321123,2010-09-21 23:16:03,23.60911008093279,4,3,0.692436695098877,4.199653148651123,2.784613425192795,1.900650168294494,11.07024253261177,6.917591134609094,0.0,0.0882566422224044,0,0,0
855,26916.77491833275,2010-09-21 23:16:13,33.171494087549306,4,3,0.6422273516654968,4.199653148651123,2.786383143595186,1.900650168294494,11.077674809565696,6.917591134609094,0.0,0.0882566422224044,0,0,0
856,26929.931043790915,2010-09-21 23:16:26,46.3276195507247,4,3,0.5921985507011414,4.199653148651123,2.78863432392883,1.900650168294494,11.087129082981344,6.917591134609094,0.0,0.0882566422224044,0,0,0
857,26949.6497192886,2010-09-21 23:16:45,66.04629501833423,4,3,0.5418086051940918,4.199491024017334,2.791732166829009,1.900650168294494,11.100139103234373,6.917591134609094,-6.47544875391759e-05,0.0882566422224044,0,0,0
858,26982.53988255113,2010-09-21 23:17:18,98.93645830592516,4,3,0.4915992021560669,4.199814796447754,2.7964355182453,1.900650168294494,11.119891770650453,6.917591134609094,0.0,0.0882566422224044,0,0,0
859,27039.85180376369,2010-09-21 23:18:16,156.24837949342782,4,3,0.4415704309940338,4.199653148651123,2.803831636228594,1.900650168294494,11.150953206980212,6.917591134609094,-3.23295607813634e-05,0.0882566422224044,0,0,0
860,27127.88213633191,2010-09-21 23:19:44,244.27871209172125,4,3,0.3915416598320007,4.199491024017334,2.813991687110163,1.900650168294494,11.193622367250072,6.917591134609094,-3.24249267578125e-05,0.0882566422224044,0,0,0
861,27241.099709031456,2010-09-21 23:21:37,357.4962847662049,4,3,0.3415128886699676,4.199653148651123,2.82550586190367,1.900650168294494,11.241978497031091,6.917591134609094,0.0,0.0882566422224044,0,0,0
862,27378.72330134072,2010-09-21 23:23:54,495.1198770804817,4,3,0.2911229133605957,4.199653148651123,2.83758810941119,1.900650168294494,11.292720359593568,6.917591134609094,0.0,0.0882566422224044,0,0,0
863,27545.26843411445,2010-09-21 23:26:41,661.6650098492005,4,3,0.2410941421985626,4.199491024017334,2.849879113563739,1.900650168294494,11.344338929700232,6.917591134609094,0.0,0.0882566422224044,0,0,0
864,27753.51629474773,2010-09-21 23:30:09,869.9128705125487,4,3,0.1908847689628601,4.199491024017334,2.862337492485556,1.900650168294494,11.396660370322838,6.917591134609094,-6.47544875391759e-05,0.0882566422224044,0,0,0
865,28033.63840494549,2010-09-21 23:34:49,1150.0349807002865,4,3,0.140855997800827,4.199653148651123,2.875164642059796,1.900650168294494,11.450530532436131,6.917591134609094,-3.23295607813634e-05,0.0882566422224044,0,0,0
866,28452.727882682226,2010-09-21 23:41:48,1569.124458411959,4,3,0.0908272266387939,4.199653148651123,2.888454164359649,1.900650168294494,11.506342459867351,6.917591134609094,-3.23295607813634e-05,0.0882566422224044,0,0,0
867,29073.69030274538,2010-09-21 23:52:09,2190.0868784801296,4,3,0.0498289167881011,4.199653148651123,2.900249468448742,1.900650168294494,11.55587914479226,6.917591134609094,0.0,0.0882566422224044,0,0,0
868,29103.706320154382,2010-09-21 23:52:40,30.01529901908996,5,3,0.0,4.192368507385254,2.900249468448742,1.900650168294494,11.55587914479226,6.917591134609094,-3.23295607813634e-05,0.0882566422224044,0,0,0
869,29133.706141328395,2010-09-21 23:53:10,60.01512020813492,5,3,0.0,4.191073417663574,2.900249468448742,1.900650168294494,11.55587914479226,6.917591134609094,-6.47544875391759e-05,0.0882566422224044,0,0,0
870,29133.894683780905,2010-09-21 23:53:10,0.187300626178422,6,3,0.0001613661734154,4.191235065460205,2.900249476844294,1.900650168294494,11.555879179979993,6.917591134609094,0.0,0.0914128422737121,0,0,0
871,29138.72297790084,2010-09-21 23:53:15,5.01559475112878,6,3,0.0007031940040178,4.191073417663574,2.900250305183698,1.900650168377805,11.555882651753116,6.91759113495827,-6.47544875391759e-05,0.0914128422737121,0,0,0
872,29168.739487710445,2010-09-21 23:53:45,30.0153114400947,7,3,-1.0997490882873535,4.0249786376953125,2.900250305183698,1.909819102355947,11.555882651753116,6.954684930816021,-0.0008741378551349,0.0914128422737121,0,0,0
873,29198.75479981219,2010-09-21 23:54:15,60.03062354184098,7,3,-1.099929690361023,3.9992384910583496,2.900250305183698,1.918988080115211,11.555882651753116,6.991463932608214,-0.0005827903514727,0.0914128422737121,0,0,0
874,29228.770257622647,2010-09-21 23:54:45,90.04608135229863,7,3,-1.0997490882873535,3.982078790664673,2.900250305183698,1.928157002509829,11.555882651753116,7.028050614053679,-0.0003885269106831,0.0914128422737121,0,0,0
875,29258.785571804587,2010-09-21 23:55:15,120.06139554927492,7,3,-1.099568486213684,3.968480348587036,2.900250305183698,1.937325824216749,11.555882651753116,7.064496626077744,-0.0002913951757363,0.0914128422737121,0,0,0
876,29288.800750643688,2010-09-21 23:55:45,150.07657437333958,7,3,-1.0997490882873535,3.956986427307129,2.900250305183698,1.946494687496054,11.555882651753116,7.100829266256262,-0.0002590179501567,0.0914128422737121,0,0,0
877,29318.816225271123,2010-09-21 23:56:15,180.092049000775,7,3,-1.099568486213684,3.946787595748901,2.900250305183698,1.955663600927051,11.555882651753116,7.137063310488839,-0.0002913951757363,0.0914128422737121,0,0,0
878,29348.831410085146,2010-09-21 23:56:45,210.1072338147916,7,3,-1.099568486213684,3.937398195266724,2.900250305183698,1.964832472560358,11.555882651753116,7.173207300500939,-0.0002590179501567,0.0914128422737121,0,0,0
879,29378.846714171883,2010-09-21 23:57:15,240.12253790654364,7,3,-1.0997490882873535,3.928332567214966,2.900250305183698,1.974001323835193,11.555882651753116,7.209266533147418,-0.0002266406954731,0.0914128422737121,0,0,0
880,29408.862026609462,2010-09-21 23:57:45,270.1378503391157,7,3,-1.099929690361023,3.919266939163208,2.900250305183698,1.983170222244029,11.555882651753116,7.24524515183396,-0.0002913951757363,0.0914128422737121,0,0,0
881,29438.877353483083,2010-09-21 23:58:15,300.1531772127349,7,3,-1.099568486213684,3.911172866821289,2.900250305183698,1.992339064284655,11.555882651753116,7.281145336652796,-0.0002266406954731,0.0914128422737121,0,0,0
882,29468.89270524884,2010-09-21 23:58:45,330.1685289835011,7,3,-1.0997490882873535,3.903078556060791,2.900250305183698,2.00150790465517,11.555882651753116,7.316969457784015,-0.0002266406954731,0.0914128422737121,0,0,0
883,29498.90811079885,2010-09-21 23:59:15,360.18393452849614,7,3,-1.0997490882873535,3.894984245300293,2.900250305183698,2.010676833647745,11.555882651753116,7.352719468945981,-0.0002590179501567,0.0914128422737121,0,0,0
884,29528.92345726136,2010-09-21 23:59:45,390.1992809910122,7,3,-1.0997490882873535,3.887051820755005,2.900250305183698,2.019845648626724,11.555882651753116,7.388396618297086,-0.0002266406954731,0.0914128422737121,0,0,0
885,29558.93863746888,2010-09-22 00:00:15,420.21446119853016,7,3,-1.0997490882873535,3.8794431686401367,2.900250305183698,2.029014543084928,11.555882651753116,7.424002074679889,-0.0002266406954731,0.0914128422737121,0,0,0
886,29588.95394098921,2010-09-22 00:00:45,450.2297647188559,7,3,-1.0997490882873535,3.8716726303100586,2.900250305183698,2.038183467759042,11.555882651753116,7.459536753752771,-0.0001942634553415,0.0914128422737121,0,0,0
887,29618.96925302579,2010-09-22 00:01:15,480.24507676546455,7,3,-1.099568486213684,3.8642258644104,2.900250305183698,2.047352384824062,11.555882651753116,7.495001758885313,-0.0001942634553415,0.0914128422737121,0,0,0
888,29648.984567899453,2010-09-22 00:01:45,510.2603917243427,7,3,-1.0997490882873535,3.856940984725952,2.900250305183698,2.056521266371172,11.555882651753116,7.530398039298323,-0.0001942634553415,0.0914128422737121,0,0,0
889,29679.00041096657,2010-09-22 00:02:15,540.2762347062476,7,3,-1.0997490882873535,3.849332332611084,2.900250305183698,2.065690331584023,11.555882651753116,7.565727297680824,-0.0002266406954731,0.0914128422737121,0,0,0
890,29709.01522578703,2010-09-22 00:02:45,570.2910495166782,7,3,-1.099568486213684,3.842371225357056,2.900250305183698,2.074859067752025,11.555882651753116,7.600988785664032,-0.0001295089750783,0.0914128422737121,0,0,0
891,29739.03054700653,2010-09-22 00:03:15,600.3063707361838,7,3,-1.099568486213684,3.8352482318878174,2.900250305183698,2.084027983702213,11.555882651753116,7.636185451650129,-0.0001942634553415,0.0914128422737121,0,0,0
892,29769.045824456785,2010-09-22 00:03:45,630.3216481964596,7,3,-1.0997490882873535,3.828287363052368,2.900250305183698,2.093196863412686,11.555882651753116,7.671317564301344,-0.0001618862152099,0.0914128422737121,0,0,0
893,29799.061138277822,2010-09-22 00:04:15,660.3369620174975,7,3,-1.0997490882873535,3.82132625579834,2.900250305183698,2.102365730714123,11.555882651753116,7.706386543583198,-0.0001942634553415,0.0914128422737121,0,0,0
894,29829.07651974271,2010-09-22 00:04:45,690.3523434773723,7,3,-1.0997490882873535,3.8145270347595215,2.900250305183698,2.111534709176282,11.555882651753116,7.741393569364492,-0.0001942634553415,0.0914128422737121,0,0,0
895,29859.091829889578,2010-09-22 00:05:15,720.3676536242389,7,3,-1.0997490882873535,3.807889699935913,2.900250305183698,2.120703580508606,11.555882651753116,7.776338561118943,-0.0001942634553415,0.0914128422737121,0,0,0
896,29889.107143149213,2010-09-22 00:05:45,750.3829669089381,7,3,-1.0997490882873535,3.8015761375427246,2.900250305183698,2.129872449072876,11.555882651753116,7.811223480368509,-0.0001618862152099,0.0914128422737121,0,0,0
897,29919.12259355118,2010-09-22 00:06:15,780.3984172858404,7,3,-1.099568486213684,3.795100688934326,2.900250305183698,2.139041385663591,11.555882651753116,7.846049662616879,-0.0001942634553415,0.0914128422737121,0,0,0
898,29949.138130158324,2010-09-22 00:06:45,810.4139538929868,7,3,-1.099568486213684,3.788949012756348,2.900250305183698,2.148210425344983,11.555882651753116,7.880818432837728,-0.0001618862152099,0.0914128422737121,0,0,0
899,29979.153227995237,2010-09-22 00:07:15,840.429051729895,7,3,-1.0997490882873535,3.782797336578369,2.900250305183698,2.157379293237346,11.555882651753116,7.915529771961038,-0.0001295089750783,0.0914128422737121,0,0,0
900,30009.16844036804,2010-09-22 00:07:45,870.4442641077148,7,3,-1.0997490882873535,3.7768075466156006,2.900250305183698,2.166548238019939,11.555882651753116,7.95018563074492,-0.0001295089750783,0.0914128422737121,0,0,0
901,30039.183868669843,2010-09-22 00:08:15,900.4596924045019,7,3,-1.099568486213684,3.770655870437622,2.900250305183698,2.175717307969586,11.555882651753116,7.98478710361206,-0.0001942634553415,0.0914128422737121,0,0,0
902,30069.19907384468,2010-09-22 00:08:45,930.4748975843548,7,3,-1.0997490882873535,3.7651517391204834,2.900250305183698,2.184886205747949,11.555882651753116,8.01933423674985,-9.713172767078504e-05,0.0914128422737121,0,0,0
903,30099.214377184555,2010-09-22 00:09:15,960.49020092423,7,3,-1.0997490882873535,3.759323835372925,2.900250305183698,2.194055207431043,11.555882651753116,8.053828823745015,-0.0001618862152099,0.0914128422737121,0,0,0
904,30129.22983164665,2010-09-22 00:09:45,990.5056553813172,7,3,-1.0997490882873535,3.753657817840576,2.900250305183698,2.203224270247613,11.555882651753116,8.08827194261419,-0.0001295089750783,0.0914128422737121,0,0,0
905,30159.245061142203,2010-09-22 00:10:15,1020.5208848818784,7,3,-1.0997490882873535,3.7483158111572266,2.900250305183698,2.212393230690615,11.555882651753116,8.122663747505102,-0.0001295089750783,0.0914128422737121,0,0,0
906,30189.26034719392,2010-09-22 00:10:45,1050.5361709285871,7,3,-1.0997490882873535,3.742811679840088,2.900250305183698,2.22156220115134,11.555882651753116,8.1570059647639,-9.713172767078504e-05,0.0914128422737121,0,0,0
907,30219.27566037837,2010-09-22 00:11:15,1080.5514841180486,7,3,-1.0997490882873535,3.737469434738159,2.900250305183698,2.230731244306631,11.555882651753116,8.191299617984203,-0.0001618862152099,0.0914128422737121,0,0,0
908,30249.29097907157,2010-09-22 00:11:45,1110.5668028062355,7,3,-1.099568486213684,3.7324509620666495,2.900250305183698,2.23990023002441,11.555882651753116,8.22554500203413,-9.713172767078504e-05,0.0914128422737121,0,0,0
909,30279.30629550914,2010-09-22 00:12:15,1140.5821192438048,7,3,-1.0997490882873535,3.727270603179932,2.900250305183698,2.249069163628373,11.555882651753116,8.259742982285763,-0.0001618862152099,0.0914128422737121,0,0,0
910,30309.321620483017,2010-09-22 00:12:45,1170.5974442226943,7,3,-1.099929690361023,3.722090244293213,2.900250305183698,2.258238137525669,11.555882651753116,8.293895182765647,-0.0001618862152099,0.0914128422737121,0,0,0
911,30339.33692919631,2010-09-22 00:13:15,1200.6127529359826,7,3,-1.0997490882873535,3.717233657836914,2.900250305183698,2.26740709806878,11.555882651753116,8.328001783698229,-0.0001618862152099,0.0914128422737121,0,0,0
912,30369.3522820598,2010-09-22 00:13:45,1230.628105824539,7,3,-1.099568486213684,3.712538957595825,2.900250305183698,2.276576119447701,11.555882651753116,8.362063621086046,-0.0001295089750783,0.0914128422737121,0,0,0
913,30399.36769571504,2010-09-22 00:14:15,1260.6435194497035,7,3,-1.099568486213684,3.7076823711395264,2.900250305183698,2.28574518063808,11.555882651753116,8.396081235044354,-0.0001295089750783,0.0914128422737121,0,0,0
914,30429.38290436857,2010-09-22 00:14:45,1290.6587281032273,7,3,-1.099929690361023,3.702825784683228,2.900250305183698,2.294914242873254,11.555882651753116,8.43005533352535,-0.0001618862152099,0.0914128422737121,0,0,0
915,30459.39822498156,2010-09-22 00:15:15,1320.6740487061934,7,3,-1.0997490882873535,3.6982929706573486,2.900250305183698,2.304083288265687,11.555882651753116,8.46398653272393,-0.0001295089750783,0.0914128422737121,0,0,0
916,30489.41353745924,2010-09-22 00:15:45,1350.689361193903,7,3,-1.0997490882873535,3.6937601566314697,2.900250305183698,2.313252289937739,11.555882651753116,8.497875182733283,-9.713172767078504e-05,0.0914128422737121,0,0,0
917,30519.428864683738,2010-09-22 00:16:16,1380.704688418398,7,3,-1.0997490882873535,3.689227342605591,2.900250305183698,2.322421298247366,11.555882651753116,8.53172244451545,-6.47544875391759e-05,0.0914128422737121,0,0,0
918,30549.444204158808,2010-09-22 00:16:46,1410.7200278934724,7,3,-1.0997490882873535,3.684856414794922,2.900250305183698,2.331590264882948,11.555882651753116,8.565528440873718,-9.713172767078504e-05,0.0914128422737121,0,0,0
919,30579.459513593905,2010-09-22 00:17:16,1440.7353373285623,7,3,-1.099568486213684,3.680323600769043,2.900250305183698,2.340759225484061,11.555882651753116,8.599294086785656,-0.0001295089750783,0.0914128422737121,0,0,0
920,30609.47481370572,2010-09-22 00:17:46,1470.75063744038,7,3,-1.0997490882873535,3.676114559173584,2.900250305183698,2.349928288582754,11.555882651753116,8.633020308350678,-0.0001295089750783,0.0914128422737121,0,0,0
921,30639.490143426443,2010-09-22 00:18:16,1500.765967161106,7,3,-1.099568486213684,3.671905755996704,2.900250305183698,2.359097318224702,11.555882651753116,8.666707324988245,-6.47544875391759e-05,0.0914128422737121,0,0,0
922,30669.506089716226,2010-09-22 00:18:46,1530.7819134659203,7,3,-1.099568486213684,3.667696714401245,2.900250305183698,2.368266641935704,11.555882651753116,8.700356412857113,-9.713172767078504e-05,0.0914128422737121,0,0,0
923,30699.520783088523,2010-09-22 00:19:16,1560.7966068231854,7,3,-1.099568486213684,3.663649559020996,2.900250305183698,2.377435452309074,11.555882651753116,8.733965704940175,-9.713172767078504e-05,0.0914128422737121,0,0,0
924,30729.53609447849,2010-09-22 00:19:46,1590.8119182131552,7,3,-1.0997490882873535,3.659602403640747,2.900250305183698,2.386604429813343,11.555882651753116,8.767538144076383,-9.713172767078504e-05,0.0914128422737121,0,0,0
925,30759.55142165787,2010-09-22 00:20:16,1620.8272453925374,7,3,-1.0997490882873535,3.655717134475708,2.900250305183698,2.395773441150219,11.555882651753116,8.80107382966557,-6.47544875391759e-05,0.0914128422737121,0,0,0
926,30789.56927007064,2010-09-22 00:20:46,1650.8450939957818,7,3,-1.0997490882873535,3.651669979095459,2.900250305183698,2.404943230106738,11.555882651753116,8.834576479333391,-9.713172767078504e-05,0.0914128422737121,0,0,0
927,30819.582104643097,2010-09-22 00:21:16,1680.857928472996,7,3,-1.099568486213684,3.64778470993042,2.900250305183698,2.4141114905801,11.555882651753116,8.868038346133135,-0.0001295089750783,0.0914128422737121,0,0,0
928,30849.597399762453,2010-09-22 00:21:46,1710.8732235071388,7,3,-1.0997490882873535,3.644223213195801,2.900250305183698,2.423280463902763,11.555882651753116,8.901467948463113,-9.713172767078504e-05,0.0914128422737121,0,0,0
929,30879.61282488632,2010-09-22 00:22:16,1740.8886486209808,7,3,-1.0997490882873535,3.640499830245972,2.900250305183698,2.432449493435776,11.555882651753116,8.934864040090694,-6.47544875391759e-05,0.0914128422737121,0,0,0
930,30909.628216581743,2010-09-22 00:22:46,1770.9040403164051,7,3,-1.0997490882873535,3.636938333511353,2.900250305183698,2.441618501715116,11.555882651753116,8.96822708172666,-6.47544875391759e-05,0.0914128422737121,0,0,0
931,30939.64337681941,2010-09-22 00:23:16,1800.9192005540754,7,3,-1.099568486213684,3.633376836776733,2.900250305183698,2.450787415988581,11.555882651753116,9.001557352165321,-9.713172767078504e-05,0.0914128422737121,0,0,0
932,30969.658656495216,2010-09-22 00:23:46,1830.9344802298813,7,3,-1.0997490882873535,3.629977226257324,2.900250305183698,2.459956386451973,11.555882651753116,9.03485642220082,-0.0001295089750783,0.0914128422737121,0,0,0
933,30999.6740037848,2010-09-22 00:24:16,1860.949827529487,7,3,-1.0997490882873535,3.626577615737915,2.900250305183698,2.46912545641155,11.555882651753116,9.0681249056841,-0.0001295089750783,0.0914128422737121,0,0,0
934,31029.689377781044,2010-09-22 00:24:46,1890.9652015157064,7,3,-1.0997490882873535,3.623501777648926,2.900250305183698,2.478294500564264,11.555882651753116,9.101363229591808,-6.47544875391759e-05,0.0914128422737121,0,0,0
935,31059.70461827905,2010-09-22 00:25:16,1920.9804420137189,7,3,-1.0997490882873535,3.620264053344727,2.900250305183698,2.487463506458663,11.555882651753116,9.134572019634918,-9.713172767078504e-05,0.0914128422737121,0,0,0
936,31089.719929428426,2010-09-22 00:25:46,1950.9957531681,7,3,-1.099929690361023,3.6170263290405273,2.900250305183698,2.496632538425413,11.555882651753116,9.167752048411025,-9.713172767078504e-05,0.0914128422737121,0,0,0
937,31119.735253364717,2010-09-22 00:26:16,1981.0110770993747,7,3,-1.099568486213684,3.614274263381958,2.900250305183698,2.505801564047798,11.555882651753116,9.200903946619093,-6.47544875391759e-05,0.0914128422737121,0,0,0
938,31149.75074136553,2010-09-22 00:26:46,2011.0265651001923,7,3,-1.0997490882873535,3.611036539077759,2.900250305183698,2.514970688362603,11.555882651753116,9.234028763811104,-6.47544875391759e-05,0.0914128422737121,0,0,0
939,31179.76590317212,2010-09-22 00:27:16,2041.0417269067784,7,3,-1.0997490882873535,3.60812258720398,2.900250305183698,2.524139725642497,11.555882651753116,9.267126037603624,-9.713172767078504e-05,0.0914128422737121,0,0,0
940,31209.78123908329,2010-09-22 00:27:46,2071.057062817957,7,3,-1.0997490882873535,3.6052086353302,2.900250305183698,2.533308779008892,11.555882651753116,9.300196379138722,-0.0001295089750783,0.0914128422737121,0,0,0
941,31239.79653329037,2010-09-22 00:28:16,2101.0723570350606,7,3,-1.0997490882873535,3.602294683456421,2.900250305183698,2.542477810825306,11.555882651753116,9.333240041967848,-9.713172767078504e-05,0.0914128422737121,0,0,0
942,31269.81189495584,2010-09-22 00:28:46,2131.087718800776,7,3,-1.1001102924346924,3.5993807315826416,2.900250305183698,2.551646901573,11.555882651753116,9.366257803163258,-9.713172767078504e-05,0.0914128422737121,0,0,0
943,31299.827200090192,2010-09-22 00:29:16,2161.1030239401425,7,3,-1.0997490882873535,3.5966286659240723,2.900250305183698,2.560815955820847,11.555882651753116,9.399249334785209,-0.0001295089750783,0.0914128422737121,0,0,0
944,31329.842612672757,2010-09-22 00:29:46,2191.118436407417,7,3,-1.0997490882873535,3.593876600265503,2.900250305183698,2.569985020740861,11.555882651753116,9.432214681262934,-6.47544875391759e-05,0.0914128422737121,0,0,0
945,31359.85782523604,2010-09-22 00:30:16,2221.1336489707,7,3,-1.0997490882873535,3.5911247730255127,2.900250305183698,2.579154072136392,11.555882651753116,9.465153938668202,-6.47544875391759e-05,0.0914128422737121,0,0,0
946,31389.87334048988,2010-09-22 00:30:46,2251.149164224545,7,3,-1.0997490882873535,3.5880489349365234,2.900250305183698,2.588323220190345,11.555882651753116,9.498067732014215,-0.0001295089750783,0.0914128422737121,0,0,0
947,31419.88848779026,2010-09-22 00:31:16,2281.164311524922,7,3,-1.099929690361023,3.585458755493164,2.900250305183698,2.597492237624501,11.555882651753116,9.530955098306356,-6.47544875391759e-05,0.0914128422737121,0,0,0
948,31449.903775536208,2010-09-22 00:31:46,2311.179599275885,7,3,-1.0997490882873535,3.5825448036193848,2.900250305183698,2.606661276580174,11.555882651753116,9.56381622974942,-6.47544875391759e-05,0.0914128422737121,0,0,0
949,31479.919098254457,2010-09-22 00:32:16,2341.194921989119,7,3,-1.099568486213684,3.579630851745605,2.900250305183698,2.615830374939601,11.555882651753116,9.596650938879204,-6.47544875391759e-05,0.0914128422737121,0,0,0
950,31509.93443665685,2010-09-22 00:32:46,2371.2102603915155,7,3,-1.0997490882873535,3.576716899871826,2.900250305183698,2.624999478294373,11.555882651753116,9.62945873854804,-9.713172767078504e-05,0.0914128422737121,0,0,0
951,31539.94976113449,2010-09-22 00:33:16,2401.2255848741665,7,3,-1.099929690361023,3.573479175567627,2.900250305183698,2.634168540612619,11.555882651753116,9.66223886320856,-9.713172767078504e-05,0.0914128422737121,0,0,0
952,31569.965065206197,2010-09-22 00:33:46,2431.240888950881,7,3,-1.099929690361023,3.570565223693848,2.900250305183698,2.643337623770501,11.555882651753116,9.694991410675955,-6.47544875391759e-05,0.0914128422737121,0,0,0
953,31599.98088624332,2010-09-22 00:34:16,2461.2567099980333,7,3,-1.0997490882873535,3.5674893856048584,2.900250305183698,2.652506780029998,11.555882651753116,9.727715614572796,-6.47544875391759e-05,0.0914128422737121,0,0,0
954,31629.99581848187,2010-09-22 00:34:46,2491.271642246608,7,3,-1.099568486213684,3.564089775085449,2.900250305183698,2.661675775353069,11.555882651753116,9.76041012229956,-0.0001295089750783,0.0914128422737121,0,0,0
955,31660.011005085355,2010-09-22 00:35:16,2521.286828825029,7,3,-1.0997490882873535,3.56085205078125,2.900250305183698,2.670844750203187,11.555882651753116,9.793074964953338,-9.713172767078504e-05,0.0914128422737121,0,0,0
956,31690.026441893388,2010-09-22 00:35:46,2551.302265643086,7,3,-1.099568486213684,3.557614326477051,2.900250305183698,2.680013763888586,11.555882651753116,9.825709899065382,-6.47544875391759e-05,0.0914128422737121,0,0,0
957,31720.04164140409,2010-09-22 00:36:16,2581.3174651387503,7,3,-1.099929690361023,3.554052829742432,2.900250305183698,2.68918275610941,11.555882651753116,9.85831353263042,-0.0001295089750783,0.0914128422737121,0,0,0
958,31750.05701289407,2010-09-22 00:36:46,2611.3328367239765,7,3,-1.099568486213684,3.5504913330078125,2.900250305183698,2.698351691096761,11.555882651753116,9.89088503775348,-9.713172767078504e-05,0.0914128422737121,0,0,0
959,31780.072283221547,2010-09-22 00:37:16,2641.348106966235,7,3,-1.0997490882873535,3.5469298362731934,2.900250305183698,2.707520663248885,11.555882651753116,9.92342346315599,-6.47544875391759e-05,0.0914128422737121,0,0,0
960,31810.087602731783,2010-09-22 00:37:46,2671.3634264764737,7,3,-1.099929690361023,3.5428826808929443,2.900250305183698,2.71668968493542,11.555882651753116,9.955927570087896,-0.0001295089750783,0.0914128422737121,0,0,0
961,31840.103190606907,2010-09-22 00:38:16,2701.379014341568,7,3,-1.099568486213684,3.5391592979431152,2.900250305183698,2.725858698369794,11.555882651753116,9.988395949196056,-9.713172767078504e-05,0.0914128422737121,0,0,0
962,31870.11847842303,2010-09-22 00:38:46,2731.3943022529315,7,3,-1.099929690361023,3.534950256347656,2.900250305183698,2.73502763121878,11.555882651753116,10.0208269575081,-0.0001295089750783,0.0914128422737121,0,0,0
963,31900.133591653364,2010-09-22 00:39:16,2761.4094153930387,7,3,-1.0997490882873535,3.5307412147521973,2.900250305183698,2.74419653467828,11.555882651753116,10.05321883979108,-0.0001295089750783,0.0914128422737121,0,0,0
964,31930.14887400084,2010-09-22 00:39:46,2791.424697735501,7,3,-1.0997490882873535,3.5260465145111084,2.900250305183698,2.753365438871323,11.555882651753116,10.085569969211337,-0.0001295089750783,0.0914128422737121,0,0,0
965,31960.164198969705,2010-09-22 00:40:16,2821.440022704366,7,3,-1.099929690361023,3.5211899280548096,2.900250305183698,2.762534358766112,11.555882651753116,10.117878482030166,-0.0001295089750783,0.0914128422737121,0,0,0
966,31990.16424531076,2010-09-22 00:40:46,2851.4400690654747,7,3,-1.099568486213684,3.5163333415985107,2.900250305183698,2.771698656794306,11.555882651753116,10.15012555762496,-9.713172767078504e-05,0.0914128422737121,0,0,0
967,32020.17927158404,2010-09-22 00:41:16,2881.4550953287244,7,3,-1.099929690361023,3.5105056762695312,2.900250305183698,2.780867548828697,11.555882651753116,10.18233976861588,-0.0001618862152099,0.0914128422737121,0,0,0
968,32050.1945804878,2010-09-22 00:41:46,2911.470404222463,7,3,-1.0997490882873535,3.5046777725219727,2.900250305183698,2.790036506137201,11.555882651753116,10.21450131909632,-0.0001295089750783,0.0914128422737121,0,0,0
969,32080.20995002291,2010-09-22 00:42:16,2941.4857737625844,7,3,-1.0997490882873535,3.4980404376983643,2.900250305183698,2.799205456040591,11.555882651753116,10.246605160084478,-0.0001942634553415,0.0914128422737121,0,0,0
970,32110.225250189866,2010-09-22 00:42:46,2971.501073939565,7,3,-1.0997490882873535,3.490593671798706,2.900250305183698,2.808374420391242,11.555882651753116,10.278645242379485,-0.0002266406954731,0.0914128422737121,0,0,0
971,32140.24058218126,2010-09-22 00:43:16,3001.516405915921,7,3,-1.0997490882873535,3.482499361038208,2.900250305183698,2.817543457103479,11.555882651753116,10.310614640455048,-0.0001942634553415,0.0914128422737121,0,0,0
972,32170.25586066909,2010-09-22 00:43:46,3031.5316844137865,7,3,-1.0997490882873535,3.4727861881256104,2.900250305183698,2.826712380585324,11.555882651753116,10.34250183132582,-0.0002913951757363,0.0914128422737121,0,0,0
973,32200.2713372464,2010-09-22 00:44:16,3061.5471609910896,7,3,-1.0997490882873535,3.461777925491333,2.900250305183698,2.835881416000108,11.555882651753116,10.374295383405196,-0.0003237724304199,0.0914128422737121,0,0,0
974,32230.286510381266,2010-09-22 00:44:46,3091.562334115928,7,3,-1.0997490882873535,3.448503255844116,2.900250305183698,2.845050317822834,11.555882651753116,10.405977450430816,-0.0003885269106831,0.0914128422737121,0,0,0
975,32260.301836192237,2010-09-22 00:45:16,3121.5776599268947,7,3,-1.0997490882873535,3.4318289756774902,2.900250305183698,2.854219344672762,11.555882651753116,10.437523228732967,-0.0005180359003134,0.0914128422737121,0,0,0
976,32290.31714900576,2010-09-22 00:45:46,3151.5929727404173,7,3,-1.099568486213684,3.409812688827514,2.900250305183698,2.863388366004282,11.555882651753116,10.468893388066268,-0.0006151676061563,0.0914128422737121,0,0,0
977,32320.332475368097,2010-09-22 00:46:16,3181.608299112785,7,3,-1.0997490882873535,3.379216194152832,2.900250305183698,2.872557341108561,11.555882651753116,10.500025500512749,-0.0009389400365762,0.0914128422737121,0,0,0
978,32350.34795814588,2010-09-22 00:46:46,3211.6237818955774,7,3,-1.0997490882873535,3.334859609603882,2.900250305183698,2.881726368909253,11.555882651753116,10.530818666383263,-0.0013598442310467,0.0914128422737121,0,0,0
979,32380.36312482964,2010-09-22 00:47:16,3241.638948569313,7,3,-1.0997490882873535,3.2707526683807373,2.900250305183698,2.890895307800072,11.555882651753116,10.561120271664912,-0.0020073889754712,0.0914128422737121,0,0,0
980,32410.37846263053,2010-09-22 00:47:46,3271.6542863702084,7,3,-1.099929690361023,3.1763734817504883,2.900250305183698,2.900064324898656,11.555882651753116,10.590707492459789,-0.0030110359657555,0.0914128422737121,0,0,0
981,32440.393752927856,2010-09-22 00:48:16,3301.6695766625157,7,3,-1.0997490882873535,3.0196681022644043,2.900250305183698,2.909233337849585,11.555882651753116,10.61918971671512,-0.0056012151762843,0.0914128422737121,0,0,0
982,32457.86233765781,2010-09-22 00:48:34,3319.138161397488,7,3,-1.0997490882873535,2.819577217102051,2.900250305183698,2.914569619305864,11.555882651753116,10.634842995695683,-0.0122709274291992,0.0914128422737121,0,0,0
983,32464.674773205006,2010-09-22 00:48:41,3325.9505969396687,7,3,-1.099929690361023,2.699296236038208,2.900250305183698,2.916650662105132,11.555882651753116,10.64058718808767,-0.0144402030855417,0.0914128422737121,0,0,0
984,32524.68986281907,2010-09-22 00:49:41,60.01506093518051,8,3,0.0,3.359304189682007,2.900250305183698,2.916650662105132,11.555882651753116,10.64058718808767,0.0014569759368896,0.0914128422737121,0,0,0
985,32524.8783108516,2010-09-22 00:49:41,0.187848624065456,9,3,0.0005225847125984,3.3602755069732666,2.900250332452258,2.916650662105132,11.555882743382991,10.64058718808767,0.0,0.0875260159373283,0,0,0
986,32529.70617551454,2010-09-22 00:49:46,5.015713287012582,9,3,0.0007031940040178,3.3685317039489746,2.90025112077576,2.916650662188694,11.555885395867945,10.640587188368828,0.0013274669181555,0.0875260159373283,0,0,0
