Data_Point,Test_Time(s),Date_Time,Step_Time(s),Step_Index,Cycle_Index,Current(A),Voltage(V),Charge_Capacity(Ah),Discharge_Capacity(Ah),Charge_Energy(Wh),Discharge_Energy(Wh),dV/dt(V/s),Internal_Resistance(Ohm),Is_FC_Data,AC_Impedance(Ohm),ACI_Phase_Angle(Deg)
337,11717.313933634136,2010-09-21 19:02:51,30.01537357519346,1,2,0.0,3.4509315490722656,0.998147590768434,1.005799174166465,3.993769243008692,3.669847042139907,0.0008418083307333,0.0884964689612388,0,0,0
338,11747.32903330061,2010-09-21 19:03:21,60.03047324668114,1,2,0.0,3.4773190021514893,0.998147590768434,1.005799174166465,3.993769243008692,3.669847042139907,0.0006475448608398,0.0884964689612388,0,0,0
339,11777.344310129309,2010-09-21 19:03:51,90.04575007036796,1,2,0.0,3.4965834617614746,0.998147590768434,1.005799174166465,3.993769243008692,3.669847042139907,0.0004856586456298,0.0884964689612388,0,0,0
340,11807.312701920742,2010-09-21 19:04:21,120.01414186180118,1,2,0.0,3.511476993560791,0.998147590768434,1.005799174166465,3.993769243008692,3.669847042139907,0.0003237724304199,0.0884964689612388,0,0,0
341,11837.328367739876,2010-09-21 19:04:52,30.01523456821065,2,2,0.550297200679779,3.64875602722168,1.00273402802371,1.005799174166465,4.010369899961759,3.669847042139907,0.0013274669181555,0.0884964689612388,0,0,0
342,11867.343663330408,2010-09-21 19:05:22,60.03053016375491,2,2,0.550297200679779,3.6864752769470215,1.007320452938804,1.005799174166465,4.027197086278139,3.669847042139907,0.0008094310760498,0.0884964689612388,0,0,0
343,11897.358895492613,2010-09-21 19:05:52,90.04576229588471,2,2,0.5501165986061096,3.713510274887085,1.011906803334361,1.005799174166465,4.044169901667018,3.669847042139907,0.0005827903514727,0.0884964689612388,0,0,0
344,11927.374147479302,2010-09-21 19:06:22,120.0610142825746,2,2,0.5501165986061096,3.73406982421875,1.016493238996546,1.005799174166465,4.061251083035808,3.669847042139907,0.0004532813909463,0.0884964689612388,0,0,0
345,11957.389539345151,2010-09-21 19:06:52,150.07640615844937,2,2,0.5499359965324402,3.750258445739746,1.021079660290098,1.005799174166465,4.078415958301863,3.669847042139907,0.0003561496851034,0.0884964689612388,0,0,0
346,11987.407170169789,2010-09-21 19:07:22,180.094037103385,2,2,0.5499359965324402,3.761752128601074,1.025666417968204,1.005799174166465,4.095645887441841,3.669847042139907,0.0002266406954731,0.0884964689612388,0,0,0
347,12017.419950486808,2010-09-21 19:07:52,210.10681729008172,2,2,0.5501165986061096,3.7690370082855225,1.030252513764655,1.005799174166465,4.112916001335163,3.669847042139907,0.0001618862152099,0.0884964689612388,0,0,0
348,12047.435212784236,2010-09-21 19:08:22,240.1220795875088,2,2,0.5499359965324402,3.773569822311402,1.034838929493423,1.005799174166465,4.130213513783273,3.669847042139907,6.47544875391759e-05,0.0884964689612388,0,0,0
349,12077.450609281648,2010-09-21 19:08:52,270.1374760899322,2,2,0.5501165986061096,3.77745509147644,1.039425441540632,1.005799174166465,4.147530229169177,3.669847042139907,9.713172767078504e-05,0.0884964689612388,0,0,0
350,12107.466062806408,2010-09-21 19:09:22,300.1529296096796,2,2,0.5501165986061096,3.78101658821106,1.04401191916551,1.005799174166465,4.164863628818651,3.669847042139907,6.47544875391759e-05,0.0884964689612388,0,0,0
351,12137.480987295612,2010-09-21 19:09:52,330.1678540988853,2,2,0.5501165986061096,3.784578084945679,1.048598260889137,1.005799174166465,4.182212698425726,3.669847042139907,9.713172767078504e-05,0.0884964689612388,0,0,0
352,12167.49624406424,2010-09-21 19:10:22,360.18311096274937,2,2,0.5501165986061096,3.788139581680298,1.053184564547328,1.005799174166465,4.199577749844626,3.669847042139907,0.0001295089750783,0.0884964689612388,0,0,0
353,12197.511497870471,2010-09-21 19:10:52,390.1983646787559,2,2,0.5501165986061096,3.791539192199707,1.057770818994112,1.005799174166465,4.216958446262525,3.669847042139907,9.713172767078504e-05,0.0884964689612388,0,0,0
354,12227.526776568837,2010-09-21 19:11:22,420.2136433721096,2,2,0.5501165986061096,3.794776916503906,1.062357080169528,1.005799174166465,4.234354836290676,3.669847042139907,9.713172767078504e-05,0.0884964689612388,0,0,0
355,12257.542023858805,2010-09-21 19:11:52,450.2288906821258,2,2,0.5499359965324402,3.798176527023315,1.066943369775401,1.005799174166465,4.251766821597775,3.669847042139907,6.47544875391759e-05,0.0884964689612388,0,0,0
356,12287.557310827817,2010-09-21 19:12:22,480.24417765113685,2,2,0.5501165986061096,3.801414251327514,1.071529789204008,1.005799174166465,4.269194625303904,3.669847042139907,6.47544875391759e-05,0.0884964689612388,0,0,0
357,12317.572663616122,2010-09-21 19:12:52,510.2595304394431,2,2,0.5504778623580933,3.804975748062134,1.076116259022654,1.005799174166465,4.286637637363498,3.669847042139907,0.0001295089750783,0.0884964689612388,0,0,0
358,12347.587938304478,2010-09-21 19:13:22,540.2748051227873,2,2,0.5501165986061096,3.808051586151123,1.08070270137556,1.005799174166465,4.304095497561713,3.669847042139907,0.0001295089750783,0.0884964689612388,0,0,0
359,12377.603067148786,2010-09-21 19:13:52,570.2899339771199,2,2,0.5499359965324402,3.811127424240112,1.085289173659913,1.005799174166465,4.321568265346255,3.669847042139907,3.237724376958795e-05,0.0884964689612388,0,0,0
360,12407.61832148133,2010-09-21 19:14:22,600.3051883096653,2,2,0.5501165986061096,3.814365148544312,1.089875630296889,1.005799174166465,4.339055725395131,3.669847042139907,6.47544875391759e-05,0.0884964689612388,0,0,0
361,12437.633642079283,2010-09-21 19:14:52,630.3205090930824,2,2,0.5499359965324402,3.817602872848511,1.094462028638562,1.005799174166465,4.356557805669194,3.669847042139907,9.713172767078504e-05,0.0884964689612388,0,0,0
362,12467.648866171345,2010-09-21 19:15:22,660.3357329696049,2,2,0.5501165986061096,3.82100248336792,1.09904839151301,1.005799174166465,4.374074501432347,3.669847042139907,9.713172767078504e-05,0.0884964689612388,0,0,0
363,12497.664130959993,2010-09-21 19:15:52,690.3509977883255,2,2,0.5501165986061096,3.824240207672119,1.10363480755589,1.005799174166465,4.39160634006871,3.669847042139907,9.713172767078504e-05,0.0884964689612388,0,0,0
364,12527.67937354822,2010-09-21 19:16:22,720.3662403715429,2,2,0.5501165986061096,3.8274779319763184,1.108221226397108,1.005799174166465,4.409153378202234,3.669847042139907,6.47544875391759e-05,0.0884964689612388,0,0,0
365,12557.694642246626,2010-09-21 19:16:52,750.3815090699477,2,2,0.5501165986061096,3.8310394287109375,1.112807598283389,1.005799174166465,4.426715654456459,3.669847042139907,9.713172767078504e-05,0.0884964689612388,0,0,0
366,12587.710026543582,2010-09-21 19:17:22,780.3968933669044,2,2,0.5501165986061096,3.8342769145965576,1.117394019182601,1.005799174166465,4.444293789277951,3.669847042139907,6.47544875391759e-05,0.0884964689612388,0,0,0
367,12617.725198555643,2010-09-21 19:17:52,810.4120653639275,2,2,0.5499359965324402,3.837676525115967,1.121980399192194,1.005799174166465,4.461887554259633,3.669847042139907,6.47544875391759e-05,0.0884964689612388,0,0,0
368,12647.74045538442,2010-09-21 19:18:22,840.4273222077416,2,2,0.5501165986061096,3.841238021850586,1.126566814254032,1.005799174166465,4.479497171095937,3.669847042139907,9.713172767078504e-05,0.0884964689612388,0,0,0
369,12677.755672258463,2010-09-21 19:18:52,870.4425390817848,2,2,0.5499359965324402,3.844475746154785,1.131153161084148,1.005799174166465,4.497122158878841,3.669847042139907,6.47544875391759e-05,0.0884964689612388,0,0,0
370,12707.7709651673,2010-09-21 19:19:22,900.4578319906229,2,2,0.5501165986061096,3.848037242889404,1.13573957412952,1.005799174166465,4.514762857212364,3.669847042139907,9.713172767078504e-05,0.0884964689612388,0,0,0
371,12737.786193920998,2010-09-21 19:19:52,930.4730608395572,2,2,0.5499359965324402,3.851274967193604,1.140326027206782,1.005799174166465,4.532418848169737,3.669847042139907,9.713172767078504e-05,0.0884964689612388,0,0,0
372,12767.801574979872,2010-09-21 19:20:22,960.4884417831432,2,2,0.5501165986061096,3.8543508052825928,1.144912468364634,1.005799174166465,4.550089474629025,3.669847042139907,6.47544875391759e-05,0.0884964689612388,0,0,0
373,12797.81704959227,2010-09-21 19:20:52,990.5039279995063,2,2,0.5501165986061096,3.857588529586792,1.1494988141073,1.005799174166465,4.567774027440071,3.669847042139907,0.0001295089750783,0.0884964689612388,0,0,0
374,12827.8320368682,2010-09-21 19:21:22,1020.5189036714722,2,2,0.5501165986061096,3.8605024814605713,1.154085116623132,1.005799174166465,4.585472444275267,3.669847042139907,9.713172767078504e-05,0.0884964689612388,0,0,0
375,12857.84741658372,2010-09-21 19:21:52,1050.534283386993,2,2,0.5501165986061096,3.863416433334351,1.158671467259901,1.005799174166465,4.60318480085447,3.669847042139907,6.47544875391759e-05,0.0884964689612388,0,0,0
376,12887.862540510756,2010-09-21 19:22:22,1080.5494073140262,2,2,0.5501165986061096,3.86616849899292,1.163257813650579,1.005799174166465,4.620910188689987,3.669847042139907,6.47544875391759e-05,0.0884964689612388,0,0,0
377,12917.877826542426,2010-09-21 19:22:52,1110.5646933456976,2,2,0.5501165986061096,3.868920564651489,1.167844143697241,1.005799174166465,4.638648219687167,3.669847042139907,6.47544875391759e-05,0.0884964689612388,0,0,0
378,12947.89309454409,2010-09-21 19:23:22,1140.5799613774384,2,2,0.550297200679779,3.871348857879639,1.172430491543374,1.005799174166465,4.656398394364129,3.669847042139907,3.237724376958795e-05,0.0884964689612388,0,0,0
379,12977.908325382992,2010-09-21 19:23:52,1170.595192186265,2,2,0.5499359965324402,3.873939037322998,1.177016888458445,1.005799174166465,4.674160312055898,3.669847042139907,6.47544875391759e-05,0.0884964689612388,0,0,0
380,13007.923587219268,2010-09-21 19:24:22,1200.610454022541,2,2,0.5499359965324402,3.8762054443359375,1.18160329428914,1.005799174166465,4.691933066021911,3.669847042139907,6.47544875391759e-05,0.0884964689612388,0,0,0
381,13037.938976097665,2010-09-21 19:24:52,1230.625842905946,2,2,0.5501165986061096,3.878471851348877,1.186189679273446,1.005799174166465,4.709716011985857,3.669847042139907,9.713172767078504e-05,0.0884964689612388,0,0,0
382,13067.954243161988,2010-09-21 19:25:22,1260.6411099752845,2,2,0.5499359965324402,3.880414485931397,1.190776087537876,1.005799174166465,4.727508618614667,3.669847042139907,6.47544875391759e-05,0.0884964689612388,0,0,0
383,13097.96949621634,2010-09-21 19:25:52,1290.6563630196142,2,2,0.5501165986061096,3.882357120513916,1.195362473265575,1.005799174166465,4.745310086594949,3.669847042139907,3.237724376958795e-05,0.0884964689612388,0,0,0
384,13127.984643441532,2010-09-21 19:26:22,1320.671510340041,2,2,0.5501165986061096,3.884299755096436,1.19994884064371,1.005799174166465,4.763119896759143,3.669847042139907,9.713172767078504e-05,0.0884964689612388,0,0,0
385,13157.999888836768,2010-09-21 19:26:52,1350.68675564004,2,2,0.5499359965324402,3.885756731033325,1.204535220188661,1.005799174166465,4.780937457300729,3.669847042139907,6.47544875391759e-05,0.0884964689612388,0,0,0
386,13188.01515589608,2010-09-21 19:27:22,1380.7020226993534,2,2,0.5499359965324402,3.887051820755005,1.209121559328262,1.005799174166465,4.798762136068633,3.669847042139907,0.0,0.0884964689612388,0,0,0
387,13218.030407737408,2010-09-21 19:27:52,1410.7172745406804,2,2,0.550297200679779,3.888670682907105,1.213707994590004,1.005799174166465,4.816594012970112,3.669847042139907,6.47544875391759e-05,0.0884964689612388,0,0,0
388,13248.045819287394,2010-09-21 19:28:22,1440.7326860906646,2,2,0.5501165986061096,3.889965772628784,1.21829439382048,1.005799174166465,4.83443211460872,3.669847042139907,3.237724376958795e-05,0.0884964689612388,0,0,0
389,13278.06093208665,2010-09-21 19:28:52,1470.7477988899211,2,2,0.5499359965324402,3.891260862350464,1.222880759166829,1.005799174166465,4.85227611124855,3.669847042139907,0.0,0.0884964689612388,0,0,0
390,13308.07634217298,2010-09-21 19:29:22,1500.7632089963022,2,2,0.5497553944587708,3.8923940658569336,1.227467259364809,1.005799174166465,4.870126475705671,3.669847042139907,0.0,0.0884964689612388,0,0,0
391,13338.091560154788,2010-09-21 19:29:52,1530.7784269480355,2,2,0.5501165986061096,3.8938510417938232,1.2320536800979,1.005799174166465,4.88798210439305,3.669847042139907,6.47544875391759e-05,0.0884964689612388,0,0,0
392,13368.106723645578,2010-09-21 19:30:22,1560.793590448851,2,2,0.5499359965324402,3.894822359085083,1.23664009065318,1.005799174166465,4.905843103297743,3.669847042139907,0.0,0.0884964689612388,0,0,0
393,13398.122069451458,2010-09-21 19:30:52,1590.808936440191,2,2,0.5501165986061096,3.8961174488067623,1.241226499901324,1.005799174166465,4.923708920671297,3.669847042139907,3.237724376958795e-05,0.0884964689612388,0,0,0
394,13428.13725144844,2010-09-21 19:31:22,1620.8241182767756,2,2,0.550297200679779,3.897250652313232,1.245812892988682,1.005799174166465,4.941580220390975,3.669847042139907,6.47544875391759e-05,0.0884964689612388,0,0,0
395,13458.152499164473,2010-09-21 19:31:52,1650.8393659928051,2,2,0.5497553944587708,3.898221969604492,1.250399257040886,1.005799174166465,4.959456596349249,3.669847042139907,0.0,0.0884964689612388,0,0,0
396,13488.16787895518,2010-09-21 19:32:22,1680.854745788526,2,2,0.5499359965324402,3.899355173110962,1.254985642876289,1.005799174166465,4.977338353519205,3.669847042139907,3.237724376958795e-05,0.0884964689612388,0,0,0
397,13518.183016165369,2010-09-21 19:32:52,1710.8698829686407,2,2,0.5499359965324402,3.900488376617432,1.259572021865786,1.005799174166465,4.995225312591871,3.669847042139907,0.0,0.0884964689612388,0,0,0
398,13548.1983062672,2010-09-21 19:33:22,1740.8851731005473,2,2,0.5501165986061096,3.9017834663391113,1.264158429009463,1.005799174166465,5.013117740595914,3.669847042139907,3.237724376958795e-05,0.0884964689612388,0,0,0
399,13578.213675160709,2010-09-21 19:33:52,1770.9005419940545,2,2,0.5501165986061096,3.902916669845581,1.268744808951674,1.005799174166465,5.031015333758667,3.669847042139907,3.237724376958795e-05,0.0884964689612388,0,0,0
400,13608.228825553804,2010-09-21 19:34:22,1800.9156923570758,2,2,0.5501165986061096,3.904049873352051,1.273331183718693,1.005799174166465,5.048918266500393,3.669847042139907,3.237724376958795e-05,0.0884964689612388,0,0,0
401,13638.244086628178,2010-09-21 19:34:53,1830.93095343145,2,2,0.5501165986061096,3.9053449630737305,1.277917595089207,1.005799174166465,5.066826717795691,3.669847042139907,3.237724376958795e-05,0.0884964689612388,0,0,0
402,13668.25948289,2010-09-21 19:35:23,1860.9463498837483,2,2,0.5499359965324402,3.9063162803649902,1.282503974845162,1.005799174166465,5.08474027408923,3.669847042139907,0.0,0.0884964689612388,0,0,0
403,13698.274587142923,2010-09-21 19:35:53,1890.9614539562217,2,2,0.5499359965324402,3.90761137008667,1.287090247895331,1.005799174166465,5.102658908751584,3.669847042139907,3.237724376958795e-05,0.0884964689612388,0,0,0
404,13728.289846508032,2010-09-21 19:36:23,1920.976713321329,2,2,0.5501165986061096,3.90874457359314,1.2916766994626,1.005799174166465,5.120583704430286,3.669847042139907,0.0,0.0884964689612388,0,0,0
405,13758.305144780255,2010-09-21 19:36:53,1950.9920115835296,2,2,0.5501165986061096,3.9100396633148193,1.296263141682618,1.005799174166465,5.138514016440708,3.669847042139907,3.237724376958795e-05,0.0884964689612388,0,0,0
406,13788.320529152405,2010-09-21 19:37:23,1981.007396050912,2,2,0.5501165986061096,3.911172866821289,1.300849569123434,1.005799174166465,5.15644972549573,3.669847042139907,0.0,0.0884964689612388,0,0,0
407,13818.335638367713,2010-09-21 19:37:53,2011.0225051709845,2,2,0.5501165986061096,3.9124679565429688,1.305435863497215,1.005799174166465,5.174390542569723,3.669847042139907,6.47544875391759e-05,0.0884964689612388,0,0,0
408,13848.350895562402,2010-09-21 19:38:23,2041.0377623656743,2,2,0.5501165986061096,3.913762807846069,1.310022284842801,1.005799174166465,5.192337506606791,3.669847042139907,6.470680091297254e-05,0.0884964689612388,0,0,0
409,13878.366155133022,2010-09-21 19:38:53,2071.05302194632,2,2,0.5501165986061096,3.915057897567749,1.314608700453195,1.005799174166465,5.210290204033695,3.669847042139907,6.47544875391759e-05,0.0884964689612388,0,0,0
410,13908.383931631282,2010-09-21 19:39:23,2101.070798625029,2,2,0.5499359965324402,3.916029214859009,1.319195493937269,1.005799174166465,5.228249984968589,3.669847042139907,3.237724376958795e-05,0.0884964689612388,0,0,0
411,13938.396687552407,2010-09-21 19:39:53,2131.08355435568,2,2,0.5497553944587708,3.917324304580689,1.323781525765376,1.005799174166465,5.246212683775639,3.669847042139907,0.0,0.0884964689612388,0,0,0
412,13968.412106646225,2010-09-21 19:40:23,2161.0989734745576,2,2,0.5501165986061096,3.918781280517578,1.328367909956763,1.005799174166465,5.264182613573178,3.669847042139907,6.47544875391759e-05,0.0884964689612388,0,0,0
413,13998.427345625443,2010-09-21 19:40:53,2191.1142124287167,2,2,0.5501165986061096,3.920076370239258,1.332954143083459,1.005799174166465,5.282157920555803,3.669847042139907,0.0,0.0884964689612388,0,0,0
414,14028.442696027794,2010-09-21 19:41:23,2221.1295628310663,2,2,0.5499359965324402,3.9213714599609375,1.337540385989547,1.005799174166465,5.300139258435689,3.669847042139907,3.237724376958795e-05,0.0884964689612388,0,0,0
415,14058.457926851655,2010-09-21 19:41:53,2251.1447936549307,2,2,0.5501165986061096,3.922828435897827,1.342126586225376,1.005799174166465,5.318126521625962,3.669847042139907,3.237724376958795e-05,0.0884964689612388,0,0,0
416,14088.472989099731,2010-09-21 19:42:23,2281.159855903004,2,2,0.5501165986061096,3.923961639404297,1.346712757058941,1.005799174166465,5.336119754072181,3.669847042139907,0.0,0.0884964689612388,0,0,0
417,14118.488374654828,2010-09-21 19:42:53,2311.175241453089,2,2,0.5501165986061096,3.9254186153411865,1.351299088763736,1.005799174166465,5.354119858249359,3.669847042139907,3.237724376958795e-05,0.0884964689612388,0,0,0
418,14148.503532255918,2010-09-21 19:43:23,2341.1903990541778,2,2,0.5501165986061096,3.926713705062866,1.355885485782003,1.005799174166465,5.372126285404808,3.669847042139907,3.237724376958795e-05,0.0884964689612388,0,0,0
419,14178.518797786415,2010-09-21 19:43:53,2371.205664589688,2,2,0.5499359965324402,3.928008794784546,1.360471854488489,1.005799174166465,5.390138935981276,3.669847042139907,-3.237724376958795e-05,0.0884964689612388,0,0,0
420,14208.534039557606,2010-09-21 19:44:23,2401.2209063558653,2,2,0.5501165986061096,3.9296276569366455,1.365058272735767,1.005799174166465,5.408158097908491,3.669847042139907,6.47544875391759e-05,0.0884964689612388,0,0,0
421,14238.549307469046,2010-09-21 19:44:53,2431.2361742723183,2,2,0.550297200679779,3.9307608604431152,1.369644663335307,1.005799174166465,5.426183544493379,3.669847042139907,0.0,0.0884964689612388,0,0,0
422,14268.5645711399,2010-09-21 19:45:23,2461.2514379381614,2,2,0.5501165986061096,3.932379722595215,1.374231037306076,1.005799174166465,5.444215319169745,3.669847042139907,0.0,0.0884964689612388,0,0,0
423,14298.579828760656,2010-09-21 19:45:53,2491.266695563927,2,2,0.5501165986061096,3.9336748123168954,1.378817435653136,1.005799174166465,5.462253754713663,3.669847042139907,0.0,0.0884964689612388,0,0,0
424,14328.59508628617,2010-09-21 19:46:23,2521.281953094455,2,2,0.5501165986061096,3.935131788253784,1.383403925726651,1.005799174166465,5.480299126348315,3.669847042139907,3.237724376958795e-05,0.0884964689612388,0,0,0
425,14358.610362488304,2010-09-21 19:46:53,2551.297229311628,2,2,0.5501165986061096,3.936426877975464,1.387990386382402,1.005799174166465,5.498350920705298,3.669847042139907,3.237724376958795e-05,0.0884964689612388,0,0,0
426,14388.625632795727,2010-09-21 19:47:23,2581.3124995989992,2,2,0.5499359965324402,3.9378838539123535,1.392576803565791,1.005799174166465,5.516409234999892,3.669847042139907,0.0,0.0884964689612388,0,0,0
427,14418.640871930336,2010-09-21 19:47:53,2611.327738753658,2,2,0.5501165986061096,3.939502716064453,1.397163185145397,1.005799174166465,5.534474132035185,3.669847042139907,0.0,0.0884964689612388,0,0,0
428,14448.656168728883,2010-09-21 19:48:23,2641.343035617368,2,2,0.5499359965324402,3.940959692001343,1.401749515520427,1.005799174166465,5.552545661381665,3.669847042139907,0.0,0.0884964689612388,0,0,0
429,14478.671399076558,2010-09-21 19:48:53,2671.358265879831,2,2,0.5499359965324402,3.9425785541534415,1.406335925748574,1.005799174166465,5.570624290277046,3.669847042139907,6.47544875391759e-05,0.0884964689612388,0,0,0
430,14508.686679739829,2010-09-21 19:49:23,2701.373546548114,2,2,0.5501165986061096,3.944035530090332,1.410922297895099,1.005799174166465,5.588709660338424,3.669847042139907,3.237724376958795e-05,0.0884964689612388,0,0,0
431,14538.701927982174,2010-09-21 19:49:53,2731.388794780433,2,2,0.5499359965324402,3.9454925060272217,1.41550870854776,1.005799174166465,5.606802175143218,3.669847042139907,3.237724376958795e-05,0.0884964689612388,0,0,0
432,14568.71718700643,2010-09-21 19:50:23,2761.404053809702,2,2,0.550297200679779,3.947111368179321,1.420095162103227,1.005799174166465,5.624901864117587,3.669847042139907,6.47544875391759e-05,0.0884964689612388,0,0,0
433,14598.732477123298,2010-09-21 19:50:53,2791.419343921558,2,2,0.5499359965324402,3.948730230331421,1.424681558689646,1.005799174166465,5.643008366993413,3.669847042139907,3.237724376958795e-05,0.0884964689612388,0,0,0
434,14628.74774138563,2010-09-21 19:51:23,2821.4346081838894,2,2,0.5501165986061096,3.950187206268311,1.429267966062664,1.005799174166465,5.661122072981558,3.669847042139907,3.237724376958795e-05,0.0884964689612388,0,0,0
435,14658.7629696882,2010-09-21 19:51:53,2851.4498364864608,2,2,0.5499359965324402,3.9516441822052,1.433854352951523,1.005799174166465,5.679242924418296,3.669847042139907,0.0,0.0884964689612388,0,0,0
436,14688.778236486864,2010-09-21 19:52:23,2881.465103285123,2,2,0.5501165986061096,3.9534249305725098,1.438440774757344,1.005799174166465,5.697371110266055,3.669847042139907,6.47544875391759e-05,0.0884964689612388,0,0,0
437,14718.793883198849,2010-09-21 19:52:53,2911.4807500472334,2,2,0.5501165986061096,3.95504379272461,1.443027234571561,1.005799174166465,5.715506838109774,3.669847042139907,3.237724376958795e-05,0.0884964689612388,0,0,0
438,14748.808767838584,2010-09-21 19:53:23,2941.495634641856,2,2,0.5501165986061096,3.956662654876709,1.447613587261219,1.005799174166465,5.733649574061107,3.669847042139907,6.47544875391759e-05,0.0884964689612388,0,0,0
439,14778.824020110987,2010-09-21 19:53:53,2971.5108870044846,2,2,0.5501165986061096,3.9582815170288086,1.452199983960017,1.005799174166465,5.7517998055738,3.669847042139907,6.47544875391759e-05,0.0884964689612388,0,0,0
440,14808.839296929662,2010-09-21 19:54:23,3001.526163727921,2,2,0.5501165986061096,3.959900379180908,1.456786350779713,1.005799174166465,5.769957469729721,3.669847042139907,3.237724376958795e-05,0.0884964689612388,0,0,0
441,14838.854552074234,2010-09-21 19:54:53,3031.541418872493,2,2,0.5501165986061096,3.961519241333008,1.461372785636965,1.005799174166465,5.788123042671388,3.669847042139907,3.237724376958795e-05,0.0884964689612388,0,0,0
442,14868.869814897977,2010-09-21 19:55:23,3061.556681696234,2,2,0.5499359965324402,3.963299989700317,1.465959205423735,1.005799174166465,5.806296140459804,3.669847042139907,9.713172767078504e-05,0.0884964689612388,0,0,0
443,14898.88506603254,2010-09-21 19:55:53,3091.571932840822,2,2,0.5499359965324402,3.964756965637207,1.470545598822227,1.005799174166465,5.824476880266504,3.669847042139907,6.47544875391759e-05,0.0884964689612388,0,0,0
444,14928.900356570455,2010-09-21 19:56:23,3121.5872234639546,2,2,0.550297200679779,3.966699600219727,1.475132018620516,1.005799174166465,5.842665528493074,3.669847042139907,6.47544875391759e-05,0.0884964689612388,0,0,0
445,14958.915743108006,2010-09-21 19:56:53,3151.6026100065164,2,2,0.5501165986061096,3.968318462371826,1.479718535179305,1.005799174166465,5.860862389384351,3.669847042139907,3.237724376958795e-05,0.0884964689612388,0,0,0
446,14988.931002728752,2010-09-21 19:57:23,3181.617869527012,2,2,0.5501165986061096,3.970099210739136,1.484304902781445,1.005799174166465,5.879066628781312,3.669847042139907,6.47544875391759e-05,0.0884964689612388,0,0,0
447,15018.946270078792,2010-09-21 19:57:53,3211.6331368770507,2,2,0.5501165986061096,3.9717180728912354,1.488891344861747,1.005799174166465,5.897279179955887,3.669847042139907,3.237724376958795e-05,0.0884964689612388,0,0,0
448,15048.961372898137,2010-09-21 19:58:23,3241.6482397264717,2,2,0.5501165986061096,3.973660707473755,1.493477762356027,1.005799174166465,5.915499737940231,3.669847042139907,6.47544875391759e-05,0.0884964689612388,0,0,0
449,15078.976778748896,2010-09-21 19:58:53,3271.6636455471544,2,2,0.5501165986061096,3.975441455841065,1.498064277603242,1.005799174166465,5.933728926102299,3.669847042139907,6.47544875391759e-05,0.0884964689612388,0,0,0
450,15108.991912620751,2010-09-21 19:59:23,3301.678779429036,2,2,0.550297200679779,3.977384090423584,1.502650739634749,1.005799174166465,5.951966248400186,3.669847042139907,9.713172767078504e-05,0.0884964689612388,0,0,0
451,15139.007173489614,2010-09-21 19:59:53,3331.6940402928853,2,2,0.5499359965324402,3.979002952575684,1.507237148547113,1.005799174166465,5.970211263975964,3.669847042139907,3.237724376958795e-05,0.0884964689612388,0,0,0
452,15169.022435972502,2010-09-21 20:00:23,3361.7093028108625,2,2,0.5501165986061096,3.980945587158203,1.511823519163806,1.005799174166465,5.988465100354214,3.669847042139907,6.47544875391759e-05,0.0884964689612388,0,0,0
453,15199.037684620858,2010-09-21 20:00:53,3391.72455151937,2,2,0.5499359965324402,3.9827263355255127,1.516409878840819,1.005799174166465,6.006727445593342,3.669847042139907,3.237724376958795e-05,0.0884964689612388,0,0,0
454,15229.05300151958,2010-09-21 20:01:23,3421.73986831784,2,2,0.550297200679779,3.984830856323242,1.520996292268758,1.005799174166465,6.024998546195221,3.669847042139907,9.713172767078504e-05,0.0884964689612388,0,0,0
455,15259.06825510526,2010-09-21 20:01:53,3451.7551219937463,2,2,0.5499359965324402,3.986611604690552,1.525582611771797,1.005799174166465,6.043277921180262,3.669847042139907,3.237724376958795e-05,0.0884964689612388,0,0,0
456,15289.083477072018,2010-09-21 20:02:23,3481.7703439003512,2,2,0.5499359965324402,3.988392353057861,1.530168956162254,1.005799174166465,6.061566072291647,3.669847042139907,3.237724376958795e-05,0.0884964689612388,0,0,0
457,15319.098749675168,2010-09-21 20:02:53,3511.785616473428,2,2,0.5501165986061096,3.990496873855591,1.534755265903875,1.005799174166465,6.07986287393199,3.669847042139907,9.713172767078504e-05,0.0884964689612388,0,0,0
458,15349.114017346008,2010-09-21 20:03:23,3541.800884144268,2,2,0.5499359965324402,3.992277622222901,1.539341577075401,1.005799174166465,6.098168520801461,3.669847042139907,3.237724376958795e-05,0.0884964689612388,0,0,0
459,15379.129272234944,2010-09-21 20:03:53,3571.816139063277,2,2,0.5501165986061096,3.994381904602051,1.543927980462948,1.005799174166465,6.116483496324292,3.669847042139907,6.47544875391759e-05,0.0884964689612388,0,0,0
460,15409.144537239126,2010-09-21 20:04:23,3601.8314040373857,2,2,0.5501165986061096,3.9963245391845694,1.548514313036158,1.005799174166465,6.134807267050542,3.669847042139907,6.47544875391759e-05,0.0884964689612388,0,0,0
461,15439.1607480943,2010-09-21 20:04:53,3631.847614897571,2,2,0.550297200679779,3.9984290599823,1.553100878500082,1.005799174166465,6.153141121321577,3.669847042139907,6.47544875391759e-05,0.0884964689612388,0,0,0
462,15469.175167467658,2010-09-21 20:05:23,3661.86203429098,2,2,0.5499359965324402,4.000209808349609,1.557687119362538,1.005799174166465,6.171482758513265,3.669847042139907,3.23295607813634e-05,0.0884964689612388,0,0,0
463,15499.190352953352,2010-09-21 20:05:53,3691.877219756623,2,2,0.550297200679779,4.002314567565918,1.562273399254618,1.005799174166465,6.189833843892465,3.669847042139907,3.24249267578125e-05,0.0884964689612388,0,0,0
464,15529.205608839777,2010-09-21 20:06:23,3721.8924756380334,2,2,0.5499359965324402,4.0042572021484375,1.566859721748673,1.005799174166465,6.208194403571377,3.669847042139907,3.24249267578125e-05,0.0884964689612388,0,0,0
465,15559.220878089556,2010-09-21 20:06:54,3751.907744887816,2,2,0.5501165986061096,4.006361484527588,1.571446029311592,1.005799174166465,6.226564369105294,3.669847042139907,6.47544875391759e-05,0.0884964689612388,0,0,0
466,15589.236187835422,2010-09-21 20:07:24,3781.9230546336817,2,2,0.5501165986061096,4.008627891540527,1.57603244064798,1.005799174166465,6.244944303088859,3.669847042139907,9.70840483205393e-05,0.0884964689612388,0,0,0
467,15619.25144752133,2010-09-21 20:07:54,3811.9383143195914,2,2,0.5501165986061096,4.010570526123047,1.580618816221912,1.005799174166465,6.263333598536443,3.669847042139907,3.23295607813634e-05,0.0884964689612388,0,0,0
468,15649.266833452366,2010-09-21 20:08:24,3841.953700275688,2,2,0.5501165986061096,4.012836933135986,1.585205174546137,1.005799174166465,6.281732526705352,3.669847042139907,3.23295607813634e-05,0.0884964689612388,0,0,0
469,15679.281950111255,2010-09-21 20:08:54,3871.9688169145297,2,2,0.5499359965324402,4.014779567718506,1.589791518812945,1.005799174166465,6.300141175507591,3.669847042139907,0.0,0.0884964689612388,0,0,0
470,15709.297244102796,2010-09-21 20:09:24,3901.9841109010567,2,2,0.5501165986061096,4.017045974731445,1.594377851129146,1.005799174166465,6.318559548870353,3.669847042139907,6.47544875391759e-05,0.0884964689612388,0,0,0
471,15739.31263425938,2010-09-21 20:09:54,3931.99950105764,2,2,0.5501165986061096,4.019150733947754,1.598964312358294,1.005799174166465,6.336988418858114,3.669847042139907,6.47544875391759e-05,0.0884964689612388,0,0,0
472,15769.327766111195,2010-09-21 20:10:24,3962.0146329144673,2,2,0.5501165986061096,4.021255016326904,1.60355070351838,1.005799174166465,6.355426843737215,3.669847042139907,0.0,0.0884964689612388,0,0,0
473,15799.343017922449,2010-09-21 20:10:54,3992.029884730732,2,2,0.5499359965324402,4.023521423339844,1.60813697026549,1.005799174166465,6.373874865712772,3.669847042139907,6.47544875391759e-05,0.0884964689612388,0,0,0
474,15829.36085365356,2010-09-21 20:11:24,4022.0477205821458,2,2,0.5501165986061096,4.025787830352783,1.612723710088421,1.005799174166465,6.392334916238224,3.669847042139907,9.70840483205393e-05,0.0884964689612388,0,0,0
475,15859.37372280232,2010-09-21 20:11:54,4052.060589791055,2,2,0.5499359965324402,4.027730464935303,1.617309653321816,1.005799174166465,6.410802064961953,3.669847042139907,0.0,0.0884964689612388,0,0,0
476,15889.388900794307,2010-09-21 20:12:24,4082.07576759758,2,2,0.5499359965324402,4.030158996582031,1.621896000113943,1.005799174166465,6.429281163999518,3.669847042139907,3.24249267578125e-05,0.0884964689612388,0,0,0
477,15919.404290419565,2010-09-21 20:12:54,4112.091157232862,2,2,0.550297200679779,4.032749176025391,1.62648235496153,1.005799174166465,6.447770705834336,3.669847042139907,0.0001295089750783,0.0884964689612388,0,0,0
478,15949.419813628268,2010-09-21 20:13:24,4142.106680431539,2,2,0.5501165986061096,4.034853458404541,1.631068696876017,1.005799174166465,6.466270751642441,3.669847042139907,6.47544875391759e-05,0.0884964689612388,0,0,0
479,15979.434849886466,2010-09-21 20:13:54,4172.121716689737,2,2,0.5501165986061096,4.037281513214111,1.635655065405545,1.005799174166465,6.484781532780287,3.669847042139907,9.70840483205393e-05,0.0884964689612388,0,0,0
480,16009.450055347015,2010-09-21 20:14:24,4202.136922150291,2,2,0.5501165986061096,4.03971004486084,1.640241474053421,1.005799174166465,6.503303197504965,3.669847042139907,9.71794142969884e-05,0.0884964689612388,0,0,0
481,16039.46539557397,2010-09-21 20:14:54,4232.152262387266,2,2,0.5501165986061096,4.04181432723999,1.644827819775165,1.005799174166465,6.521835361482106,3.669847042139907,3.23295607813634e-05,0.0884964689612388,0,0,0
482,16069.480578217568,2010-09-21 20:15:24,4262.16744502084,2,2,0.5501165986061096,4.04440450668335,1.649414191056643,1.005799174166465,6.540378589524862,3.669847042139907,9.70840483205393e-05,0.0884964689612388,0,0,0
483,16099.495815803311,2010-09-21 20:15:54,4292.182682606584,2,2,0.5499359965324402,4.046670913696289,1.65400055407641,1.005799174166465,6.5589328567854,3.669847042139907,6.47544875391759e-05,0.0884964689612388,0,0,0
484,16129.511096792396,2010-09-21 20:16:24,4322.197963595668,2,2,0.5499359965324402,4.049099445343018,1.658586958171959,1.005799174166465,6.577498465664564,3.669847042139907,6.47544875391759e-05,0.0884964689612388,0,0,0
485,16159.526491791066,2010-09-21 20:16:54,4352.2133585943375,2,2,0.5501165986061096,4.051689624786377,1.6631733908574,1.005799174166465,6.59607546070303,3.669847042139907,9.71794142969884e-05,0.0884964689612388,0,0,0
486,16189.541656334484,2010-09-21 20:17:24,4382.228523137756,2,2,0.5501165986061096,4.054117679595947,1.667759722867632,1.005799174166465,6.614663342781968,3.669847042139907,6.47544875391759e-05,0.0884964689612388,0,0,0
487,16219.556940225812,2010-09-21 20:17:54,4412.243807029085,2,2,0.5499359965324402,4.056707859039307,1.672346038865124,1.005799174166465,6.633262656278472,3.669847042139907,6.47544875391759e-05,0.0884964689612388,0,0,0
488,16249.572201876625,2010-09-21 20:18:24,4442.259068709972,2,2,0.5497553944587708,4.058974266052246,1.676932371792534,1.005799174166465,6.65187362777756,3.669847042139907,3.23295607813634e-05,0.0884964689612388,0,0,0
489,16279.587502334309,2010-09-21 20:18:54,4472.274369137578,2,2,0.5501165986061096,4.0617265701293945,1.681518794587045,1.005799174166465,6.670496464387981,3.669847042139907,6.47544875391759e-05,0.0884964689612388,0,0,0
490,16309.602904114903,2010-09-21 20:19:24,4502.289770913164,2,2,0.5499359965324402,4.064316749572754,1.686105133156643,1.005799174166465,6.689130705989621,3.669847042139907,6.47544875391759e-05,0.0884964689612388,0,0,0
491,16339.618056633306,2010-09-21 20:19:54,4532.304923431566,2,2,0.5501165986061096,4.067068576812744,1.690691434718046,1.005799174166465,6.707776785897377,3.669847042139907,9.70840483205393e-05,0.0884964689612388,0,0,0
492,16369.633489280954,2010-09-21 20:20:24,4562.3203560792135,2,2,0.5501165986061096,4.069497108459473,1.695277865834683,1.005799174166465,6.726435515378126,3.669847042139907,3.24249267578125e-05,0.0884964689612388,0,0,0
493,16399.6486230676,2010-09-21 20:20:54,4592.335489865857,2,2,0.5501165986061096,4.072248935699463,1.699864232687927,1.005799174166465,6.745106168315174,3.669847042139907,3.23295607813634e-05,0.0884964689612388,0,0,0
494,16429.663916658137,2010-09-21 20:21:24,4622.350783456397,2,2,0.550297200679779,4.075001239776611,1.704450575774582,1.005799174166465,6.763789010350025,3.669847042139907,9.71794142969884e-05,0.0884964689612388,0,0,0
495,16459.679187657286,2010-09-21 20:21:54,4652.366054555795,2,2,0.5501165986061096,4.077753067016602,1.709036996916835,1.005799174166465,6.782484657334949,3.669847042139907,9.70840483205393e-05,0.0884964689612388,0,0,0
496,16489.694481964616,2010-09-21 20:22:24,4682.381348762873,2,2,0.550297200679779,4.08050537109375,1.713623409397382,1.005799174166465,6.801192848350475,3.669847042139907,6.47544875391759e-05,0.0884964689612388,0,0,0
497,16519.709742913674,2010-09-21 20:22:54,4712.396609716947,2,2,0.5501165986061096,4.08325719833374,1.71820980632879,1.005799174166465,6.819913622769173,3.669847042139907,9.70840483205393e-05,0.0884964689612388,0,0,0
498,16549.725043050556,2010-09-21 20:23:24,4742.411909848815,2,2,0.5499359965324402,4.0858473777771,1.72279616409739,1.005799174166465,6.838647072190041,3.669847042139907,3.23295607813634e-05,0.0884964689612388,0,0,0
499,16579.740319152443,2010-09-21 20:23:54,4772.427185960725,2,2,0.5501165986061096,4.089085102081299,1.727382537604448,1.005799174166465,6.857393501699623,3.669847042139907,0.0001295089750783,0.0884964689612388,0,0,0
500,16609.75561605124,2010-09-21 20:24:24,4802.442482939723,2,2,0.5499359965324402,4.091675281524658,1.731968900587964,1.005799174166465,6.876152995219051,3.669847042139907,6.47544875391759e-05,0.0884964689612388,0,0,0
501,16639.771265926116,2010-09-21 20:24:54,4832.458132734402,2,2,0.5497553944587708,4.0945892333984375,1.736555352579936,1.005799174166465,6.894925948905086,3.669847042139907,6.47544875391759e-05,0.0884964689612388,0,0,0
502,16669.78618384392,2010-09-21 20:25:24,4862.473050737417,2,2,0.5499359965324402,4.097503185272217,1.741141755014151,1.005799174166465,6.913712034553761,3.669847042139907,0.0001295089750783,0.0884964689612388,0,0,0
503,16699.801468025977,2010-09-21 20:25:54,4892.488334829247,2,2,0.5499359965324402,4.100255489349365,1.74572807223605,1.005799174166465,6.932511158237457,3.669847042139907,3.24249267578125e-05,0.0884964689612388,0,0,0
504,16729.8167403384,2010-09-21 20:26:24,4922.503607211847,2,2,0.550297200679779,4.1034932136535645,1.750314489027352,1.005799174166465,6.951324241662867,3.669847042139907,0.0001295089750783,0.0884964689612388,0,0,0
505,16759.832175873256,2010-09-21 20:26:54,4952.519042676527,2,2,0.5501165986061096,4.106568813323975,1.754900812511271,1.005799174166465,6.970150645012384,3.669847042139907,0.0001295089750783,0.0884964689612388,0,0,0
506,16789.847321725014,2010-09-21 20:27:24,4982.534188523276,2,2,0.550297200679779,4.109644889831543,1.759487224676832,1.005799174166465,6.9889911921912,3.669847042139907,0.0001295089750783,0.0884964689612388,0,0,0
507,16819.86259541588,2010-09-21 20:27:54,5012.5494622191545,2,2,0.5501165986061096,4.112396717071533,1.764073638526958,1.005799174166465,7.007845700802467,3.669847042139907,6.47544875391759e-05,0.0884964689612388,0,0,0
508,16849.8778743348,2010-09-21 20:28:24,5042.564741133059,2,2,0.550297200679779,4.115634441375732,1.768660013372586,1.005799174166465,7.026713967110088,3.669847042139907,0.0001295089750783,0.0884964689612388,0,0,0
509,16879.893400465797,2010-09-21 20:28:54,5072.580267269068,2,2,0.5501165986061096,4.118710041046143,1.773246470219553,1.005799174166465,7.045596795930941,3.669847042139907,9.70840483205393e-05,0.0884964689612388,0,0,0
510,16909.90847857847,2010-09-21 20:29:24,5102.595345376729,2,2,0.5501165986061096,4.121947765350342,1.777832813383478,1.005799174166465,7.064493449548444,3.669847042139907,9.70840483205393e-05,0.0884964689612388,0,0,0
511,16939.92389926626,2010-09-21 20:29:54,5132.610766069535,2,2,0.5499359965324402,4.124861717224121,1.782419262860791,1.005799174166465,7.083404911050131,3.669847042139907,9.70840483205393e-05,0.0884964689612388,0,0,0
512,16969.939029854922,2010-09-21 20:30:24,5162.625896678246,2,2,0.5499359965324402,4.12809944152832,1.787005594305242,1.005799174166465,7.102330454571732,3.669847042139907,6.47544875391759e-05,0.0884964689612388,0,0,0
513,16999.95445152016,2010-09-21 20:30:54,5192.641318323431,2,2,0.5497553944587708,4.131175518035889,1.79159201102882,1.005799174166465,7.121271048466675,3.669847042139907,6.47544875391759e-05,0.0884964689612388,0,0,0
514,17029.969613311707,2010-09-21 20:31:24,5222.656480109967,2,2,0.550297200679779,4.134574890136719,1.796178371083468,1.005799174166465,7.140226235066308,3.669847042139907,9.70840483205393e-05,0.0884964689612388,0,0,0
515,17059.984883248202,2010-09-21 20:31:54,5252.671750056487,2,2,0.5501165986061096,4.137812614440918,1.80076478317576,1.005799174166465,7.159196601198883,3.669847042139907,6.47544875391759e-05,0.0884964689612388,0,0,0
516,17090.000336572462,2010-09-21 20:32:24,5282.687203375735,2,2,0.5501165986061096,4.141212463378906,1.805351223310163,1.005799174166465,7.178182113304107,3.669847042139907,0.0001295089750783,0.0884964689612388,0,0,0
517,17120.015646057676,2010-09-21 20:32:54,5312.702512875986,2,2,0.5499359965324402,4.1444501876831055,1.809937677507243,1.005799174166465,7.197182887470168,3.669847042139907,0.0001295089750783,0.0884964689612388,0,0,0
518,17150.03076142334,2010-09-21 20:33:24,5342.7176282216,2,2,0.5501165986061096,4.148011684417725,1.814524054169413,1.005799174166465,7.216199024335364,3.669847042139907,0.0001295089750783,0.0884964689612388,0,0,0
519,17180.04604109413,2010-09-21 20:33:54,5372.732907897405,2,2,0.5501165986061096,4.151411056518555,1.819110453406668,1.005799174166465,7.235230691421899,3.669847042139907,9.70840483205393e-05,0.0884964689612388,0,0,0
520,17210.061329496722,2010-09-21 20:34:24,5402.748196294983,2,2,0.5501165986061096,4.154487133026123,1.823696852298366,1.005799174166465,7.254277921768153,3.669847042139907,9.71794142969884e-05,0.0884964689612388,0,0,0
521,17240.076623869216,2010-09-21 20:34:54,5432.763490677499,2,2,0.5501165986061096,4.158210277557373,1.82828322667275,1.005799174166465,7.273340729082021,3.669847042139907,9.70840483205393e-05,0.0884964689612388,0,0,0
522,17270.092048998096,2010-09-21 20:35:24,5462.778915796353,2,2,0.5497553944587708,4.161448001861572,1.832869655115147,1.005799174166465,7.292419636328085,3.669847042139907,3.23295607813634e-05,0.0884964689612388,0,0,0
523,17300.107191030318,2010-09-21 20:35:54,5492.794057833592,2,2,0.5501165986061096,4.165009498596191,1.83745608610422,1.005799174166465,7.311514454017559,3.669847042139907,9.70840483205393e-05,0.0884964689612388,0,0,0
524,17330.122625713047,2010-09-21 20:36:24,5522.809492511307,2,2,0.550297200679779,4.1687331199646,1.842042455041427,1.005799174166465,7.330625094533581,3.669847042139907,0.0001295089750783,0.0884964689612388,0,0,0
525,17360.137796461953,2010-09-21 20:36:54,5552.824663265227,2,2,0.550297200679779,4.172294616699219,1.846628816366301,1.005799174166465,7.34975190118717,3.669847042139907,9.71794142969884e-05,0.0884964689612388,0,0,0
526,17390.15308433823,2010-09-21 20:37:24,5582.839951141504,2,2,0.5497553944587708,4.175693988800049,1.851215282460464,1.005799174166465,7.368895477918207,3.669847042139907,6.47544875391759e-05,0.0884964689612388,0,0,0
527,17420.16849466015,2010-09-21 20:37:54,5612.85536145841,2,2,0.5501165986061096,4.179417610168457,1.855801726309868,1.005799174166465,7.388055349661166,3.669847042139907,9.71794142969884e-05,0.0884964689612388,0,0,0
528,17450.183639023195,2010-09-21 20:38:24,5642.870505821455,2,2,0.5501165986061096,4.182979106903076,1.860388132056319,1.005799174166465,7.407231596431911,3.669847042139907,6.47544875391759e-05,0.0884964689612388,0,0,0
529,17480.19894108989,2010-09-21 20:38:55,5672.885807888151,2,2,0.5499359965324402,4.186378479003906,1.864974549253629,1.005799174166465,7.426424540673253,3.669847042139907,3.23295607813634e-05,0.0884964689612388,0,0,0
530,17510.21426785825,2010-09-21 20:39:25,5702.901134746733,2,2,0.5501165986061096,4.190263748168945,1.869560878355936,1.005799174166465,7.445634044350598,3.669847042139907,9.70840483205393e-05,0.0884964689612388,0,0,0
531,17540.22951709307,2010-09-21 20:39:55,5732.916383901354,2,2,0.5501165986061096,4.194149017333984,1.874147129792857,1.005799174166465,7.464860198957976,3.669847042139907,0.0001295089750783,0.0884964689612388,0,0,0
532,17570.244964763217,2010-09-21 20:40:25,5762.931831566488,2,2,0.5501165986061096,4.197710514068604,1.878733544183732,1.005799174166465,7.48410412832368,3.669847042139907,9.71794142969884e-05,0.0884964689612388,0,0,0
533,17587.66651644144,2010-09-21 20:40:42,5780.353383269778,2,2,0.550297200679779,4.200138568878174,1.881395610450543,1.005799174166465,7.495281661458775,3.669847042139907,0.0001618385285837,0.0884964689612388,0,0,0
534,17617.68244449464,2010-09-21 20:41:12,30.015343089095477,3,2,0.0,4.118224620819092,1.881395610450543,1.005799174166465,7.495281661458775,3.669847042139907,-0.0003885269106831,0.0884964689612388,0,0,0
535,17647.697620346284,2010-09-21 20:41:42,60.03051884550282,3,2,0.0,4.108026027679443,1.881395610450543,1.005799174166465,7.495281661458775,3.669847042139907,-0.0002265930233988,0.0884964689612388,0,0,0
536,17677.712912107254,2010-09-21 20:42:12,90.04581061650042,3,2,0.0,4.102035999298096,1.881395610450543,1.005799174166465,7.495281661458775,3.669847042139907,-0.0001295089750783,0.0884964689612388,0,0,0
537,17707.68131986354,2010-09-21 20:42:42,120.01421845799707,3,2,0.0,4.098150730133057,1.881395610450543,1.005799174166465,7.495281661458775,3.669847042139907,-6.47544875391759e-05,0.0884964689612388,0,0,0
538,17737.69654970647,2010-09-21 20:43:12,30.01528755547501,5,2,0.0,4.095560550689697,1.88139561045066,1.005799174166465,7.495281661459251,3.669847042139907,-6.47544875391759e-05,0.0884964689612388,0,0,0
539,17767.696233823364,2010-09-21 20:43:42,60.01497243928112,5,2,0.0,4.093617916107178,1.88139561045066,1.005799174166465,7.495281661459251,3.669847042139907,0.0,0.0884964689612388,0,0,0
540,17767.884420065555,2010-09-21 20:43:43,0.187602138800313,6,2,-1.9243103452026844e-05,4.093617916107178,1.88139561045066,1.005799175169256,7.495281661459251,3.66984704624495,0.0,0.0915781408548355,0,0,0
541,17772.712269345102,2010-09-21 20:43:48,5.015451428373131,6,2,0.0007031940040178,4.093132495880127,1.881396420650934,1.00579917533511,7.495284977965198,3.669847046923891,-9.70840483205393e-05,0.0915781408548355,0,0,0
542,17802.72826825661,2010-09-21 20:44:18,30.015300292268005,7,2,-1.099568486213684,3.9299514293670654,1.881396420650934,1.014967862457725,7.495284977965198,3.706057599098866,-0.0008094310760498,0.0915781408548355,0,0,0
543,17832.743576052613,2010-09-21 20:44:48,60.030608083253966,7,2,-1.0997490882873535,3.9059925079345694,1.881396420650934,1.024136521649495,7.495284977965198,3.741971115996122,-0.0005180359003134,0.0915781408548355,0,0,0
544,17862.76133472638,2010-09-21 20:45:18,90.04836694248336,7,2,-1.0997490882873535,3.8894801139831534,1.881396420650934,1.033305880122444,7.495284977965198,3.777706757715448,-0.0003885269106831,0.0915781408548355,0,0,0
545,17892.77414922873,2010-09-21 20:45:48,120.06118125937437,7,2,-1.099568486213684,3.876691102981568,1.881396420650934,1.042473705954129,7.495284977965198,3.813304991808967,-0.0003561496851034,0.0915781408548355,0,0,0
546,17922.789484779012,2010-09-21 20:46:18,150.07651680965176,7,2,-1.0997490882873535,3.86600661277771,1.881396420650934,1.051642285781634,7.495284977965198,3.848799272653997,-0.0002913951757363,0.0915781408548355,0,0,0
547,17952.804853898077,2010-09-21 20:46:48,180.09188592370958,7,2,-1.099568486213684,3.856293439865112,1.881396420650934,1.060810889079873,7.495284977965198,3.884200645150384,-0.0002590179501567,0.0915781408548355,0,0,0
548,17982.82025484159,2010-09-21 20:47:18,210.107286862206,7,2,-1.0993878841400146,3.847713470458984,1.881396420650934,1.069979457693635,7.495284977965198,3.919517667823214,-0.0001942634553415,0.0915781408548355,0,0,0
549,18012.835317550813,2010-09-21 20:47:48,240.12234957644276,7,2,-1.099568486213684,3.839457273483277,1.881396420650934,1.079147935244747,7.495284977965198,3.954756033570684,-0.0001618862152099,0.0915781408548355,0,0,0
550,18042.850610815545,2010-09-21 20:48:18,270.13764284116894,7,2,-1.099568486213684,3.831363201141357,1.881396420650934,1.088316537339806,7.495284977965198,3.989920606547454,-0.0002590179501567,0.0915781408548355,0,0,0
551,18072.865897814623,2010-09-21 20:48:48,300.1529298402551,7,2,-1.099568486213684,3.824078321456909,1.881396420650934,1.097485127077304,7.495284977965198,4.025014425551733,-0.0001618862152099,0.0915781408548355,0,0,0
552,18102.881240036557,2010-09-21 20:49:18,330.168272062186,7,2,-1.0993878841400146,3.816631555557251,1.881396420650934,1.106653643593478,7.495284977965198,4.060040015183653,-0.0001942634553415,0.0915781408548355,0,0,0
553,18132.89652304568,2010-09-21 20:49:48,360.18355508133766,7,2,-1.0997490882873535,3.8093466758728023,1.881396420650934,1.115822132790227,7.495284977965198,4.094999121424828,-0.0001942634553415,0.0915781408548355,0,0,0
554,18162.91178138824,2010-09-21 20:50:18,390.1988134138677,7,2,-1.099568486213684,3.802547454833984,1.881396420650934,1.124990633251461,7.495284977965198,4.129893575942912,-0.0001618862152099,0.0915781408548355,0,0,0
555,18192.927078071498,2010-09-21 20:50:48,420.2141100971271,7,2,-1.099568486213684,3.795748233795166,1.881396420650934,1.134159192363932,7.495284977965198,4.164725552391824,-0.0001618862152099,0.0915781408548355,0,0,0
556,18222.942409972668,2010-09-21 20:51:18,450.2294419932832,7,2,-1.099568486213684,3.7891108989715576,1.881396420650934,1.143327775507528,7.495284977965198,4.199496360991403,-0.0001942634553415,0.0915781408548355,0,0,0
557,18252.957688671035,2010-09-21 20:51:48,480.24472070167457,7,2,-1.0997490882873535,3.782635450363159,1.881396420650934,1.152496334076241,7.495284977965198,4.234207354178062,-0.0001942634553415,0.0915781408548355,0,0,0
558,18282.97309269724,2010-09-21 20:52:18,510.26012471785344,7,2,-1.099568486213684,3.7763218879699703,1.881396420650934,1.161665005930306,7.495284977965198,4.268860323489301,-0.0001942634553415,0.0915781408548355,0,0,0
559,18312.988265596512,2010-09-21 20:52:48,540.2752976321664,7,2,-1.099568486213684,3.770170211791992,1.881396420650934,1.170833589196732,7.495284977965198,4.303455671373253,-0.0001618862152099,0.0915781408548355,0,0,0
560,18343.00359096136,2010-09-21 20:53:18,570.2906229869944,7,2,-1.0997490882873535,3.7640185356140137,1.881396420650934,1.180002212694858,7.495284977965198,4.337995268844357,-0.0001942634553415,0.0915781408548355,0,0,0
561,18373.01885511342,2010-09-21 20:53:48,600.305887139051,7,2,-1.099568486213684,3.758190631866455,1.881396420650934,1.189170853772017,7.495284977965198,4.372480021429788,-0.0001618862152099,0.0915781408548355,0,0,0
562,18403.034146734044,2010-09-21 20:54:18,630.3211787897483,7,2,-1.099568486213684,3.752362966537476,1.881396420650934,1.198339475551794,7.495284977965198,4.406910880776637,-0.0001942157687153,0.0915781408548355,0,0,0
563,18433.049444078955,2010-09-21 20:54:48,660.3364761095967,7,2,-1.0997490882873535,3.746858835220337,1.881396420650934,1.207508136803794,7.495284977965198,4.441289388294507,-0.0001295089750783,0.0915781408548355,0,0,0
564,18463.064749052908,2010-09-21 20:55:18,690.3517810785384,7,2,-1.099929690361023,3.741192817687988,1.881396420650934,1.216676780882154,7.495284977965198,4.475616199794923,-0.0001295089750783,0.0915781408548355,0,0,0
565,18493.0801995852,2010-09-21 20:55:48,720.3672316158411,7,2,-1.099568486213684,3.73552680015564,1.881396420650934,1.225845454075174,7.495284977965198,4.50989217507408,-0.0001618862152099,0.0915781408548355,0,0,0
566,18523.095335437,2010-09-21 20:56:18,750.3823674626278,7,2,-1.099568486213684,3.730346441268921,1.881396420650934,1.235014020956341,7.495284977965198,4.544117714479645,-0.0001295089750783,0.0915781408548355,0,0,0
567,18553.110642070093,2010-09-21 20:56:48,780.3976740957236,7,2,-1.0997490882873535,3.7248423099517822,1.881396420650934,1.244182586532222,7.495284977965198,4.578294301506067,-0.0001618862152099,0.0915781408548355,0,0,0
568,18583.12594345509,2010-09-21 20:57:18,810.4129754907442,7,2,-1.099568486213684,3.7198238372802734,1.881396420650934,1.253351200442345,7.495284977965198,4.612422594764443,-9.713172767078504e-05,0.0915781408548355,0,0,0
569,18613.141227135893,2010-09-21 20:57:48,840.4282591615224,7,2,-1.0993878841400146,3.7144815921783447,1.881396420650934,1.262519812227225,7.495284977965198,4.646503009389874,-0.0001295089750783,0.0915781408548355,0,0,0
570,18643.156526175037,2010-09-21 20:58:18,870.443558205675,7,2,-1.0997490882873535,3.709463119506836,1.881396420650934,1.27168842301787,7.495284977965198,4.680536547033626,-0.0001295089750783,0.0915781408548355,0,0,0
571,18673.17216842588,2010-09-21 20:58:48,900.4592004565242,7,2,-1.099568486213684,3.704282760620117,1.881396420650934,1.28085715183504,7.495284977965198,4.714524558828368,-0.0001618862152099,0.0915781408548355,0,0,0
572,18703.187130453796,2010-09-21 20:59:18,930.47416247942,7,2,-1.0997490882873535,3.699588060379028,1.881396420650934,1.290025720564586,7.495284977965198,4.748466839201341,-0.0001295089750783,0.0915781408548355,0,0,0
573,18733.202410199778,2010-09-21 20:59:48,960.4894422254008,7,2,-1.0997490882873535,3.69489336013794,1.881396420650934,1.299194439746124,7.495284977965198,4.782365382885363,-0.0001295089750783,0.0915781408548355,0,0,0
574,18763.217727409265,2010-09-21 21:00:18,990.5047594399095,7,2,-1.099568486213684,3.6900367736816406,1.881396420650934,1.308363075914059,7.495284977965198,4.816219917341931,-0.0001295089750783,0.0915781408548355,0,0,0
575,18793.233139164764,2010-09-21 21:00:48,1020.5201711903944,7,2,-1.099929690361023,3.685180187225342,1.881396420650934,1.317531880769515,7.495284977965198,4.850032052671102,-0.0001942634553415,0.0915781408548355,0,0,0
576,18823.248344063915,2010-09-21 21:01:18,1050.5353761847844,7,2,-1.0997490882873535,3.6811330318450928,1.881396420650934,1.326700524572338,7.495284977965198,4.883801973086599,-6.47544875391759e-05,0.0915781408548355,0,0,0
577,18853.26373212527,2010-09-21 21:01:48,1080.5507641609247,7,2,-1.099568486213684,3.676600217819214,1.881396420650934,1.335869279091308,7.495284977965198,4.917531385298213,-9.713172767078504e-05,0.0915781408548355,0,0,0
578,18883.278905089708,2010-09-21 21:02:18,1110.5659371303757,7,2,-1.0997490882873535,3.672229528427124,1.881396420650934,1.345037985593634,7.495284977965198,4.951220859776445,-9.70840483205393e-05,0.0915781408548355,0,0,0
579,18913.294435245756,2010-09-21 21:02:48,1140.581467371631,7,2,-1.0997490882873535,3.668020486831665,1.881396420650934,1.354206744360036,7.495284977965198,4.984871480700563,-9.713172767078504e-05,0.0915781408548355,0,0,0
580,18943.30969544293,2010-09-21 21:03:18,1170.596727468566,7,2,-1.0997490882873535,3.663811445236206,1.881396420650934,1.363375432314772,7.495284977965198,5.018483611731156,-9.713172767078504e-05,0.0915781408548355,0,0,0
581,18973.324817364966,2010-09-21 21:03:48,1200.6118493905942,7,2,-1.0997490882873535,3.659926176071167,1.881396420650934,1.37254411629303,7.495284977965198,5.052058339994861,-9.713172767078504e-05,0.0915781408548355,0,0,0
582,19003.340090619746,2010-09-21 21:04:18,1230.6271226453723,7,2,-1.099568486213684,3.656040906906128,1.881396420650934,1.381712783201097,7.495284977965198,5.085596205284736,-6.47544875391759e-05,0.0915781408548355,0,0,0
583,19033.35552521726,2010-09-21 21:04:48,1260.6425572428873,7,2,-1.0997490882873535,3.651993751525879,1.881396420650934,1.390881516038021,7.495284977965198,5.11909841447321,-0.0001295089750783,0.0915781408548355,0,0,0
584,19063.370824542108,2010-09-21 21:05:18,1290.6578565727527,7,2,-1.099568486213684,3.64827036857605,1.881396420650934,1.40005025171953,7.495284977965198,5.152565403751214,-9.713172767078504e-05,0.0915781408548355,0,0,0
585,19093.38599088502,2010-09-21 21:05:48,1320.6730229156624,7,2,-1.0993878841400146,3.6445469856262207,1.881396420650934,1.409218868404284,7.495284977965198,5.185997066853251,-6.47544875391759e-05,0.0915781408548355,0,0,0
586,19123.40127090669,2010-09-21 21:06:18,1350.6883029423443,7,2,-1.0997490882873535,3.640823602676392,1.881396420650934,1.418387547840895,7.495284977965198,5.219394985848576,-6.47544875391759e-05,0.0915781408548355,0,0,0
587,19153.416560597496,2010-09-21 21:06:48,1380.703592608087,7,2,-1.0993878841400146,3.6374239921569824,1.881396420650934,1.427556223792337,7.495284977965198,5.252759765675127,-6.47544875391759e-05,0.0915781408548355,0,0,0
588,19183.431881867127,2010-09-21 21:07:18,1410.7189138977678,7,2,-1.099568486213684,3.6338624954223633,1.881396420650934,1.436724859561831,7.495284977965198,5.286091812890756,-3.237724376958795e-05,0.0915781408548355,0,0,0
589,19213.447158314877,2010-09-21 21:07:48,1440.7341903455165,7,2,-1.0997490882873535,3.630300998687744,1.881396420650934,1.44589352387366,7.495284977965198,5.319392076301576,-6.47544875391759e-05,0.0915781408548355,0,0,0
590,19243.46248296795,2010-09-21 21:08:18,1470.7495151138803,7,2,-1.099568486213684,3.627063274383545,1.881396420650934,1.455062120855677,7.495284977965198,5.352661124075385,-6.47544875391759e-05,0.0915781408548355,0,0,0
591,19273.47777888429,2010-09-21 21:08:48,1500.7648109049126,7,2,-1.0997490882873535,3.623663663864136,1.881396420650934,1.464230588383275,7.495284977965198,5.385899365124787,-6.47544875391759e-05,0.0915781408548355,0,0,0
592,19303.493071758046,2010-09-21 21:09:18,1530.7801037836757,7,2,-1.099568486213684,3.620264053344727,1.881396420650934,1.47339915028112,7.495284977965198,5.419107936896524,-9.713172767078504e-05,0.0915781408548355,0,0,0
593,19333.50849286689,2010-09-21 21:09:48,1560.7955248925202,7,2,-1.099568486213684,3.617188215255737,1.881396420650934,1.482567814756553,7.495284977965198,5.452287508229095,-6.47544875391759e-05,0.0915781408548355,0,0,0
594,19363.52367943529,2010-09-21 21:10:18,1590.8107114859783,7,2,-1.099568486213684,3.614112377166748,1.881396420650934,1.491736256723074,7.495284977965198,5.485437533467252,-9.713172767078504e-05,0.0915781408548355,0,0,0
595,19393.53899097563,2010-09-21 21:10:48,1620.8260230012609,7,2,-1.099568486213684,3.611036539077759,1.881396420650934,1.500904821181326,7.495284977965198,5.518559768159542,-9.713172767078504e-05,0.0915781408548355,0,0,0
596,19423.554315979585,2010-09-21 21:11:18,1650.8413480904258,7,2,-1.0997490882873535,3.60812258720398,1.881396420650934,1.510073362923709,7.495284977965198,5.551654019157784,-3.237724376958795e-05,0.0915781408548355,0,0,0
597,19453.56956550012,2010-09-21 21:11:48,1680.856597525747,7,2,-1.099568486213684,3.60488486289978,1.881396420650934,1.519241922397183,7.495284977965198,5.584720460855202,-9.713172767078504e-05,0.0915781408548355,0,0,0
598,19483.584859637023,2010-09-21 21:12:18,1710.8718916626503,7,2,-1.099568486213684,3.601970911026001,1.881396420650934,1.528410474052077,7.495284977965198,5.617759370042413,-9.713172767078504e-05,0.0915781408548355,0,0,0
599,19513.60015392931,2010-09-21 21:12:49,1740.8871859549415,7,2,-1.099568486213684,3.5990569591522217,1.881396420650934,1.537579009952193,7.495284977965198,5.650770735976184,-9.713172767078504e-05,0.0915781408548355,0,0,0
600,19543.615612972848,2010-09-21 21:13:19,1770.9026450034894,7,2,-1.099568486213684,3.5961430072784424,1.881396420650934,1.546747620199029,7.495284977965198,5.6837550350223,-6.47544875391759e-05,0.0915781408548355,0,0,0
601,19573.6308816512,2010-09-21 21:13:49,1800.917913676832,7,2,-1.0997490882873535,3.592905282974243,1.881396420650934,1.555916159262834,7.495284977965198,5.716711995999468,-9.713172767078504e-05,0.0915781408548355,0,0,0
602,19603.64607161307,2010-09-21 21:14:19,1830.9331036386984,7,2,-1.099568486213684,3.590153455734253,1.881396420650934,1.56508472749526,7.495284977965198,5.749641621089631,-6.47544875391759e-05,0.0915781408548355,0,0,0
603,19633.66135526881,2010-09-21 21:14:49,1860.948387304464,7,2,-1.0997490882873535,3.587077617645264,1.881396420650934,1.574253356203813,7.495284977965198,5.782544196181569,-9.713172767078504e-05,0.0915781408548355,0,0,0
604,19663.67671544556,2010-09-21 21:15:19,1890.963747471188,7,2,-1.099568486213684,3.5841636657714844,1.881396420650934,1.583421917424843,7.495284977965198,5.815419095179367,-9.713172767078504e-05,0.0915781408548355,0,0,0
605,19693.691933507565,2010-09-21 21:15:49,1920.9789655331963,7,2,-1.099568486213684,3.581087827682495,1.881396420650934,1.592590367855771,7.495284977965198,5.848266054514184,-6.47544875391759e-05,0.0915781408548355,0,0,0
606,19723.70727575456,2010-09-21 21:16:19,1950.9943077801893,7,2,-1.099568486213684,3.578173875808716,1.881396420650934,1.601758962149753,7.495284977965198,5.881085806471408,-6.47544875391759e-05,0.0915781408548355,0,0,0
607,19753.7226993446,2010-09-21 21:16:49,1981.009731380253,7,2,-1.0997490882873535,3.574774265289306,1.881396420650934,1.610927607515563,7.495284977965198,5.91387753625225,-9.713172767078504e-05,0.0915781408548355,0,0,0
608,19783.74055060447,2010-09-21 21:17:19,2011.0275827303533,7,2,-1.0997490882873535,3.5716984272003174,1.881396420650934,1.620097008786511,7.495284977965198,5.946643376100094,-0.0001295089750783,0.0915781408548355,0,0,0
609,19813.753246931843,2010-09-21 21:17:49,2041.0402789875493,7,2,-1.099568486213684,3.568622589111328,1.881396420650934,1.629264841784005,7.495284977965198,5.979374447577972,-9.713172767078504e-05,0.0915781408548355,0,0,0
610,19843.76848038728,2010-09-21 21:18:19,2071.055512442983,7,2,-1.0997490882873535,3.565222978591919,1.881396420650934,1.638433529730232,7.495284977965198,6.012078984789169,-9.713172767078504e-05,0.0915781408548355,0,0,0
611,19873.783911240447,2010-09-21 21:18:49,2101.070943266076,7,2,-1.0993878841400146,3.56230902671814,1.881396420650934,1.647602158764866,7.495284977965198,6.044753337063471,-6.47544875391759e-05,0.0915781408548355,0,0,0
612,19903.79921366303,2010-09-21 21:19:19,2131.0862457187363,7,2,-1.0993878841400146,3.5587475299835205,1.881396420650934,1.656770533852405,7.495284977965198,6.077396378138714,-9.713172767078504e-05,0.0915781408548355,0,0,0
613,19933.81430790597,2010-09-21 21:19:49,2161.1013399315984,7,2,-1.099568486213684,3.5553479194641118,1.881396420650934,1.665939114822824,7.495284977965198,6.110008361405575,-3.237724376958795e-05,0.0915781408548355,0,0,0
614,19963.8296387094,2010-09-21 21:20:19,2191.116670735027,7,2,-1.099568486213684,3.5516245365142822,1.881396420650934,1.675107770449257,7.495284977965198,6.142588220484162,-9.713172767078504e-05,0.0915781408548355,0,0,0
615,19993.844939372597,2010-09-21 21:20:49,2221.1319713982207,7,2,-1.0997490882873535,3.547901153564453,1.881396420650934,1.684276445173887,7.495284977965198,6.175134727591872,-9.713172767078504e-05,0.0915781408548355,0,0,0
616,20023.86029178997,2010-09-21 21:21:19,2251.1473238156013,7,2,-1.0997490882873535,3.544015884399414,1.881396420650934,1.693445109228201,7.495284977965198,6.207647170826546,-0.0001295089750783,0.0915781408548355,0,0,0
617,20053.87567671349,2010-09-21 21:21:49,2281.162708739122,7,2,-1.099568486213684,3.540292501449585,1.881396420650934,1.70261380938609,7.495284977965198,6.240124524305102,-0.0001295089750783,0.0915781408548355,0,0,0
618,20083.89085109146,2010-09-21 21:22:19,2311.1778831170886,7,2,-1.0997490882873535,3.536083459854126,1.881396420650934,1.711782555864292,7.495284977965198,6.272565891454421,-0.0001295089750783,0.0915781408548355,0,0,0
619,20113.907994414218,2010-09-21 21:22:49,2341.1950265300693,7,2,-1.099568486213684,3.532198190689087,1.881396420650934,1.720951600476308,7.495284977965198,6.304970745306893,-6.47544875391759e-05,0.0915781408548355,0,0,0
620,20143.92147790145,2010-09-21 21:23:19,2371.208509927087,7,2,-1.0997490882873535,3.527827262878418,1.881396420650934,1.730119509098573,7.495284977965198,6.337332636308743,-9.713172767078504e-05,0.0915781408548355,0,0,0
621,20173.936763201305,2010-09-21 21:23:49,2401.223795226932,7,2,-1.099568486213684,3.523132562637329,1.881396420650934,1.739287984167962,7.495284977965198,6.369655835551364,-0.0001618862152099,0.0915781408548355,0,0,0
622,20203.952061563752,2010-09-21 21:24:19,2431.2390935893827,7,2,-1.0997490882873535,3.5182759761810303,1.881396420650934,1.748456477721407,7.495284977965198,6.401936058040229,-0.0001618862152099,0.0915781408548355,0,0,0
623,20233.96751294316,2010-09-21 21:24:49,2461.2545449637746,7,2,-1.0997490882873535,3.5130956172943115,1.881396420650934,1.757624984754379,7.495284977965198,6.434170683286824,-0.0001618862152099,0.0915781408548355,0,0,0
624,20263.98280388208,2010-09-21 21:25:19,2491.2698359127207,7,2,-1.0997490882873535,3.507429838180542,1.881396420650934,1.766793461155098,7.495284977965198,6.46635583116924,-0.0001942634553415,0.0915781408548355,0,0,0
625,20293.998093968872,2010-09-21 21:25:49,2521.2851259945014,7,2,-1.099929690361023,3.501116275787353,1.881396420650934,1.775962002656527,7.495284977965198,6.498487740823889,-0.0002590179501567,0.0915781408548355,0,0,0
626,20324.013266241585,2010-09-21 21:26:19,2551.3002982672133,7,2,-1.099568486213684,3.494640827178955,1.881396420650934,1.785130437717928,7.495284977965198,6.53056041012796,-0.0001942634553415,0.0915781408548355,0,0,0
627,20354.02857267919,2010-09-21 21:26:49,2581.315604704821,7,2,-1.0997490882873535,3.487032175064087,1.881396420650934,1.794298893824062,7.495284977965198,6.562567501595856,-0.0002266406954731,0.0915781408548355,0,0,0
628,20384.043889913748,2010-09-21 21:27:19,2611.33092193938,7,2,-1.099568486213684,3.478614091873169,1.881396420650934,1.803467316893323,7.495284977965198,6.59450053639756,-0.0002266406954731,0.0915781408548355,0,0,0
629,20414.05919456189,2010-09-21 21:27:49,2641.3462265875205,7,2,-1.099568486213684,3.468577146530152,1.881396420650934,1.812635754181702,7.495284977965198,6.626348773751238,-0.0003237724304199,0.0915781408548355,0,0,0
630,20444.074546528147,2010-09-21 21:28:19,2671.3615786690625,7,2,-1.099568486213684,3.457083225250244,1.881396420650934,1.821804234229137,7.495284977965198,6.658098958354183,-0.0003237724304199,0.0915781408548355,0,0,0
631,20474.089789131413,2010-09-21 21:28:49,2701.376821167067,7,2,-1.099568486213684,3.442837238311768,1.881396420650934,1.830972691202442,7.495284977965198,6.689732123818231,-0.0004532813909463,0.0915781408548355,0,0,0
632,20504.10523502212,2010-09-21 21:29:19,2731.3922671479963,7,2,-1.0997490882873535,3.425515651702881,1.881396420650934,1.840141203196022,7.495284977965198,6.721221886090389,-0.0004856586456298,0.0915781408548355,0,0,0
633,20534.12053008132,2010-09-21 21:29:49,2761.407562106951,7,2,-1.0997490882873535,3.4020421504974365,1.881396420650934,1.849309696426569,7.495284977965198,6.752526505949136,-0.0007446765666827,0.0915781408548355,0,0,0
634,20564.135699426726,2010-09-21 21:30:19,2791.422731452356,7,2,-1.099568486213684,3.3696649074554443,1.881396420650934,1.858478080610085,7.495284977965198,6.783579006850019,-0.0010360718006268,0.0915781408548355,0,0,0
635,20594.15140059464,2010-09-21 21:30:49,2821.438432625284,7,2,-1.0997490882873535,3.322232484817505,1.881396420650934,1.867646681022945,7.495284977965198,6.814270519339591,-0.0014893531333655,0.0915781408548355,0,0,0
636,20624.166324878333,2010-09-21 21:31:19,2851.453356913989,7,2,-1.0997490882873535,3.252621650695801,1.881396420650934,1.876815017217289,7.495284977965198,6.84443078910645,-0.0022664070129394,0.0915781408548355,0,0,0
637,20654.18163630339,2010-09-21 21:31:49,2881.468668329021,7,2,-1.0997490882873535,3.148529052734375,1.881396420650934,1.885983456185413,7.495284977965198,6.873810643352551,-0.0033024786971509,0.0915781408548355,0,0,0
638,20684.197009522693,2010-09-21 21:32:19,2911.4840415683766,7,2,-1.0997490882873535,2.963493585586548,1.881396420650934,1.895151974175919,7.495284977965198,6.9019426342635,-0.0070582390762865,0.0915781408548355,0,0,0
639,20698.68114279267,2010-09-21 21:32:34,2925.9681748182966,7,2,-1.0997490882873535,2.7632410526275635,1.881396420650934,1.89957629276773,7.495284977965198,6.914657512786175,-0.0135983945801854,0.0915781408548355,0,0,0
640,20702.19677732733,2010-09-21 21:32:37,2929.483809357974,7,2,-1.0997490882873535,2.699620008468628,1.881396420650934,1.900650167125598,7.495284977965198,6.917591130677686,-0.0144402030855417,0.0915781408548355,0,0,0
641,20762.21299610261,2010-09-21 21:33:37,60.014955968166696,8,2,0.0,3.362865686416626,1.881396420650934,1.900650167125598,7.495284977965198,6.917591130677686,0.0014245987404137,0.0915781408548355,0,0,0
642,20762.40041245601,2010-09-21 21:33:38,0.187410866354863,9,2,-1.9243103452026844e-05,3.363351345062256,1.881396420650934,1.900650168127367,7.495284977965198,6.917591134046986,0.0,0.0882566422224044,0,0,0
643,20767.22864261128,2010-09-21 21:33:42,5.015641026639574,9,2,0.0007031940040178,3.371931314468384,1.881397301920064,1.900650168294494,7.495287946215453,6.917591134609094,0.0012950897216796,0.0882566422224044,0,0,0
