Data_Point,Test_Time(s),Date_Time,Step_Time(s),Step_Index,Cycle_Index,Current(A),Voltage(V),Charge_Capacity(Ah),Discharge_Capacity(Ah),Charge_Energy(Wh),Discharge_Energy(Wh),dV/dt(V/s),Internal_Resistance(Ohm),Is_FC_Data,AC_Impedance(Ohm),ACI_Phase_Angle(Deg)
13562,458720.4954259125,2010-09-26 23:13:40,30.01540164526067,1,41,0.0,3.354285717010498,40.03722721907189,40.08360204588013,159.47077467825784,146.7542204751075,0.0008093834039755,0.0882566422224044,0,0,0
13563,458750.51084363787,2010-09-26 23:14:10,60.03081917517187,1,41,0.0,3.381158828735352,40.03722721907189,40.08360204588013,159.47077467825784,146.7542204751075,0.0006799221155233,0.0882566422224044,0,0,0
13564,458780.5262614736,2010-09-26 23:14:40,90.0462370058338,1,41,0.0,3.4012327194213867,40.03722721907189,40.08360204588013,159.47077467825784,146.7542204751075,0.0004856586456298,0.0882566422224044,0,0,0
13565,458810.4948617053,2010-09-26 23:15:10,120.0148372425786,1,41,0.0,3.416935682296753,40.03722721907189,40.08360204588013,159.47077467825784,146.7542204751075,0.0003885269106831,0.0882566422224044,0,0,0
13566,458840.5247053136,2010-09-26 23:15:40,30.0154258406561,2,41,0.5501165986061096,3.564413547515869,40.041813708328576,40.08360204588013,159.48695641630147,146.7542204751075,0.0016188621520996,0.0882566422224044,0,0,0
13567,458870.5401164676,2010-09-26 23:16:10,60.030836994652034,2,41,0.550297200679779,3.613950490951538,40.04640059825572,40.08360204588013,159.5034255479709,146.7542204751075,0.0011979580158367,0.0882566422224044,0,0,0
13568,458900.555597486,2010-09-26 23:16:40,90.04631801805276,2,41,0.5497553944587708,3.65005111694336,40.050987032627695,40.08360204588013,159.52008659076765,146.7542204751075,0.0008741855854168,0.0882566422224044,0,0,0
13569,458930.5562118499,2010-09-26 23:17:10,120.04693238699676,2,41,0.5501165986061096,3.678866624832153,40.05557067291896,40.08360204588013,159.5368853710331,146.7542204751075,0.0006799221155233,0.0882566422224044,0,0,0
13570,458960.57093748776,2010-09-26 23:17:40,150.06165802483892,2,41,0.5501165986061096,3.7023401260375977,40.06015651254242,40.08360204588013,159.5538114419304,146.7542204751075,0.0005504131549969,0.0882566422224044,0,0,0
13571,458990.58624286775,2010-09-26 23:18:10,180.0769633947816,2,41,0.5499359965324402,3.721928358078003,40.06474237995141,40.08360204588013,159.57083630216908,146.7542204751075,0.0004532813909463,0.0882566422224044,0,0,0
13572,459020.6017645276,2010-09-26 23:18:40,210.0924850596296,2,41,0.5501165986061096,3.737955093383789,40.06932832174505,40.08360204588013,159.58794316199285,146.7542204751075,0.0003885269106831,0.0882566422224044,0,0,0
13573,459050.6170827697,2010-09-26 23:19:10,240.1078033067156,2,41,0.5499359965324402,3.749934673309326,40.073914222498814,40.08360204588013,159.60511503251,146.7542204751075,0.0001942634553415,0.0882566422224044,0,0,0
13574,459080.6324789664,2010-09-26 23:19:40,270.12319950337576,2,41,0.5501165986061096,3.7572193145751953,40.07850008570011,40.08360204588013,159.6223308553485,146.7542204751075,9.713172767078504e-05,0.0882566422224044,0,0,0
13575,459110.64791660645,2010-09-26 23:20:10,300.1386371434851,2,41,0.5501165986061096,3.761590242385864,40.08308599596487,40.08360204588013,159.6395722073618,146.7542204751075,6.47544875391759e-05,0.0882566422224044,0,0,0
13576,459140.6633184072,2010-09-26 23:20:40,330.1540389391211,2,41,0.5501165986061096,3.7651517391204834,40.08767194964863,40.08360204588013,159.65683088642544,146.7542204751075,9.713172767078504e-05,0.0882566422224044,0,0,0
13577,459170.67896913405,2010-09-26 23:21:10,360.1696896611156,2,41,0.5499359965324402,3.768065690994263,40.092257879306,40.08360204588013,159.67410426011693,146.7542204751075,9.713172767078504e-05,0.0882566422224044,0,0,0
13578,459200.6941598479,2010-09-26 23:21:40,390.1848803748588,2,41,0.5501165986061096,3.771303415298462,40.096843817894445,40.08360204588013,159.69139207106682,146.7542204751075,0.0001295089750783,0.0882566422224044,0,0,0
13579,459230.709592696,2010-09-26 23:22:10,420.2003132280192,2,41,0.5499359965324402,3.774217367172241,40.10142971084426,40.08360204588013,159.70869390830788,146.7542204751075,3.237724376958795e-05,0.0882566422224044,0,0,0
13580,459260.7250351381,2010-09-26 23:22:40,450.2157556651025,2,41,0.5499359965324402,3.7772932052612314,40.1060156395204,40.08360204588013,159.72600981658226,146.7542204751075,9.713172767078504e-05,0.0882566422224044,0,0,0
13581,459290.7405980208,2010-09-26 23:23:10,480.2313185528493,2,41,0.5501165986061096,3.78036904335022,40.11060157929448,40.08360204588013,159.74333957019113,146.7542204751075,6.47544875391759e-05,0.0882566422224044,0,0,0
13582,459320.7560206685,2010-09-26 23:23:40,510.2467412907604,2,41,0.5499359965324402,3.783282995223999,40.11518750850305,40.08360204588013,159.7606827052836,146.7542204751075,6.47544875391759e-05,0.0882566422224044,0,0,0
13583,459350.7713168956,2010-09-26 23:24:10,540.2620374226434,2,41,0.5499359965324402,3.7861969470977774,40.11977340304367,40.08360204588013,159.7780389887795,146.7542204751075,9.713172767078504e-05,0.0882566422224044,0,0,0
13584,459380.7867002252,2010-09-26 23:24:41,570.2774207521853,2,41,0.5501165986061096,3.7891108989715576,40.12435935354736,40.08360204588013,159.79540855254282,146.7542204751075,6.47544875391759e-05,0.0882566422224044,0,0,0
13585,459410.8021342713,2010-09-26 23:25:11,600.2928548083486,2,41,0.5499359965324402,3.791862964630127,40.12894527792823,40.08360204588013,159.8127909142145,146.7542204751075,9.713172767078504e-05,0.0882566422224044,0,0,0
13586,459440.8175426986,2010-09-26 23:25:41,630.308263225513,2,41,0.5499359965324402,3.794615030288696,40.1335311944782,40.08360204588013,159.83018613597116,146.7542204751075,6.47544875391759e-05,0.0882566422224044,0,0,0
13587,459470.8330114412,2010-09-26 23:26:11,660.3237319682592,2,41,0.550297200679779,3.797528982162476,40.138117212406655,40.08360204588013,159.84759460644983,146.7542204751075,9.713172767078504e-05,0.0882566422224044,0,0,0
13588,459500.8483906856,2010-09-26 23:26:41,690.3391112126037,2,41,0.550297200679779,3.800281047821045,40.14270318041815,40.08360204588013,159.86501585754257,146.7542204751075,9.713172767078504e-05,0.0882566422224044,0,0,0
13589,459530.8639557989,2010-09-26 23:27:11,720.3546763409433,2,41,0.5501165986061096,3.8030331134796143,40.1472892404212,40.08360204588013,159.88245057605718,146.7542204751075,3.237724376958795e-05,0.0882566422224044,0,0,0
13590,459560.87923533935,2010-09-26 23:27:41,750.3699558663742,2,41,0.5501165986061096,3.8059470653533936,40.15187519588639,40.08360204588013,159.8998983617802,146.7542204751075,6.47544875391759e-05,0.0882566422224044,0,0,0
13591,459590.8946557064,2010-09-26 23:28:11,780.3853762333671,2,41,0.5501165986061096,3.8091847896575928,40.15646126298691,40.08360204588013,159.9173605134886,146.7542204751075,6.47544875391759e-05,0.0882566422224044,0,0,0
13592,459620.9100817174,2010-09-26 23:28:41,810.4008022695112,2,41,0.5499359965324402,3.812260627746582,40.16104730328637,40.08360204588013,159.93483693240285,146.7542204751075,6.47544875391759e-05,0.0882566422224044,0,0,0
13593,459650.9255084252,2010-09-26 23:29:11,840.4162289522693,2,41,0.5499359965324402,3.815660238265991,40.16563319942419,40.08360204588013,159.95232812574875,146.7542204751075,3.237724376958795e-05,0.0882566422224044,0,0,0
13594,459680.94094136864,2010-09-26 23:29:41,870.431661895655,2,41,0.5501165986061096,3.8192217350006095,40.1702192063216,40.08360204588013,159.96983515902272,146.7542204751075,9.713172767078504e-05,0.0882566422224044,0,0,0
13595,459710.9563869536,2010-09-26 23:30:11,900.4471074805958,2,41,0.5499359965324402,3.82262134552002,40.174805234375405,40.08360204588013,159.98735793187066,146.7542204751075,9.713172767078504e-05,0.0882566422224044,0,0,0
13596,459740.9720305628,2010-09-26 23:30:41,930.4627510998608,2,41,0.5497553944587708,3.825697183609009,40.17939123783558,40.08360204588013,160.0048962418059,146.7542204751075,3.237724376958795e-05,0.0882566422224044,0,0,0
13597,459770.9872042891,2010-09-26 23:31:11,960.4779248211884,2,41,0.5499359965324402,3.829420566558838,40.18397713528342,40.08360204588013,160.02244974815406,146.7542204751075,9.713172767078504e-05,0.0882566422224044,0,0,0
13598,459801.00261270633,2010-09-26 23:31:41,990.4933332333402,2,41,0.5501165986061096,3.832658290863037,40.18856315561984,40.08360204588013,160.0400190582803,146.7542204751075,6.47544875391759e-05,0.0882566422224044,0,0,0
13599,459831.01817805023,2010-09-26 23:32:11,1020.5088985922552,2,41,0.5499359965324402,3.835895776748657,40.19314908317871,40.08360204588013,160.05760291921928,146.7542204751075,9.713172767078504e-05,0.0882566422224044,0,0,0
13600,459861.0334551546,2010-09-26 23:32:41,1050.5241756816051,2,41,0.550297200679779,3.839133501052856,40.197734962885,40.08360204588013,160.07520135577985,146.7542204751075,6.47544875391759e-05,0.0882566422224044,0,0,0
13601,459891.0489083736,2010-09-26 23:33:11,1080.539628910627,2,41,0.5501165986061096,3.8422093391418457,40.202320969708886,40.08360204588013,160.092814731259,146.7542204751075,6.47544875391759e-05,0.0882566422224044,0,0,0
13602,459921.064303703,2010-09-26 23:33:41,1110.5550242300974,2,41,0.5501165986061096,3.845285177230835,40.2069069717608,40.08360204588013,160.1104421508826,146.7542204751075,0.0001295089750783,0.0882566422224044,0,0,0
13603,459951.0797299948,2010-09-26 23:34:11,1140.570450546942,2,41,0.5501165986061096,3.8481991291046143,40.21149290105605,40.08360204588013,160.12808311072612,146.7542204751075,9.713172767078504e-05,0.0882566422224044,0,0,0
13604,459981.095176036,2010-09-26 23:34:41,1170.5858966682215,2,41,0.5501165986061096,3.8511130809783936,40.21607884368886,40.08360204588013,160.14573744714926,146.7542204751075,6.47544875391759e-05,0.0882566422224044,0,0,0
13605,460011.11073884845,2010-09-26 23:35:11,1200.6014594005808,2,41,0.5499359965324402,3.853865146636963,40.22066483205794,40.08360204588013,160.1634048185343,146.7542204751075,0.0001295089750783,0.0882566422224044,0,0,0
13606,460041.1259880533,2010-09-26 23:35:41,1230.616708590289,2,41,0.5501165986061096,3.856617212295532,40.22525071516832,40.08360204588013,160.18108408191063,146.7542204751075,0.0001295089750783,0.0882566422224044,0,0,0
13607,460071.1415464849,2010-09-26 23:36:11,1260.6322671071252,2,41,0.5499359965324402,3.858883619308472,40.229836602792766,40.08360204588013,160.19877501519986,146.7542204751075,3.237724376958795e-05,0.0882566422224044,0,0,0
13608,460101.1568586368,2010-09-26 23:36:41,1290.6475791737837,2,41,0.5501165986061096,3.861150026321411,40.23442250138671,40.08360204588013,160.21647707885856,146.7542204751075,3.237724376958795e-05,0.0882566422224044,0,0,0
13609,460131.1724722361,2010-09-26 23:37:11,1320.6631927580768,2,41,0.5497553944587708,3.863416433334351,40.23900842318693,40.08360204588013,160.23418964101828,146.7542204751075,3.237724376958795e-05,0.0882566422224044,0,0,0
13610,460161.1876810299,2010-09-26 23:37:41,1350.678401652201,2,41,0.5501165986061096,3.86552095413208,40.24359422854592,40.08360204588013,160.25191144122329,146.7542204751075,3.237724376958795e-05,0.0882566422224044,0,0,0
13611,460191.2031049007,2010-09-26 23:38:11,1380.693825432715,2,41,0.5501165986061096,3.8674635887146,40.24818015607404,40.08360204588013,160.26964291628494,146.7542204751075,6.47544875391759e-05,0.0882566422224044,0,0,0
13612,460221.2185338741,2010-09-26 23:38:41,1410.7092544011784,2,41,0.5501165986061096,3.869244337081909,40.25276607882921,40.08360204588013,160.2873829981864,146.7542204751075,3.237724376958795e-05,0.0882566422224044,0,0,0
13613,460251.2339619153,2010-09-26 23:39:11,1440.724682442327,2,41,0.5497553944587708,3.870863199234009,40.257351997440594,40.08360204588013,160.30513106172225,146.7542204751075,6.47544875391759e-05,0.0882566422224044,0,0,0
13614,460281.249504783,2010-09-26 23:39:41,1470.740225320126,2,41,0.5501165986061096,3.8726439476013184,40.26193800041572,40.08360204588013,160.32288689111382,146.7542204751075,9.713172767078504e-05,0.0882566422224044,0,0,0
13615,460311.26483070926,2010-09-26 23:40:11,1500.7555512363554,2,41,0.5501165986061096,3.874100923538208,40.26652394330673,40.08360204588013,160.3406494988048,146.7542204751075,6.47544875391759e-05,0.0882566422224044,0,0,0
13616,460341.2802270765,2010-09-26 23:40:41,1530.7709476034408,2,41,0.5499359965324402,3.8752341270446777,40.27110988617268,40.08360204588013,160.35841849130705,146.7542204751075,-3.237724376958795e-05,0.0882566422224044,0,0,0
13617,460371.29566024535,2010-09-26 23:41:11,1560.7863807723895,2,41,0.5501165986061096,3.876691102981568,40.27569582398396,40.08360204588013,160.3761937591402,146.7542204751075,0.0,0.0882566422224044,0,0,0
13618,460401.31106111873,2010-09-26 23:41:41,1590.8017816557483,2,41,0.5499359965324402,3.877986192703247,40.28028176938977,40.08360204588013,160.3939749571727,146.7542204751075,3.237724376958795e-05,0.0882566422224044,0,0,0
13619,460431.32662541495,2010-09-26 23:42:11,1620.8173460422363,2,41,0.5499359965324402,3.879119396209717,40.28486775827854,40.08360204588013,160.41176211374471,146.7542204751075,0.0,0.0882566422224044,0,0,0
13620,460461.3423586229,2010-09-26 23:42:41,1650.8330792802033,2,41,0.5501165986061096,3.880414485931397,40.289453777382775,40.08360204588013,160.4295548580918,146.7542204751075,3.237724376958795e-05,0.0882566422224044,0,0,0
13621,460491.35735478095,2010-09-26 23:43:11,1680.8480753180054,2,41,0.5499359965324402,3.881385803222656,40.294039686829,40.08360204588013,160.44735271283844,146.7542204751075,-3.237724376958795e-05,0.0882566422224044,0,0,0
13622,460521.3727906166,2010-09-26 23:43:41,1710.8635111435854,2,41,0.5501165986061096,3.882842779159546,40.298625720107246,40.08360204588013,160.46515644953033,146.7542204751075,6.47544875391759e-05,0.0882566422224044,0,0,0
13623,460551.3881869586,2010-09-26 23:44:11,1740.8789074856084,2,41,0.5499359965324402,3.883975982666016,40.30321174099565,40.08360204588013,160.4829655002272,146.7542204751075,3.237724376958795e-05,0.0882566422224044,0,0,0
13624,460581.4036107441,2010-09-26 23:44:41,1770.894331271135,2,41,0.5499359965324402,3.885109186172485,40.30779776149039,40.08360204588013,160.50077980075906,146.7542204751075,3.237724376958795e-05,0.0882566422224044,0,0,0
13625,460611.4190451111,2010-09-26 23:45:11,1800.909765643086,2,41,0.5501165986061096,3.886242389678955,40.31238363214764,40.08360204588013,160.51859893699915,146.7542204751075,3.237724376958795e-05,0.0882566422224044,0,0,0
13626,460641.4345067812,2010-09-26 23:45:41,1830.9252273983907,2,41,0.5501165986061096,3.887375593185425,40.31696942654557,40.08360204588013,160.53642314670773,146.7542204751075,3.237724376958795e-05,0.0882566422224044,0,0,0
13627,460671.4498823664,2010-09-26 23:46:11,1860.9406029034008,2,41,0.5499359965324402,3.888670682907105,40.32155517309298,40.08360204588013,160.55425256580443,146.7542204751075,6.47544875391759e-05,0.0882566422224044,0,0,0
13628,460701.4655364368,2010-09-26 23:46:41,1890.9562569737536,2,41,0.5501165986061096,3.889803886413574,40.32614095116232,40.08360204588013,160.57208749754673,146.7542204751075,6.47544875391759e-05,0.0882566422224044,0,0,0
13629,460731.48074906017,2010-09-26 23:47:11,1920.971469587162,2,41,0.5501165986061096,3.890937089920044,40.33072680801749,40.08360204588013,160.58992802334274,146.7542204751075,3.237724376958795e-05,0.0882566422224044,0,0,0
13630,460761.4962654669,2010-09-26 23:47:41,1950.986985993885,2,41,0.550297200679779,3.892232179641724,40.33531283464034,40.08360204588013,160.60777458340507,146.7542204751075,6.47544875391759e-05,0.0882566422224044,0,0,0
13631,460791.5115579497,2010-09-26 23:48:11,1981.002278486684,2,41,0.5501165986061096,3.893203496932984,40.33989877766609,40.08360204588013,160.62562619313206,146.7542204751075,3.237724376958795e-05,0.0882566422224044,0,0,0
13632,460821.52698753966,2010-09-26 23:48:41,2011.0177080616616,2,41,0.5501165986061096,3.894336700439453,40.344484786857485,40.08360204588013,160.64348365457477,146.7542204751075,0.0,0.0882566422224044,0,0,0
13633,460851.54241794674,2010-09-26 23:49:11,2041.033138468716,2,41,0.5501165986061096,3.895631790161133,40.34907083517902,40.08360204588013,160.66134639689284,146.7542204751075,3.237724376958795e-05,0.0882566422224044,0,0,0
13634,460881.5578587698,2010-09-26 23:49:41,2071.048579376983,2,41,0.5501165986061096,3.896926879882813,40.35365676501198,40.08360204588013,160.67921437133984,146.7542204751075,6.47544875391759e-05,0.0882566422224044,0,0,0
13635,460911.57326205407,2010-09-26 23:50:11,2101.063982586148,2,41,0.5497553944587708,3.898060083389282,40.358242707356624,40.08360204588013,160.6970880293868,146.7542204751075,0.0,0.0882566422224044,0,0,0
13636,460941.5888230371,2010-09-26 23:50:41,2131.079543584178,2,41,0.5501165986061096,3.899517059326172,40.36282868668183,40.08360204588013,160.71496753966883,146.7542204751075,6.47544875391759e-05,0.0882566422224044,0,0,0
13637,460971.60425118846,2010-09-26 23:51:11,2161.0949718408647,2,41,0.5499359965324402,3.900488376617432,40.36741467740167,40.08360204588013,160.73285277021753,146.7542204751075,3.237724376958795e-05,0.0882566422224044,0,0,0
13638,461001.6195414057,2010-09-26 23:51:41,2191.1102619326707,2,41,0.5501165986061096,3.901945352554321,40.37200062781906,40.08360204588013,160.750743659554,146.7542204751075,6.47544875391759e-05,0.0882566422224044,0,0,0
13639,461031.63497568737,2010-09-26 23:52:11,2221.1256962143966,2,41,0.5499359965324402,3.903078556060791,40.37658659655325,40.08360204588013,160.7686404357736,146.7542204751075,3.237724376958795e-05,0.0882566422224044,0,0,0
13640,461061.6503617688,2010-09-26 23:52:41,2251.141082290795,2,41,0.5499359965324402,3.9045355319976807,40.38117258645539,40.08360204588013,160.78654325407894,146.7542204751075,3.237724376958795e-05,0.0882566422224044,0,0,0
13641,461091.6661537033,2010-09-26 23:53:11,2281.1568743305406,2,41,0.5501165986061096,3.9056687355041504,40.38575874375969,40.08360204588013,160.8044526472884,146.7542204751075,0.0,0.0882566422224044,0,0,0
13642,461121.68121996126,2010-09-26 23:53:41,2311.171940488373,2,41,0.5499359965324402,3.90712571144104,40.390344675703766,40.08360204588013,160.82236720187385,146.7542204751075,6.47544875391759e-05,0.0882566422224044,0,0,0
13643,461151.6967847689,2010-09-26 23:54:11,2341.1875053009244,2,41,0.5499359965324402,3.90842080116272,40.39493059526451,40.08360204588013,160.84028777762305,146.7542204751075,3.237724376958795e-05,0.0882566422224044,0,0,0
13644,461181.7122395719,2010-09-26 23:54:41,2371.202960309387,2,41,0.5499359965324402,3.9097158908844,40.39951657464771,40.08360204588013,160.8582147960303,146.7542204751075,3.237724376958795e-05,0.0882566422224044,0,0,0
13645,461211.7276184904,2010-09-26 23:55:11,2401.2183390474684,2,41,0.5501165986061096,3.911172866821289,40.404102593955415,40.08360204588013,160.87614816412875,146.7542204751075,3.237724376958795e-05,0.0882566422224044,0,0,0
13646,461241.7429031687,2010-09-26 23:55:41,2431.2336237157365,2,41,0.5499359965324402,3.9124679565429688,40.408688532709725,40.08360204588013,160.89408750514033,146.7542204751075,3.237724376958795e-05,0.0882566422224044,0,0,0
13647,461271.7583262123,2010-09-26 23:56:11,2461.2490468245737,2,41,0.550297200679779,3.9139246940612793,40.4132745163493,40.08360204588013,160.91203333394546,146.7542204751075,3.237724376958795e-05,0.0882566422224044,0,0,0
13648,461301.7737435618,2010-09-26 23:56:42,2491.2644640838093,2,41,0.5501165986061096,3.915219783782959,40.4178605509669,40.08360204588013,160.9299858048805,146.7542204751075,3.237724376958795e-05,0.0882566422224044,0,0,0
13649,461331.7891793924,2010-09-26 23:57:12,2521.279899914401,2,41,0.5501165986061096,3.916514873504639,40.422446619910936,40.08360204588013,160.94794469350293,146.7542204751075,-3.237724376958795e-05,0.0882566422224044,0,0,0
13650,461361.80460972927,2010-09-26 23:57:42,2551.295330251281,2,41,0.5499359965324402,3.917971849441528,40.42703249553481,40.08360204588013,160.96590937310927,146.7542204751075,0.0,0.0882566422224044,0,0,0
13651,461391.820018773,2010-09-26 23:58:12,2581.3107392950096,2,41,0.5497553944587708,3.919590711593628,40.43161836705527,40.08360204588013,160.98388057596753,146.7542204751075,3.237724376958795e-05,0.0882566422224044,0,0,0
13652,461421.8354384081,2010-09-26 23:58:42,2611.326158930176,2,41,0.5501165986061096,3.9210476875305176,40.43620433422,40.08360204588013,161.00185881799587,146.7542204751075,9.713172767078504e-05,0.0882566422224044,0,0,0
13653,461451.8508722938,2010-09-26 23:59:12,2641.3415928159134,2,41,0.5501165986061096,3.9225046634674072,40.44079027585931,40.08360204588013,161.0198435988666,146.7542204751075,3.237724376958795e-05,0.0882566422224044,0,0,0
13654,461481.866305077,2010-09-26 23:59:42,2671.357025603912,2,41,0.5501165986061096,3.923961639404297,40.445376199249765,40.08360204588013,161.03783506323035,146.7542204751075,3.237724376958795e-05,0.0882566422224044,0,0,0
13655,461511.8817177547,2010-09-27 00:00:12,2701.372438276698,2,41,0.5499359965324402,3.9254186153411865,40.44996207594163,40.08360204588013,161.0558331278596,146.7542204751075,0.0,0.0882566422224044,0,0,0
13656,461541.8971307883,2010-09-27 00:00:42,2731.3878513153986,2,41,0.5499359965324402,3.926875591278076,40.45454799205449,40.08360204588013,161.07383807490805,146.7542204751075,6.47544875391759e-05,0.0882566422224044,0,0,0
13657,461571.9125863833,2010-09-27 00:01:12,2761.403306905314,2,41,0.5499359965324402,3.928494453430176,40.45913386712277,40.08360204588013,161.0918498129394,146.7542204751075,3.237724376958795e-05,0.0882566422224044,0,0,0
13658,461601.92798724666,2010-09-27 00:01:42,2791.418707773635,2,41,0.5499359965324402,3.929789543151856,40.46371975341198,40.08360204588013,161.10986852498002,146.7542204751075,0.0,0.0882566422224044,0,0,0
13659,461631.9434004958,2010-09-27 00:02:12,2821.434121042911,2,41,0.5497553944587708,3.931408405303955,40.46830568551916,40.08360204588013,161.12789450914286,146.7542204751075,0.0,0.0882566422224044,0,0,0
13660,461661.9589581455,2010-09-27 00:02:42,2851.449678677545,2,41,0.5501165986061096,3.9331891536712646,40.47289166585703,40.08360204588013,161.14592780590223,146.7542204751075,3.237724376958795e-05,0.0882566422224044,0,0,0
13661,461691.9742600969,2010-09-27 00:03:12,2881.464980618929,2,41,0.5501165986061096,3.934808015823364,40.4774776176722,40.08360204588013,161.16396817299983,146.7542204751075,9.713172767078504e-05,0.0882566422224044,0,0,0
13662,461721.9896701532,2010-09-27 00:03:42,2911.480390705261,2,41,0.5501165986061096,3.936264991760254,40.482063633102975,40.08360204588013,161.18201610024326,146.7542204751075,6.47544875391759e-05,0.0882566422224044,0,0,0
13663,461752.00509986846,2010-09-27 00:04:12,2941.495820390513,2,41,0.5501165986061096,3.9378838539123535,40.4866495952271,40.08360204588013,161.20007097758338,146.7542204751075,3.237724376958795e-05,0.0882566422224044,0,0,0
13664,461782.0205368019,2010-09-27 00:04:42,2971.5112573238584,2,41,0.5501165986061096,3.939502716064453,40.49123552580804,40.08360204588013,161.2181332431434,146.7542204751075,9.713172767078504e-05,0.0882566422224044,0,0,0
13665,461812.0359602265,2010-09-27 00:05:12,3001.526680748484,2,41,0.5501165986061096,3.9411215782165527,40.49582148149072,40.08360204588013,161.2362030985192,146.7542204751075,3.237724376958795e-05,0.0882566422224044,0,0,0
13666,461842.051368373,2010-09-27 00:05:42,3031.5420888949725,2,41,0.5501165986061096,3.942740440368652,40.50040733752692,40.08360204588013,161.25428005584135,146.7542204751075,3.237724376958795e-05,0.0882566422224044,0,0,0
13667,461872.06678872486,2010-09-27 00:06:12,3061.557509246928,2,41,0.5499359965324402,3.944359302520752,40.50499328802819,40.08360204588013,161.27236501291736,146.7542204751075,6.47544875391759e-05,0.0882566422224044,0,0,0
13668,461902.08241851965,2010-09-27 00:06:42,3091.5731390466976,2,41,0.5501165986061096,3.9461400508880615,40.50957927035826,40.08360204588013,161.29045779165665,146.7542204751075,6.47544875391759e-05,0.0882566422224044,0,0,0
13669,461932.0976375591,2010-09-27 00:07:12,3121.5883580911586,2,41,0.5501165986061096,3.947920799255371,40.5141651595132,40.08360204588013,161.30855786441165,146.7542204751075,6.47544875391759e-05,0.0882566422224044,0,0,0
13670,461962.1132704867,2010-09-27 00:07:42,3151.603991023748,2,41,0.5499359965324402,3.9493777751922607,40.518751158007234,40.08360204588013,161.32666623366612,146.7542204751075,3.237724376958795e-05,0.0882566422224044,0,0,0
13671,461992.12869561056,2010-09-27 00:08:12,3181.61941623784,2,41,0.5501165986061096,3.9511585235595694,40.52333704369638,40.08360204588013,161.3447820630928,146.7542204751075,3.237724376958795e-05,0.0882566422224044,0,0,0
13672,462022.14396918606,2010-09-27 00:08:42,3211.634689708156,2,41,0.5501165986061096,3.95293927192688,40.52792294268619,40.08360204588013,161.36290588114807,146.7542204751075,6.47544875391759e-05,0.0882566422224044,0,0,0
13673,462052.1595563144,2010-09-27 00:09:12,3241.6502768414234,2,41,0.5501165986061096,3.9547200202941895,40.53250892818507,40.08360204588013,161.38103815309253,146.7542204751075,3.237724376958795e-05,0.0882566422224044,0,0,0
13674,462082.1747535143,2010-09-27 00:09:42,3271.6654740463696,2,41,0.5499359965324402,3.956500768661499,40.53709484642391,40.08360204588013,161.39917834716357,146.7542204751075,3.237724376958795e-05,0.0882566422224044,0,0,0
13675,462112.19017538,2010-09-27 00:10:12,3301.680895902078,2,41,0.5499359965324402,3.958119630813599,40.54168078763431,40.08360204588013,161.4173267622674,146.7542204751075,3.237724376958795e-05,0.0882566422224044,0,0,0
13676,462142.205600128,2010-09-27 00:10:42,3331.6963206500072,2,41,0.5501165986061096,3.960062265396118,40.54626666265106,40.08360204588013,161.43548322802957,146.7542204751075,3.237724376958795e-05,0.0882566422224044,0,0,0
13677,462172.2210307405,2010-09-27 00:11:12,3361.7117512625746,2,41,0.5501165986061096,3.9620048999786377,40.55085256618631,40.08360204588013,161.453648265016,146.7542204751075,6.47544875391759e-05,0.0882566422224044,0,0,0
13678,462202.2364762704,2010-09-27 00:11:42,3391.727196792378,2,41,0.5499359965324402,3.9637856483459473,40.55543850116752,40.08360204588013,161.47182185906345,146.7542204751075,3.237724376958795e-05,0.0882566422224044,0,0,0
13679,462232.25186770514,2010-09-27 00:12:12,3421.7425882271514,2,41,0.5501165986061096,3.9658901691436768,40.56002446357242,40.08360204588013,161.49000423194076,146.7542204751075,9.713172767078504e-05,0.0882566422224044,0,0,0
13680,462262.2673432048,2010-09-27 00:12:42,3451.758063761852,2,41,0.5501165986061096,3.9676709175109854,40.56461041016305,40.08360204588013,161.50819512667852,146.7542204751075,6.47544875391759e-05,0.0882566422224044,0,0,0
13681,462292.2828169099,2010-09-27 00:13:12,3481.773537532148,2,41,0.5499359965324402,3.969451665878296,40.56919629007056,40.08360204588013,161.52639439769837,146.7542204751075,6.47544875391759e-05,0.0882566422224044,0,0,0
13682,462322.2981471469,2010-09-27 00:13:42,3511.7888676939747,2,41,0.5499359965324402,3.971394300460816,40.573782218894806,40.08360204588013,161.54460284255305,146.7542204751075,6.47544875391759e-05,0.0882566422224044,0,0,0
13683,462352.31370014494,2010-09-27 00:14:12,3541.804420787273,2,41,0.5497553944587708,3.973498821258545,40.57836825648928,40.08360204588013,161.56282076055624,146.7542204751075,6.47544875391759e-05,0.0882566422224044,0,0,0
13684,462382.3297411813,2010-09-27 00:14:42,3571.8204617333267,2,41,0.5501165986061096,3.9756033420562735,40.58295429136437,40.08360204588013,161.58104769901706,146.7542204751075,9.713172767078504e-05,0.0882566422224044,0,0,0
13685,462412.3444522978,2010-09-27 00:15:12,3601.8351728198463,2,41,0.5499359965324402,3.977545976638794,40.58754020960608,40.08360204588013,161.5992834379549,146.7542204751075,9.713172767078504e-05,0.0882566422224044,0,0,0
13686,462442.3598613416,2010-09-27 00:15:42,3631.8505819487873,2,41,0.5501165986061096,3.979650497436523,40.592126177531554,40.08360204588013,161.6175282911227,146.7542204751075,6.47544875391759e-05,0.0882566422224044,0,0,0
13687,462472.37526099687,2010-09-27 00:16:12,3661.8659816141057,2,41,0.5499359965324402,3.981593132019043,40.59671209537734,40.08360204588013,161.6357827341108,146.7542204751075,3.237724376958795e-05,0.0882566422224044,0,0,0
13688,462502.3906819353,2010-09-27 00:16:42,3691.881402457287,2,41,0.5499359965324402,3.983697652816773,40.60129806750315,40.08360204588013,161.65404692475562,146.7542204751075,9.713172767078504e-05,0.0882566422224044,0,0,0
13689,462532.4061324525,2010-09-27 00:17:12,3721.89685297454,2,41,0.5501165986061096,3.985802173614502,40.60588397112012,40.08360204588013,161.6723203703528,146.7542204751075,6.47544875391759e-05,0.0882566422224044,0,0,0
13690,462562.4215269701,2010-09-27 00:17:42,3751.912247517072,2,41,0.5501165986061096,3.987906694412232,40.610469917414655,40.08360204588013,161.6906037453928,146.7542204751075,6.47544875391759e-05,0.0882566422224044,0,0,0
13691,462592.4369551365,2010-09-27 00:18:12,3781.9276756584704,2,41,0.5501165986061096,3.990011215209961,40.61505583607742,40.08360204588013,161.70889664065834,146.7542204751075,3.237724376958795e-05,0.0882566422224044,0,0,0
13692,462622.4525140543,2010-09-27 00:18:42,3811.9432345913447,2,41,0.5501165986061096,3.992277622222901,40.619641771290986,40.08360204588013,161.7271994641705,146.7542204751075,9.713172767078504e-05,0.0882566422224044,0,0,0
13693,462652.46780367993,2010-09-27 00:19:12,3841.9585242320254,2,41,0.5497553944587708,3.994220018386841,40.6242276885045,40.08360204588013,161.74551213139188,146.7542204751075,3.237724376958795e-05,0.0882566422224044,0,0,0
13694,462682.4832122525,2010-09-27 00:19:42,3871.973932784528,2,41,0.5501165986061096,3.99648642539978,40.6288135798757,40.08360204588013,161.7638346697739,146.7542204751075,3.237724376958795e-05,0.0882566422224044,0,0,0
13695,462712.4986316271,2010-09-27 00:20:12,3901.989352149018,2,41,0.5499359965324402,3.9985909461975098,40.63339949424434,40.08360204588013,161.78216735061736,146.7542204751075,3.237724376958795e-05,0.0882566422224044,0,0,0
13696,462742.51404979854,2010-09-27 00:20:42,3932.004770320531,2,41,0.550297200679779,4.001019477844238,40.63798535082738,40.08360204588013,161.80050981719253,146.7542204751075,6.47544875391759e-05,0.0882566422224044,0,0,0
13697,462772.5296168467,2010-09-27 00:21:12,3962.0203373987374,2,41,0.5499359965324402,4.003123760223389,40.642571309434594,40.08360204588013,161.81886293289915,146.7542204751075,6.47544875391759e-05,0.0882566422224044,0,0,0
13698,462802.5449254246,2010-09-27 00:21:42,3992.0356460218,2,41,0.5499359965324402,4.005390167236328,40.64715723332476,40.08360204588013,161.83722616232163,146.7542204751075,3.23295607813634e-05,0.0882566422224044,0,0,0
13699,462832.5603670947,2010-09-27 00:22:12,4022.0510876268063,2,41,0.5499359965324402,4.007656574249268,40.65174311871234,40.08360204588013,161.85559957234867,146.7542204751075,6.47544875391759e-05,0.0882566422224044,0,0,0
13700,462862.575748284,2010-09-27 00:22:42,4052.0664688109937,2,41,0.5499359965324402,4.010085105895996,40.65632906459384,40.08360204588013,161.87398361785097,146.7542204751075,9.71794142969884e-05,0.0882566422224044,0,0,0
13701,462892.5911785056,2010-09-27 00:23:12,4082.081899027573,2,41,0.5497553944587708,4.0121893882751465,40.66091497618299,40.08360204588013,161.89237801210967,146.7542204751075,6.47544875391759e-05,0.0882566422224044,0,0,0
13702,462922.6065882311,2010-09-27 00:23:42,4112.097308848241,2,41,0.5501165986061096,4.014455795288086,40.66550092660817,40.08360204588013,161.9107831465036,146.7542204751075,3.23295607813634e-05,0.0882566422224044,0,0,0
13703,462952.62212183565,2010-09-27 00:24:12,4142.112842392742,2,41,0.5499359965324402,4.016722202301025,40.67008678839258,40.08360204588013,161.9291985561924,146.7542204751075,0.0,0.0882566422224044,0,0,0
13704,462982.6374302832,2010-09-27 00:24:42,4172.128150810292,2,41,0.5501165986061096,4.019312381744385,40.67467265003874,40.08360204588013,161.94762465094382,146.7542204751075,9.70840483205393e-05,0.0882566422224044,0,0,0
13705,463012.6530532711,2010-09-27 00:25:12,4202.143773828132,2,41,0.5499359965324402,4.021578788757324,40.67925853059171,40.08360204588013,161.96606156257909,146.7542204751075,9.70840483205393e-05,0.0882566422224044,0,0,0
13706,463042.668280952,2010-09-27 00:25:42,4232.159001489102,2,41,0.5499359965324402,4.023845195770264,40.68384434836398,40.08360204588013,161.9845091936485,146.7542204751075,3.23295607813634e-05,0.0882566422224044,0,0,0
13707,463072.6838143512,2010-09-27 00:26:12,4262.1745348882405,2,41,0.5501165986061096,4.026435375213623,40.6884302944616,40.08360204588013,162.00296839623564,146.7542204751075,6.47544875391759e-05,0.0882566422224044,0,0,0
13708,463102.69922907406,2010-09-27 00:26:42,4292.189949606132,2,41,0.5501165986061096,4.028863906860352,40.69301623872221,40.08360204588013,162.02143881920864,146.7542204751075,6.47544875391759e-05,0.0882566422224044,0,0,0
13709,463132.7145339428,2010-09-27 00:27:12,4322.205254469811,2,41,0.5499359965324402,4.031291961669922,40.69760210681538,40.08360204588013,162.03992007741746,146.7542204751075,6.47544875391759e-05,0.0882566422224044,0,0,0
13710,463162.7300843344,2010-09-27 00:27:42,4352.220804871391,2,41,0.5499359965324402,4.033882141113281,40.70218807641895,40.08360204588013,162.0584130919558,146.7542204751075,9.70840483205393e-05,0.0882566422224044,0,0,0
13711,463192.7455064256,2010-09-27 00:28:12,4382.236226962687,2,41,0.5499359965324402,4.036310195922852,40.70677405091363,40.08360204588013,162.07691755708137,146.7542204751075,9.70840483205393e-05,0.0882566422224044,0,0,0
13712,463222.7607897857,2010-09-27 00:28:43,4412.251510307653,2,41,0.5501165986061096,4.03873872756958,40.711360008400746,40.08360204588013,162.09543348522172,146.7542204751075,6.47544875391759e-05,0.0882566422224044,0,0,0
13713,463252.77636852296,2010-09-27 00:29:13,4442.267089054987,2,41,0.5499359965324402,4.04132890701294,40.71594598581351,40.08360204588013,162.11396113081366,146.7542204751075,6.47544875391759e-05,0.0882566422224044,0,0,0
13714,463282.79161787307,2010-09-27 00:29:43,4472.282338415121,2,41,0.550297200679779,4.04408073425293,40.720531821574255,40.08360204588013,162.13249997181816,146.7542204751075,0.0001295089750783,0.0882566422224044,0,0,0
13715,463312.807045022,2010-09-27 00:30:13,4502.297765574068,2,41,0.5501165986061096,4.046509265899658,40.72511775014634,40.08360204588013,162.15105110160448,146.7542204751075,6.47544875391759e-05,0.0882566422224044,0,0,0
13716,463342.8225041006,2010-09-27 00:30:43,4532.313224622616,2,41,0.5501165986061096,4.049261093139648,40.72970371675298,40.08360204588013,162.1696144449314,146.7542204751075,6.47544875391759e-05,0.0882566422224044,0,0,0
13717,463372.83794274327,2010-09-27 00:31:13,4562.328663265227,2,41,0.5499359965324402,4.051851272583008,40.73428972133065,40.08360204588013,162.18819003169253,146.7542204751075,9.70840483205393e-05,0.0882566422224044,0,0,0
13718,463402.8533511053,2010-09-27 00:31:43,4592.344071632267,2,41,0.5499359965324402,4.054441452026367,40.73887572401744,40.08360204588013,162.2067777932219,146.7542204751075,6.47544875391759e-05,0.0882566422224044,0,0,0
13719,463432.86877605866,2010-09-27 00:32:13,4622.359496580696,2,41,0.5499359965324402,4.057193756103516,40.74346165631909,40.08360204588013,162.22537761907483,146.7542204751075,9.71794142969884e-05,0.0882566422224044,0,0,0
13720,463462.8842203304,2010-09-27 00:32:43,4652.374940862384,2,41,0.5499359965324402,4.059945583343506,40.74804756130938,40.08360204588013,162.24398981936568,146.7542204751075,6.47544875391759e-05,0.0882566422224044,0,0,0
13721,463492.8996351986,2010-09-27 00:33:13,4682.390355720625,2,41,0.5504778623580933,4.062859535217285,40.75263351857844,40.08360204588013,162.26261441347157,146.7542204751075,0.0001295089750783,0.0882566422224044,0,0,0
13722,463522.9151700313,2010-09-27 00:33:43,4712.405890563368,2,41,0.5499359965324402,4.0654497146606445,40.75721940320034,40.08360204588013,162.28125142939916,146.7542204751075,6.47544875391759e-05,0.0882566422224044,0,0,0
13723,463552.930471286,2010-09-27 00:34:13,4742.421191818038,2,41,0.5499359965324402,4.068202018737793,40.761805291199664,40.08360204588013,162.29990121265465,146.7542204751075,9.71794142969884e-05,0.0882566422224044,0,0,0
13724,463582.9462936415,2010-09-27 00:34:43,4772.437014268694,2,41,0.5499359965324402,4.070953845977783,40.76639129988444,40.08360204588013,162.31856449263978,146.7542204751075,3.23295607813634e-05,0.0882566422224044,0,0,0
13725,463612.9613451377,2010-09-27 00:35:13,4802.452065759916,2,41,0.5499359965324402,4.073706150054932,40.77097716493425,40.08360204588013,162.33724014734332,146.7542204751075,3.24249267578125e-05,0.0882566422224044,0,0,0
13726,463642.9768660657,2010-09-27 00:35:43,4832.467586592687,2,41,0.5501165986061096,4.076781749725342,40.775563129263176,40.08360204588013,162.35592939314645,146.7542204751075,9.70840483205393e-05,0.0882566422224044,0,0,0
13727,463672.9921774807,2010-09-27 00:36:13,4862.482898017744,2,41,0.5501165986061096,4.07985782623291,40.78014907635892,40.08360204588013,162.3746318599013,146.7542204751075,9.71794142969884e-05,0.0882566422224044,0,0,0
13728,463703.0075900833,2010-09-27 00:36:43,4892.498310630381,2,41,0.5501165986061096,4.0827717781066895,40.78473505462564,40.08360204588013,162.39334786526894,146.7542204751075,6.47544875391759e-05,0.0882566422224044,0,0,0
13729,463733.02343932586,2010-09-27 00:37:13,4922.514159852864,2,41,0.5501165986061096,4.08552360534668,40.7893210174742,40.08360204588013,162.41207733060634,146.7542204751075,9.70840483205393e-05,0.0882566422224044,0,0,0
13730,463763.03843524336,2010-09-27 00:37:43,4952.529155770365,2,41,0.5499359965324402,4.088437557220459,40.79390689241057,40.08360204588013,162.43082007277837,146.7542204751075,3.23295607813634e-05,0.0882566422224044,0,0,0
13731,463793.0538585578,2010-09-27 00:38:13,4982.544579079702,2,41,0.5497553944587708,4.091513633728027,40.79849280023412,40.08360204588013,162.4495767510047,146.7542204751075,6.47544875391759e-05,0.0882566422224044,0,0,0
13732,463823.0693999569,2010-09-27 00:38:43,5012.560120493848,2,41,0.5501165986061096,4.0945892333984375,40.80307875586373,40.08360204588013,162.4683474209866,146.7542204751075,6.47544875391759e-05,0.0882566422224044,0,0,0
13733,463853.0848001284,2010-09-27 00:39:13,5042.5755206704425,2,41,0.5501165986061096,4.097503185272217,40.80766462952334,40.08360204588013,162.487131782064,146.7542204751075,3.23295607813634e-05,0.0882566422224044,0,0,0
13734,463883.10011557344,2010-09-27 00:39:43,5072.5908360954845,2,41,0.5501165986061096,4.100903034210205,40.8122504016985,40.08360204588013,162.5059299887869,146.7542204751075,6.47544875391759e-05,0.0882566422224044,0,0,0
13735,463913.1155267074,2010-09-27 00:40:13,5102.606247234443,2,41,0.5501165986061096,4.103978633880615,40.81683621895112,40.08360204588013,162.5247425894224,146.7542204751075,9.70840483205393e-05,0.0882566422224044,0,0,0
13736,463943.13099612185,2010-09-27 00:40:43,5132.621716648866,2,41,0.5501165986061096,4.107216358184815,40.82142215776869,40.08360204588013,162.54357004866463,146.7542204751075,9.70840483205393e-05,0.0882566422224044,0,0,0
13737,463973.1466057463,2010-09-27 00:41:13,5162.637326368513,2,41,0.5499359965324402,4.110292434692383,40.82600809281344,40.08360204588013,162.56241195443937,146.7542204751075,0.0001295089750783,0.0882566422224044,0,0,0
13738,464003.1618087407,2010-09-27 00:41:43,5192.652529267672,2,41,0.5499359965324402,4.113368034362793,40.83059390820946,40.08360204588013,162.58126799784964,146.7542204751075,9.70840483205393e-05,0.0882566422224044,0,0,0
13739,464033.1772609672,2010-09-27 00:42:13,5222.667981494191,2,41,0.5501165986061096,4.116605758666992,40.83517977672561,40.08360204588013,162.60013892764442,146.7542204751075,6.47544875391759e-05,0.0882566422224044,0,0,0
13740,464063.19269748445,2010-09-27 00:42:43,5252.68341801651,2,41,0.5499359965324402,4.119843482971191,40.839765712722055,40.08360204588013,162.6190249448503,146.7542204751075,9.71794142969884e-05,0.0882566422224044,0,0,0
13741,464093.2081482374,2010-09-27 00:43:13,5282.698868769351,2,41,0.5499359965324402,4.123081207275391,40.84435165998998,40.08360204588013,162.63792590424987,146.7542204751075,0.0001295089750783,0.0882566422224044,0,0,0
13742,464123.2235481433,2010-09-27 00:43:43,5312.71426867527,2,41,0.5499359965324402,4.126480579376221,40.84893757190978,40.08360204588013,162.65684167593508,146.7542204751075,9.70840483205393e-05,0.0882566422224044,0,0,0
13743,464153.2389682045,2010-09-27 00:44:13,5342.7296887365,2,41,0.5499359965324402,4.12971830368042,40.85352344715369,40.08360204588013,162.6757724903244,146.7542204751075,9.70840483205393e-05,0.0882566422224044,0,0,0
13744,464183.2543904762,2010-09-27 00:44:43,5372.74511101326,2,41,0.5501165986061096,4.133118152618408,40.85810935131128,40.08360204588013,162.6947187679289,146.7542204751075,9.71794142969884e-05,0.0882566422224044,0,0,0
13745,464213.2698154397,2010-09-27 00:45:13,5402.760535966701,2,41,0.5499359965324402,4.136355876922607,40.86269523996963,40.08360204588013,162.71368026928718,146.7542204751075,9.71794142969884e-05,0.0882566422224044,0,0,0
13746,464243.28523499967,2010-09-27 00:45:43,5432.7759555316925,2,41,0.5501165986061096,4.1397552490234375,40.867281169553245,40.08360204588013,162.7326575200522,146.7542204751075,3.23295607813634e-05,0.0882566422224044,0,0,0
13747,464273.3006530408,2010-09-27 00:46:13,5462.791373572881,2,41,0.5501165986061096,4.143478870391846,40.871867100739806,40.08360204588013,162.75165040074577,146.7542204751075,0.0001619339018361,0.0882566422224044,0,0,0
13748,464303.3166340823,2010-09-27 00:46:43,5492.807354619416,2,41,0.5499359965324402,4.146878242492676,40.87645315291142,40.08360204588013,162.7706597122985,146.7542204751075,9.70840483205393e-05,0.0882566422224044,0,0,0
13749,464333.3315183512,2010-09-27 00:47:13,5522.822238883212,2,41,0.5501165986061096,4.150278091430664,40.88103903676199,40.08360204588013,162.78968438749445,146.7542204751075,9.71794142969884e-05,0.0882566422224044,0,0,0
13750,464363.34694614174,2010-09-27 00:47:43,5552.837667540901,2,41,0.5501165986061096,4.153839588165283,40.88562497673355,40.08360204588013,162.80872531111777,146.7542204751075,9.71794142969884e-05,0.0882566422224044,0,0,0
13751,464393.3623420727,2010-09-27 00:48:13,5582.853062609745,2,41,0.550297200679779,4.157401084899902,40.89021084241507,40.08360204588013,162.82778191868016,146.7542204751075,0.0001295089750783,0.0882566422224044,0,0,0
13752,464423.3777626903,2010-09-27 00:48:43,5612.868483222352,2,41,0.5501165986061096,4.1609625816345215,40.89479671783168,40.08360204588013,162.8468548169523,146.7542204751075,0.0001295089750783,0.0882566422224044,0,0,0
13753,464453.39319912746,2010-09-27 00:49:13,5642.883919669483,2,41,0.5501165986061096,4.164361953735352,40.89938264099019,40.08360204588013,162.8659442216554,146.7542204751075,9.70840483205393e-05,0.0882566422224044,0,0,0
13754,464483.4086087376,2010-09-27 00:49:43,5672.8993292696005,2,41,0.5499359965324402,4.167923450469971,40.90396856495384,40.08360204588013,162.88504995687484,146.7542204751075,9.70840483205393e-05,0.0882566422224044,0,0,0
13755,464513.4086441464,2010-09-27 00:50:13,5702.899364683383,2,41,0.5501165986061096,4.171647071838379,40.90855214224232,40.08360204588013,162.90416243776102,146.7542204751075,9.71794142969884e-05,0.0882566422224044,0,0,0
13756,464543.42401239823,2010-09-27 00:50:43,5732.914733020501,2,41,0.5499359965324402,4.175208568572998,40.91313798663818,40.08360204588013,162.92330099624004,146.7542204751075,0.0001295089750783,0.0882566422224044,0,0,0
13757,464573.4394415322,2010-09-27 00:51:13,5762.930162069165,2,41,0.5501165986061096,4.178931713104248,40.91772382125754,40.08360204588013,162.94245626529235,146.7542204751075,0.0001295089750783,0.0882566422224044,0,0,0
13758,464603.4548157037,2010-09-27 00:51:43,5792.945536240848,2,41,0.5501165986061096,4.182655334472656,40.92230977961088,40.08360204588013,162.9616290276603,146.7542204751075,9.71794142969884e-05,0.0882566422224044,0,0,0
13759,464633.47015618137,2010-09-27 00:52:13,5822.960876708399,2,41,0.550297200679779,4.186378479003906,40.92689571741165,40.08360204588013,162.98081873202506,146.7542204751075,9.70840483205393e-05,0.0882566422224044,0,0,0
13760,464663.4855432553,2010-09-27 00:52:43,5852.976263792313,2,41,0.5501165986061096,4.1901021003723145,40.93148161522799,40.08360204588013,163.00002549172464,146.7542204751075,6.47544875391759e-05,0.0882566422224044,0,0,0
13761,464693.5010148301,2010-09-27 00:53:13,5882.991735357103,2,41,0.5499359965324402,4.1939873695373535,40.93606756136276,40.08360204588013,163.01924977599867,146.7542204751075,9.71794142969884e-05,0.0882566422224044,0,0,0
13762,464723.5168902279,2010-09-27 00:53:43,5913.007610850161,2,41,0.5499359965324402,4.197710514068604,40.940653549200704,40.08360204588013,163.0384917124125,146.7542204751075,9.71794142969884e-05,0.0882566422224044,0,0,0
13763,464740.9225849397,2010-09-27 00:54:01,5930.41330556196,2,41,0.550297200679779,4.200138568878174,40.94331290053453,40.08360204588013,163.04965788888833,146.7542204751075,0.0001618385285837,0.0882566422224044,0,0,0
13764,464770.945402764,2010-09-27 00:54:31,30.015401735485884,3,41,0.0,4.1234049797058105,40.94331290053453,40.08360204588013,163.04965788888833,146.7542204751075,-0.0003561019839253,0.0882566422224044,0,0,0
13765,464800.9608134519,2010-09-27 00:55:01,60.030812413293184,3,41,0.0,4.114339351654053,40.94331290053453,40.08360204588013,163.04965788888833,146.7542204751075,-0.0001295089750783,0.0882566422224044,0,0,0
13766,464830.97623130254,2010-09-27 00:55:31,90.04623029408022,3,41,0.0,4.108673572540283,40.94331290053453,40.08360204588013,163.04965788888833,146.7542204751075,-9.70840483205393e-05,0.0882566422224044,0,0,0
13767,464860.9447834492,2010-09-27 00:56:01,120.01478243577236,3,41,0.0,4.105435848236084,40.94331290053453,40.08360204588013,163.04965788888833,146.7542204751075,-6.47544875391759e-05,0.0882566422224044,0,0,0
13768,464860.9530945678,2010-09-27 00:56:01,0.015633794355911,4,41,0.9837594628334044,4.199653148651123,40.94331718606312,40.08360204588013,163.0496758862745,146.7542204751075,3.24249267578125e-05,0.0882566422224044,0,0,0
13769,464861.98433221073,2010-09-27 00:56:02,1.046871432151795,4,41,0.933369517326355,4.199491024017334,40.94359038172852,40.08360204588013,163.05082317676215,146.7542204751075,0.0,0.0882566422224044,0,0,0
13770,464864.12493613246,2010-09-27 00:56:04,3.187475363889093,4,41,0.8829795122146606,4.199491024017334,40.94412921041875,40.08360204588013,163.05308600786458,146.7542204751075,0.0,0.0882566422224044,0,0,0
13771,464867.29681696,2010-09-27 00:56:07,6.359356186403754,4,41,0.83295077085495,4.199491024017334,40.9448841212228,40.08360204588013,163.05625628820084,146.7542204751075,0.0,0.0882566422224044,0,0,0
13772,464871.64052505867,2010-09-27 00:56:12,10.703064280068324,4,41,0.7829219698905945,4.199491024017334,40.945857884413456,40.08360204588013,163.06034563254886,146.7542204751075,0.0,0.0882566422224044,0,0,0
13773,464877.2498514704,2010-09-27 00:56:17,16.312390691765216,4,41,0.7328932285308838,4.199491024017334,40.94703735798952,40.08360204588013,163.06529888592917,146.7542204751075,0.0,0.0882566422224044,0,0,0
13774,464884.5466767939,2010-09-27 00:56:25,23.609216025386445,4,41,0.6828644275665283,4.199491024017334,40.94847015154403,40.08360204588013,163.07131598741825,146.7542204751075,-3.24249267578125e-05,0.0882566422224044,0,0,0
13775,464894.2966363831,2010-09-27 00:56:34,33.35917561451469,4,41,0.6321132183074951,4.199491024017334,40.9502483844252,40.08360204588013,163.07878378961937,146.7542204751075,0.0,0.0882566422224044,0,0,0
13776,464907.99964147696,2010-09-27 00:56:48,47.062180708383615,4,41,0.5820844769477844,4.199491024017334,40.95255496550904,40.08360204588013,163.08847043710455,146.7542204751075,-3.24249267578125e-05,0.0882566422224044,0,0,0
13777,464928.4370041384,2010-09-27 00:57:08,67.49954335977112,4,41,0.5318750739097595,4.199491024017334,40.95570720025136,40.08360204588013,163.1017084537968,146.7542204751075,0.0,0.0882566422224044,0,0,0
13778,464961.81178615394,2010-09-27 00:57:42,100.87432537526364,4,41,0.4818463027477264,4.199653148651123,40.960388995517135,40.08360204588013,163.1213699314827,146.7542204751075,0.0,0.0882566422224044,0,0,0
13779,465019.2332731394,2010-09-27 00:58:39,158.2958123608546,4,41,0.4316369295120239,4.199329376220703,40.96764939561066,40.08360204588013,163.15186042685494,146.7542204751075,-3.23295607813634e-05,0.0882566422224044,0,0,0
13780,465105.5295669902,2010-09-27 01:00:06,244.5921062166716,4,41,0.3816081583499908,4.199491024017334,40.9773750721109,40.08360204588013,163.1927040209728,146.7542204751075,0.0,0.0882566422224044,0,0,0
13781,465213.7164891872,2010-09-27 01:01:54,352.7790284286546,4,41,0.3315793871879577,4.199653148651123,40.98807411666828,40.08360204588013,163.2376353877793,146.7542204751075,3.24249267578125e-05,0.0882566422224044,0,0,0
13782,465344.2779932978,2010-09-27 01:04:04,483.34053251925,4,41,0.2815506160259247,4.199491024017334,40.99917624176544,40.08360204588013,163.28425950924276,146.7542204751075,0.0,0.0882566422224044,0,0,0
13783,465502.2925717606,2010-09-27 01:06:42,641.3551109870407,4,41,0.2315218448638916,4.199329376220703,41.01041316209146,40.08360204588013,163.33144972151206,146.7542204751075,-6.47544875391759e-05,0.0882566422224044,0,0,0
13784,465703.6506923778,2010-09-27 01:10:04,842.7132317095367,4,41,0.1814930737018585,4.199329376220703,41.02191549595485,40.08360204588013,163.3797546000844,146.7542204751075,-6.47544875391759e-05,0.0882566422224044,0,0,0
13785,465976.351934808,2010-09-27 01:14:36,1115.414474029404,4,41,0.1314643174409866,4.199491024017334,41.03366366362799,40.08360204588013,163.42909182591646,146.7542204751075,0.0,0.0882566422224044,0,0,0
13786,466400.7397477144,2010-09-27 01:21:41,1539.8022869408635,4,41,0.0814355388283729,4.199491024017334,41.04597250852186,40.08360204588013,163.48078382611394,146.7542204751075,-3.24249267578125e-05,0.0882566422224044,0,0,0
13787,466867.939620193,2010-09-27 01:29:28,2007.0021594244863,4,41,0.0498289167881011,4.199653148651123,41.05435494148488,40.08360204588013,163.51598640756626,146.7542204751075,3.24249267578125e-05,0.0882566422224044,0,0,0
13788,466897.94520091184,2010-09-27 01:29:58,30.01505934582863,5,41,0.0,4.192530155181885,41.05435494148488,40.08360204588013,163.51598640756626,146.7542204751075,-3.24249267578125e-05,0.0882566422224044,0,0,0
13789,466927.9449666624,2010-09-27 01:30:28,60.01482503132819,5,41,0.0,4.191235065460205,41.05435494148488,40.08360204588013,163.51598640756626,146.7542204751075,-3.24249267578125e-05,0.0882566422224044,0,0,0
13790,466928.1235234384,2010-09-27 01:30:28,0.187636624882881,6,41,-1.9243103452026844e-05,4.191397190093994,41.05435494148488,40.0836020468831,163.51598640756626,146.75422047931136,0.0,0.0889859497547149,0,0,0
13791,466932.9359517448,2010-09-27 01:30:33,5.000065016522011,6,41,0.0007031940040178,4.191397190093994,41.05435547254481,40.08360204704908,163.51598863347596,146.754220480007,0.0,0.0889859497547149,0,0,0
13792,466962.95777615,2010-09-27 01:31:03,30.01532293879723,7,41,-1.099929690361023,4.0329108238220215,41.05435547254481,40.09277285179324,163.51598863347596,146.79138453539164,-0.0008418083307333,0.0889859497547149,0,0,0
13793,466992.97323357454,2010-09-27 01:31:33,60.03078046354168,7,41,-1.099929690361023,4.009275436401367,41.05435547254481,40.101943704878295,163.51598863347596,146.82825323757524,-0.0005180359003134,0.0889859497547149,0,0,0
13794,467022.98867124977,2010-09-27 01:32:03,90.04621813873862,7,41,-1.099929690361023,3.99308705329895,41.05435547254481,40.11111453061656,163.51598863347596,146.86494366538636,-0.0003561019839253,0.0889859497547149,0,0,0
13795,467053.0040391208,2010-09-27 01:32:33,120.0615859194682,7,41,-1.099929690361023,3.9802980422973633,41.05435547254481,40.12028532082682,163.51598863347596,146.90150253543555,-0.0002590179501567,0.0889859497547149,0,0,0
13796,467083.0194647358,2010-09-27 01:33:03,150.07701152453623,7,41,-1.099929690361023,3.969289779663086,41.05435547254481,40.12945599121123,163.51598863347596,146.93795228045607,-0.0002590179501567,0.0889859497547149,0,0,0
13797,467113.03488620056,2010-09-27 01:33:33,180.09243298926938,7,41,-1.099929690361023,3.959252834320069,41.05435547254481,40.138626683450696,163.51598863347596,146.97430646384717,-0.0002590179501567,0.0889859497547149,0,0,0
13798,467143.0505279701,2010-09-27 01:34:03,210.10807475891744,7,41,-1.099929690361023,3.9500253200531006,41.05435547254481,40.14779746169325,163.51598863347596,147.01057297584617,-0.0002266406954731,0.0889859497547149,0,0,0
13799,467173.0657412052,2010-09-27 01:34:33,240.1232879988895,7,41,-1.1001102924346924,3.9411215782165527,41.05435547254481,40.156968192878814,163.51598863347596,147.04675591975763,-0.0002266406954731,0.0889859497547149,0,0,0
13800,467203.0811606098,2010-09-27 01:35:03,270.1387073984677,7,41,-1.099929690361023,3.932541608810425,41.05435547254481,40.16613891748614,163.51598863347596,147.08285882646925,-0.0002266406954731,0.0889859497547149,0,0,0
13801,467233.0967191366,2010-09-27 01:35:33,300.15426594036654,7,41,-1.099929690361023,3.924447298049927,41.05435547254481,40.17530975540959,163.51598863347596,147.11888466567163,-0.0001295089750783,0.0889859497547149,0,0,0
13802,467263.11199518334,2010-09-27 01:36:03,330.1695419770889,7,41,-1.099929690361023,3.915867328643799,41.05435547254481,40.1844806011447,163.51598863347596,147.15483469430467,-0.0002590179501567,0.0889859497547149,0,0,0
13803,467293.12754012126,2010-09-27 01:36:33,360.1850869200427,7,41,-1.099929690361023,3.90793514251709,41.05435547254481,40.1936514888117,163.51598863347596,147.19071026073942,-0.0001942634553415,0.0889859497547149,0,0,0
13804,467323.142826173,2010-09-27 01:37:03,390.2003729667516,7,41,-1.099929690361023,3.9000027179718018,41.05435547254481,40.20282231134157,163.51598863347596,147.22651217159228,-0.0001942634553415,0.0889859497547149,0,0,0
13805,467353.15825745225,2010-09-27 01:37:34,420.2158042409708,7,41,-1.0997490882873535,3.8920702934265137,41.05435547254481,40.21199308615058,163.51598863347596,147.26224169388246,-0.0002266406954731,0.0889859497547149,0,0,0
13806,467383.1736620649,2010-09-27 01:38:04,450.2312088536386,7,41,-1.099929690361023,3.8844616413116455,41.05435547254481,40.22116373782069,163.51598863347596,147.29789966424391,-0.0001942634553415,0.0889859497547149,0,0,0
13807,467413.18920220085,2010-09-27 01:38:34,480.2467489895933,7,41,-1.0997490882873535,3.876852989196777,41.05435547254481,40.23033445570134,163.51598863347596,147.33348761546833,-0.0001618862152099,0.0889859497547149,0,0,0
13808,467443.20452558575,2010-09-27 01:39:04,510.26207238452906,7,41,-1.099929690361023,3.869244337081909,41.05435547254481,40.23950511761268,163.51598863347596,147.36900604450207,-0.0002266406954731,0.0889859497547149,0,0,0
13809,467473.22005426313,2010-09-27 01:39:34,540.2776010518564,7,41,-1.099929690361023,3.861797571182251,41.05435547254481,40.24867587778123,163.51598863347596,147.40445642163218,-0.0001942634553415,0.0889859497547149,0,0,0
13810,467503.2353731168,2010-09-27 01:40:04,570.2929199154813,7,41,-1.1001102924346924,3.8545126914978023,41.05435547254481,40.25784650715932,163.51598863347596,147.43983880391684,-0.0001942634553415,0.0889859497547149,0,0,0
13811,467533.2507774537,2010-09-27 01:40:34,600.308324242436,7,41,-1.099929690361023,3.847389698028565,41.05435547254481,40.26701718978448,163.51598863347596,147.47515452627766,-0.0001942634553415,0.0889859497547149,0,0,0
13812,467563.266199149,2010-09-27 01:41:04,630.3237459377447,7,41,-1.099929690361023,3.840266704559326,41.05435547254481,40.276187871455065,163.51598863347596,147.51040430303695,-0.0001618862152099,0.0889859497547149,0,0,0
13813,467593.28162408737,2010-09-27 01:41:34,660.339170881161,7,41,-1.1001102924346924,3.832982063293457,41.05435547254481,40.28535859966854,163.51598863347596,147.54558929774336,-0.0001942157687153,0.0889859497547149,0,0,0
13814,467623.2970624242,2010-09-27 01:42:04,690.3546092230222,7,41,-1.099929690361023,3.8263447284698486,41.05435547254481,40.294529314256856,163.51598863347596,147.58071048705446,-0.0001618862152099,0.0889859497547149,0,0,0
13815,467653.3127505346,2010-09-27 01:42:34,720.3702974185563,7,41,-1.099929690361023,3.8195455074310303,41.05435547254481,40.30370012098712,163.51598863347596,147.61576937114577,-0.0001618862152099,0.0889859497547149,0,0,0
13816,467683.3279036846,2010-09-27 01:43:04,750.3854505033719,7,41,-1.0997490882873535,3.812908172607422,41.05435547254481,40.31287075560574,163.51598863347596,147.65076607197673,-0.0001942634553415,0.0889859497547149,0,0,0
13817,467713.3434485022,2010-09-27 01:43:34,780.4009952909378,7,41,-1.099929690361023,3.806432723999024,41.05435547254481,40.32204148588772,163.51598863347596,147.68570226702474,-0.0001295089750783,0.0889859497547149,0,0,0
13818,467743.3588837263,2010-09-27 01:44:04,810.4164305200288,7,41,-1.099929690361023,3.799957275390625,41.05435547254481,40.33121221495422,163.51598863347596,147.72057926892737,-0.0001618862152099,0.0889859497547149,0,0,0
13819,467773.37416573794,2010-09-27 01:44:34,840.4317125316657,7,41,-1.099929690361023,3.793643712997437,41.05435547254481,40.340382870184,163.51598863347596,147.75539779979928,-0.0001618862152099,0.0889859497547149,0,0,0
13820,467803.389594551,2010-09-27 01:45:04,870.447141339729,7,41,-1.099929690361023,3.787492036819458,41.05435547254481,40.34955352550602,163.51598863347596,147.79015949814632,-0.0001618862152099,0.0889859497547149,0,0,0
13821,467833.4050285219,2010-09-27 01:45:34,900.4625753106793,7,41,-1.1001102924346924,3.78134036064148,41.05435547254481,40.35872420099308,163.51598863347596,147.8248654932926,-0.0001942634553415,0.0889859497547149,0,0,0
13822,467863.4205046732,2010-09-27 01:46:04,930.4780514719432,7,41,-1.1001102924346924,3.775512456893921,41.05435547254481,40.36789491785374,163.51598863347596,147.85951670279655,-0.0001618862152099,0.0889859497547149,0,0,0
13823,467893.4358691959,2010-09-27 01:46:34,960.4934159845152,7,41,-1.0997490882873535,3.769846439361572,41.05435547254481,40.377065614661305,163.51598863347596,147.8941140347324,-0.0001295089750783,0.0889859497547149,0,0,0
13824,467923.4512881643,2010-09-27 01:47:04,990.5088349530172,7,41,-1.099929690361023,3.7640185356140137,41.05435547254481,40.38623629361326,163.51598863347596,147.9286587530394,-0.0001618862152099,0.0889859497547149,0,0,0
13825,467953.4667116892,2010-09-27 01:47:34,1020.5242584778928,7,41,-1.099929690361023,3.758352518081665,41.05435547254481,40.39540705945238,163.51598863347596,147.9631520904609,-0.0002266406954731,0.0889859497547149,0,0,0
13826,467983.4822859904,2010-09-27 01:48:04,1050.5398327941668,7,41,-1.099929690361023,3.753010272979736,41.05435547254481,40.404577870411785,163.51598863347596,147.99759495164562,-0.0001295089750783,0.0889859497547149,0,0,0
13827,468013.4976527036,2010-09-27 01:48:34,1080.555199512244,7,41,-1.1001102924346924,3.7475063800811768,41.05435547254481,40.41374862313906,163.51598863347596,148.03198772865693,-0.0001618862152099,0.0889859497547149,0,0,0
13828,468043.5131104086,2010-09-27 01:49:04,1110.5706571873638,7,41,-1.099929690361023,3.742164134979248,41.05435547254481,40.422919368333936,163.51598863347596,148.06633161601314,-0.0001295089750783,0.0889859497547149,0,0,0
13829,468073.528425949,2010-09-27 01:49:34,1140.585972742731,7,41,-1.1001102924346924,3.7371456623077393,41.05435547254481,40.43209000908855,163.51598863347596,148.10062701784588,-0.0001618862152099,0.0889859497547149,0,0,0
13830,468103.54416871566,2010-09-27 01:50:04,1170.6017155044708,7,41,-1.099929690361023,3.7321271896362314,41.05435547254481,40.44126083325833,163.51598863347596,148.13487575534364,-9.713172767078504e-05,0.0889859497547149,0,0,0
13831,468133.5592588584,2010-09-27 01:50:34,1200.6168056571985,7,41,-1.0997490882873535,3.726946830749512,41.05435547254481,40.450431448344624,163.51598863347596,148.16907743296733,-0.0001618862152099,0.0889859497547149,0,0,0
13832,468163.5746833959,2010-09-27 01:51:04,1230.6322301895889,7,41,-1.099929690361023,3.722090244293213,41.05435547254481,40.45960213415564,163.51598863347596,148.2032342458973,-0.0001295089750783,0.0889859497547149,0,0,0
13833,468193.5902320581,2010-09-27 01:51:34,1260.6477788518262,7,41,-1.099929690361023,3.717395544052124,41.05435547254481,40.46877292802549,163.51598863347596,148.23734654646452,-6.47544875391759e-05,0.0889859497547149,0,0,0
13834,468223.59026220365,2010-09-27 01:52:04,1290.647809017509,7,41,-1.1001102924346924,3.7123770713806152,41.05435547254481,40.47793894082062,163.51598863347596,148.27139678607372,-0.0001295089750783,0.0889859497547149,0,0,0
13835,468253.6053398703,2010-09-27 01:52:34,1320.662886664019,7,41,-1.0997490882873535,3.707844257354736,41.05435547254481,40.487109623034094,163.51598863347596,148.30542052801093,-9.713172767078504e-05,0.0889859497547149,0,0,0
13836,468283.62088467286,2010-09-27 01:53:04,1350.678431471635,7,41,-1.1001102924346924,3.703149557113648,41.05435547254481,40.49628041732629,163.51598863347596,148.339401721677,-9.713172767078504e-05,0.0889859497547149,0,0,0
13837,468313.63617677975,2010-09-27 01:53:34,1380.6937235734583,7,41,-1.1001102924346924,3.698454856872559,41.05435547254481,40.50545111401916,163.51598863347596,148.37334025674983,-9.713172767078504e-05,0.0889859497547149,0,0,0
13838,468343.6516388608,2010-09-27 01:54:04,1410.709185749814,7,41,-1.099929690361023,3.69392204284668,41.05435547254481,40.51462182693229,163.51598863347596,148.40723720107758,-0.0001295089750783,0.0889859497547149,0,0,0
13839,468373.6670414585,2010-09-27 01:54:34,1440.7245882572263,7,41,-1.099929690361023,3.6895511150360103,41.05435547254481,40.52379258696218,163.51598863347596,148.44109313934536,-0.0001295089750783,0.0889859497547149,0,0,0
13840,468403.6825228829,2010-09-27 01:55:04,1470.7400696716034,7,41,-1.099929690361023,3.685180187225342,41.05435547254481,40.53296333047656,163.51598863347596,148.47490852943184,-9.713172767078504e-05,0.0889859497547149,0,0,0
13841,468433.6978919468,2010-09-27 01:55:34,1500.755438735536,7,41,-1.1001102924346924,3.680809259414673,41.05435547254481,40.54213402202916,163.51598863347596,148.50868385428657,-9.713172767078504e-05,0.0889859497547149,0,0,0
13842,468463.71378353005,2010-09-27 01:56:04,1530.7713303237697,7,41,-1.0997490882873535,3.676600217819214,41.05435547254481,40.5513048822617,163.51598863347596,148.5424204155306,-0.0001295089750783,0.0889859497547149,0,0,0
13843,468493.7287401996,2010-09-27 01:56:34,1560.7862869933024,7,41,-1.099929690361023,3.672229528427124,41.05435547254481,40.56047550183837,163.51598863347596,148.57611740507747,-0.0001618385285837,0.0889859497547149,0,0,0
13844,468523.7442136741,2010-09-27 01:57:04,1590.8017604628476,7,41,-1.1001102924346924,3.668182373046875,41.05435547254481,40.56964626590425,163.51598863347596,148.60977693956488,-0.0001295089750783,0.0889859497547149,0,0,0
13845,468553.75957674807,2010-09-27 01:57:34,1620.8171235368284,7,41,-1.0997490882873535,3.664297103881836,41.05435547254481,40.57881700208424,163.51598863347596,148.64339902229128,-9.713172767078504e-05,0.0889859497547149,0,0,0
13846,468583.7750939117,2010-09-27 01:58:04,1650.8326407956783,7,41,-1.1001102924346924,3.660249948501587,41.05435547254481,40.58798778623642,163.51598863347596,148.67698478297777,-0.0001295089750783,0.0889859497547149,0,0,0
13847,468613.7908863374,2010-09-27 01:58:34,1680.8484331361744,7,41,-1.099929690361023,3.656526565551758,41.05435547254481,40.59715865499249,163.51598863347596,148.71053476150226,-9.713172767078504e-05,0.0889859497547149,0,0,0
13848,468643.8059290768,2010-09-27 01:59:04,1710.8634758905885,7,41,-1.099929690361023,3.652479410171509,41.05435547254481,40.60632926854495,163.51598863347596,148.74404867832374,-0.0001295089750783,0.0889859497547149,0,0,0
13849,468673.8212651283,2010-09-27 01:59:34,1740.8788119270794,7,41,-1.1001102924346924,3.64875602722168,41.05435547254481,40.61549991872874,163.51598863347596,148.77752814427149,-0.0001295089750783,0.0889859497547149,0,0,0
13850,468703.8368181716,2010-09-27 02:00:04,1770.894365060478,7,41,-1.099929690361023,3.645194530487061,41.05435547254481,40.624670670537625,163.51598863347596,148.81097378001846,-9.713172767078504e-05,0.0889859497547149,0,0,0
13851,468733.85211970186,2010-09-27 02:00:34,1800.9096665006111,7,41,-1.099929690361023,3.6417949199676514,41.05435547254481,40.63384131822116,163.51598863347596,148.84438615331896,-3.237724376958795e-05,0.0889859497547149,0,0,0
13852,468763.8675601038,2010-09-27 02:01:04,1830.9251069026147,7,41,-1.0997490882873535,3.638233423233032,41.05435547254481,40.643012009903806,163.51598863347596,148.8777664108859,-6.47544875391759e-05,0.0889859497547149,0,0,0
13853,468793.8830892022,2010-09-27 02:01:34,1860.9406359909929,7,41,-1.099929690361023,3.634671926498413,41.05435547254481,40.65218274719366,163.51598863347596,148.91111530502812,-0.0001295089750783,0.0889859497547149,0,0,0
13854,468823.8983775798,2010-09-27 02:02:04,1890.95592436852,7,41,-1.099929690361023,3.631434202194214,41.05435547254481,40.66135342710923,163.51598863347596,148.9444333354696,-9.713172767078504e-05,0.0889859497547149,0,0,0
13855,468853.913962312,2010-09-27 02:02:34,1920.9715091007936,7,41,-1.0997490882873535,3.628196477890015,41.05435547254481,40.67052418047296,163.51598863347596,148.97772171940414,-6.47544875391759e-05,0.0889859497547149,0,0,0
13856,468883.92924929614,2010-09-27 02:03:04,1950.9867961800803,7,41,-1.099929690361023,3.624958753585816,41.05435547254481,40.67969493271653,163.51598863347596,149.01098051608707,-9.713172767078504e-05,0.0889859497547149,0,0,0
13857,468913.9448036826,2010-09-27 02:03:34,1981.002350481394,7,41,-1.099929690361023,3.621882915496826,41.05435547254481,40.68886567109782,163.51598863347596,149.04421085483443,-6.47544875391759e-05,0.0889859497547149,0,0,0
13858,468943.960073935,2010-09-27 02:04:04,2011.017620728665,7,41,-1.0997490882873535,3.618968963623047,41.05435547254481,40.698036371760686,163.51598863347596,149.0774130357861,-9.713172767078504e-05,0.0889859497547149,0,0,0
13859,468973.9755496601,2010-09-27 02:04:34,2041.033096448828,7,41,-1.099929690361023,3.616055011749268,41.05435547254481,40.70720720246449,163.51598863347596,149.110588097178,-6.47544875391759e-05,0.0889859497547149,0,0,0
13860,469003.99091369647,2010-09-27 02:05:04,2071.048460495236,7,41,-1.0997490882873535,3.6129791736602783,41.05435547254481,40.71637785676476,163.51598863347596,149.14373568760232,-9.713172767078504e-05,0.0889859497547149,0,0,0
13861,469034.0064672359,2010-09-27 02:05:34,2101.0640140246232,7,41,-1.099929690361023,3.610065221786499,41.05435547254481,40.72554862737868,163.51598863347596,149.17685700653922,-9.713172767078504e-05,0.0889859497547149,0,0,0
13862,469064.0217788314,2010-09-27 02:06:04,2131.079325630131,7,41,-1.099929690361023,3.6073131561279297,41.05435547254481,40.73471934313629,163.51598863347596,149.20995202515093,-9.713172767078504e-05,0.0889859497547149,0,0,0
13863,469094.0375320141,2010-09-27 02:06:34,2161.095078802858,7,41,-1.099929690361023,3.60456109046936,41.05435547254481,40.74389013311716,163.51598863347596,149.2430212805861,-3.237724376958795e-05,0.0889859497547149,0,0,0
13864,469124.0527611889,2010-09-27 02:07:04,2191.1103080728435,7,41,-1.0997490882873535,3.601809024810791,41.05435547254481,40.753060794785405,163.51598863347596,149.27606459285687,-6.47544875391759e-05,0.0889859497547149,0,0,0
13865,469154.0680581378,2010-09-27 02:07:34,2221.125604936554,7,41,-1.099929690361023,3.598895072937012,41.05435547254481,40.76223142260305,163.51598863347596,149.30908230016118,-0.0001295089750783,0.0889859497547149,0,0,0
13866,469184.0834702994,2010-09-27 02:08:04,2251.141017088039,7,41,-1.0997490882873535,3.5963048934936523,41.05435547254481,40.77140213271935,163.51598863347596,149.3420746636002,-6.47544875391759e-05,0.0889859497547149,0,0,0
13867,469214.098896561,2010-09-27 02:08:34,2281.156443349746,7,41,-1.099929690361023,3.593390941619873,41.05435547254481,40.78057281743686,163.51598863347596,149.37504131606352,-9.713172767078504e-05,0.0889859497547149,0,0,0
13868,469244.1143144669,2010-09-27 02:09:04,2311.171861255596,7,41,-1.0997490882873535,3.5908010005950928,41.05435547254481,40.78974354222502,163.51598863347596,149.40798261527868,-3.237724376958795e-05,0.0889859497547149,0,0,0
13869,469274.1297540318,2010-09-27 02:09:34,2341.1873008205093,7,41,-1.099929690361023,3.5877251625061035,41.05435547254481,40.79891423194452,163.51598863347596,149.44089786591127,-9.713172767078504e-05,0.0889859497547149,0,0,0
13870,469304.1451539527,2010-09-27 02:10:05,2371.2027007414663,7,41,-1.1001102924346924,3.584811210632324,41.05435547254481,40.80808496733695,163.51598863347596,149.47378719694635,-9.713172767078504e-05,0.0889859497547149,0,0,0
13871,469334.1605873473,2010-09-27 02:10:35,2401.2181341359774,7,41,-1.099929690361023,3.582059144973755,41.05435547254481,40.817255658138514,163.51598863347596,149.50665005893603,-6.47544875391759e-05,0.0889859497547149,0,0,0
13872,469364.17599941854,2010-09-27 02:11:05,2431.233546207264,7,41,-1.099929690361023,3.5789833068847656,41.05435547254481,40.82642632803614,163.51598863347596,149.53948588857435,-9.713172767078504e-05,0.0889859497547149,0,0,0
13873,469394.1914274546,2010-09-27 02:11:35,2461.2489742433995,7,41,-1.099929690361023,3.5759074687957764,41.05435547254481,40.83559702053788,163.51598863347596,149.57229452163335,-0.0001295089750783,0.0889859497547149,0,0,0
13874,469424.2068656512,2010-09-27 02:12:05,2491.264412439898,7,41,-1.0997490882873535,3.572993516921997,41.05435547254481,40.84476775740404,163.51598863347596,149.60507539664695,-9.713172767078504e-05,0.0889859497547149,0,0,0
13875,469454.2222832513,2010-09-27 02:12:35,2521.2798300399845,7,41,-1.1001102924346924,3.569755792617798,41.05435547254481,40.8539384248288,163.51598863347596,149.63782719871023,-9.713172767078504e-05,0.0889859497547149,0,0,0
13876,469484.2377173024,2010-09-27 02:13:05,2551.295264091135,7,41,-1.099929690361023,3.5663561820983887,41.05435547254481,40.8631091493614,163.51598863347596,149.67054940946267,-9.713172767078504e-05,0.0889859497547149,0,0,0
13877,469514.2531525215,2010-09-27 02:13:35,2581.3106994305017,7,41,-1.0997490882873535,3.563118457794189,41.05435547254481,40.87227983991164,163.51598863347596,149.70324047759283,-6.47544875391759e-05,0.0889859497547149,0,0,0
13878,469544.2685451041,2010-09-27 02:14:05,2611.3260918928404,7,41,-1.099929690361023,3.5595569610595703,41.05435547254481,40.88145049671552,163.51598863347596,149.7359002555846,-9.713172767078504e-05,0.0889859497547149,0,0,0
13879,469574.28405258857,2010-09-27 02:14:35,2641.341599377292,7,41,-1.1001102924346924,3.555833578109741,41.05435547254481,40.89062121570794,163.51598863347596,149.76852674216087,-0.0001295089750783,0.0889859497547149,0,0,0
13880,469604.29938164266,2010-09-27 02:15:05,2671.356928431353,7,41,-1.099929690361023,3.551948308944702,41.05435547254481,40.899791932228176,163.51598863347596,149.8011184415236,-0.0001295089750783,0.0889859497547149,0,0,0
13881,469634.3148060597,2010-09-27 02:15:35,2701.372352848456,7,41,-1.0997490882873535,3.548063039779663,41.05435547254481,40.90896267191701,163.51598863347596,149.83367416750775,-6.47544875391759e-05,0.0889859497547149,0,0,0
13882,469664.3303553786,2010-09-27 02:16:05,2731.387902172345,7,41,-1.099929690361023,3.543853998184204,41.05435547254481,40.91813345467381,163.51598863347596,149.86619232488593,-9.713172767078504e-05,0.0889859497547149,0,0,0
13883,469694.3456858412,2010-09-27 02:16:35,2761.403232629911,7,41,-1.0997490882873535,3.539483070373535,41.05435547254481,40.92730420320015,163.51598863347596,149.89867141182893,-0.0001295089750783,0.0889859497547149,0,0,0
13884,469724.3610778925,2010-09-27 02:17:05,2791.418624681224,7,41,-1.099929690361023,3.534950256347656,41.05435547254481,40.93647492906125,163.51598863347596,149.9311102959808,-6.47544875391759e-05,0.0889859497547149,0,0,0
13885,469754.37663150206,2010-09-27 02:17:35,2821.4341782958227,7,41,-1.0997490882873535,3.5304174423217773,41.05435547254481,40.94564574439936,163.51598863347596,149.96350770247273,-0.0001295089750783,0.0889859497547149,0,0,0
13886,469784.3919398695,2010-09-27 02:18:05,2851.4494866582354,7,41,-1.099929690361023,3.525398969650269,41.05435547254481,40.95481647529703,163.51598863347596,149.99586089549382,-9.713172767078504e-05,0.0889859497547149,0,0,0
13887,469814.4073583417,2010-09-27 02:18:35,2881.464905130499,7,41,-1.099929690361023,3.52005672454834,41.05435547254481,40.963987188648886,163.51598863347596,150.0281671056874,-0.0001618862152099,0.0889859497547149,0,0,0
13888,469844.4227689745,2010-09-27 02:19:05,2911.4803157732185,7,41,-1.099929690361023,3.514390707015991,41.05435547254481,40.973157937110535,163.51598863347596,150.06042319202945,-0.0001942634553415,0.0889859497547149,0,0,0
13889,469874.4383288747,2010-09-27 02:19:35,2941.495875763733,7,41,-1.0997490882873535,3.508239269256592,41.05435547254481,40.98232880528121,163.51598863347596,150.09262495879867,-0.0001942634553415,0.0889859497547149,0,0,0
13890,469904.453636385,2010-09-27 02:20:05,2971.511183173768,7,41,-1.099929690361023,3.501116275787353,41.05435547254481,40.9914995352998,163.51598863347596,150.12476598278727,-0.0002266406954731,0.0889859497547149,0,0,0
13891,469934.46906180464,2010-09-27 02:20:35,3001.526608598386,7,41,-1.099929690361023,3.4933457374572754,41.05435547254481,41.00067027582467,163.51598863347596,150.1568400002153,-0.0002266406954731,0.0889859497547149,0,0,0
13892,469964.48446776567,2010-09-27 02:21:05,3031.542014554407,7,41,-1.1001102924346924,3.484603881835937,41.05435547254481,41.00984102906507,163.51598863347596,150.18883782017534,-0.0002266406954731,0.0889859497547149,0,0,0
13893,469994.49989135074,2010-09-27 02:21:35,3061.5574381394326,7,41,-1.0997490882873535,3.47408127784729,41.05435547254481,41.01901175813414,163.51598863347596,150.2207470783897,-0.0002913951757363,0.0889859497547149,0,0,0
13894,470024.5153166149,2010-09-27 02:22:05,3091.5728634287125,7,41,-1.099929690361023,3.461616039276123,41.05435547254481,41.02818245763178,163.51598863347596,150.25255220584936,-0.0003561496851034,0.0889859497547149,0,0,0
13895,470054.5310037979,2010-09-27 02:22:35,3121.588550591669,7,41,-1.0997490882873535,3.446074962615967,41.05435547254481,41.0373532298605,163.51598863347596,150.28422997834554,-0.0004856586456298,0.0889859497547149,0,0,0
13896,470084.5461728526,2010-09-27 02:23:05,3151.603719646348,7,41,-1.099929690361023,3.425353765487671,41.05435547254481,41.04652389292056,163.51598863347596,150.31574175820467,-0.0005827903514727,0.0889859497547149,0,0,0
13897,470114.5616125429,2010-09-27 02:23:35,3181.6191593315625,7,41,-1.099929690361023,3.396214246749878,41.05435547254481,41.05569463621256,163.51598863347596,150.34702762116137,-0.0008094310760498,0.0889859497547149,0,0,0
13898,470144.5771437365,2010-09-27 02:24:05,3211.634690525196,7,41,-1.0997490882873535,3.354285717010498,41.05435547254481,41.06486541293776,163.51598863347596,150.37799207479247,-0.0012950897216796,0.0889859497547149,0,0,0
13899,470174.5924581791,2010-09-27 02:24:35,3241.6500049677848,7,41,-1.0997490882873535,3.2939023971557617,41.05435547254481,41.07403618856644,163.51598863347596,150.40849170247444,-0.0018131255637854,0.0889859497547149,0,0,0
13900,470204.60787015007,2010-09-27 02:25:05,3271.6654169388203,7,41,-1.099929690361023,3.205998420715332,41.05435547254481,41.08320690545969,163.51598863347596,150.43832144469548,-0.0027520656585693,0.0889859497547149,0,0,0
13901,470234.6232936399,2010-09-27 02:25:35,3301.6808404286085,7,41,-1.099929690361023,3.067748069763184,41.05435547254481,41.092377650759445,163.51598863347596,150.46714582623142,-0.0045975684188306,0.0889859497547149,0,0,0
13902,470255.466912013,2010-09-27 02:25:56,3322.5244588017786,7,41,-1.099929690361023,2.867495536804199,41.05435547254481,41.09874604545776,163.51598863347596,150.48614831618218,-0.0112024787813425,0.0889859497547149,0,0,0
13903,470264.95124546846,2010-09-27 02:26:05,3332.0087922672365,7,41,-1.099929690361023,2.699943780899048,41.05435547254481,41.10164383062344,163.51598863347596,150.49422163859947,-0.0146992206573486,0.0889859497547149,0,0,0
13904,470324.96414566645,2010-09-27 02:27:05,60.01519689956854,8,41,0.0,3.305881977081299,41.05435547254481,41.10164383062344,163.51598863347596,150.49422163859947,0.0014245987404137,0.0889859497547149,0,0,0
13905,470325.1497370842,2010-09-27 02:27:06,0.187462976429626,9,41,-1.9243103452026844e-05,3.3062057495117188,41.05435547254481,41.10164383162548,163.51598863347596,150.49422164191245,0.0,0.0882566422224044,0,0,0
13906,470329.9779404576,2010-09-27 02:27:11,5.015666359875227,9,41,0.0001613661734154,3.3146238327026367,41.05435600213172,41.10164383170996,163.5159903869207,150.49422164219175,0.0012627125252038,0.0882566422224044,0,0,0
