Data_Point,Test_Time(s),Date_Time,Step_Time(s),Step_Index,Cycle_Index,Current(A),Voltage(V),Charge_Capacity(Ah),Discharge_Capacity(Ah),Charge_Energy(Wh),Discharge_Energy(Wh),dV/dt(V/s),Internal_Resistance(Ohm),Is_FC_Data,AC_Impedance(Ohm),ACI_Phase_Angle(Deg)
6383,216694.11877233328,2010-09-24 03:59:30,30.01534663294145,1,20,0.0,3.38795804977417,18.873935629245263,18.89545085310302,75.2526006366939,69.03718073175018,0.0008741855854168,0.0897949114441871,0,0,0
6384,216724.13414282576,2010-09-24 04:00:00,60.03071712544004,1,20,0.0,3.4149930477142334,18.873935629245263,18.89545085310302,75.2526006366939,69.03718073175018,0.0005827903514727,0.0897949114441871,0,0,0
6385,216754.14948557905,2010-09-24 04:00:30,90.0460598786972,1,20,0.0,3.4353904724121094,18.873935629245263,18.89545085310302,75.2526006366939,69.03718073175018,0.0004532813909463,0.0897949114441871,0,0,0
6386,216784.11796522976,2010-09-24 04:01:00,120.0145395294408,1,20,0.0,3.451579093933105,18.873935629245263,18.89545085310302,75.2526006366939,69.03718073175018,0.0003885269106831,0.0897949114441871,0,0,0
6387,216814.13365732512,2010-09-24 04:01:30,30.015304888741515,2,20,0.5501165986061096,3.594200372695923,18.878523025547107,18.89545085310302,75.26893467827226,69.03718073175018,0.0014569282066076,0.0897949114441871,0,0,0
6388,216844.1488862292,2010-09-24 04:02:00,60.030533807851135,2,20,0.550297200679779,3.640176057815552,18.88311043994251,18.89545085310302,75.28553505744395,69.03718073175018,0.0010360718006268,0.0897949114441871,0,0,0
6389,216874.16426113268,2010-09-24 04:02:30,90.04590870133525,2,20,0.550297200679779,3.6732006072998047,18.88769782296443,18.89545085310302,75.30231298444902,69.03718073175018,0.0007770061492919,0.0897949114441871,0,0,0
6390,216904.1797721109,2010-09-24 04:03:00,120.06141967449516,2,20,0.5501165986061096,3.6994261741638175,18.89228522120701,18.89545085310302,75.3192257475354,69.03718073175018,0.0006475448608398,0.0897949114441871,0,0,0
6391,216934.19501156628,2010-09-24 04:03:30,150.076659129905,2,20,0.5501165986061096,3.7206332683563232,18.89687263442705,18.89545085310302,75.33624681724022,69.03718073175018,0.0005180359003134,0.0897949114441871,0,0,0
6392,216964.21033686097,2010-09-24 04:04:00,180.09198444463294,2,20,0.550297200679779,3.738116979598999,18.901460052176983,18.89545085310302,75.35335628745624,69.03718073175018,0.0004532813909463,0.0897949114441871,0,0,0
6393,216994.22568740865,2010-09-24 04:04:30,210.1073349873338,2,20,0.5501165986061096,3.751229763031006,18.90604741824229,18.89545085310302,75.37053623784264,69.03718073175018,0.0002913951757363,0.0897949114441871,0,0,0
6394,217024.24104855285,2010-09-24 04:05:00,240.12269613651,2,20,0.5504778623580933,3.7598094940185542,18.910634789918102,18.89545085310302,75.3877659716234,69.03718073175018,0.0001942634553415,0.0897949114441871,0,0,0
6395,217054.25636759688,2010-09-24 04:05:30,270.1380152557731,2,20,0.5501165986061096,3.7646660804748535,18.91522215781953,18.89545085310302,75.40502523025816,69.03718073175018,9.713172767078504e-05,0.0897949114441871,0,0,0
6396,217084.27170093163,2010-09-24 04:06:00,300.1533485153325,2,20,0.5497553944587708,3.7682275772094727,18.919809513017945,18.89545085310302,75.4223039207486,69.03718073175018,6.47544875391759e-05,0.0897949114441871,0,0,0
6397,217114.28703369497,2010-09-24 04:06:30,330.16868127865325,2,20,0.5501165986061096,3.7719509601593018,18.924396880593616,18.89545085310302,75.43959908772572,69.03718073175018,9.713172767078504e-05,0.0897949114441871,0,0,0
6398,217144.3023885083,2010-09-24 04:07:00,360.1840360870018,2,20,0.550297200679779,3.775188684463501,18.92898423239702,18.89545085310302,75.45690998106204,69.03718073175018,3.237724376958795e-05,0.0897949114441871,0,0,0
6399,217174.31768413392,2010-09-24 04:07:30,390.19933171262113,2,20,0.550297200679779,3.77875018119812,18.933571505732925,18.89545085310302,75.47423617061084,69.03718073175018,9.713172767078504e-05,0.0897949114441871,0,0,0
6400,217204.3330333784,2010-09-24 04:08:00,420.2146809420438,2,20,0.5497553944587708,3.781826019287109,18.938158704487485,18.89545085310302,75.49157742259895,69.03718073175018,3.237724376958795e-05,0.0897949114441871,0,0,0
6401,217234.34832460305,2010-09-24 04:08:30,450.2299721867277,2,20,0.5499359965324402,3.7850637435913086,18.942745950374903,18.89545085310302,75.50893402640276,69.03718073175018,6.47544875391759e-05,0.0897949114441871,0,0,0
6402,217264.36372778213,2010-09-24 04:09:00,480.2453753608045,2,20,0.5501165986061096,3.7884633541107178,18.947332720133023,18.89545085310302,75.52630364971806,69.03718073175018,6.47544875391759e-05,0.0897949114441871,0,0,0
6403,217294.37904643023,2010-09-24 04:09:30,510.260694013904,2,20,0.5499359965324402,3.791539192199707,18.95191908921985,18.89545085310302,75.54368632216439,69.03718073175018,6.47544875391759e-05,0.0897949114441871,0,0,0
6404,217324.3943876196,2010-09-24 04:10:00,540.2760352934826,2,20,0.5501165986061096,3.794776916503906,18.956505512393445,18.89545085310302,75.56108363737462,69.03718073175018,9.713172767078504e-05,0.0897949114441871,0,0,0
6405,217354.40972582143,2010-09-24 04:10:30,570.2913734001411,2,20,0.5501165986061096,3.797852754592896,18.96109190839851,18.89545085310302,75.57849516929724,69.03718073175018,6.47544875391759e-05,0.0897949114441871,0,0,0
6406,217384.42504389316,2010-09-24 04:11:00,600.3066914567517,2,20,0.5501165986061096,3.8009285926818848,18.96567879404518,18.89545085310302,75.59592289167377,69.03718073175018,6.47544875391759e-05,0.0897949114441871,0,0,0
6407,217414.440387699,2010-09-24 04:11:30,630.3220353578741,2,20,0.5501165986061096,3.804166316986084,18.97026602933711,18.89545085310302,75.61336610948099,69.03718073175018,9.713172767078504e-05,0.0897949114441871,0,0,0
6408,217444.44047705745,2010-09-24 04:12:00,660.3221247313486,2,20,0.5501165986061096,3.8070802688598633,18.974850944517705,18.89545085310302,75.63081464020458,69.03718073175018,6.47544875391759e-05,0.0897949114441871,0,0,0
6409,217474.45535977732,2010-09-24 04:12:30,690.3370073460292,2,20,0.550297200679779,3.8103179931640634,18.979438124560108,18.89545085310302,75.64828601054661,69.03718073175018,9.713172767078504e-05,0.0897949114441871,0,0,0
6410,217504.47068035023,2010-09-24 04:13:00,720.3523279139082,2,20,0.5501165986061096,3.813393831253052,18.98402536668193,18.89545085310302,75.66577209312473,69.03718073175018,6.47544875391759e-05,0.0897949114441871,0,0,0
6411,217534.486365819,2010-09-24 04:13:30,750.3680134778735,2,20,0.550297200679779,3.816793441772461,18.98861260600279,18.89545085310302,75.68327325060538,69.03718073175018,9.713172767078504e-05,0.0897949114441871,0,0,0
6412,217564.5013316965,2010-09-24 04:14:00,780.3829792601533,2,20,0.5501165986061096,3.82019305229187,18.993199771996768,18.89545085310302,75.70078928793193,69.03718073175018,9.713172767078504e-05,0.0897949114441871,0,0,0
6413,217594.5167481036,2010-09-24 04:14:30,810.3983956822992,2,20,0.5501165986061096,3.8235926628112793,18.9977870347599,18.89545085310302,75.71832130894323,69.03718073175018,6.47544875391759e-05,0.0897949114441871,0,0,0
6414,217624.53193252167,2010-09-24 04:15:00,840.4135800852897,2,20,0.5501165986061096,3.8271541595458975,19.002374211974377,18.89545085310302,75.735868900505,69.03718073175018,9.713172767078504e-05,0.0897949114441871,0,0,0
6415,217654.5472629491,2010-09-24 04:15:30,870.4289105177925,2,20,0.550297200679779,3.8307156562805176,19.0069614040298,18.89545085310302,75.75343269437033,69.03718073175018,0.0001618862152099,0.0897949114441871,0,0,0
6416,217684.5625651512,2010-09-24 04:16:00,900.4442127348651,2,20,0.550297200679779,3.8342769145965576,19.01154860858084,18.89545085310302,75.77101262804611,69.03718073175018,0.0001295089750783,0.0897949114441871,0,0,0
6417,217714.577876476,2010-09-24 04:16:30,930.4595241498972,2,20,0.550297200679779,3.837676525115967,19.016135833003208,18.89545085310302,75.78860862337743,69.03718073175018,0.0001295089750783,0.0897949114441871,0,0,0
6418,217744.59318677825,2010-09-24 04:17:00,960.4748343619266,2,20,0.5501165986061096,3.841076135635376,19.02072305405315,18.89545085310302,75.80622031708047,69.03718073175018,9.713172767078504e-05,0.0897949114441871,0,0,0
6419,217774.6086389396,2010-09-24 04:17:30,990.4902865182708,2,20,0.5499359965324402,3.844151973724365,19.025310297406037,18.89545085310302,75.82384753552245,69.03718073175018,6.47544875391759e-05,0.0897949114441871,0,0,0
6420,217804.6238025156,2010-09-24 04:18:00,1020.5054500992862,2,20,0.550297200679779,3.847713470458984,19.02989750395952,18.89545085310302,75.8414897608905,69.03718073175018,0.0001295089750783,0.0897949114441871,0,0,0
6421,217834.63923879733,2010-09-24 04:18:30,1050.520886360955,2,20,0.5501165986061096,3.8507893085479736,19.034484716616507,18.89545085310302,75.8591468202159,69.03718073175018,9.713172767078504e-05,0.0897949114441871,0,0,0
6422,217864.65441529057,2010-09-24 04:19:00,1080.5360628542016,2,20,0.5501165986061096,3.853865146636963,19.039071937278727,18.89545085310302,75.8768183451042,69.03718073175018,9.713172767078504e-05,0.0897949114441871,0,0,0
6423,217894.66974078075,2010-09-24 04:19:30,1110.5513883594049,2,20,0.550297200679779,3.857102870941162,19.04365910968967,18.89545085310302,75.89450378481423,69.03718073175018,9.713172767078504e-05,0.0897949114441871,0,0,0
6424,217924.6850420505,2010-09-24 04:20:00,1140.5666896291127,2,20,0.550297200679779,3.859854936599731,19.04824629986072,18.89545085310302,75.91220294382228,69.03718073175018,6.47544875391759e-05,0.0897949114441871,0,0,0
6425,217954.7003382826,2010-09-24 04:20:30,1170.5819858662585,2,20,0.550297200679779,3.862768888473511,19.05283352356708,18.89545085310302,75.92991540145837,69.03718073175018,9.713172767078504e-05,0.0897949114441871,0,0,0
6426,217984.71568840923,2010-09-24 04:21:00,1200.5973359728707,2,20,0.550297200679779,3.86535906791687,19.057420731512384,18.89545085310302,75.94764035139882,69.03718073175018,9.713172767078504e-05,0.0897949114441871,0,0,0
6427,218014.73131681053,2010-09-24 04:21:30,1230.612964379162,2,20,0.5501165986061096,3.86778736114502,19.062007933817267,18.89545085310302,75.96537723965406,69.03718073175018,6.47544875391759e-05,0.0897949114441871,0,0,0
6428,218044.7462605728,2010-09-24 04:22:00,1260.6279081364637,2,20,0.5499359965324402,3.870215654373169,19.066595076112023,18.89545085310302,75.98312519322972,69.03718073175018,3.237724376958795e-05,0.0897949114441871,0,0,0
6429,218074.76156035383,2010-09-24 04:22:30,1290.6432079174556,2,20,0.5504778623580933,3.8726439476013184,19.071182265755144,18.89545085310302,76.00088403079918,69.03718073175018,9.713172767078504e-05,0.0897949114441871,0,0,0
6430,218104.77686699195,2010-09-24 04:23:00,1320.6585145756137,2,20,0.5501165986061096,3.874424695968628,19.07576945216535,18.89545085310302,76.01865282146407,69.03718073175018,3.237724376958795e-05,0.0897949114441871,0,0,0
6431,218134.7921933944,2010-09-24 04:23:30,1350.673840978057,2,20,0.550297200679779,3.876367330551148,19.08035664295305,18.89545085310302,76.03643091677193,69.03718073175018,3.237724376958795e-05,0.0897949114441871,0,0,0
6432,218164.807465381,2010-09-24 04:24:00,1380.689112959657,2,20,0.5501165986061096,3.878309965133667,19.0849438481314,18.89545085310302,76.05421774512678,69.03718073175018,3.237724376958795e-05,0.0897949114441871,0,0,0
6433,218194.82278628973,2010-09-24 04:24:30,1410.7044338633743,2,20,0.5501165986061096,3.880090713500977,19.08953106155273,18.89545085310302,76.07201267724645,69.03718073175018,3.237724376958795e-05,0.0897949114441871,0,0,0
6434,218224.8380738903,2010-09-24 04:25:00,1440.7197214589494,2,20,0.550297200679779,3.881709575653076,19.09411826904373,18.89545085310302,76.08981512512074,69.03718073175018,6.47544875391759e-05,0.0897949114441871,0,0,0
6435,218254.85338477904,2010-09-24 04:25:30,1470.7350323627054,2,20,0.550297200679779,3.883328437805176,19.098705465932028,18.89545085310302,76.10762451889389,69.03718073175018,6.47544875391759e-05,0.0897949114441871,0,0,0
6436,218284.8687243744,2010-09-24 04:26:00,1500.75037193803,2,20,0.550297200679779,3.8844616413116455,19.103292720991018,18.89545085310302,76.12544080431125,69.03718073175018,3.237724376958795e-05,0.0897949114441871,0,0,0
6437,218314.88400794493,2010-09-24 04:26:30,1530.765655528608,2,20,0.550297200679779,3.886080503463745,19.107879937730843,18.89545085310302,76.14326312331751,69.03718073175018,3.237724376958795e-05,0.0897949114441871,0,0,0
6438,218344.89928110447,2010-09-24 04:27:00,1560.7809286881486,2,20,0.5501165986061096,3.887051820755005,19.112467113956683,18.89545085310302,76.1610913302206,69.03718073175018,0.0,0.0897949114441871,0,0,0
6439,218374.9145910208,2010-09-24 04:27:31,1590.7962386044396,2,20,0.5501165986061096,3.8885087966918954,19.117054319615107,18.89545085310302,76.17892552107988,69.03718073175018,6.47544875391759e-05,0.0897949114441871,0,0,0
6440,218404.92993527275,2010-09-24 04:28:01,1620.8115829466633,2,20,0.550297200679779,3.889642000198364,19.121641565116764,18.89545085310302,76.19676560655519,69.03718073175018,3.237724376958795e-05,0.0897949114441871,0,0,0
6441,218434.94517845748,2010-09-24 04:28:31,1650.8268260211064,2,20,0.550297200679779,3.890937089920044,19.12622880764086,18.89545085310302,76.2146112322548,69.03718073175018,3.237724376958795e-05,0.0897949114441871,0,0,0
6442,218464.9606289296,2010-09-24 04:29:01,1680.8422764932466,2,20,0.5499359965324402,3.891908407211304,19.13081603173088,18.89545085310302,76.23246238594874,69.03718073175018,0.0,0.0897949114441871,0,0,0
6443,218494.9757904956,2010-09-24 04:29:31,1710.8574380792825,2,20,0.5501165986061096,3.893365383148194,19.135403297100112,18.89545085310302,76.25031925845394,69.03718073175018,0.0,0.0897949114441871,0,0,0
6444,218524.9910968881,2010-09-24 04:30:01,1740.8727444517274,2,20,0.5501165986061096,3.894336700439453,19.139990534558333,18.89545085310302,76.26818158293607,69.03718073175018,3.237724376958795e-05,0.0897949114441871,0,0,0
6445,218555.00636931584,2010-09-24 04:30:31,1770.8880168794417,2,20,0.550297200679779,3.895469903945923,19.14457781605605,18.89545085310302,76.28604908038547,69.03718073175018,0.0,0.0897949114441871,0,0,0
6446,218585.0216615981,2010-09-24 04:31:01,1800.9033091767528,2,20,0.5501165986061096,3.896926879882813,19.14916501801727,18.89545085310302,76.30392191728664,69.03718073175018,3.237724376958795e-05,0.0897949114441871,0,0,0
6447,218615.03710909784,2010-09-24 04:31:31,1830.9187566564235,2,20,0.5499359965324402,3.898060083389282,19.153752218240037,18.89545085310302,76.32180027572676,69.03718073175018,3.237724376958795e-05,0.0897949114441871,0,0,0
6448,218645.0522543832,2010-09-24 04:32:01,1860.933901951795,2,20,0.5501165986061096,3.899193286895752,19.15833935195869,18.89545085310302,76.33968397606584,69.03718073175018,3.237724376958795e-05,0.0897949114441871,0,0,0
6449,218675.0675478233,2010-09-24 04:32:31,1890.9491953869467,2,20,0.550297200679779,3.900488376617432,19.162926648377983,18.89545085310302,76.35757389711448,69.03718073175018,3.237724376958795e-05,0.0897949114441871,0,0,0
6450,218705.0829723206,2010-09-24 04:33:01,1920.9646198992875,2,20,0.550297200679779,3.9017834663391113,19.16751385074265,18.89545085310302,76.37546910209666,69.03718073175018,6.47544875391759e-05,0.0897949114441871,0,0,0
6451,218735.09828182583,2010-09-24 04:33:31,1950.9799293945275,2,20,0.550297200679779,3.903078556060791,19.17210105327148,18.89545085310302,76.3933700172814,69.03718073175018,3.237724376958795e-05,0.0897949114441871,0,0,0
6452,218765.1134473367,2010-09-24 04:34:01,1980.9950949203976,2,20,0.5501165986061096,3.904049873352051,19.176688249079323,18.89545085310302,76.41127663986168,69.03718073175018,0.0,0.0897949114441871,0,0,0
6453,218795.1287315839,2010-09-24 04:34:31,2011.010379162602,2,20,0.5501165986061096,3.905506849288941,19.181275394482363,18.89545085310302,76.42918878430147,69.03718073175018,3.237724376958795e-05,0.0897949114441871,0,0,0
6454,218825.14407808657,2010-09-24 04:35:01,2041.025725655193,2,20,0.5499359965324402,3.9064781665802,19.18586261095362,18.89545085310302,76.44710697066385,69.03718073175018,-3.237724376958795e-05,0.0897949114441871,0,0,0
6455,218855.15940433863,2010-09-24 04:35:31,2071.041052012524,2,20,0.5501165986061096,3.90793514251709,19.190449834204607,18.89545085310302,76.46503112411033,69.03718073175018,3.237724376958795e-05,0.0897949114441871,0,0,0
6456,218885.17462075653,2010-09-24 04:36:01,2101.056268320153,2,20,0.5499359965324402,3.9092302322387695,19.195036957818857,18.89545085310302,76.48296074850434,69.03718073175018,3.237724376958795e-05,0.0897949114441871,0,0,0
6457,218915.18991951496,2010-09-24 04:36:31,2131.071567168817,2,20,0.5501165986061096,3.910687208175659,19.19962409327921,18.89545085310302,76.50089638796491,69.03718073175018,6.47544875391759e-05,0.0897949114441871,0,0,0
6458,218945.20520578223,2010-09-24 04:37:01,2161.086853345852,2,20,0.550297200679779,3.911982297897339,19.20421126069821,18.89545085310302,76.51883818420612,69.03718073175018,3.237724376958795e-05,0.0897949114441871,0,0,0
6459,218975.22069467528,2010-09-24 04:37:31,2191.102342253934,2,20,0.550297200679779,3.9132773876190186,19.208798487282596,18.89545085310302,76.53678626513042,69.03718073175018,3.237724376958795e-05,0.0897949114441871,0,0,0
6460,219005.23593179983,2010-09-24 04:38:01,2221.1175794587257,2,20,0.5501165986061096,3.914734125137329,19.213385679603004,18.89545085310302,76.55474034463059,69.03718073175018,3.237724376958795e-05,0.0897949114441871,0,0,0
6461,219035.25123406705,2010-09-24 04:38:31,2251.1328816356986,2,20,0.5501165986061096,3.916029214859009,19.21797288723669,18.89545085310302,76.57270055989677,69.03718073175018,3.237724376958795e-05,0.0897949114441871,0,0,0
6462,219065.2663803599,2010-09-24 04:39:01,2281.1480279435978,2,20,0.5501165986061096,3.917324304580689,19.22255999312971,18.89545085310302,76.59066662291957,69.03718073175018,3.237724376958795e-05,0.0897949114441871,0,0,0
6463,219095.2816865419,2010-09-24 04:39:31,2311.1633341205547,2,20,0.5501165986061096,3.918619394302368,19.22714721879676,18.89545085310302,76.6086394604506,69.03718073175018,3.237724376958795e-05,0.0897949114441871,0,0,0
6464,219125.2969711199,2010-09-24 04:40:01,2341.17861868356,2,20,0.5504778623580933,3.920238256454468,19.231734345399445,18.89545085310302,76.62661829086113,69.03718073175018,6.47544875391759e-05,0.0897949114441871,0,0,0
6465,219155.3122619436,2010-09-24 04:40:31,2371.19390952223,2,20,0.550297200679779,3.921695232391357,19.236321539091453,18.89545085310302,76.64460374676834,69.03718073175018,9.713172767078504e-05,0.0897949114441871,0,0,0
6466,219185.32769064137,2010-09-24 04:41:01,2401.2093382200183,2,20,0.5499359965324402,3.922828435897827,19.24090875376621,18.89545085310302,76.66259580556043,69.03718073175018,3.237724376958795e-05,0.0897949114441871,0,0,0
6467,219215.34286306944,2010-09-24 04:41:31,2431.2245106531304,2,20,0.550297200679779,3.924447298049927,19.245495920417323,18.89545085310302,76.6805941759073,69.03718073175018,3.237724376958795e-05,0.0897949114441871,0,0,0
6468,219245.35828559185,2010-09-24 04:42:01,2461.239933170491,2,20,0.550297200679779,3.925904273986816,19.250083159041576,18.89545085310302,76.69859947643418,69.03718073175018,6.47544875391759e-05,0.0897949114441871,0,0,0
6469,219275.3735880796,2010-09-24 04:42:31,2491.2552356432016,2,20,0.5501165986061096,3.927199363708496,19.254670355874893,18.89545085310302,76.7166111003644,69.03718073175018,3.237724376958795e-05,0.0897949114441871,0,0,0
6470,219305.3887748836,2010-09-24 04:43:01,2521.2704225574607,2,20,0.5501165986061096,3.9286563396453857,19.259257514574905,18.89545085310302,76.73462933406674,69.03718073175018,3.237724376958795e-05,0.0897949114441871,0,0,0
6471,219335.4040457975,2010-09-24 04:43:31,2551.285693371145,2,20,0.550297200679779,3.9304370880126953,19.26384471311119,18.89545085310302,76.75265450116598,69.03718073175018,6.47544875391759e-05,0.0897949114441871,0,0,0
6472,219365.4193302001,2010-09-24 04:44:01,2581.3009777637253,2,20,0.5501165986061096,3.931732177734375,19.268431928193653,18.89545085310302,76.7706865409561,69.03718073175018,3.237724376958795e-05,0.0897949114441871,0,0,0
6473,219395.4346086278,2010-09-24 04:44:31,2611.3162561964286,2,20,0.5501165986061096,3.9331891536712646,19.273019152706468,18.89545085310302,76.78872550869566,69.03718073175018,6.47544875391759e-05,0.0897949114441871,0,0,0
6474,219425.4499006444,2010-09-24 04:45:01,2641.331548223064,2,20,0.550297200679779,3.9346461296081534,19.277606302154933,18.89545085310302,76.80677109356094,69.03718073175018,3.237724376958795e-05,0.0897949114441871,0,0,0
6475,219455.4655679578,2010-09-24 04:45:31,2671.3472155214363,2,20,0.550297200679779,3.936264991760254,19.28219352957237,18.89545085310302,76.82482397668431,69.03718073175018,6.47544875391759e-05,0.0897949114441871,0,0,0
6476,219485.48049723892,2010-09-24 04:46:01,2701.362144802604,2,20,0.5501165986061096,3.9378838539123535,19.28678065479765,18.89545085310302,76.84288329475045,69.03718073175018,6.47544875391759e-05,0.0897949114441871,0,0,0
6477,219515.49590090424,2010-09-24 04:46:31,2731.377548482944,2,20,0.5499359965324402,3.939178943634033,19.291367621673636,18.89545085310302,76.86094916021196,69.03718073175018,3.237724376958795e-05,0.0897949114441871,0,0,0
6478,219545.51105526224,2010-09-24 04:47:01,2761.39270284595,2,20,0.5501165986061096,3.940797805786133,19.295953911265126,18.89545085310302,76.87901936313911,69.03718073175018,0.0,0.0897949114441871,0,0,0
6479,219575.52638383512,2010-09-24 04:47:31,2791.408031423824,2,20,0.5501165986061096,3.942416667938232,19.30054048993424,18.89545085310302,76.89709788373713,69.03718073175018,3.237724376958795e-05,0.0897949114441871,0,0,0
6480,219605.5416758818,2010-09-24 04:48:01,2821.4233234454464,2,20,0.5501165986061096,3.944197416305542,19.30512761459413,18.89545085310302,76.91518603124662,69.03718073175018,6.47544875391759e-05,0.0897949114441871,0,0,0
6481,219635.5569505351,2010-09-24 04:48:31,2851.438598098716,2,20,0.550297200679779,3.945654392242432,19.3097148293892,18.89545085310302,76.93328183086771,69.03718073175018,3.237724376958795e-05,0.0897949114441871,0,0,0
6482,219665.57226562427,2010-09-24 04:49:01,2881.4539132029568,2,20,0.550297200679779,3.9472732543945312,19.31430206104212,18.89545085310302,76.95138505479414,69.03718073175018,3.237724376958795e-05,0.0897949114441871,0,0,0
6483,219695.5871789005,2010-09-24 04:49:31,2911.46882615336,2,20,0.5499359965324402,3.948730230331421,19.318889226516937,18.89545085310302,76.96949546765107,69.03718073175018,0.0,0.0897949114441871,0,0,0
6484,219725.5874014063,2010-09-24 04:50:01,2941.469049095241,2,20,0.550297200679779,3.9505109786987305,19.323474086135207,18.89545085310302,76.98760425496543,69.03718073175018,3.237724376958795e-05,0.0897949114441871,0,0,0
6485,219755.6024664764,2010-09-24 04:50:31,2971.484114040046,2,20,0.550297200679779,3.95229172706604,19.32806132407704,18.89545085310302,77.00573004917727,69.03718073175018,6.47544875391759e-05,0.0897949114441871,0,0,0
6486,219785.61775068857,2010-09-24 04:51:01,3001.499398257188,2,20,0.550297200679779,3.95391058921814,19.33264855866252,18.89545085310302,77.02386344681823,69.03718073175018,6.47544875391759e-05,0.0897949114441871,0,0,0
6487,219815.6330670108,2010-09-24 04:51:31,3031.514714589495,2,20,0.550297200679779,3.955691337585449,19.337235852743284,18.89545085310302,77.0420047914962,69.03718073175018,6.47544875391759e-05,0.0897949114441871,0,0,0
6488,219845.6484835683,2010-09-24 04:52:01,3061.530131136953,2,20,0.5501165986061096,3.957148313522339,19.3418231300516,18.89545085310302,77.06015385110007,69.03718073175018,3.237724376958795e-05,0.0897949114441871,0,0,0
6489,219875.6637795247,2010-09-24 04:52:31,3091.5454270933983,2,20,0.550297200679779,3.958929061889648,19.346410364575323,18.89545085310302,77.07831049420258,69.03718073175018,6.47544875391759e-05,0.0897949114441871,0,0,0
6490,219905.67888769743,2010-09-24 04:53:01,3121.560535281144,2,20,0.550297200679779,3.960709810256958,19.350997524481446,18.89545085310302,77.0964748079681,69.03718073175018,3.237724376958795e-05,0.0897949114441871,0,0,0
6491,219935.69419814507,2010-09-24 04:53:31,3151.5758457087118,2,20,0.5499359965324402,3.962490558624268,19.355584660581137,18.89545085310302,77.11464705285972,69.03718073175018,0.0,0.0897949114441871,0,0,0
6492,219965.70986729307,2010-09-24 04:54:01,3181.5915148567,2,20,0.5501165986061096,3.964109420776367,19.36017190280487,18.89545085310302,77.13282775427538,69.03718073175018,3.237724376958795e-05,0.0897949114441871,0,0,0
6493,219995.72476861943,2010-09-24 04:54:31,3211.606416183088,2,20,0.5501165986061096,3.966052055358887,19.364759071221144,18.89545085310302,77.1510163329128,69.03718073175018,6.47544875391759e-05,0.0897949114441871,0,0,0
6494,220025.7400793528,2010-09-24 04:55:01,3241.6217269164185,2,20,0.550297200679779,3.967832803726196,19.36934632608609,18.89545085310302,77.16921341046944,69.03718073175018,9.713172767078504e-05,0.0897949114441871,0,0,0
6495,220055.7553386878,2010-09-24 04:55:31,3271.6369862664883,2,20,0.5501165986061096,3.969613552093506,19.373933576247737,18.89545085310302,77.18741872432412,69.03718073175018,3.237724376958795e-05,0.0897949114441871,0,0,0
6496,220085.7706451204,2010-09-24 04:56:01,3301.652292704096,2,20,0.550297200679779,3.971394300460816,19.378520839845223,18.89545085310302,77.20563242197053,69.03718073175018,3.237724376958795e-05,0.0897949114441871,0,0,0
6497,220115.78604231955,2010-09-24 04:56:31,3331.667689898246,2,20,0.550297200679779,3.973336935043335,19.383108135072884,18.89545085310302,77.22385469845666,69.03718073175018,6.47544875391759e-05,0.0897949114441871,0,0,0
6498,220145.8011998204,2010-09-24 04:57:01,3361.682847384048,2,20,0.5501165986061096,3.975117683410645,19.387695353976248,18.89545085310302,77.24208518206964,69.03718073175018,3.237724376958795e-05,0.0897949114441871,0,0,0
6499,220175.8164995864,2010-09-24 04:57:31,3391.6981471700515,2,20,0.5501165986061096,3.977060317993164,19.39228264551307,18.89545085310302,77.26032456895692,69.03718073175018,9.713172767078504e-05,0.0897949114441871,0,0,0
6500,220205.83183314165,2010-09-24 04:58:01,3421.713480705299,2,20,0.5501165986061096,3.979002952575684,19.39686992857464,18.89545085310302,77.27857221751395,69.03718073175018,6.47544875391759e-05,0.0897949114441871,0,0,0
6501,220235.84708750428,2010-09-24 04:58:31,3451.728735082957,2,20,0.5499359965324402,3.980783700942993,19.401457080575504,18.89545085310302,77.29682858997089,69.03718073175018,0.0,0.0897949114441871,0,0,0
6502,220265.86245539028,2010-09-24 04:59:01,3481.7441029689494,2,20,0.550297200679779,3.982888221740722,19.406044265991728,18.89545085310302,77.31509405048268,69.03718073175018,6.47544875391759e-05,0.0897949114441871,0,0,0
6503,220295.8776223848,2010-09-24 04:59:31,3511.7592699634856,2,20,0.5501165986061096,3.984668970108032,19.41063130763336,18.89545085310302,77.33336776245359,69.03718073175018,6.47544875391759e-05,0.0897949114441871,0,0,0
6504,220325.8931767262,2010-09-24 05:00:02,3541.774824289862,2,20,0.550297200679779,3.9867734909057617,19.41521843196574,18.89545085310302,77.35165095656657,69.03718073175018,9.713172767078504e-05,0.0897949114441871,0,0,0
6505,220355.90820590177,2010-09-24 05:00:32,3571.7898534703936,2,20,0.550297200679779,3.988878011703491,19.419805507913185,18.89545085310302,77.36994312319443,69.03718073175018,9.713172767078504e-05,0.0897949114441871,0,0,0
6506,220385.9234966151,2010-09-24 05:01:02,3601.805144273976,2,20,0.550297200679779,3.9908206462860103,19.424392575856192,18.89545085310302,77.38824456250214,69.03718073175018,6.47544875391759e-05,0.0897949114441871,0,0,0
6507,220415.93878033603,2010-09-24 05:01:32,3631.820427919692,2,20,0.550297200679779,3.99292516708374,19.428979725284098,18.89545085310302,77.40655587895002,69.03718073175018,6.47544875391759e-05,0.0897949114441871,0,0,0
6508,220445.95415250267,2010-09-24 05:02:02,3661.835800176595,2,20,0.5501165986061096,3.9948675632476807,19.43356687109953,18.89545085310302,77.42487665725842,69.03718073175018,3.237724376958795e-05,0.0897949114441871,0,0,0
6509,220475.9693946649,2010-09-24 05:02:32,3691.8510423437738,2,20,0.5501165986061096,3.99713397026062,19.43815408534864,18.89545085310302,77.4432074327439,69.03718073175018,3.237724376958795e-05,0.0897949114441871,0,0,0
6510,220505.9846406215,2010-09-24 05:03:02,3721.866288185124,2,20,0.5501165986061096,3.99907660484314,19.44274127786963,18.89545085310302,77.46154775378525,69.03718073175018,3.237724376958795e-05,0.0897949114441871,0,0,0
6511,220535.9999263424,2010-09-24 05:03:32,3751.881573906019,2,20,0.550297200679779,4.001667022705078,19.44732840146868,18.89545085310302,77.47989762329206,69.03718073175018,9.71794142969884e-05,0.0897949114441871,0,0,0
6512,220566.01520560216,2010-09-24 05:04:02,3781.896853185837,2,20,0.550297200679779,4.003609657287598,19.451915568760352,18.89545085310302,77.49825757057495,69.03718073175018,9.71794142969884e-05,0.0897949114441871,0,0,0
6513,220596.0304851627,2010-09-24 05:04:32,3811.9121327413422,2,20,0.550297200679779,4.005713939666748,19.4565026408991,18.89545085310302,77.51662698149002,69.03718073175018,3.23295607813634e-05,0.0897949114441871,0,0,0
6514,220626.04576478337,2010-09-24 05:05:02,3841.927412362011,2,20,0.5501165986061096,4.007818698883057,19.461089650468057,18.89545085310302,77.5350061728974,69.03718073175018,3.24249267578125e-05,0.0897949114441871,0,0,0
6515,220656.0610678576,2010-09-24 05:05:32,3871.942715436224,2,20,0.5499359965324402,4.009922981262207,19.465676760758463,18.89545085310302,77.55339583281865,69.03718073175018,0.0,0.0897949114441871,0,0,0
6516,220686.0764992671,2010-09-24 05:06:02,3901.958146835755,2,20,0.550297200679779,4.012351512908936,19.470263904038287,18.89545085310302,77.57179581805813,69.03718073175018,6.47544875391759e-05,0.0897949114441871,0,0,0
6517,220716.09163108884,2010-09-24 05:06:32,3931.97327866752,2,20,0.5501165986061096,4.014617919921875,19.474851144025468,18.89545085310302,77.59020651125743,69.03718073175018,6.47544875391759e-05,0.0897949114441871,0,0,0
6518,220746.10691581224,2010-09-24 05:07:02,3961.9885633959375,2,20,0.550297200679779,4.016884326934815,19.479438347315547,18.89545085310302,77.60862741486217,69.03718073175018,6.47544875391759e-05,0.0897949114441871,0,0,0
6519,220776.1222067211,2010-09-24 05:07:32,3992.003854284734,2,20,0.550297200679779,4.019150733947754,19.484025690056196,18.89545085310302,77.6270593539806,69.03718073175018,6.47544875391759e-05,0.0897949114441871,0,0,0
6520,220806.1377092231,2010-09-24 05:08:02,4022.0193568769737,2,20,0.5501165986061096,4.021578788757324,19.488612987621632,18.89545085310302,77.64550145593662,69.03718073175018,9.70840483205393e-05,0.0897949114441871,0,0,0
6521,220836.15292218732,2010-09-24 05:08:32,4052.0345697560447,2,20,0.5501165986061096,4.023845195770264,19.493200221732764,18.89545085310302,77.66395394338808,69.03718073175018,6.47544875391759e-05,0.0897949114441871,0,0,0
6522,220866.1681028059,2010-09-24 05:09:02,4082.049750384615,2,20,0.550297200679779,4.025949954986572,19.49778748020208,18.89545085310302,77.6824171889471,69.03718073175018,3.24249267578125e-05,0.0897949114441871,0,0,0
6523,220896.18347301777,2010-09-24 05:09:32,4112.065120586387,2,20,0.5501165986061096,4.028378009796143,19.502374721239573,18.89545085310302,77.70089110680603,69.03718073175018,3.23295607813634e-05,0.0897949114441871,0,0,0
6524,220926.198855034,2010-09-24 05:10:02,4142.080502617688,2,20,0.550297200679779,4.030806541442871,19.50696202855384,18.89545085310302,77.7193760891578,69.03718073175018,6.47544875391759e-05,0.0897949114441871,0,0,0
6525,220956.21392736727,2010-09-24 05:10:32,4172.095574950936,2,20,0.550297200679779,4.0330729484558105,19.51154921130513,18.89545085310302,77.73787143191399,69.03718073175018,6.47544875391759e-05,0.0897949114441871,0,0,0
6526,220986.2292173789,2010-09-24 05:11:02,4202.110864967553,2,20,0.5501165986061096,4.035662651062012,19.5161364951502,18.89545085310302,77.75637825885127,69.03718073175018,6.47544875391759e-05,0.0897949114441871,0,0,0
6527,221016.2444995709,2010-09-24 05:11:32,4232.126147154629,2,20,0.550297200679779,4.03809118270874,19.520723706026427,18.89545085310302,77.77489584486669,69.03718073175018,6.47544875391759e-05,0.0897949114441871,0,0,0
6528,221046.2599198828,2010-09-24 05:12:02,4262.141567446434,2,20,0.5501165986061096,4.040195465087891,19.525310976758156,18.89545085310302,77.7934247883532,69.03718073175018,3.23295607813634e-05,0.0897949114441871,0,0,0
6529,221076.27521980417,2010-09-24 05:12:32,4292.156867367776,2,20,0.550297200679779,4.042947769165039,19.52989821514931,18.89545085310302,77.81196488972795,69.03718073175018,9.71794142969884e-05,0.0897949114441871,0,0,0
6530,221106.2903497462,2010-09-24 05:13:02,4322.171997329873,2,20,0.550297200679779,4.045375823974609,19.534485406918712,18.89545085310302,77.83051622003053,69.03718073175018,6.47544875391759e-05,0.0897949114441871,0,0,0
6531,221136.30564753723,2010-09-24 05:13:32,4352.187295120898,2,20,0.550297200679779,4.047966003417969,19.539072700833188,18.89545085310302,77.84907950636259,69.03718073175018,6.47544875391759e-05,0.0897949114441871,0,0,0
6532,221166.32095282196,2010-09-24 05:14:02,4382.20260039059,2,20,0.5501165986061096,4.050394535064697,19.543659983831084,18.89545085310302,77.86765435542866,69.03718073175018,6.47544875391759e-05,0.0897949114441871,0,0,0
6533,221196.33621159056,2010-09-24 05:14:32,4412.217859174247,2,20,0.550297200679779,4.053308486938477,19.54824723518199,18.89545085310302,77.88624078793312,69.03718073175018,0.0001295089750783,0.0897949114441871,0,0,0
6534,221226.35151269988,2010-09-24 05:15:02,4442.233160263504,2,20,0.5501165986061096,4.055574893951416,19.552834566842098,18.89545085310302,77.90483938874121,69.03718073175018,6.47544875391759e-05,0.0897949114441871,0,0,0
6535,221256.36680782423,2010-09-24 05:15:32,4472.248455417947,2,20,0.5501165986061096,4.058326721191406,19.557421898097218,18.89545085310302,77.9234499327392,69.03718073175018,6.47544875391759e-05,0.0897949114441871,0,0,0
6536,221286.38232852667,2010-09-24 05:16:02,4502.263976185555,2,20,0.5501165986061096,4.060755252838135,19.562009356759784,18.89545085310302,77.94207305149978,69.03718073175018,3.24249267578125e-05,0.0897949114441871,0,0,0
6537,221316.3975319271,2010-09-24 05:16:32,4532.279179490729,2,20,0.5501165986061096,4.063507080078125,19.566596661395064,18.89545085310302,77.96070733804089,69.03718073175018,9.70840483205393e-05,0.0897949114441871,0,0,0
6538,221346.41263586425,2010-09-24 05:17:02,4562.294283427865,2,20,0.550297200679779,4.066259384155273,19.571183955161302,18.89545085310302,77.9793539735396,69.03718073175018,6.47544875391759e-05,0.0897949114441871,0,0,0
6539,221376.4280534493,2010-09-24 05:17:32,4592.309701032963,2,20,0.5501165986061096,4.068849563598633,19.575771247136835,18.89545085310302,77.99801302745226,69.03718073175018,6.47544875391759e-05,0.0897949114441871,0,0,0
6540,221406.44355985607,2010-09-24 05:18:02,4622.325207424688,2,20,0.5501165986061096,4.071763515472412,19.580358550551697,18.89545085310302,78.01668467900447,69.03718073175018,0.0001295089750783,0.0897949114441871,0,0,0
6541,221436.4585013477,2010-09-24 05:18:32,4652.340148921347,2,20,0.550297200679779,4.074515342712402,19.584945734066945,18.89545085310302,78.03536849314105,69.03718073175018,0.0001295089750783,0.0897949114441871,0,0,0
6542,221466.4737850034,2010-09-24 05:19:02,4682.355432592124,2,20,0.550297200679779,4.077267646789551,19.58953296325676,18.89545085310302,78.05406526937796,69.03718073175018,9.71794142969884e-05,0.0897949114441871,0,0,0
6543,221496.4890976917,2010-09-24 05:19:32,4712.370745265297,2,20,0.5501165986061096,4.080019474029541,19.594120224345804,18.89545085310302,78.07277511456293,69.03718073175018,6.47544875391759e-05,0.0897949114441871,0,0,0
6544,221526.5044822693,2010-09-24 05:20:02,4742.386129847967,2,20,0.5501165986061096,4.08293342590332,19.59870754439656,18.89545085310302,78.09149812103662,69.03718073175018,9.70840483205393e-05,0.0897949114441871,0,0,0
6545,221556.51977975457,2010-09-24 05:20:32,4772.40142731819,2,20,0.5501165986061096,4.085685729980469,19.603294822777023,18.89545085310302,78.11023410516044,69.03718073175018,3.24249267578125e-05,0.0897949114441871,0,0,0
6546,221586.53491003244,2010-09-24 05:21:02,4802.416557616127,2,20,0.550297200679779,4.088599681854248,19.60788202264041,18.89545085310302,78.12898301348385,69.03718073175018,6.47544875391759e-05,0.0897949114441871,0,0,0
6547,221616.5503245147,2010-09-24 05:21:32,4832.431972093418,2,20,0.550297200679779,4.091513633728027,19.61246926689164,18.89545085310302,78.14774548221321,69.03718073175018,6.47544875391759e-05,0.0897949114441871,0,0,0
6548,221646.56562172432,2010-09-24 05:22:02,4862.4472692879535,2,20,0.5501165986061096,4.094427585601807,19.61705648429303,18.89545085310302,78.16652127027912,69.03718073175018,6.47544875391759e-05,0.0897949114441871,0,0,0
6549,221676.58077053347,2010-09-24 05:22:32,4892.462418102109,2,20,0.5501165986061096,4.097341537475586,19.62164377293939,18.89545085310302,78.18531097253013,69.03718073175018,6.47544875391759e-05,0.0897949114441871,0,0,0
6550,221706.59606757265,2010-09-24 05:23:02,4922.477715156295,2,20,0.550297200679779,4.100417137145996,19.62623106171191,18.89545085310302,78.20411440625192,69.03718073175018,3.23295607813634e-05,0.0897949114441871,0,0,0
6551,221736.61135701783,2010-09-24 05:23:32,4952.493004676674,2,20,0.550297200679779,4.103654861450195,19.63081833775764,18.89545085310302,78.22293161414579,69.03718073175018,9.70840483205393e-05,0.0897949114441871,0,0,0
6552,221766.6266385382,2010-09-24 05:24:02,4982.50828610686,2,20,0.5501165986061096,4.106568813323975,19.635405554515955,18.89545085310302,78.24176258723355,69.03718073175018,6.47544875391759e-05,0.0897949114441871,0,0,0
6553,221796.64190844964,2010-09-24 05:24:32,5012.52355601328,2,20,0.5501165986061096,4.109644889831543,19.639992836796765,18.89545085310302,78.26060789815823,69.03718073175018,6.47544875391759e-05,0.0897949114441871,0,0,0
6554,221826.657201148,2010-09-24 05:25:02,5042.538848711592,2,20,0.550297200679779,4.112720489501953,19.64458013685691,18.89545085310302,78.27946749649486,69.03718073175018,6.47544875391759e-05,0.0897949114441871,0,0,0
6555,221856.67252893889,2010-09-24 05:25:32,5072.554176507513,2,20,0.550297200679779,4.115958213806152,19.64916743326546,18.89545085310302,78.2983413701327,69.03718073175018,9.71794142969884e-05,0.0897949114441871,0,0,0
6556,221886.687939747,2010-09-24 05:26:02,5102.569587310632,2,20,0.5504778623580933,4.119357585906982,19.65375468856086,18.89545085310302,78.31722953992825,69.03718073175018,0.0001295089750783,0.0897949114441871,0,0,0
6557,221916.7030845261,2010-09-24 05:26:32,5132.584732094729,2,20,0.550297200679779,4.122271537780762,19.65834198615039,18.89545085310302,78.33613249321498,69.03718073175018,6.47544875391759e-05,0.0897949114441871,0,0,0
6558,221946.7183306481,2010-09-24 05:27:02,5162.599978307005,2,20,0.5501165986061096,4.125509262084961,19.66292935337428,18.89545085310302,78.3550503772319,69.03718073175018,6.47544875391759e-05,0.0897949114441871,0,0,0
6559,221976.7336148151,2010-09-24 05:27:32,5192.615262393822,2,20,0.550297200679779,4.12874698638916,19.667516655035843,18.89545085310302,78.37398280008064,69.03718073175018,6.47544875391759e-05,0.0897949114441871,0,0,0
6560,222006.74890266635,2010-09-24 05:28:02,5222.630550245034,2,20,0.5499359965324402,4.131984710693359,19.672103891163623,18.89545085310302,78.39292987779608,69.03718073175018,6.47544875391759e-05,0.0897949114441871,0,0,0
6561,222036.7641752244,2010-09-24 05:28:32,5252.6458228080855,2,20,0.550297200679779,4.135384559631348,19.676691225490973,18.89545085310302,78.41189247710611,69.03718073175018,9.71794142969884e-05,0.0897949114441871,0,0,0
6562,222066.7794662937,2010-09-24 05:29:02,5282.661113877331,2,20,0.550297200679779,4.138783931732178,19.681278605392468,18.89545085310302,78.4308704892679,69.03718073175018,9.70840483205393e-05,0.0897949114441871,0,0,0
6563,222096.79473875143,2010-09-24 05:29:32,5312.676386340134,2,20,0.550297200679779,4.142183780670166,19.685865995938464,18.89545085310302,78.44986394133755,69.03718073175018,0.0001619339018361,0.0897949114441871,0,0,0
6564,222126.8100477204,2010-09-24 05:30:02,5342.691695304047,2,20,0.5501165986061096,4.145583152770996,19.690453312366245,18.89545085310302,78.4688725905832,69.03718073175018,9.70840483205393e-05,0.0897949114441871,0,0,0
6565,222156.82531085488,2010-09-24 05:30:32,5372.706958433551,2,20,0.550297200679779,4.148983001708984,19.69504066221932,18.89545085310302,78.48789731313869,69.03718073175018,9.71794142969884e-05,0.0897949114441871,0,0,0
6566,222186.84073981337,2010-09-24 05:31:02,5402.722387381966,2,20,0.550297200679779,4.152382373809815,19.699627986452445,18.89545085310302,78.50693765987963,69.03718073175018,9.70840483205393e-05,0.0897949114441871,0,0,0
6567,222216.85587187065,2010-09-24 05:31:32,5432.737519434279,2,20,0.5501165986061096,4.155943870544434,19.70421526739012,18.89545085310302,78.52599367610188,69.03718073175018,0.0001295089750783,0.0897949114441871,0,0,0
6568,222246.87117205767,2010-09-24 05:32:03,5462.752819641336,2,20,0.5499359965324402,4.159181594848633,19.70880251476277,18.89545085310302,78.5450655171094,69.03718073175018,6.47544875391759e-05,0.0897949114441871,0,0,0
6569,222276.8864506909,2010-09-24 05:32:33,5492.768098254489,2,20,0.5501165986061096,4.162905216217041,19.713389816482056,18.89545085310302,78.56415369626338,69.03718073175018,9.71794142969884e-05,0.0897949114441871,0,0,0
6570,222306.90172388047,2010-09-24 05:33:03,5522.783371459143,2,20,0.5501165986061096,4.16646671295166,19.71797713587611,18.89545085310302,78.58325812100341,69.03718073175018,0.0001295089750783,0.0897949114441871,0,0,0
6571,222336.9170407742,2010-09-24 05:33:33,5552.798688342825,2,20,0.550297200679779,4.17018985748291,19.72256450074379,18.89545085310302,78.60237906949642,69.03718073175018,0.0001618385285837,0.0897949114441871,0,0,0
6572,222366.9323028009,2010-09-24 05:34:03,5582.813950379602,2,20,0.5499359965324402,4.173589706420898,19.727151768552336,18.89545085310302,78.62151604757219,69.03718073175018,9.71794142969884e-05,0.0897949114441871,0,0,0
6573,222396.94758397047,2010-09-24 05:34:33,5612.8292315541485,2,20,0.5499359965324402,4.1769890785217285,19.731739061977823,18.89545085310302,78.64066963536924,69.03718073175018,6.47544875391759e-05,0.0897949114441871,0,0,0
6574,222426.96285938064,2010-09-24 05:35:03,5642.844506959294,2,20,0.5501165986061096,4.180712699890137,19.736326378129856,18.89545085310302,78.65984002832582,69.03718073175018,6.47544875391759e-05,0.0897949114441871,0,0,0
6575,222456.9781465351,2010-09-24 05:35:33,5672.859794118782,2,20,0.5501165986061096,4.184597969055176,19.740913651200096,18.89545085310302,78.67902712981744,69.03718073175018,9.71794142969884e-05,0.0897949114441871,0,0,0
6576,222486.99345550404,2010-09-24 05:36:03,5702.875103087707,2,20,0.5501165986061096,4.188159465789795,19.74550101662623,18.89545085310302,78.69823153300898,69.03718073175018,6.47544875391759e-05,0.0897949114441871,0,0,0
6577,222517.00871195685,2010-09-24 05:36:33,5732.890359525508,2,20,0.550297200679779,4.191882610321045,19.750088247008115,18.89545085310302,78.71745245846681,69.03718073175018,6.47544875391759e-05,0.0897949114441871,0,0,0
6578,222547.0240199383,2010-09-24 05:37:03,5762.905667522006,2,20,0.550297200679779,4.195767879486084,19.754675591168475,18.89545085310302,78.73669106361389,69.03718073175018,9.71794142969884e-05,0.0897949114441871,0,0,0
6579,222577.03927297264,2010-09-24 05:37:33,5792.920920561324,2,20,0.550297200679779,4.199653148651123,19.75926281408811,18.89545085310302,78.75594644661476,69.03718073175018,0.0001295089750783,0.0897949114441871,0,0,0
6580,222580.39861366383,2010-09-24 05:37:36,5796.280261247499,2,20,0.550297200679779,4.200138568878174,19.759776237818897,18.89545085310302,78.75810268583871,69.03718073175018,0.0001295089750783,0.0897949114441871,0,0,0
6581,222610.41511249915,2010-09-24 05:38:06,30.01527154551168,3,20,0.0,4.117253303527832,19.759776237818897,18.89545085310302,78.75810268583871,69.03718073175018,-0.0003885269106831,0.0897949114441871,0,0,0
6582,222640.4303590874,2010-09-24 05:38:36,60.03051815377616,3,20,0.0,4.107054710388184,19.759776237818897,18.89545085310302,78.75810268583871,69.03718073175018,-0.0001942634553415,0.0897949114441871,0,0,0
6583,222670.4456430689,2010-09-24 05:39:06,90.04580212530509,3,20,0.0,4.100903034210205,19.759776237818897,18.89545085310302,78.75810268583871,69.03718073175018,-9.70840483205393e-05,0.0897949114441871,0,0,0
6584,222700.414057557,2010-09-24 05:39:36,120.01421662341768,3,20,0.0,4.096855640411377,19.759776237818897,18.89545085310302,78.75810268583871,69.03718073175018,-3.24249267578125e-05,0.0897949114441871,0,0,0
6585,222700.4166539076,2010-09-24 05:39:36,2.791969185e-06,4,20,1.0021816492080688,4.199814796447754,19.75977623859613,18.89545085310302,78.75810268910297,69.03718073175018,0.0,0.0897949114441871,0,0,0
6586,222701.27598906533,2010-09-24 05:39:37,0.859338009878504,4,20,0.9517916440963744,4.199814796447754,19.76000802327937,18.89545085310302,78.7590761295972,69.03718073175018,0.0,0.0897949114441871,0,0,0
6587,222703.35408836592,2010-09-24 05:39:39,2.93743730542778,4,20,0.9014016389846802,4.199653148651123,19.760541954576546,18.89545085310302,78.76131849645502,69.03718073175018,-3.23295607813634e-05,0.0897949114441871,0,0,0
6588,222706.43252046607,2010-09-24 05:39:42,6.015869410567147,4,20,0.8513728976249695,4.199653148651123,19.76129038438216,18.89545085310302,78.76446168876963,69.03718073175018,0.0,0.0897949114441871,0,0,0
6589,222710.61965256196,2010-09-24 05:39:47,10.203001491415108,4,20,0.801344096660614,4.199814796447754,19.76225040393049,18.89545085310302,78.76849351624642,69.03718073175018,3.23295607813634e-05,0.0897949114441871,0,0,0
6590,222716.0258196217,2010-09-24 05:39:52,15.609168556126638,4,20,0.7513153553009033,4.199814796447754,19.763414808712213,18.89545085310302,78.77338372248063,69.03718073175018,0.0,0.0897949114441871,0,0,0
6591,222723.01011844105,2010-09-24 05:39:59,22.59346738049979,4,20,0.7012865543365479,4.199653148651123,19.764822076409096,18.89545085310302,78.77929390420535,69.03718073175018,-6.47544875391759e-05,0.0897949114441871,0,0,0
6592,222732.2600265748,2010-09-24 05:40:08,31.84337550925193,4,20,0.6510772109031677,4.199814796447754,19.766556529344246,18.89545085310302,78.78657816413217,69.03718073175018,3.23295607813634e-05,0.0897949114441871,0,0,0
6593,222744.8536334299,2010-09-24 05:40:21,44.436982349402925,4,20,0.6010484099388123,4.199814796447754,19.76874226163165,18.89545085310302,78.79575772651458,69.03718073175018,0.0,0.0897949114441871,0,0,0
6594,222763.54090323532,2010-09-24 05:40:39,63.12425216983933,4,20,0.5510196685791016,4.199814796447754,19.771724077313745,18.89545085310302,78.8082806464503,69.03718073175018,-3.24249267578125e-05,0.0897949114441871,0,0,0
6595,222794.16555499265,2010-09-24 05:41:10,93.74890391207283,4,20,0.5009908676147461,4.199814796447754,19.77618061037133,18.89545085310302,78.82699703553378,69.03718073175018,0.0,0.0897949114441871,0,0,0
6596,222848.60244101504,2010-09-24 05:42:04,148.18578993449032,4,20,0.4507815241813659,4.199814796447754,19.783344794473056,18.89545085310302,78.85708492627626,69.03718073175018,0.0,0.0897949114441871,0,0,0
6597,222936.2889549892,2010-09-24 05:43:32,235.8723039136152,4,20,0.400572121143341,4.199653148651123,19.793686613096813,18.89545085310302,78.90051810395477,69.03718073175018,-3.23295607813634e-05,0.0897949114441871,0,0,0
6598,223050.7407811352,2010-09-24 05:45:27,350.3241300696739,4,20,0.350543349981308,4.199814796447754,19.80561004699654,18.89545085310302,78.95059373451777,69.03718073175018,0.0,0.0897949114441871,0,0,0
6599,223187.67670339425,2010-09-24 05:47:44,487.2600523337099,4,20,0.3005145788192749,4.199653148651123,19.8179783584836,18.89545085310302,79.00253773281759,69.03718073175018,-3.23295607813634e-05,0.0897949114441871,0,0,0
6600,223352.9873132739,2010-09-24 05:50:29,652.5706622083585,4,20,0.2504858374595642,4.199653148651123,19.830615225040944,18.89545085310302,79.05560956983533,69.03718073175018,-3.23295607813634e-05,0.0897949114441871,0,0,0
6601,223559.85994897413,2010-09-24 05:53:56,859.4432979086257,4,20,0.2004570513963699,4.199653148651123,19.8435379589166,18.89545085310302,79.10988188870665,69.03718073175018,0.0,0.0897949114441871,0,0,0
6602,223830.5287170456,2010-09-24 05:58:26,1130.1120659800813,4,20,0.1504282802343368,4.199814796447754,19.856655638869032,18.89545085310302,79.16497300770055,69.03718073175018,0.0,0.0897949114441871,0,0,0
6603,224226.3679431724,2010-09-24 06:05:02,1525.9512921068358,4,20,0.1003995165228843,4.199653148651123,19.870271984015577,18.89545085310302,79.22215842381,69.03718073175018,0.0,0.0897949114441871,0,0,0
6604,224950.109772794,2010-09-24 06:17:06,2249.6931217184438,4,20,0.0503707453608512,4.199653148651123,19.88483857611673,18.89545085310302,79.28333475080525,69.03718073175018,-3.23295607813634e-05,0.0897949114441871,0,0,0
6605,224956.85969952456,2010-09-24 06:17:13,2256.4430485392386,4,20,0.0498289167881011,4.199814796447754,19.884933538718727,18.89545085310302,79.28373357300735,69.03718073175018,0.0,0.0897949114441871,0,0,0
6606,224986.87198174337,2010-09-24 06:17:43,30.0152580618544,5,20,0.0,4.192044734954834,19.884933538718727,18.89545085310302,79.28373357300735,69.03718073175018,-6.47544875391759e-05,0.0897949114441871,0,0,0
6607,225016.87164878257,2010-09-24 06:18:13,60.0149251061303,5,20,0.0,4.190911293029785,19.884933538718727,18.89545085310302,79.28373357300735,69.03718073175018,0.0,0.0897949114441871,0,0,0
6608,225017.0571194335,2010-09-24 06:18:13,0.187639867978145,6,20,0.0001613661734154,4.190911293029785,19.884933547129485,18.89545085310302,79.2837336082561,69.03718073175018,0.0,0.0923885703086853,0,0,0
6609,225021.8853998092,2010-09-24 06:18:18,5.01592023358306,6,20,0.0010644125286489,4.190749645233154,19.8849347069754,18.89545085310302,79.28373846909524,69.03718073175018,-3.23295607813634e-05,0.0923885703086853,0,0,0
6610,225051.89827149623,2010-09-24 06:18:48,30.015320091690413,7,20,-1.0993878841400146,4.017855644226074,19.8849347069754,18.904618077618924,79.28373846909524,69.07421085526285,-0.0009388923645019,0.0923885703086853,0,0,0
6611,225081.9135059542,2010-09-24 06:19:18,60.0305545496258,7,20,-1.099568486213684,3.990658760070801,19.8849347069754,18.913785314429,79.28373846909524,69.11090977574018,-0.0006151676061563,0.0923885703086853,0,0,0
6612,225111.92890171977,2010-09-24 06:19:48,90.0459503202224,7,20,-1.0997490882873535,3.972203731536865,19.8849347069754,18.92295243856143,79.28373846909524,69.14740387082642,-0.0004532813909463,0.0923885703086853,0,0,0
6613,225141.9441673856,2010-09-24 06:20:18,120.06121599608252,7,20,-1.099568486213684,3.9579577445983887,19.8849347069754,18.93211957707799,79.28373846909524,69.1837494065284,-0.0003237724304199,0.0923885703086853,0,0,0
6614,225171.95931792908,2010-09-24 06:20:48,150.07636652451694,7,20,-1.099568486213684,3.9458162784576416,19.8849347069754,18.94128666095865,79.28373846909524,69.21997563620434,-0.0002913951757363,0.0923885703086853,0,0,0
6615,225201.97471743904,2010-09-24 06:21:18,180.09176604948507,7,20,-1.0993878841400146,3.935455560684204,19.8849347069754,18.95045385489392,79.28373846909524,69.2560995131745,-0.0002266406954731,0.0923885703086853,0,0,0
6616,225231.9898967994,2010-09-24 06:21:48,210.1069454199136,7,20,-1.099568486213684,3.925580501556397,19.8849347069754,18.95962095654728,79.28373846909524,69.29213004362138,-0.0002590179501567,0.0923885703086853,0,0,0
6617,225262.0051018439,2010-09-24 06:22:18,240.122150459416,7,20,-1.099568486213684,3.9163529872894287,19.8849347069754,18.968788077296512,79.28373846909524,69.32807384416735,-0.0002913951757363,0.0923885703086853,0,0,0
6618,225292.02043598067,2010-09-24 06:22:48,270.13748457611496,7,20,-1.0993878841400146,3.90761137008667,19.8849347069754,18.977955078796693,79.28373846909524,69.36393433141433,-0.0002266406954731,0.0923885703086853,0,0,0
6619,225322.0357091553,2010-09-24 06:23:18,300.1527577657306,7,20,-1.0992072820663452,3.898869514465332,19.8849347069754,18.987122087586872,79.28373846909524,69.39971506044404,-0.0002266406954731,0.0923885703086853,0,0,0
6620,225352.05119678017,2010-09-24 06:23:48,330.16824540063465,7,20,-1.099568486213684,3.890613317489624,19.8849347069754,18.996289109372103,79.28373846909524,69.43541854525104,-0.0002266406954731,0.0923885703086853,0,0,0
6621,225382.06623493307,2010-09-24 06:24:18,360.1832836387752,7,20,-1.099568486213684,3.882357120513916,19.8849347069754,19.005456012654538,79.28373846909524,69.47104562971877,-0.0001942634553415,0.0923885703086853,0,0,0
6622,225412.0815514258,2010-09-24 06:24:48,390.19860003624433,7,20,-1.099568486213684,3.874100923538208,19.8849347069754,19.01462318637345,79.28373846909524,69.50659915702624,-0.0002266406954731,0.0923885703086853,0,0,0
6623,225442.0968621942,2010-09-24 06:25:18,420.2139107946374,7,20,-1.0993878841400146,3.86649227142334,19.8849347069754,19.02379031394712,79.28373846909524,69.54207897867921,-0.0001942634553415,0.0923885703086853,0,0,0
6624,225472.11213991512,2010-09-24 06:25:48,450.2291885205763,7,20,-1.099568486213684,3.858559846878052,19.8849347069754,19.03295744939865,79.28373846909524,69.57748670829484,-0.0002266406954731,0.0923885703086853,0,0,0
6625,225502.12738166627,2010-09-24 06:26:18,480.2444302817417,7,20,-1.099568486213684,3.8507893085479736,19.8849347069754,19.042124595504944,79.28373846909524,69.6128234777845,-0.0002266406954731,0.0923885703086853,0,0,0
6626,225532.1426621641,2010-09-24 06:26:48,510.25971077458735,7,20,-1.0993878841400146,3.8431806564331055,19.8849347069754,19.05129170763972,79.28373846909524,69.64809017937122,-0.0002266406954731,0.0923885703086853,0,0,0
6627,225562.1579374239,2010-09-24 06:27:18,540.2749860343704,7,20,-1.099568486213684,3.835895776748657,19.8849347069754,19.06045886126168,79.28373846909524,69.68328812808296,-0.0001618862152099,0.0923885703086853,0,0,0
6628,225592.17324597176,2010-09-24 06:27:48,570.2902946774834,7,20,-1.0993878841400146,3.828611135482788,19.8849347069754,19.06962613043393,79.28373846909524,69.7184189290324,-0.0001942634553415,0.0923885703086853,0,0,0
6629,225622.18849730687,2010-09-24 06:28:18,600.3055459223215,7,20,-1.0993878841400146,3.82148814201355,19.8849347069754,19.07879333828186,79.28373846909524,69.753483376133,-0.0001618862152099,0.0923885703086853,0,0,0
6630,225652.20379725823,2010-09-24 06:28:48,630.3208458587012,7,20,-1.099568486213684,3.814365148544312,19.8849347069754,19.087960628770453,79.28373846909524,69.78848283622688,-0.0001942634553415,0.0923885703086853,0,0,0
6631,225682.21905708956,2010-09-24 06:29:18,660.3361057050098,7,20,-1.0993878841400146,3.807404041290283,19.8849347069754,19.09712777127869,79.28373846909524,69.82341709562334,-0.0001618862152099,0.0923885703086853,0,0,0
6632,225712.23433594327,2010-09-24 06:29:49,690.3513845537515,7,20,-1.0993878841400146,3.800442934036255,19.8849347069754,19.106294940822217,79.28373846909524,69.85828801917359,-0.0001942634553415,0.0923885703086853,0,0,0
6633,225742.2496053685,2010-09-24 06:30:19,720.3666539789706,7,20,-1.099568486213684,3.7938055992126474,19.8849347069754,19.11546214359436,79.28373846909524,69.893097165594,-0.0001618862152099,0.0923885703086853,0,0,0
6634,225772.264878117,2010-09-24 06:30:49,750.3819267324976,7,20,-1.0993878841400146,3.787168264389038,19.8849347069754,19.12462930602088,79.28373846909524,69.92784528537202,-0.0001942634553415,0.0923885703086853,0,0,0
6635,225802.2801601938,2010-09-24 06:31:19,780.3972088042844,7,20,-1.099568486213684,3.7808547019958496,19.8849347069754,19.133796477431112,79.28373846909524,69.96253376026941,-0.0001295089750783,0.0923885703086853,0,0,0
6636,225832.2954650775,2010-09-24 06:31:49,810.4125136930261,7,20,-1.0993878841400146,3.774541139602661,19.8849347069754,19.142963755740936,79.28373846909524,69.99716405697814,-0.0001618862152099,0.0923885703086853,0,0,0
6637,225862.31073074337,2010-09-24 06:32:19,840.4277793538487,7,20,-1.099568486213684,3.7682275772094727,19.8849347069754,19.152130968748622,79.28373846909524,70.03173648044763,-0.0001618862152099,0.0923885703086853,0,0,0
6638,225892.3259876724,2010-09-24 06:32:49,870.4430362828754,7,20,-1.0993878841400146,3.762237787246704,19.8849347069754,19.16129818970497,79.28373846909524,70.06625282949916,-0.0001295089750783,0.0923885703086853,0,0,0
6639,225922.34127080685,2010-09-24 06:33:19,900.4583194223272,7,20,-1.0993878841400146,3.756247997283936,19.8849347069754,19.17046539782481,79.28373846909524,70.10071406460973,-0.0001295089750783,0.0923885703086853,0,0,0
6640,225952.3565671643,2010-09-24 06:33:49,930.4736157747608,7,20,-1.099568486213684,3.750420331954956,19.8849347069754,19.17963260223842,79.28373846909524,70.13512142155857,-0.0001295089750783,0.0923885703086853,0,0,0
6641,225982.3718238778,2010-09-24 06:34:19,960.488872473212,7,20,-1.099568486213684,3.7445924282073975,19.8849347069754,19.18879983368329,79.28373846909524,70.16947571976478,-0.0001618862152099,0.0923885703086853,0,0,0
6642,226012.38723069595,2010-09-24 06:34:49,990.5042793064224,7,20,-1.0993878841400146,3.738926410675049,19.8849347069754,19.197967156855988,79.28373846909524,70.20377777740464,-0.0001295089750783,0.0923885703086853,0,0,0
6643,226042.40233909924,2010-09-24 06:35:19,1020.5193876946686,7,20,-1.099568486213684,3.73342227935791,19.8849347069754,19.20713435620542,79.28373846909524,70.23802805873385,-9.713172767078504e-05,0.0923885703086853,0,0,0
6644,226072.4179258616,2010-09-24 06:35:49,1050.53497447706,7,20,-1.0997490882873535,3.727918148040772,19.8849347069754,19.216301800196984,79.28373846909524,70.27222879233966,-0.0001618862152099,0.0923885703086853,0,0,0
6645,226102.4329403956,2010-09-24 06:36:19,1080.5499890110314,7,20,-1.0997490882873535,3.7225759029388423,19.8849347069754,19.225469065057943,79.28373846909524,70.30638009357801,-0.0001618862152099,0.0923885703086853,0,0,0
6646,226132.44821919416,2010-09-24 06:36:49,1110.565267899873,7,20,-1.0997490882873535,3.717233657836914,19.8849347069754,19.234636407387683,79.28373846909524,70.34048289377257,-0.0001618862152099,0.0923885703086853,0,0,0
6647,226162.463449998,2010-09-24 06:37:19,1140.5804986084495,7,20,-1.099568486213684,3.7123770713806152,19.8849347069754,19.243803721393235,79.28373846909524,70.37453752962736,-9.713172767078504e-05,0.0923885703086853,0,0,0
6648,226192.47878417483,2010-09-24 06:37:49,1170.5958327903113,7,20,-1.0993878841400146,3.707196712493897,19.8849347069754,19.25297095802929,79.28373846909524,70.40854495561783,-0.0001295089750783,0.0923885703086853,0,0,0
6649,226222.4940411991,2010-09-24 06:38:19,1200.6110898095633,7,20,-1.099568486213684,3.7020163536071777,19.8849347069754,19.262138215000952,79.28373846909524,70.44250631603994,-0.0001618862152099,0.0923885703086853,0,0,0
6650,226252.50931624332,2010-09-24 06:38:49,1230.6263648588206,7,20,-1.0993878841400146,3.697321653366089,19.8849347069754,19.271305467222486,79.28373846909524,70.47642221216454,-0.0001295089750783,0.0923885703086853,0,0,0
6651,226282.524605072,2010-09-24 06:39:19,1260.6416536674235,7,20,-1.0993878841400146,3.69246506690979,19.8849347069754,19.280472899917484,79.28373846909524,70.51029374723744,-9.713172767078504e-05,0.0923885703086853,0,0,0
6652,226312.5398779057,2010-09-24 06:39:49,1290.6569265212008,7,20,-1.0993878841400146,3.687608480453491,19.8849347069754,19.289640400025203,79.28373846909524,70.54412118993592,-9.713172767078504e-05,0.0923885703086853,0,0,0
6653,226342.5551644687,2010-09-24 06:40:19,1320.6722131593865,7,20,-1.099568486213684,3.682751893997192,19.8849347069754,19.298807810182243,79.28373846909524,70.5779048176285,-0.0001295089750783,0.0923885703086853,0,0,0
6654,226372.5704217837,2010-09-24 06:40:49,1350.687470399189,7,20,-1.099568486213684,3.6782190799713135,19.8849347069754,19.30797523843155,79.28373846909524,70.61164536176317,-9.713172767078504e-05,0.0923885703086853,0,0,0
6655,226402.5856959407,2010-09-24 06:41:19,1380.7027445562192,7,20,-1.099568486213684,3.6735243797302246,19.8849347069754,19.31714257704141,79.28373846909524,70.64534307000649,-0.0001618862152099,0.0923885703086853,0,0,0
6656,226432.6010017568,2010-09-24 06:41:49,1410.7180503722757,7,20,-1.0993878841400146,3.669153690338135,19.8849347069754,19.326309879521084,79.28373846909524,70.67899891742023,-9.713172767078504e-05,0.0923885703086853,0,0,0
6657,226462.61626936749,2010-09-24 06:42:19,1440.7333179779528,7,20,-1.099568486213684,3.664620876312256,19.8849347069754,19.33547710389042,79.28373846909524,70.71261347636855,-0.0001295089750783,0.0923885703086853,0,0,0
6658,226492.63167410047,2010-09-24 06:42:49,1470.7487227008958,7,20,-1.0993878841400146,3.660249948501587,19.8849347069754,19.34464447407624,79.28373846909524,70.74618807562278,-0.0001295089750783,0.0923885703086853,0,0,0
6659,226522.6468071803,2010-09-24 06:43:19,1500.7638557908008,7,20,-1.099568486213684,3.655879020690918,19.8849347069754,19.35381165238487,79.28373846909524,70.77972206690693,-0.0001295089750783,0.0923885703086853,0,0,0
6660,226552.6622350811,2010-09-24 06:43:49,1530.7792837717996,7,20,-1.0997490882873535,3.651508092880249,19.8849347069754,19.362978970189776,79.28373846909524,70.81321703817801,-0.0001295089750783,0.0923885703086853,0,0,0
6661,226582.67748624572,2010-09-24 06:44:19,1560.7945348662622,7,20,-1.099568486213684,3.64729905128479,19.8849347069754,19.37214623216144,79.28373846909524,70.84667319722136,-0.0001295089750783,0.0923885703086853,0,0,0
6662,226612.69270329023,2010-09-24 06:44:49,1590.8097519107307,7,20,-1.099568486213684,3.643413782119751,19.8849347069754,19.38131343097696,79.28373846909524,70.88009060852802,-6.47544875391759e-05,0.0923885703086853,0,0,0
6663,226642.707885608,2010-09-24 06:45:19,1620.824934223504,7,20,-1.099568486213684,3.639366626739502,19.8849347069754,19.39048136839138,79.28373846909524,70.91347393970376,-9.713172767078504e-05,0.0923885703086853,0,0,0
6664,226672.7231580658,2010-09-24 06:45:49,1650.8402066762803,7,20,-1.0997490882873535,3.635319471359253,19.8849347069754,19.399649403001323,79.28373846909524,70.94682131395864,-0.0001295089750783,0.0923885703086853,0,0,0
6665,226702.738456318,2010-09-24 06:46:19,1680.855504928456,7,20,-1.099568486213684,3.631596088409424,19.8849347069754,19.408817357601208,79.28373846909524,70.98013293247779,-9.713172767078504e-05,0.0923885703086853,0,0,0
6666,226732.75383125155,2010-09-24 06:46:49,1710.8708798670527,7,20,-1.099568486213684,3.6278727054595943,19.8849347069754,19.417985499082857,79.28373846909524,71.01341041897598,-9.713172767078504e-05,0.0923885703086853,0,0,0
6667,226762.7689818151,2010-09-24 06:47:19,1740.8860304255622,7,20,-1.099568486213684,3.6241493225097656,19.8849347069754,19.42715351472677,79.28373846909524,71.04665320848821,-9.713172767078504e-05,0.0923885703086853,0,0,0
6668,226792.78462035168,2010-09-24 06:47:49,1770.9016689671528,7,20,-1.0997490882873535,3.6205878257751465,19.8849347069754,19.43632164535953,79.28373846909524,71.07986299177117,-6.47544875391759e-05,0.0923885703086853,0,0,0
6669,226822.79966911103,2010-09-24 06:48:19,1800.916717701493,7,20,-1.099568486213684,3.6170263290405273,19.8849347069754,19.44548904878614,79.28373846909524,71.11303750953863,-0.0001295089750783,0.0923885703086853,0,0,0
6670,226852.81481549417,2010-09-24 06:48:49,1830.931864094605,7,20,-1.099568486213684,3.613626718521118,19.8849347069754,19.45465624960757,79.28373846909524,71.14617932117595,-6.47544875391759e-05,0.0923885703086853,0,0,0
6671,226882.83021626223,2010-09-24 06:49:19,1860.947264857664,7,20,-1.099568486213684,3.610065221786499,19.8849347069754,19.463823520311507,79.28373846909524,71.1792901851601,-9.713172767078504e-05,0.0923885703086853,0,0,0
6672,226912.84539119652,2010-09-24 06:49:49,1890.9624398120693,7,20,-1.099568486213684,3.6068274974823,19.8849347069754,19.47299072013128,79.28373846909524,71.21237007580898,-9.713172767078504e-05,0.0923885703086853,0,0,0
6673,226942.86065862185,2010-09-24 06:50:19,1920.977707232284,7,20,-1.099568486213684,3.6035897731781006,19.8849347069754,19.482157909344867,79.28373846909524,71.24541979667387,-6.47544875391759e-05,0.0923885703086853,0,0,0
6674,226972.87592728017,2010-09-24 06:50:49,1950.9929758956007,7,20,-1.099568486213684,3.6003520488739014,19.8849347069754,19.49132509270549,79.28373846909524,71.27844006352514,-9.713172767078504e-05,0.0923885703086853,0,0,0
6675,227002.89119529683,2010-09-24 06:51:19,1981.008243907292,7,20,-1.099568486213684,3.597114324569702,19.8849347069754,19.500492267275323,79.28373846909524,71.31143085593759,-0.0001295089750783,0.0923885703086853,0,0,0
6676,227032.90661371892,2010-09-24 06:51:49,2011.02366232943,7,20,-1.099568486213684,3.594038486480713,19.8849347069754,19.509659476808206,79.28373846909524,71.34439269747584,-9.713172767078504e-05,0.0923885703086853,0,0,0
6677,227062.921886678,2010-09-24 06:52:19,2041.0389352634072,7,20,-1.099568486213684,3.5909628868103027,19.8849347069754,19.51882667088881,79.28373846909524,71.3773262138126,-6.47544875391759e-05,0.0923885703086853,0,0,0
6678,227092.93702013884,2010-09-24 06:52:49,2071.0540687442885,7,20,-1.0993878841400146,3.5880489349365234,19.8849347069754,19.52799383836693,79.28373846909524,71.41023147268943,-6.47544875391759e-05,0.0923885703086853,0,0,0
6679,227122.95232506265,2010-09-24 06:53:19,2101.0693736731305,7,20,-1.0993878841400146,3.584811210632324,19.8849347069754,19.537161035179352,79.28373846909524,71.44310896920469,-6.47544875391759e-05,0.0923885703086853,0,0,0
6680,227152.96758243785,2010-09-24 06:53:49,2131.0846310382453,7,20,-1.099568486213684,3.581735372543335,19.8849347069754,19.546328189616155,79.28373846909524,71.4759584147769,-0.0001295089750783,0.0923885703086853,0,0,0
6681,227182.98285238937,2010-09-24 06:54:19,2161.099900999804,7,20,-1.0993878841400146,3.578821420669556,19.8849347069754,19.55549531059608,79.28373846909524,71.50877964369953,-9.713172767078504e-05,0.0923885703086853,0,0,0
6682,227212.9981279248,2010-09-24 06:54:49,2191.1151765402874,7,20,-1.099568486213684,3.5757455825805664,19.8849347069754,19.564662566942065,79.28373846909524,71.54157351015043,-6.47544875391759e-05,0.0923885703086853,0,0,0
6683,227243.01342456296,2010-09-24 06:55:19,2221.1304731734213,7,20,-1.099568486213684,3.572507858276367,19.8849347069754,19.57382976750826,79.28373846909524,71.57433928496461,-0.0001295089750783,0.0923885703086853,0,0,0
6684,227273.0289181377,2010-09-24 06:55:49,2251.14596684339,7,20,-1.0992072820663452,3.569917678833008,19.8849347069754,19.582997074834957,79.28373846909524,71.60707756042365,0.0,0.0923885703086853,0,0,0
6685,227303.04407423,2010-09-24 06:56:19,2281.1611229357127,7,20,-1.0997490882873535,3.5663561820983887,19.8849347069754,19.59216427239603,79.28373846909524,71.63978727779359,-9.713172767078504e-05,0.0923885703086853,0,0,0
6686,227333.0592566731,2010-09-24 06:56:49,2311.1763052835736,7,20,-1.099568486213684,3.5634422302246094,19.8849347069754,19.601331424354388,79.28373846909524,71.67246788149946,-6.47544875391759e-05,0.0923885703086853,0,0,0
6687,227363.07450130145,2010-09-24 06:57:19,2341.191549911895,7,20,-1.099568486213684,3.56036639213562,19.8849347069754,19.6104985000538,79.28373846909524,71.7051201959243,-6.47544875391759e-05,0.0923885703086853,0,0,0
6688,227393.08980021023,2010-09-24 06:57:49,2371.20684882071,7,20,-1.0993878841400146,3.557290554046631,19.8849347069754,19.61966564806136,79.28373846909524,71.73774353838641,-3.237724376958795e-05,0.0923885703086853,0,0,0
6689,227423.105060628,2010-09-24 06:58:19,2401.222109243457,7,20,-1.099568486213684,3.5538909435272217,19.8849347069754,19.628832783334285,79.28373846909524,71.77033704758794,-9.713172767078504e-05,0.0923885703086853,0,0,0
6690,227453.12047298497,2010-09-24 06:58:49,2431.237521595444,7,20,-1.099568486213684,3.5504913330078125,19.8849347069754,19.63799990402462,79.28373846909524,71.80290083112283,-9.713172767078504e-05,0.0923885703086853,0,0,0
6691,227483.13559583432,2010-09-24 06:59:19,2461.252644424737,7,20,-1.099568486213684,3.5470917224884038,19.8849347069754,19.647166965389303,79.28373846909524,71.83543395099024,-9.713172767078504e-05,0.0923885703086853,0,0,0
6692,227513.15089375063,2010-09-24 06:59:49,2491.2679423611244,7,20,-1.0993878841400146,3.543853998184204,19.8849347069754,19.65633413169666,79.28373846909524,71.86793625183519,-0.0001295089750783,0.0923885703086853,0,0,0
6693,227543.1661691959,2010-09-24 07:00:19,2521.2832178063704,7,20,-1.099568486213684,3.540292501449585,19.8849347069754,19.665501314407944,79.28373846909524,71.90040701175839,-9.713172767078504e-05,0.0923885703086853,0,0,0
6694,227573.1814316888,2010-09-24 07:00:49,2551.298480299285,7,20,-1.099568486213684,3.536731004714966,19.8849347069754,19.67466844588843,79.28373846909524,71.9328452313917,-9.713172767078504e-05,0.0923885703086853,0,0,0
6695,227603.19670104387,2010-09-24 07:01:19,2581.313749654329,7,20,-1.099568486213684,3.5330076217651367,19.8849347069754,19.683835645989987,79.28373846909524,71.9652504317657,-0.0001295089750783,0.0923885703086853,0,0,0
6696,227633.211983246,2010-09-24 07:01:50,2611.329031856442,7,20,-1.0993878841400146,3.529284238815308,19.8849347069754,19.69300280320465,79.28373846909524,71.99762085686227,-6.47544875391759e-05,0.0923885703086853,0,0,0
6697,227663.22725507212,2010-09-24 07:02:20,2641.3443036826543,7,20,-1.099568486213684,3.5252370834350586,19.8849347069754,19.70216999386414,79.28373846909524,72.02995601086181,-0.0001618862152099,0.0923885703086853,0,0,0
6698,227693.2425288132,2010-09-24 07:02:50,2671.359577518884,7,20,-1.099568486213684,3.5210280418396,19.8849347069754,19.711337152953497,79.28373846909524,72.0622533600926,-0.0001618862152099,0.0923885703086853,0,0,0
6699,227723.2578010404,2010-09-24 07:03:20,2701.374849655872,7,20,-1.099568486213684,3.5166571140289307,19.8849347069754,19.72050428976169,79.28373846909524,72.09451162680848,-0.0001618862152099,0.0923885703086853,0,0,0
6700,227753.2732403597,2010-09-24 07:03:50,2731.390289055373,7,20,-1.099568486213684,3.512124300003052,19.8849347069754,19.72967149850317,79.28373846909524,72.1267289492966,-9.713172767078504e-05,0.0923885703086853,0,0,0
6701,227783.28835303863,2010-09-24 07:04:20,2761.405401654129,7,20,-1.099568486213684,3.507106065750122,19.8849347069754,19.738838604353848,79.28373846909524,72.15890203424975,-0.0001295089750783,0.0923885703086853,0,0,0
6702,227813.30362182728,2010-09-24 07:04:50,2791.4206704377466,7,20,-1.099568486213684,3.5017638206481934,19.8849347069754,19.748005778448324,79.28373846909524,72.19102790906234,-0.0001295089750783,0.0923885703086853,0,0,0
6703,227843.31890063596,2010-09-24 07:05:20,2821.435949251401,7,20,-1.099568486213684,3.4959359169006348,19.8849347069754,19.75717292186392,79.28373846909524,72.22310256836849,-0.0001942634553415,0.0923885703086853,0,0,0
6704,227873.33419765503,2010-09-24 07:05:50,2851.4512462704984,7,20,-1.099568486213684,3.4894604682922363,19.8849347069754,19.766340061800527,79.28373846909524,72.2551211935365,-0.0001942634553415,0.0923885703086853,0,0,0
6705,227903.34945462417,2010-09-24 07:06:20,2881.466503234613,7,20,-1.099568486213684,3.482175588607788,19.8849347069754,19.775507204411404,79.28373846909524,72.28707743473066,-0.0002266406954731,0.0923885703086853,0,0,0
6706,227933.36472098672,2010-09-24 07:06:50,2911.4817695971865,7,20,-1.099568486213684,3.4742431640625,19.8849347069754,19.78467435374205,79.28373846909524,72.31896405409498,-0.0002590179501567,0.0923885703086853,0,0,0
6707,227963.38001129907,2010-09-24 07:07:20,2941.497059909544,7,20,-1.0993878841400146,3.465339422225952,19.8849347069754,19.79384153631648,79.28373846909524,72.35077341703173,-0.0002590179501567,0.0923885703086853,0,0,0
6708,227993.39541050323,2010-09-24 07:07:50,2971.5124590986734,7,20,-1.099568486213684,3.4551405906677246,19.8849347069754,19.803008717667343,79.28373846909524,72.38249476903113,-0.0002590179501567,0.0923885703086853,0,0,0
6709,228023.41067488588,2010-09-24 07:08:20,3001.5277235013555,7,20,-1.099568486213684,3.442999124526977,19.8849347069754,19.81217584817218,79.28373846909524,72.41411449110328,-0.0003237724304199,0.0923885703086853,0,0,0
6710,228053.42582412108,2010-09-24 07:08:50,3031.5428727315493,7,20,-1.0993878841400146,3.42875337600708,19.8849347069754,19.82134296940322,79.28373846909524,72.44561418101723,-0.0004209041653666,0.0923885703086853,0,0,0
6711,228083.44122131524,2010-09-24 07:09:20,3061.5582699156744,7,20,-1.099568486213684,3.4111077785491943,19.8849347069754,19.830510147650767,79.28373846909524,72.47696846148796,-0.0005180359003134,0.0923885703086853,0,0,0
6712,228113.45639023453,2010-09-24 07:09:50,3091.57343884504,7,20,-1.0993878841400146,3.38909125328064,19.8849347069754,19.83967722102475,79.28373846909524,72.50814122477071,-0.0006475448608398,0.0923885703086853,0,0,0
6713,228143.47165224125,2010-09-24 07:10:20,3121.5887008567543,7,20,-1.0993878841400146,3.359142303466797,19.8849347069754,19.848844419559544,79.28373846909524,72.53907856685012,-0.0009065627818927,0.0923885703086853,0,0,0
6714,228173.4869482228,2010-09-24 07:10:50,3151.603996843274,7,20,-1.099568486213684,3.317214012145996,19.8849347069754,19.85801162732149,79.28373846909524,72.56969161729964,-0.0012950897216796,0.0923885703086853,0,0,0
6715,228203.50218978347,2010-09-24 07:11:20,3181.6192383989264,7,20,-1.099568486213684,3.2569925785064697,19.8849347069754,19.86717873269816,79.28373846909524,72.59984256871401,-0.0019102573860436,0.0923885703086853,0,0,0
6716,228233.5177991973,2010-09-24 07:11:50,3211.6348477877477,7,20,-1.0993878841400146,3.1682791709899902,19.8849347069754,19.87634599146188,79.28373846909524,72.62932170226895,-0.0028815746773034,0.0923885703086853,0,0,0
6717,228263.53290283875,2010-09-24 07:12:20,3241.6499514391694,7,20,-1.0993878841400146,3.024039030075073,19.8849347069754,19.88551315223173,79.28373846909524,72.65776715902805,-0.0049212933517992,0.0923885703086853,0,0,0
6718,228283.70439431976,2010-09-24 07:12:40,3261.821442920212,7,20,-1.0997490882873535,2.8237862586975098,19.8849347069754,19.891673851388877,79.28373846909524,72.67585994016693,-0.0106196878477931,0.0923885703086853,0,0,0
6719,228291.57929806103,2010-09-24 07:12:48,3269.696346676512,7,20,-1.099568486213684,2.699943780899048,19.8849347069754,19.894078949788632,79.28373846909524,72.68250656869952,-0.013080358505249,0.0923885703086853,0,0,0
6720,228351.59898637948,2010-09-24 07:13:48,60.01503386260319,8,20,0.0,3.391357660293579,19.8849347069754,19.894078949788632,79.28373846909524,72.68250656869952,0.0014569759368896,0.0923885703086853,0,0,0
6721,228351.79165694208,2010-09-24 07:13:48,0.187432029180531,9,20,-1.9243103452026844e-05,3.391843318939209,19.8849347069754,19.894078950790515,79.28373846909524,72.68250657209775,0.0,0.0914128422737121,0,0,0
6722,228356.61971946893,2010-09-24 07:13:53,5.015494561038901,9,20,0.0008838032954372,3.400585174560547,19.88493581362012,19.89407895095766,79.28374222812295,72.68250657266469,0.0012627125252038,0.0914128422737121,0,0,0
