Data_Point,Test_Time(s),Date_Time,Step_Time(s),Step_Index,Cycle_Index,Current(A),Voltage(V),Charge_Capacity(Ah),Discharge_Capacity(Ah),Charge_Energy(Wh),Discharge_Energy(Wh),dV/dt(V/s),Internal_Resistance(Ohm),Is_FC_Data,AC_Impedance(Ohm),ACI_Phase_Angle(Deg)
7397,251658.3790578621,2010-09-24 13:42:17,30.0155446271655,1,23,0.0,3.403337240219116,21.884787449321504,21.901706935109356,87.26619148564212,80.02028201343533,0.0008741855854168,0.0891468673944473,0,0,0
7398,251688.39429458568,2010-09-24 13:42:47,60.03078132569375,1,23,0.0,3.43037223815918,21.884787449321504,21.901706935109356,87.26619148564212,80.02028201343533,0.0006475448608398,0.0891468673944473,0,0,0
7399,251718.40951608127,2010-09-24 13:43:17,90.04600283631063,1,23,0.0,3.4506077766418457,21.884787449321504,21.901706935109356,87.26619148564212,80.02028201343533,0.0004856586456298,0.0891468673944473,0,0,0
7400,251748.3781717313,2010-09-24 13:43:47,120.0146584863756,1,23,0.0,3.466472625732422,21.884787449321504,21.901706935109356,87.26619148564212,80.02028201343533,0.0003561496851034,0.0891468673944473,0,0,0
7401,251778.39670908087,2010-09-24 13:44:18,30.01531570574241,2,23,0.5501165986061096,3.60860824584961,21.88937414602687,21.901706935109356,87.28259311654617,80.02028201343533,0.0014569759368896,0.0891468673944473,0,0,0
7402,251808.4120534983,2010-09-24 13:44:48,60.03066014821613,2,23,0.550297200679779,3.652479410171509,21.893960874900017,21.901706935109356,87.29925221328443,80.02028201343533,0.0009713172912597,0.0891468673944473,0,0,0
7403,251838.4273688632,2010-09-24 13:45:18,90.04597548804517,2,23,0.5501165986061096,3.684046983718872,21.898547555824177,21.901706935109356,87.31608065515913,80.02028201343533,0.0007446765666827,0.0891468673944473,0,0,0
7404,251868.44282724004,2010-09-24 13:45:48,120.06143386992916,2,23,0.5501165986061096,3.708491802215576,21.903134193278696,21.901706935109356,87.33303633187009,80.02028201343533,0.0006151676061563,0.0891468673944473,0,0,0
7405,251898.4580214525,2010-09-24 13:46:18,150.0766280773932,2,23,0.5501165986061096,3.728403806686402,21.907720872224623,21.901706935109356,87.35009366955076,80.02028201343533,0.0004856586456298,0.0891468673944473,0,0,0
7406,251928.4733425768,2010-09-24 13:46:48,180.09194921168609,2,23,0.5501165986061096,3.7442686557769775,21.912307603121377,21.901706935109356,87.3672328197248,80.02028201343533,0.0003885269106831,0.0891468673944473,0,0,0
7407,251958.48867123987,2010-09-24 13:47:18,210.1072778697595,2,23,0.5501165986061096,3.755600452423096,21.91689508371472,21.901706935109356,87.38443775353213,80.02028201343533,0.0002266406954731,0.0891468673944473,0,0,0
7408,251988.50403753188,2010-09-24 13:47:48,240.1226441818231,2,23,0.5501165986061096,3.762237787246704,21.921482449742463,21.901706935109356,87.40168332782619,80.02028201343533,9.713172767078504e-05,0.0891468673944473,0,0,0
7409,252018.51937888164,2010-09-24 13:48:18,270.1379855265644,2,23,0.5501165986061096,3.766608715057373,21.926069039047047,21.901706935109356,87.4189502045376,80.02028201343533,6.47544875391759e-05,0.0891468673944473,0,0,0
7410,252048.53469493327,2010-09-24 13:48:48,300.15330155812006,2,23,0.5501165986061096,3.770170211791992,21.93065564151803,21.901706935109356,87.43623458267821,80.02028201343533,9.713172767078504e-05,0.0891468673944473,0,0,0
7411,252078.55013861845,2010-09-24 13:49:18,330.1687452633689,2,23,0.5501165986061096,3.773407936096192,21.93524222177692,21.901706935109356,87.45353435371811,80.02028201343533,6.47544875391759e-05,0.0891468673944473,0,0,0
7412,252108.56550826883,2010-09-24 13:49:48,360.18411490374046,2,23,0.5499359965324402,3.776645660400391,21.939828806441447,21.901706935109356,87.47084938056132,80.02028201343533,3.237724376958795e-05,0.0891468673944473,0,0,0
7413,252138.58080008492,2010-09-24 13:50:18,390.19940671985074,2,23,0.5501165986061096,3.7800452709198,21.944415357996107,21.901706935109356,87.48817926764367,80.02028201343533,9.713172767078504e-05,0.0891468673944473,0,0,0
7414,252168.59601209185,2010-09-24 13:50:48,420.21461871671977,2,23,0.5501165986061096,3.783282995223999,21.94900189879184,21.901706935109356,87.50552401442178,80.02028201343533,9.713172767078504e-05,0.0891468673944473,0,0,0
7415,252198.61134985264,2010-09-24 13:51:18,450.22995647751503,2,23,0.5499359965324402,3.7865207195281982,21.95358846732506,21.901706935109356,87.52288351864435,80.02028201343533,9.713172767078504e-05,0.0891468673944473,0,0,0
7416,252228.6267311421,2010-09-24 13:51:48,480.24533779202704,2,23,0.5499359965324402,3.7894346714019775,21.95817504080228,21.901706935109356,87.5402574826473,80.02028201343533,6.47544875391759e-05,0.0891468673944473,0,0,0
7417,252258.6420363416,2010-09-24 13:52:18,510.26064297149424,2,23,0.5501165986061096,3.7926723957061768,21.962761625475284,21.901706935109356,87.55764566358219,80.02028201343533,9.713172767078504e-05,0.0891468673944473,0,0,0
7418,252288.65744438785,2010-09-24 13:52:48,540.276051138033,2,23,0.5501165986061096,3.795586347579956,21.967348251752803,21.901706935109356,87.57504812204624,80.02028201343533,6.47544875391759e-05,0.0891468673944473,0,0,0
7419,252318.67261874577,2010-09-24 13:53:18,570.2912253906868,2,23,0.5499359965324402,3.798662185668945,21.97193484289995,21.901706935109356,87.59246437980494,80.02028201343533,6.47544875391759e-05,0.0891468673944473,0,0,0
7420,252348.6881469921,2010-09-24 13:53:48,600.3067537271883,2,23,0.5501165986061096,3.8015761375427246,21.97652136049484,21.901706935109356,87.60989408117189,80.02028201343533,6.47544875391759e-05,0.0891468673944473,0,0,0
7421,252378.70328986133,2010-09-24 13:54:18,630.321896486229,2,23,0.5501165986061096,3.804813861846924,21.981107875973173,21.901706935109356,87.62733754521747,80.02028201343533,9.713172767078504e-05,0.0891468673944473,0,0,0
7422,252408.71868113577,2010-09-24 13:54:48,660.3372877606024,2,23,0.5501165986061096,3.807889699935913,21.985694525327272,21.901706935109356,87.64479552600217,80.02028201343533,9.713172767078504e-05,0.0891468673944473,0,0,0
7423,252438.73403595912,2010-09-24 13:55:18,690.352642609051,2,23,0.5501165986061096,3.810803651809693,21.990281206519416,21.901706935109356,87.66226772292384,80.02028201343533,6.47544875391759e-05,0.0891468673944473,0,0,0
7424,252468.74958822032,2010-09-24 13:55:48,720.3681948702723,2,23,0.5501165986061096,3.814041376113892,21.99486783587652,21.901706935109356,87.67975414967242,80.02028201343533,6.47544875391759e-05,0.0891468673944473,0,0,0
7425,252498.7646837515,2010-09-24 13:56:18,750.3832903763625,2,23,0.5501165986061096,3.817440986633301,21.999454395310728,21.901706935109356,87.69725517829303,80.02028201343533,0.0001295089750783,0.0891468673944473,0,0,0
7426,252528.7801324141,2010-09-24 13:56:48,780.3987390740734,2,23,0.550297200679779,3.82084059715271,22.004041035494343,21.901706935109356,87.71477164214977,80.02028201343533,0.0001295089750783,0.0891468673944473,0,0,0
7427,252558.79533650124,2010-09-24 13:57:18,810.4139431361358,2,23,0.5501165986061096,3.824078321456909,22.008627632031292,21.901706935109356,87.73230337512351,80.02028201343533,9.713172767078504e-05,0.0891468673944473,0,0,0
7428,252588.8106901517,2010-09-24 13:57:48,840.4292967765692,2,23,0.5501165986061096,3.8278017044067374,22.01321423456774,21.901706935109356,87.74985084706229,80.02028201343533,0.0001295089750783,0.0891468673944473,0,0,0
7429,252618.8260151005,2010-09-24 13:58:18,870.4446217253836,2,23,0.5501165986061096,3.830877542495728,22.017800820407608,21.901706935109356,87.76741405579256,80.02028201343533,6.47544875391759e-05,0.0891468673944473,0,0,0
7430,252648.84136279608,2010-09-24 13:58:48,900.4599694209777,2,23,0.550297200679779,3.834438800811768,22.022387451847,21.901706935109356,87.78499308973437,80.02028201343533,0.0001295089750783,0.0891468673944473,0,0,0
7431,252678.85667330888,2010-09-24 13:59:18,930.4752799337576,2,23,0.5499359965324402,3.837676525115967,22.02697400858911,21.901706935109356,87.80258737269206,80.02028201343533,6.47544875391759e-05,0.0891468673944473,0,0,0
7432,252708.87201429773,2010-09-24 13:59:48,960.4906209226108,2,23,0.550297200679779,3.841076135635376,22.031560549173207,21.901706935109356,87.820196800971,80.02028201343533,9.713172767078504e-05,0.0891468673944473,0,0,0
7433,252738.8873380536,2010-09-24 14:00:18,990.5059446834598,2,23,0.5499359965324402,3.844151973724365,22.036147160510787,21.901706935109356,87.83782143727323,80.02028201343533,6.47544875391759e-05,0.0891468673944473,0,0,0
7434,252768.9026826063,2010-09-24 14:00:48,1020.5212892362088,2,23,0.5501165986061096,3.847389698028565,22.040733718998972,21.901706935109356,87.85546043276585,80.02028201343533,6.47544875391759e-05,0.0891468673944473,0,0,0
7435,252798.9184239746,2010-09-24 14:01:18,1050.5370306144955,2,23,0.5499359965324402,3.850303649902344,22.045320354856777,21.901706935109356,87.8731139651601,80.02028201343533,6.47544875391759e-05,0.0891468673944473,0,0,0
7436,252828.93336799252,2010-09-24 14:01:48,1080.5519746174105,2,23,0.550297200679779,3.853541374206543,22.049906912286104,21.901706935109356,87.89078110095691,80.02028201343533,9.713172767078504e-05,0.0891468673944473,0,0,0
7437,252858.9486921193,2010-09-24 14:02:18,1110.5672987692355,2,23,0.5501165986061096,3.856293439865112,22.054493526422757,21.901706935109356,87.90846183742146,80.02028201343533,9.713172767078504e-05,0.0891468673944473,0,0,0
7438,252888.9640120255,2010-09-24 14:02:48,1140.5826186654378,2,23,0.5501165986061096,3.8590455055236816,22.05908009807442,21.901706935109356,87.92615543937484,80.02028201343533,6.47544875391759e-05,0.0891468673944473,0,0,0
7439,252918.97947054773,2010-09-24 14:03:18,1170.59807720271,2,23,0.5499359965324402,3.861797571182251,22.06366664568624,21.901706935109356,87.94386140555581,80.02028201343533,9.713172767078504e-05,0.0891468673944473,0,0,0
7440,252948.99469306087,2010-09-24 14:03:48,1200.6132997759792,2,23,0.5501165986061096,3.8640639781951904,22.06825319944137,21.901706935109356,87.96157919970616,80.02028201343533,6.47544875391759e-05,0.0891468673944473,0,0,0
7441,252979.0100099696,2010-09-24 14:04:18,1230.6286165944994,2,23,0.5501165986061096,3.86665415763855,22.07283977800053,21.901706935109356,87.97930829007166,80.02028201343533,6.47544875391759e-05,0.0891468673944473,0,0,0
7442,253009.02547234148,2010-09-24 14:04:48,1260.6440789713554,2,23,0.550297200679779,3.868920564651489,22.07742634584571,21.901706935109356,87.99704793244585,80.02028201343533,6.47544875391759e-05,0.0891468673944473,0,0,0
7443,253039.04081265864,2010-09-24 14:05:18,1290.6594192835194,2,23,0.5499359965324402,3.870863199234009,22.082012913566057,21.901706935109356,88.01479745795004,80.02028201343533,3.237724376958795e-05,0.0891468673944473,0,0,0
7444,253069.0560505401,2010-09-24 14:05:48,1320.6746571650003,2,23,0.5501165986061096,3.8729677200317374,22.08659947544027,21.901706935109356,88.03255625826172,80.02028201343533,6.47544875391759e-05,0.0891468673944473,0,0,0
7445,253099.0713551181,2010-09-24 14:06:18,1350.6899617429665,2,23,0.5501165986061096,3.874748468399048,22.091186090995684,21.901706935109356,88.05032383101127,80.02028201343533,6.47544875391759e-05,0.0891468673944473,0,0,0
7446,253129.08668790144,2010-09-24 14:06:48,1380.705294556412,2,23,0.5501165986061096,3.876367330551148,22.0957726552634,21.901706935109356,88.06809924549934,80.02028201343533,6.47544875391759e-05,0.0891468673944473,0,0,0
7447,253159.10202449435,2010-09-24 14:07:18,1410.7206311192167,2,23,0.550297200679779,3.877986192703247,22.100359243141806,21.901706935109356,88.08588223625242,80.02028201343533,3.237724376958795e-05,0.0891468673944473,0,0,0
7448,253189.11740769856,2010-09-24 14:07:48,1440.7360143234455,2,23,0.550297200679779,3.879281282424927,22.1049457964978,21.901706935109356,88.10367211149507,80.02028201343533,0.0,0.0891468673944473,0,0,0
7449,253219.13274064235,2010-09-24 14:08:18,1470.751347362455,2,23,0.5501165986061096,3.8809001445770255,22.10953240728244,21.901706935109356,88.12146870861116,80.02028201343533,6.47544875391759e-05,0.0891468673944473,0,0,0
7450,253249.1480624884,2010-09-24 14:08:48,1500.7666691132863,2,23,0.5501165986061096,3.882033348083496,22.114118968138744,21.901706935109356,88.13927137136544,80.02028201343533,0.0,0.0891468673944473,0,0,0
7451,253279.16339208884,2010-09-24 14:09:18,1530.7819987337623,2,23,0.550297200679779,3.8834903240203857,22.118705564186698,21.901706935109356,88.15708010029077,80.02028201343533,6.47544875391759e-05,0.0891468673944473,0,0,0
7452,253309.17872540856,2010-09-24 14:09:48,1560.7973321286595,2,23,0.550297200679779,3.884623527526856,22.123292230732613,21.901706935109356,88.17489487647194,80.02028201343533,3.237724376958795e-05,0.0891468673944473,0,0,0
7453,253339.19404417192,2010-09-24 14:10:18,1590.8126507967966,2,23,0.5501165986061096,3.885756731033325,22.127878785934968,21.901706935109356,88.19271470503078,80.02028201343533,3.237724376958795e-05,0.0891468673944473,0,0,0
7454,253369.2093973412,2010-09-24 14:10:48,1620.8280039961287,2,23,0.5501165986061096,3.887051820755005,22.132465315555915,21.901706935109356,88.21053998303145,80.02028201343533,3.237724376958795e-05,0.0891468673944473,0,0,0
7455,253399.2248425201,2010-09-24 14:11:18,1650.8434491650312,2,23,0.5501165986061096,3.8881850242614746,22.13705192585757,21.901706935109356,88.22837093899228,80.02028201343533,3.237724376958795e-05,0.0891468673944473,0,0,0
7456,253429.24027255125,2010-09-24 14:11:48,1680.8588792963976,2,23,0.5501165986061096,3.889318227767944,22.141638491113596,21.901706935109356,88.24620716146514,80.02028201343533,3.237724376958795e-05,0.0891468673944473,0,0,0
7457,253459.2553958768,2010-09-24 14:12:18,1710.874002501629,2,23,0.5499359965324402,3.890451431274414,22.14622509458541,21.901706935109356,88.26404877800809,80.02028201343533,3.237724376958795e-05,0.0891468673944473,0,0,0
7458,253489.2708752911,2010-09-24 14:12:48,1740.889481931051,2,23,0.550297200679779,3.8917465209960938,22.15081175315954,21.901706935109356,88.28189596501096,80.02028201343533,3.237724376958795e-05,0.0891468673944473,0,0,0
7459,253519.28606422545,2010-09-24 14:13:18,1770.9046708603398,2,23,0.5501165986061096,3.8927178382873535,22.15539837338892,21.901706935109356,88.29974836311281,80.02028201343533,0.0,0.0891468673944473,0,0,0
7460,253549.30141809647,2010-09-24 14:13:48,1800.9200247213234,2,23,0.5499359965324402,3.894012928009033,22.15998496509336,21.901706935109356,88.31760602800637,80.02028201343533,0.0,0.0891468673944473,0,0,0
7461,253579.31673029845,2010-09-24 14:14:18,1830.9353369283328,2,23,0.550297200679779,3.894984245300293,22.164571568806668,21.901706935109356,88.33546892526955,80.02028201343533,0.0,0.0891468673944473,0,0,0
7462,253609.3320608663,2010-09-24 14:14:48,1860.9506675061984,2,23,0.5501165986061096,3.8962793350219727,22.169158252049417,21.901706935109356,88.35333722178459,80.02028201343533,0.0,0.0891468673944473,0,0,0
7463,253639.34752976944,2010-09-24 14:15:19,1890.9661364093447,2,23,0.5501165986061096,3.8974125385284415,22.17374496118515,21.901706935109356,88.3712111854315,80.02028201343533,0.0,0.0891468673944473,0,0,0
7464,253669.3627966483,2010-09-24 14:15:49,1920.9814032781835,2,23,0.5501165986061096,3.898707628250122,22.1783314740079,21.901706935109356,88.38908987852666,80.02028201343533,6.47544875391759e-05,0.0891468673944473,0,0,0
7465,253699.378192048,2010-09-24 14:16:19,1950.9967987129407,2,23,0.5497553944587708,3.899840831756592,22.18291799400469,21.901706935109356,88.40697419554257,80.02028201343533,3.237724376958795e-05,0.0891468673944473,0,0,0
7466,253729.39346654585,2010-09-24 14:16:49,1981.0120731707225,2,23,0.5501165986061096,3.901135921478272,22.187504502224176,21.901706935109356,88.42486395476452,80.02028201343533,3.237724376958795e-05,0.0891468673944473,0,0,0
7467,253759.40880065755,2010-09-24 14:17:19,2011.0274072874213,2,23,0.550297200679779,3.902431011199951,22.19209106231776,21.901706935109356,88.44275957492947,80.02028201343533,3.237724376958795e-05,0.0891468673944473,0,0,0
7468,253789.4243583172,2010-09-24 14:17:49,2041.042965082456,2,23,0.5501165986061096,3.903402328491211,22.196677640838505,21.901706935109356,88.46066087365445,80.02028201343533,0.0,0.0891468673944473,0,0,0
7469,253819.43961652447,2010-09-24 14:18:19,2071.0582231493227,2,23,0.5501165986061096,3.9048593044281006,22.201264175031877,21.901706935109356,88.47856775806052,80.02028201343533,3.237724376958795e-05,0.0891468673944473,0,0,0
7470,253849.454816371,2010-09-24 14:18:49,2101.073423005888,2,23,0.5501165986061096,3.90615439414978,22.205850735731573,21.901706935109356,88.49648035385704,80.02028201343533,6.47544875391759e-05,0.0891468673944473,0,0,0
7471,253879.4702846777,2010-09-24 14:19:19,2131.088891317558,2,23,0.5501165986061096,3.90744948387146,22.21043731082999,21.901706935109356,88.5143988925332,80.02028201343533,3.237724376958795e-05,0.0891468673944473,0,0,0
7472,253909.48552317568,2010-09-24 14:19:49,2161.1041298306154,2,23,0.5501165986061096,3.9085826873779297,22.21502377189409,21.901706935109356,88.53232278310216,80.02028201343533,3.237724376958795e-05,0.0891468673944473,0,0,0
7473,253939.50084244032,2010-09-24 14:20:19,2191.119449090229,2,23,0.5499359965324402,3.9100396633148193,22.219610242988715,21.901706935109356,88.55025268087739,80.02028201343533,6.47544875391759e-05,0.0891468673944473,0,0,0
7474,253969.51616415105,2010-09-24 14:20:49,2221.1347708059734,2,23,0.5501165986061096,3.911172866821289,22.22419674691701,21.901706935109356,88.56818866482116,80.02028201343533,3.237724376958795e-05,0.0891468673944473,0,0,0
7475,253999.53162765573,2010-09-24 14:21:19,2251.150234305632,2,23,0.550297200679779,3.9127917289733887,22.228783243601075,21.901706935109356,88.5861307105824,80.02028201343533,6.47544875391759e-05,0.0891468673944473,0,0,0
7476,254029.54703169697,2010-09-24 14:21:49,2281.1656383568984,2,23,0.5501165986061096,3.9139246940612793,22.233369745449235,21.901706935109356,88.6040787705962,80.02028201343533,0.0,0.0891468673944473,0,0,0
7477,254059.5623748512,2010-09-24 14:22:19,2311.180981581332,2,23,0.5504778623580933,3.915381669998169,22.23795626343505,21.901706935109356,88.62203308068564,80.02028201343533,9.713172767078504e-05,0.0891468673944473,0,0,0
7478,254089.5775676,2010-09-24 14:22:49,2341.1961742299045,2,23,0.5501165986061096,3.916514873504639,22.24254279599189,21.901706935109356,88.63999344788816,80.02028201343533,0.0,0.0891468673944473,0,0,0
7479,254119.59307831252,2010-09-24 14:23:19,2371.2116849474264,2,23,0.5499359965324402,3.917971849441528,22.247129332052783,21.901706935109356,88.65796016194268,80.02028201343533,3.237724376958795e-05,0.0891468673944473,0,0,0
7480,254149.60827341225,2010-09-24 14:23:49,2401.2268800421048,2,23,0.5501165986061096,3.919266939163208,22.251715787637256,21.901706935109356,88.67593281633387,80.02028201343533,3.237724376958795e-05,0.0891468673944473,0,0,0
7481,254179.6236091329,2010-09-24 14:24:19,2431.242215762808,2,23,0.5501165986061096,3.9207239151000977,22.256302343089924,21.901706935109356,88.69391225273546,80.02028201343533,3.237724376958795e-05,0.0891468673944473,0,0,0
7482,254209.6390903869,2010-09-24 14:24:49,2461.257697112022,2,23,0.5499359965324402,3.9221808910369873,22.260888875801733,21.901706935109356,88.71189788915223,80.02028201343533,3.237724376958795e-05,0.0891468673944473,0,0,0
7483,254239.654281236,2010-09-24 14:25:19,2491.2728878758903,2,23,0.5501165986061096,3.923475980758667,22.26547542333975,21.901706935109356,88.7298900917322,80.02028201343533,3.237724376958795e-05,0.0891468673944473,0,0,0
7484,254269.6697669511,2010-09-24 14:25:49,2521.2883735910023,2,23,0.550297200679779,3.9249329566955566,22.270061995557768,21.901706935109356,88.74788889542543,80.02028201343533,6.47544875391759e-05,0.0891468673944473,0,0,0
7485,254299.68509809035,2010-09-24 14:26:19,2551.303704730269,2,23,0.550297200679779,3.9263899326324463,22.27464859042354,21.901706935109356,88.76589435734235,80.02028201343533,3.237724376958795e-05,0.0891468673944473,0,0,0
7486,254329.7003299819,2010-09-24 14:26:49,2581.318936636836,2,23,0.5501165986061096,3.927846908569336,22.279235149704185,21.901706935109356,88.78390631066078,80.02028201343533,6.47544875391759e-05,0.0891468673944473,0,0,0
7487,254359.71566030916,2010-09-24 14:27:19,2611.334266939013,2,23,0.5501165986061096,3.9293038845062256,22.28382169856875,21.901706935109356,88.80192495316362,80.02028201343533,0.0,0.0891468673944473,0,0,0
7488,254389.7312043248,2010-09-24 14:27:49,2641.349810954652,2,23,0.5501165986061096,3.9307608604431152,22.288408294207557,21.901706935109356,88.81995054839895,80.02028201343533,6.47544875391759e-05,0.0891468673944473,0,0,0
7489,254419.7463524171,2010-09-24 14:28:19,2671.364959047006,2,23,0.5501165986061096,3.932379722595215,22.2929948175349,21.901706935109356,88.83798266008182,80.02028201343533,6.47544875391759e-05,0.0891468673944473,0,0,0
7490,254449.7616927393,2010-09-24 14:28:49,2701.38029937922,2,23,0.5501165986061096,3.9336748123168954,22.29758137377033,21.901706935109356,88.85602180885908,80.02028201343533,0.0,0.0891468673944473,0,0,0
7491,254479.77716455472,2010-09-24 14:29:19,2731.395771194636,2,23,0.5501165986061096,3.935293674468994,22.302167977211543,21.901706935109356,88.87406809910854,80.02028201343533,3.237724376958795e-05,0.0891468673944473,0,0,0
7492,254509.7924026668,2010-09-24 14:29:49,2761.411009296667,2,23,0.5499359965324402,3.936750650405884,22.30675456433139,21.901706935109356,88.89212124824391,80.02028201343533,3.237724376958795e-05,0.0891468673944473,0,0,0
7493,254539.8077571393,2010-09-24 14:30:19,2791.426363769178,2,23,0.550297200679779,3.938531398773194,22.31134108082797,21.901706935109356,88.91018124686231,80.02028201343533,6.47544875391759e-05,0.0891468673944473,0,0,0
7494,254569.82307636383,2010-09-24 14:30:49,2821.441682993704,2,23,0.550297200679779,3.939826488494873,22.315927677478257,21.901706935109356,88.92824869542997,80.02028201343533,3.237724376958795e-05,0.0891468673944473,0,0,0
7495,254599.83853225948,2010-09-24 14:31:19,2851.457138889381,2,23,0.5501165986061096,3.9414453506469727,22.32051426949614,21.901706935109356,88.94632329409994,80.02028201343533,3.237724376958795e-05,0.0891468673944473,0,0,0
7496,254629.85377953944,2010-09-24 14:31:49,2881.472386169323,2,23,0.5501165986061096,3.943064212799072,22.32510072656668,21.901706935109356,88.96440450101329,80.02028201343533,3.237724376958795e-05,0.0891468673944473,0,0,0
7497,254659.8691514605,2010-09-24 14:32:19,2911.4877581204623,2,23,0.5501165986061096,3.944844961166382,22.32968731330789,21.901706935109356,88.98249372636883,80.02028201343533,9.713172767078504e-05,0.0891468673944473,0,0,0
7498,254689.88460852916,2010-09-24 14:32:49,2941.503215158993,2,23,0.5499359965324402,3.946301937103272,22.334273861323943,21.901706935109356,89.00059031630333,80.02028201343533,3.237724376958795e-05,0.0891468673944473,0,0,0
7499,254719.90022979252,2010-09-24 14:33:19,2971.518836527717,2,23,0.5501165986061096,3.948082685470581,22.33886044652598,21.901706935109356,89.01869438376596,80.02028201343533,6.47544875391759e-05,0.0891468673944473,0,0,0
7500,254749.9152166324,2010-09-24 14:33:49,3001.533823282347,2,23,0.5501165986061096,3.9497015476226807,22.34344690297344,21.901706935109356,89.03680553120391,80.02028201343533,6.47544875391759e-05,0.0891468673944473,0,0,0
7501,254779.9305207843,2010-09-24 14:34:19,3031.549127414199,2,23,0.550297200679779,3.95132040977478,22.34803345052284,21.901706935109356,89.05492467992018,80.02028201343533,3.237724376958795e-05,0.0891468673944473,0,0,0
7502,254809.94586696613,2010-09-24 14:34:49,3061.5644735960145,2,23,0.5501165986061096,3.95293927192688,22.352620053814945,21.901706935109356,89.07305170712073,80.02028201343533,3.237724376958795e-05,0.0891468673944473,0,0,0
7503,254839.9612134637,2010-09-24 14:35:19,3091.5798200936183,2,23,0.5499359965324402,3.95455813407898,22.35720662369917,21.901706935109356,89.09118637752256,80.02028201343533,0.0,0.0891468673944473,0,0,0
7504,254869.9765793347,2010-09-24 14:35:49,3121.5951859645807,2,23,0.5499359965324402,3.956338882446289,22.361793197482825,21.901706935109356,89.10932893537615,80.02028201343533,0.0,0.0891468673944473,0,0,0
7505,254899.9919284488,2010-09-24 14:36:19,3151.6105350837283,2,23,0.550297200679779,3.9582815170288086,22.36637974689588,21.901706935109356,89.12747920038551,80.02028201343533,9.713172767078504e-05,0.0891468673944473,0,0,0
7506,254930.0073736979,2010-09-24 14:36:49,3181.625980337843,2,23,0.5501165986061096,3.959738492965698,22.37096635435232,21.901706935109356,89.14563775352687,80.02028201343533,3.237724376958795e-05,0.0891468673944473,0,0,0
7507,254960.02273922804,2010-09-24 14:37:19,3211.641345862942,2,23,0.550297200679779,3.961843013763428,22.375552966131444,21.901706935109356,89.16380443423404,80.02028201343533,6.47544875391759e-05,0.0891468673944473,0,0,0
7508,254990.0379637612,2010-09-24 14:37:49,3241.6565703910915,2,23,0.5501165986061096,3.9634618759155273,22.38013954942634,21.901706935109356,89.18197910366695,80.02028201343533,3.237724376958795e-05,0.0891468673944473,0,0,0
7509,255020.05341806792,2010-09-24 14:38:19,3271.672024702816,2,23,0.5501165986061096,3.965242624282837,22.38472616768948,21.901706935109356,89.20016216575173,80.02028201343533,3.237724376958795e-05,0.0891468673944473,0,0,0
7510,255050.06863153345,2010-09-24 14:38:49,3301.6872381633384,2,23,0.5501165986061096,3.9670233726501465,22.389312733204868,21.901706935109356,89.21835338411526,80.02028201343533,3.237724376958795e-05,0.0891468673944473,0,0,0
7511,255080.0838972995,2010-09-24 14:39:19,3331.7025039294235,2,23,0.5501165986061096,3.968804121017456,22.39389928862177,21.901706935109356,89.23655288905942,80.02028201343533,3.237724376958795e-05,0.0891468673944473,0,0,0
7512,255110.0993441376,2010-09-24 14:39:49,3361.7179507674928,2,23,0.550297200679779,3.971070528030396,22.398485932945647,21.901706935109356,89.25476120526172,80.02028201343533,9.713172767078504e-05,0.0891468673944473,0,0,0
7513,255140.09988022115,2010-09-24 14:40:19,3391.7184868510244,2,23,0.5501165986061096,3.972689390182495,22.403070298252565,21.901706935109356,89.27296908614966,80.02028201343533,6.47544875391759e-05,0.0891468673944473,0,0,0
7514,255170.11447959385,2010-09-24 14:40:49,3421.7330864141645,2,23,0.5501165986061096,3.974632024765015,22.40765672094616,21.901706935109356,89.29119384735915,80.02028201343533,6.47544875391759e-05,0.0891468673944473,0,0,0
7515,255200.1297911141,2010-09-24 14:41:19,3451.7483977489965,2,23,0.5501165986061096,3.976574659347534,22.412243231648542,21.901706935109356,89.30942776241668,80.02028201343533,3.237724376958795e-05,0.0891468673944473,0,0,0
7516,255230.14511233865,2010-09-24 14:41:49,3481.763718978527,2,23,0.550297200679779,3.978355407714844,22.416829803069252,21.901706935109356,89.3276704630164,80.02028201343533,9.713172767078504e-05,0.0891468673944473,0,0,0
7517,255260.16047379852,2010-09-24 14:42:19,3511.779080428454,2,23,0.5501165986061096,3.980459928512573,22.42141625032667,21.901706935109356,89.34592208892327,80.02028201343533,6.47544875391759e-05,0.0891468673944473,0,0,0
7518,255290.17593048123,2010-09-24 14:42:49,3541.7945371110964,2,23,0.5499359965324402,3.9824025630950928,22.426002698754907,21.901706935109356,89.36418284089798,80.02028201343533,6.47544875391759e-05,0.0891468673944473,0,0,0
7519,255320.19117422737,2010-09-24 14:43:19,3571.809780887292,2,23,0.550297200679779,3.9845070838928223,22.430589163910337,21.901706935109356,89.38245291745125,80.02028201343533,9.713172767078504e-05,0.0891468673944473,0,0,0
7520,255350.2065090859,2010-09-24 14:43:49,3601.8251157157674,2,23,0.5501165986061096,3.986611604690552,22.43517565358175,21.901706935109356,89.40073243244706,80.02028201343533,6.47544875391759e-05,0.0891468673944473,0,0,0
7521,255380.2221998779,2010-09-24 14:44:19,3631.8408065077833,2,23,0.5501165986061096,3.988716125488281,22.439762234311832,21.901706935109356,89.41902171851481,80.02028201343533,6.47544875391759e-05,0.0891468673944473,0,0,0
7522,255410.23719896327,2010-09-24 14:44:49,3661.855805598205,2,23,0.5501165986061096,3.990658760070801,22.444348629819416,21.901706935109356,89.43731975613724,80.02028201343533,6.47544875391759e-05,0.0891468673944473,0,0,0
7523,255440.2525479872,2010-09-24 14:45:19,3691.8711546221134,2,23,0.5501165986061096,3.9927632808685294,22.44893509062141,21.901706935109356,89.45562766654207,80.02028201343533,6.47544875391759e-05,0.0891468673944473,0,0,0
7524,255470.26789151743,2010-09-24 14:45:49,3721.8864981472975,2,23,0.550297200679779,3.99502944946289,22.453521552513116,21.901706935109356,89.47394524131929,80.02028201343533,9.713172767078504e-05,0.0891468673944473,0,0,0
7525,255500.2832527117,2010-09-24 14:46:19,3751.901859341587,2,23,0.5501165986061096,3.99713397026062,22.45810803824093,21.901706935109356,89.49227272610986,80.02028201343533,6.47544875391759e-05,0.0891468673944473,0,0,0
7526,255530.2987994742,2010-09-24 14:46:49,3781.917406114108,2,23,0.5501165986061096,3.9992384910583496,22.462694590760663,21.901706935109356,89.51061029737754,80.02028201343533,6.47544875391759e-05,0.0891468673944473,0,0,0
7527,255560.31393401776,2010-09-24 14:47:19,3811.9325406576418,2,23,0.5501165986061096,4.001343250274658,22.46728090590353,21.901706935109356,89.52895678130645,80.02028201343533,6.47544875391759e-05,0.0891468673944473,0,0,0
7528,255590.32941364264,2010-09-24 14:47:50,3841.948020282552,2,23,0.5499359965324402,4.003609657287598,22.47186738462076,21.901706935109356,89.54731401627811,80.02028201343533,3.24249267578125e-05,0.0891468673944473,0,0,0
7529,255620.34464841132,2010-09-24 14:48:20,3871.9632550462497,2,23,0.5501165986061096,4.005713939666748,22.476453846572923,21.901706935109356,89.56568121391479,80.02028201343533,3.23295607813634e-05,0.0891468673944473,0,0,0
7530,255650.35998287893,2010-09-24 14:48:50,3901.9785895188375,2,23,0.5499359965324402,4.008142471313477,22.481040382198504,21.901706935109356,89.5840588702051,80.02028201343533,9.71794142969884e-05,0.0891468673944473,0,0,0
7531,255680.37532536156,2010-09-24 14:49:20,3931.993932001419,2,23,0.5499359965324402,4.010246753692627,22.485626881896195,21.901706935109356,89.60244655423938,80.02028201343533,3.23295607813634e-05,0.0891468673944473,0,0,0
7532,255710.3906742551,2010-09-24 14:49:50,3962.009280900016,2,23,0.5501165986061096,4.012513160705566,22.4902134285608,21.901706935109356,89.62084469996756,80.02028201343533,3.23295607813634e-05,0.0891468673944473,0,0,0
7533,255740.40606015103,2010-09-24 14:50:20,3992.0246668110017,2,23,0.5501165986061096,4.014779567718506,22.494799914637717,21.901706935109356,89.6392530141619,80.02028201343533,6.47544875391759e-05,0.0891468673944473,0,0,0
7534,255770.42139539556,2010-09-24 14:50:50,4022.04000202544,2,23,0.550297200679779,4.017208099365234,22.499386400985777,21.901706935109356,89.65767178959543,80.02028201343533,9.71794142969884e-05,0.0891468673944473,0,0,0
7535,255800.43671612887,2010-09-24 14:51:20,4052.055322758733,2,23,0.5499359965324402,4.019312381744385,22.503972899894013,21.901706935109356,89.67610116717997,80.02028201343533,3.23295607813634e-05,0.0891468673944473,0,0,0
7536,255830.45206646103,2010-09-24 14:51:50,4082.07067309592,2,23,0.550297200679779,4.021740913391113,22.508559407933213,21.901706935109356,89.69454115429468,80.02028201343533,6.47544875391759e-05,0.0891468673944473,0,0,0
7537,255860.4675549681,2010-09-24 14:52:20,4112.086161597989,2,23,0.5501165986061096,4.024007320404053,22.513145916832684,21.901706935109356,89.71299192006973,80.02028201343533,6.47544875391759e-05,0.0891468673944473,0,0,0
7538,255890.4827969949,2010-09-24 14:52:50,4142.101403634842,2,23,0.5501165986061096,4.026273727416992,22.517732391721253,21.901706935109356,89.73145329738257,80.02028201343533,6.47544875391759e-05,0.0891468673944473,0,0,0
7539,255920.498249843,2010-09-24 14:53:20,4172.1168564779,2,23,0.5499359965324402,4.028540134429932,22.52231888353787,21.901706935109356,89.74992563871749,80.02028201343533,3.24249267578125e-05,0.0891468673944473,0,0,0
7540,255950.5136378593,2010-09-24 14:53:50,4202.132244499154,2,23,0.5499359965324402,4.031130313873291,22.52690541061908,21.901706935109356,89.76840902413133,80.02028201343533,6.47544875391759e-05,0.0891468673944473,0,0,0
7541,255980.52890243736,2010-09-24 14:54:20,4232.147509162486,2,23,0.5501165986061096,4.033558368682861,22.531491857674563,21.901706935109356,89.78690319476328,80.02028201343533,6.47544875391759e-05,0.0891468673944473,0,0,0
7542,256010.54431391216,2010-09-24 14:54:50,4262.162920542046,2,23,0.5501165986061096,4.035986423492432,22.536078334892725,21.901706935109356,89.8054087047672,80.02028201343533,6.47544875391759e-05,0.0891468673944473,0,0,0
7543,256040.5595154028,2010-09-24 14:55:20,4292.178122047727,2,23,0.550297200679779,4.03841495513916,22.540664803310023,21.901706935109356,89.82392550321639,80.02028201343533,3.24249267578125e-05,0.0891468673944473,0,0,0
7544,256070.57490046168,2010-09-24 14:55:50,4322.193507096561,2,23,0.5501165986061096,4.04116678237915,22.54525129943067,21.901706935109356,89.84245378807142,80.02028201343533,9.70840483205393e-05,0.0891468673944473,0,0,0
7545,256100.5902323127,2010-09-24 14:56:20,4352.208838952617,2,23,0.5499359965324402,4.04343318939209,22.549837748965253,21.901706935109356,89.86099342945548,80.02028201343533,6.47544875391759e-05,0.0891468673944473,0,0,0
7546,256130.6055694369,2010-09-24 14:56:50,4382.224176076823,2,23,0.5501165986061096,4.046185493469238,22.55442424948585,21.901706935109356,89.87954490063824,80.02028201343533,6.47544875391759e-05,0.0891468673944473,0,0,0
7547,256160.62093924268,2010-09-24 14:57:20,4412.2395459026575,2,23,0.5499359965324402,4.048451900482178,22.5590107937216,21.901706935109356,89.89810833670018,80.02028201343533,3.24249267578125e-05,0.0891468673944473,0,0,0
7548,256190.6362677153,2010-09-24 14:57:50,4442.254874355217,2,23,0.5499359965324402,4.051203727722168,22.563597364942904,21.901706935109356,89.91668369710321,80.02028201343533,6.47544875391759e-05,0.0891468673944473,0,0,0
7549,256220.6516333206,2010-09-24 14:58:20,4472.2702399755535,2,23,0.5501165986061096,4.053793907165527,22.568183846223445,21.901706935109356,89.9352706209966,80.02028201343533,6.47544875391759e-05,0.0891468673944473,0,0,0
7550,256250.66697442977,2010-09-24 14:58:50,4502.285581059645,2,23,0.5501165986061096,4.056546211242676,22.57277037317807,21.901706935109356,89.95386984007871,80.02028201343533,6.47544875391759e-05,0.0891468673944473,0,0,0
7551,256280.68232480204,2010-09-24 14:59:20,4532.300931446958,2,23,0.5499359965324402,4.059136390686035,22.577356868912883,21.901706935109356,89.97248110824803,80.02028201343533,6.47544875391759e-05,0.0891468673944473,0,0,0
7552,256310.6976770741,2010-09-24 14:59:50,4562.31628370895,2,23,0.5501165986061096,4.0617265701293945,22.58194340576491,21.901706935109356,89.99110465943193,80.02028201343533,3.24249267578125e-05,0.0891468673944473,0,0,0
7553,256340.71324220745,2010-09-24 15:00:20,4592.331848932528,2,23,0.550297200679779,4.064640522003174,22.58652985281184,21.901706935109356,90.0097401913311,80.02028201343533,6.47544875391759e-05,0.0891468673944473,0,0,0
7554,256370.72839819943,2010-09-24 15:00:50,4622.347004859437,2,23,0.5501165986061096,4.067230701446533,22.591116310946177,21.901706935109356,90.0283883477078,80.02028201343533,6.47544875391759e-05,0.0891468673944473,0,0,0
7555,256400.7438592931,2010-09-24 15:01:20,4652.3624659280285,2,23,0.550297200679779,4.0701446533203125,22.59570277740573,21.901706935109356,90.04704922776268,80.02028201343533,9.71794142969884e-05,0.0891468673944473,0,0,0
7556,256430.75907964085,2010-09-24 15:01:50,4682.37768627073,2,23,0.5501165986061096,4.072896480560303,22.600289185968137,21.901706935109356,90.06572262524197,80.02028201343533,9.70840483205393e-05,0.0891468673944473,0,0,0
7557,256460.77444633885,2010-09-24 15:02:20,4712.393052968756,2,23,0.550297200679779,4.075810432434082,22.60487557891389,21.901706935109356,90.08440887103744,80.02028201343533,9.70840483205393e-05,0.0891468673944473,0,0,0
7558,256490.78979025004,2010-09-24 15:02:50,4742.408396879904,2,23,0.5501165986061096,4.078724384307861,22.60946204359492,21.901706935109356,90.10310847295992,80.02028201343533,0.0001295089750783,0.0891468673944473,0,0,0
7559,256520.80514012105,2010-09-24 15:03:20,4772.423746750928,2,23,0.5501165986061096,4.081314563751221,22.614048519502404,21.901706935109356,90.12182128874088,80.02028201343533,3.23295607813634e-05,0.0891468673944473,0,0,0
7560,256550.82049431783,2010-09-24 15:03:50,4802.439100952764,2,23,0.550297200679779,4.084390640258789,22.618634922549692,21.901706935109356,90.14054698606546,80.02028201343533,9.71794142969884e-05,0.0891468673944473,0,0,0
7561,256580.8358730409,2010-09-24 15:04:20,4832.454479690843,2,23,0.5499359965324402,4.087142467498779,22.62322140034751,21.901706935109356,90.15928644223447,80.02028201343533,6.47544875391759e-05,0.0891468673944473,0,0,0
7562,256610.8511933532,2010-09-24 15:04:50,4862.469799988047,2,23,0.5497553944587708,4.090218544006348,22.62780784189718,21.901706935109356,90.17803923030888,80.02028201343533,9.71794142969884e-05,0.0891468673944473,0,0,0
7563,256640.86667569485,2010-09-24 15:05:20,4892.48528233475,2,23,0.5501165986061096,4.093132495880127,22.63239430655806,21.901706935109356,90.1968056982803,80.02028201343533,9.71794142969884e-05,0.0891468673944473,0,0,0
7564,256670.86675546435,2010-09-24 15:05:50,4922.485362114277,2,23,0.5501165986061096,4.096208095550537,22.636978448999702,21.901706935109356,90.2155764335312,80.02028201343533,9.70840483205393e-05,0.0891468673944473,0,0,0
7565,256700.8821525783,2010-09-24 15:06:20,4952.50075931344,2,23,0.5501165986061096,4.099445819854736,22.6415649532279,21.901706935109356,90.23437067600996,80.02028201343533,9.70840483205393e-05,0.0891468673944473,0,0,0
7566,256730.89701424068,2010-09-24 15:06:50,4982.515620890608,2,23,0.5499359965324402,4.102198123931885,22.646151391979416,21.901706935109356,90.25317862430536,80.02028201343533,6.47544875391759e-05,0.0891468673944473,0,0,0
7567,256760.91234285865,2010-09-24 15:07:20,5012.5309494885305,2,23,0.5499359965324402,4.105435848236084,22.650737837065247,21.901706935109356,90.27200068531344,80.02028201343533,6.47544875391759e-05,0.0891468673944473,0,0,0
7568,256790.9276883788,2010-09-24 15:07:50,5042.546295018719,2,23,0.5499359965324402,4.108511447906494,22.65532426326303,21.901706935109356,90.29083694058336,80.02028201343533,9.70840483205393e-05,0.0891468673944473,0,0,0
7569,256820.9430413977,2010-09-24 15:08:20,5072.561648027577,2,23,0.5499359965324402,4.111749172210693,22.659910644083265,21.901706935109356,90.30968739729124,80.02028201343533,9.70840483205393e-05,0.0891468673944473,0,0,0
7570,256850.9585448671,2010-09-24 15:08:50,5102.577151602269,2,23,0.5499359965324402,4.114663124084473,22.664497165315517,21.901706935109356,90.3285528674937,80.02028201343533,3.23295607813634e-05,0.0891468673944473,0,0,0
7571,256880.97411606563,2010-09-24 15:09:20,5132.592722725573,2,23,0.5501165986061096,4.118062496185303,22.66908361497807,21.901706935109356,90.34743261929395,80.02028201343533,9.70840483205393e-05,0.0891468673944473,0,0,0
7572,256910.9891077576,2010-09-24 15:09:50,5162.607714387451,2,23,0.5501165986061096,4.121138572692871,22.67367000503605,21.901706935109356,90.36632687428508,80.02028201343533,6.47544875391759e-05,0.0891468673944473,0,0,0
7573,256941.0046061393,2010-09-24 15:10:20,5192.623212769182,2,23,0.5501165986061096,4.124537944793701,22.67825657635392,21.901706935109356,90.38523666848992,80.02028201343533,6.47544875391759e-05,0.0891468673944473,0,0,0
7574,256971.01979978036,2010-09-24 15:10:50,5222.638406420257,2,23,0.5499359965324402,4.1276140213012695,22.682843140692302,21.901706935109356,90.40416140290992,80.02028201343533,6.47544875391759e-05,0.0891468673944473,0,0,0
7575,257001.03514323532,2010-09-24 15:11:20,5252.653749890304,2,23,0.5501165986061096,4.1310133934021,22.687429714516345,21.901706935109356,90.42310118573614,80.02028201343533,9.70840483205393e-05,0.0891468673944473,0,0,0
7576,257031.0504930663,2010-09-24 15:11:50,5282.669099811453,2,23,0.5499359965324402,4.134251117706299,22.692016308262627,21.901706935109356,90.4420562440388,80.02028201343533,6.47544875391759e-05,0.0891468673944473,0,0,0
7577,257061.06584804005,2010-09-24 15:12:20,5312.684454694988,2,23,0.5501165986061096,4.137650966644287,22.69660290044373,21.901706935109356,90.46102658843752,80.02028201343533,9.71794142969884e-05,0.0891468673944473,0,0,0
7578,257091.08124817652,2010-09-24 15:12:50,5342.6998548114325,2,23,0.5501165986061096,4.141050338745117,22.70118946379645,21.901706935109356,90.48001224108634,80.02028201343533,9.70840483205393e-05,0.0891468673944473,0,0,0
7579,257121.0965870451,2010-09-24 15:13:20,5372.715193685006,2,23,0.5499359965324402,4.1444501876831055,22.705776085004548,21.901706935109356,90.49901369223534,80.02028201343533,3.24249267578125e-05,0.0891468673944473,0,0,0
7580,257151.11196032452,2010-09-24 15:13:50,5402.730566989524,2,23,0.5501165986061096,4.148011684417725,22.710362633667955,21.901706935109356,90.518030854159,80.02028201343533,6.47544875391759e-05,0.0891468673944473,0,0,0
7581,257181.12732451636,2010-09-24 15:14:20,5432.745931146207,2,23,0.5499359965324402,4.151411056518555,22.714949162530537,21.901706935109356,90.53706374453743,80.02028201343533,6.47544875391759e-05,0.0891468673944473,0,0,0
7582,257211.1426538962,2010-09-24 15:14:50,5462.761260536107,2,23,0.5501165986061096,4.154810905456543,22.719535790306857,21.901706935109356,90.55611301391583,80.02028201343533,6.47544875391759e-05,0.0891468673944473,0,0,0
7583,257241.1579865994,2010-09-24 15:15:20,5492.776593229253,2,23,0.5501165986061096,4.158534049987793,22.72412232147008,21.901706935109356,90.57517787721468,80.02028201343533,9.70840483205393e-05,0.0891468673944473,0,0,0
7584,257271.1733345857,2010-09-24 15:15:50,5522.7919412155725,2,23,0.5501165986061096,4.162095546722412,22.728708904284943,21.901706935109356,90.59425909005536,80.02028201343533,0.0001295089750783,0.0891468673944473,0,0,0
7585,257301.18870869724,2010-09-24 15:16:20,5552.807315327105,2,23,0.5501165986061096,4.1654953956604,22.73329542148537,21.901706935109356,90.613356290656,80.02028201343533,6.47544875391759e-05,0.0891468673944473,0,0,0
7586,257331.20428335937,2010-09-24 15:16:50,5582.822889989242,2,23,0.550297200679779,4.16905689239502,22.73788198568323,21.901706935109356,90.63247006166236,80.02028201343533,6.47544875391759e-05,0.0891468673944473,0,0,0
7587,257361.21937857973,2010-09-24 15:17:20,5612.837985219644,2,23,0.5501165986061096,4.1727800369262695,22.742468506849537,21.901706935109356,90.65160017077,80.02028201343533,9.70840483205393e-05,0.0891468673944473,0,0,0
7588,257391.23473861613,2010-09-24 15:17:50,5642.853345246018,2,23,0.5501165986061096,4.176341533660889,22.74705494145172,21.901706935109356,90.670746564895,80.02028201343533,9.70840483205393e-05,0.0891468673944473,0,0,0
7589,257421.2500869383,2010-09-24 15:18:20,5672.8686935731885,2,23,0.5501165986061096,4.179903030395508,22.751641383275256,21.901706935109356,90.68990975329712,80.02028201343533,6.47544875391759e-05,0.0891468673944473,0,0,0
7590,257451.2654539972,2010-09-24 15:18:50,5702.884060627104,2,23,0.5501165986061096,4.183788299560547,22.756227771138377,21.901706935109356,90.70908962264951,80.02028201343533,9.70840483205393e-05,0.0891468673944473,0,0,0
7591,257481.28078950732,2010-09-24 15:19:20,5732.899396147306,2,23,0.5499359965324402,4.187349796295166,22.760814231961938,21.901706935109356,90.72828682527772,80.02028201343533,6.47544875391759e-05,0.0891468673944473,0,0,0
7592,257511.2961571077,2010-09-24 15:19:50,5762.91476373756,2,23,0.5501165986061096,4.191235065460205,22.7654008229993,21.901706935109356,90.7475016336438,80.02028201343533,0.0001295089750783,0.0891468673944473,0,0,0
7593,257541.31151973057,2010-09-24 15:20:21,5792.930126360416,2,23,0.5501165986061096,4.194958209991455,22.769987359232825,21.901706935109356,90.7667335372404,80.02028201343533,9.70840483205393e-05,0.0891468673944473,0,0,0
7594,257571.3268910601,2010-09-24 15:20:51,5822.945497720079,2,23,0.5501165986061096,4.198681831359863,22.774573925730916,21.901706935109356,90.78598291518028,80.02028201343533,6.47544875391759e-05,0.0891468673944473,0,0,0
7595,257580.48304385613,2010-09-24 15:21:00,5832.101650486022,2,23,0.550297200679779,4.200138568878174,22.77597307933913,21.901706935109356,90.79185853687768,80.02028201343533,0.0001295089750783,0.0891468673944473,0,0,0
7596,257610.4939365736,2010-09-24 15:21:30,30.015356758215702,3,23,0.0,4.121462345123291,22.77597307933913,21.901706935109356,90.79185853687768,80.02028201343533,-0.0003561019839253,0.0891468673944473,0,0,0
7597,257640.50931379796,2010-09-24 15:22:00,60.03073408778065,3,23,0.0,4.111749172210693,22.77597307933913,21.901706935109356,90.79185853687768,80.02028201343533,-0.0001619339018361,0.0891468673944473,0,0,0
7598,257670.5246743055,2010-09-24 15:22:30,90.04609452016767,3,23,0.0,4.106083393096924,22.77597307933913,21.901706935109356,90.79185853687768,80.02028201343533,-9.70840483205393e-05,0.0891468673944473,0,0,0
7599,257700.4931395052,2010-09-24 15:23:00,120.01455971983911,3,23,0.0,4.102198123931885,22.77597307933913,21.901706935109356,90.79185853687768,80.02028201343533,-0.0001295089750783,0.0891468673944473,0,0,0
7600,257730.5017646906,2010-09-24 15:23:30,30.015398702916126,5,23,0.0,4.099931716918945,22.775973079339256,21.901706935109356,90.79185853687817,80.02028201343533,-9.70840483205393e-05,0.0891468673944473,0,0,0
7601,257760.50145524857,2010-09-24 15:24:00,60.01508925587332,5,23,0.0,4.098150730133057,22.775973079339256,21.901706935109356,90.79185853687817,80.02028201343533,0.0,0.0891468673944473,0,0,0
7602,257760.6860532067,2010-09-24 15:24:00,0.187437126905237,6,23,-1.9243103452026844e-05,4.098312854766846,22.775973079339256,21.90170693611126,90.79185853687817,80.02028201754146,0.0,0.090522177517414,0,0,0
7603,257765.51423077573,2010-09-24 15:24:05,5.015614796164272,6,23,0.0005225847125984,4.097989082336426,22.77597382842941,21.901706936195684,90.79186160676528,80.02028201788745,-9.70840483205393e-05,0.090522177517414,0,0,0
7604,257795.52665042103,2010-09-24 15:24:35,30.01536800629263,7,23,-1.099929690361023,3.940797805786133,22.77597382842941,21.91087639754287,90.79186160676528,80.05658847595267,-0.0008094310760498,0.090522177517414,0,0,0
7605,257825.54223210577,2010-09-24 15:25:05,60.030949721034425,7,23,-1.0997490882873535,3.918295621871948,22.77597382842941,21.920045940733672,90.79186160676528,80.09261235002064,-0.0004856586456298,0.090522177517414,0,0,0
7606,257855.557353316,2010-09-24 15:25:35,90.04607090121111,7,23,-1.0997490882873535,3.902754783630371,22.77597382842941,21.92921529331908,90.79186160676528,80.12846534823943,-0.0003561496851034,0.090522177517414,0,0,0
7607,257885.5727072872,2010-09-24 15:26:05,120.06142487247013,7,23,-1.099568486213684,3.890775203704834,22.77597382842941,21.93838472655964,90.79186160676528,80.1641940217626,-0.0002913951757363,0.090522177517414,0,0,0
7608,257915.5880576545,2010-09-24 15:26:35,150.07677523973302,7,23,-1.0997490882873535,3.880414485931397,22.77597382842941,21.947554119417717,90.79186160676528,80.19982059703243,-0.0002266406954731,0.090522177517414,0,0,0
7609,257945.60344936492,2010-09-24 15:27:05,180.09216698026998,7,23,-1.0997490882873535,3.8710250854492183,22.77597382842941,21.95672353335572,90.79186160676528,80.23535726289903,-0.0002266406954731,0.090522177517414,0,0,0
7610,257975.6189193157,2010-09-24 15:27:35,210.10763690095663,7,23,-1.099929690361023,3.862121343612671,22.77597382842941,21.965892963857385,90.79186160676528,80.27081138542147,-0.0002590179501567,0.090522177517414,0,0,0
7611,258005.63413074115,2010-09-24 15:28:05,240.12284833141183,7,23,-1.0997490882873535,3.853865146636963,22.77597382842941,21.97506229432328,90.79186160676528,80.30618730900272,-0.0002266406954731,0.090522177517414,0,0,0
7612,258035.64946783028,2010-09-24 15:28:36,270.13818553581825,7,23,-1.0997490882873535,3.8460946083068848,22.77597382842941,21.9842316579854,90.79186160676528,80.34148934722057,-0.0002266406954731,0.090522177517414,0,0,0
7613,258065.6648268792,2010-09-24 15:29:06,300.15354447447663,7,23,-1.099929690361023,3.8384859561920166,22.77597382842941,21.993401067110483,90.79186160676528,80.37672036666797,-0.0001618862152099,0.090522177517414,0,0,0
7614,258095.6801727252,2010-09-24 15:29:36,330.1688903104288,7,23,-1.0997490882873535,3.8310394287109375,22.77597382842941,22.00257050136679,90.79186160676528,80.41188243111692,-0.0001942634553415,0.090522177517414,0,0,0
7615,258125.69590969247,2010-09-24 15:30:06,360.1846274130425,7,23,-1.0997490882873535,3.823754549026489,22.77597382842941,22.011739965225352,90.79186160676528,80.44697764902546,-0.0001942634553415,0.090522177517414,0,0,0
7616,258155.7110338701,2010-09-24 15:30:36,390.1997514653887,7,23,-1.0997490882873535,3.816793441772461,22.77597382842941,22.02090926672048,90.79186160676528,80.48200661017424,-0.0001618862152099,0.090522177517414,0,0,0
7617,258185.72625854364,2010-09-24 15:31:06,420.21497613388806,7,23,-1.0997490882873535,3.8098323345184326,22.77597382842941,22.030078697231385,90.79186160676528,80.51697200916216,-0.0001942634553415,0.090522177517414,0,0,0
7618,258215.74160520663,2010-09-24 15:31:36,450.2303227969046,7,23,-1.0997490882873535,3.802871227264404,22.77597382842941,22.039248072467604,90.79186160676528,80.55187429655521,-0.0002266406954731,0.090522177517414,0,0,0
7619,258245.75695920296,2010-09-24 15:32:06,480.24567679322615,7,23,-1.0997490882873535,3.796395778656006,22.77597382842941,22.048417424932,90.79186160676528,80.5867149610834,-0.0001942634553415,0.090522177517414,0,0,0
7620,258275.7723162469,2010-09-24 15:32:36,510.26103392738025,7,23,-1.099929690361023,3.789920330047608,22.77597382842941,22.05758686878483,90.79186160676528,80.62149577595538,-0.0001942634553415,0.090522177517414,0,0,0
7621,258305.78769008777,2010-09-24 15:33:06,540.2764076729992,7,23,-1.0997490882873535,3.783444881439209,22.77597382842941,22.06675624497241,90.79186160676528,80.656217357415,-0.0001942634553415,0.090522177517414,0,0,0
7622,258335.80302816932,2010-09-24 15:33:36,570.2917457545951,7,23,-1.0997490882873535,3.777131319046021,22.77597382842941,22.075925683347972,90.79186160676528,80.69088122276166,-0.0001942634553415,0.090522177517414,0,0,0
7623,258365.81840756407,2010-09-24 15:34:06,600.30712517939,7,23,-1.0997490882873535,3.771141529083252,22.77597382842941,22.08509514159997,90.79186160676528,80.72548822155176,-0.0001618862152099,0.090522177517414,0,0,0
7624,258395.83387489832,2010-09-24 15:34:36,630.3225925787832,7,23,-1.0997490882873535,3.7649898529052734,22.77597382842941,22.09426456880126,90.79186160676528,80.76003895454629,-0.0001618862152099,0.090522177517414,0,0,0
7625,258425.8490782737,2010-09-24 15:35:06,660.3377958588939,7,23,-1.099929690361023,3.759161949157715,22.77597382842941,22.103434233046936,90.79186160676528,80.79453554056914,-0.0001295089750783,0.090522177517414,0,0,0
7626,258455.86441774876,2010-09-24 15:35:36,690.3531353439934,7,23,-1.099929690361023,3.7531721591949454,22.77597382842941,22.112604411815173,90.79186160676528,80.82897997976505,-0.0001942634553415,0.090522177517414,0,0,0
7627,258485.87976756465,2010-09-24 15:36:06,720.368485169905,7,23,-1.099929690361023,3.7475063800811768,22.77597382842941,22.12177450146798,90.79186160676528,80.86337106337535,-0.0001295089750783,0.090522177517414,0,0,0
7628,258515.8951196211,2010-09-24 15:36:36,750.3838372364092,7,23,-1.099929690361023,3.741840362548828,22.77597382842941,22.13094492733289,90.79186160676528,80.89771157505955,-0.0001942634553415,0.090522177517414,0,0,0
7629,258545.9106172359,2010-09-24 15:37:06,780.3993348512248,7,23,-1.099929690361023,3.7363362312316895,22.77597382842941,22.1401152995976,90.79186160676528,80.93200085713354,-0.0001618862152099,0.090522177517414,0,0,0
7630,258575.92585229533,2010-09-24 15:37:36,810.4145699106616,7,23,-1.099929690361023,3.7309939861297607,22.77597382842941,22.14928566997934,90.79186160676528,80.96623986857786,-0.0001295089750783,0.090522177517414,0,0,0
7631,258605.94121149965,2010-09-24 15:38:06,840.4299291149832,7,23,-1.099568486213684,3.725813627243042,22.77597382842941,22.158455708041235,90.79186160676528,81.00042868368578,-0.0001295089750783,0.090522177517414,0,0,0
7632,258635.9566916459,2010-09-24 15:38:36,870.4454092311192,7,23,-1.099568486213684,3.7206332683563232,22.77597382842941,22.16762500551893,90.79186160676528,81.03456693362708,-9.713172767078504e-05,0.090522177517414,0,0,0
7633,258665.97192933687,2010-09-24 15:39:06,900.4606469221249,7,23,-1.0997490882873535,3.715452909469605,22.77597382842941,22.176794217404225,90.79186160676528,81.06865748226103,-0.0001295089750783,0.090522177517414,0,0,0
7634,258695.98742488152,2010-09-24 15:39:36,930.4761424767978,7,23,-1.099929690361023,3.710434436798096,22.77597382842941,22.185963520928443,90.79186160676528,81.10270173638524,-0.0001295089750783,0.090522177517414,0,0,0
7635,258726.00263713405,2010-09-24 15:40:06,960.4913547343176,7,23,-1.0997490882873535,3.705415964126587,22.77597382842941,22.19513266717967,90.79186160676528,81.13669941807727,-0.0001295089750783,0.090522177517414,0,0,0
7636,258756.01799403763,2010-09-24 15:40:36,990.5067116378962,7,23,-1.0997490882873535,3.700397491455078,22.77597382842941,22.204301877406063,90.79186160676528,81.1706523311153,-0.0001295089750783,0.090522177517414,0,0,0
7637,258786.03339427937,2010-09-24 15:41:06,1020.5221118746408,7,23,-1.0997490882873535,3.695702791213989,22.77597382842941,22.21347107124901,90.79186160676528,81.20456110255972,-0.0001295089750783,0.090522177517414,0,0,0
7638,258816.0487439148,2010-09-24 15:41:36,1050.537461500052,7,23,-1.0997490882873535,3.691008090972901,22.77597382842941,22.22264035339355,90.79186160676528,81.23842666603969,-0.0001295089750783,0.090522177517414,0,0,0
7639,258846.0641943268,2010-09-24 15:42:06,1080.5529119371045,7,23,-1.0997490882873535,3.686313390731812,22.77597382842941,22.231809611458107,90.79186160676528,81.27224935829499,-0.0001618862152099,0.090522177517414,0,0,0
7640,258876.07942539125,2010-09-24 15:42:36,1110.5681429765068,7,23,-1.0997490882873535,3.681942462921143,22.77597382842941,22.24097884281217,90.79186160676528,81.30603034705189,-0.0001618862152099,0.090522177517414,0,0,0
7641,258906.0947977484,2010-09-24 15:43:06,1140.5835153336598,7,23,-1.0997490882873535,3.677409648895264,22.77597382842941,22.25014813979663,90.79186160676528,81.33977056889354,-0.0001295089750783,0.090522177517414,0,0,0
7642,258936.11027638084,2010-09-24 15:43:36,1170.5989939660924,7,23,-1.099568486213684,3.6732006072998047,22.77597382842941,22.259317418103297,90.79186160676528,81.37347069044263,-0.0001295089750783,0.090522177517414,0,0,0
7643,258966.12549825737,2010-09-24 15:44:06,1200.6142158426226,7,23,-1.0997490882873535,3.668991804122925,22.77597382842941,22.26848667575337,90.79186160676528,81.40713158132422,-9.713172767078504e-05,0.090522177517414,0,0,0
7644,258996.1409278173,2010-09-24 15:44:36,1230.6296455178503,7,23,-1.0997490882873535,3.664782762527466,22.77597382842941,22.27765589574067,90.79186160676528,81.44075395088694,-9.713172767078504e-05,0.090522177517414,0,0,0
7645,259026.15623979372,2010-09-24 15:45:06,1260.644957378996,7,23,-1.099568486213684,3.660735607147217,22.77597382842941,22.28682516729717,90.79186160676528,81.47433881858339,-9.713172767078504e-05,0.090522177517414,0,0,0
7646,259056.171582938,2010-09-24 15:45:36,1290.6603006034293,7,23,-1.099568486213684,3.6568503379821777,22.77597382842941,22.295994435599376,90.79186160676528,81.50788672071256,-9.713172767078504e-05,0.090522177517414,0,0,0
7647,259086.18706807663,2010-09-24 15:46:06,1320.675785671927,7,23,-1.0997490882873535,3.6528031826019287,22.77597382842941,22.30516368024601,90.79186160676528,81.54139854443277,-0.0001295089750783,0.090522177517414,0,0,0
7648,259116.20269661327,2010-09-24 15:46:36,1350.691414213556,7,23,-1.0997490882873535,3.6490797996521,22.77597382842941,22.314333022384137,90.79186160676528,81.57487527541167,-9.713172767078504e-05,0.090522177517414,0,0,0
7649,259146.21763479165,2010-09-24 15:47:06,1380.7063523768943,7,23,-1.0993878841400146,3.6453564167022714,22.77597382842941,22.32350142464601,90.79186160676528,81.60831350343504,-9.713172767078504e-05,0.090522177517414,0,0,0
7650,259176.2329778156,2010-09-24 15:47:36,1410.7216954008277,7,23,-1.099568486213684,3.6416330337524414,22.77597382842941,22.33266986582189,90.79186160676528,81.64171795501224,-9.713172767078504e-05,0.090522177517414,0,0,0
7651,259206.2483723732,2010-09-24 15:48:06,1440.7370899583962,7,23,-1.099568486213684,3.6380715370178223,22.77597382842941,22.34183843065551,90.79186160676528,81.67508965750935,-6.47544875391759e-05,0.090522177517414,0,0,0
7652,259236.26371513645,2010-09-24 15:48:36,1470.7524327216784,7,23,-1.0997490882873535,3.634510040283203,22.77597382842941,22.351006894203564,90.79186160676528,81.70842848722968,-9.713172767078504e-05,0.090522177517414,0,0,0
7653,259266.27908932816,2010-09-24 15:49:06,1500.7678069134108,7,23,-1.099568486213684,3.631110429763794,22.77597382842941,22.36017534143718,90.79186160676528,81.74173540947561,-6.47544875391759e-05,0.090522177517414,0,0,0
7654,259296.29465082745,2010-09-24 15:49:36,1530.7833684126915,7,23,-1.099568486213684,3.6277108192443848,22.77597382842941,22.36934381798483,90.79186160676528,81.77501143723381,-6.47544875391759e-05,0.090522177517414,0,0,0
7655,259326.30981599243,2010-09-24 15:50:06,1560.7985335776614,7,23,-1.0997490882873535,3.624634981155396,22.77597382842941,22.378512597296652,90.79186160676528,81.80825820695625,-6.47544875391759e-05,0.090522177517414,0,0,0
7656,259356.325289883,2010-09-24 15:50:36,1590.8140074682574,7,23,-1.099929690361023,3.6212353706359854,22.77597382842941,22.38768175375676,90.79186160676528,81.84147676889505,-9.713172767078504e-05,0.090522177517414,0,0,0
7657,259386.34050487736,2010-09-24 15:51:06,1620.8292224876711,7,23,-1.099568486213684,3.618159532546997,22.77597382842941,22.39685081029285,90.79186160676528,81.87466575997483,-6.47544875391759e-05,0.090522177517414,0,0,0
7658,259416.35600355983,2010-09-24 15:51:36,1650.8447211450891,7,23,-1.099568486213684,3.614921808242798,22.77597382842941,22.40601999588496,90.79186160676528,81.9078264617724,-9.713172767078504e-05,0.090522177517414,0,0,0
7659,259446.37121589755,2010-09-24 15:52:06,1680.8599334828093,7,23,-1.0997490882873535,3.6120078563690186,22.77597382842941,22.41518912467014,90.79186160676528,81.94095903512317,-6.47544875391759e-05,0.090522177517414,0,0,0
7660,259476.3865801545,2010-09-24 15:52:36,1710.8752977698175,7,23,-1.099568486213684,3.609255790710449,22.77597382842941,22.424358286856364,90.79186160676528,81.97406435723137,0.0,0.090522177517414,0,0,0
7661,259506.4019830078,2010-09-24 15:53:06,1740.890700593019,7,23,-1.099568486213684,3.60634183883667,22.77597382842941,22.43352745106635,90.79186160676528,82.00714258550353,-3.237724376958795e-05,0.090522177517414,0,0,0
7662,259536.4173287585,2010-09-24 15:53:36,1770.9060464389956,7,23,-1.0997490882873535,3.603104114532471,22.77597382842941,22.442696581246384,90.79186160676528,82.04019384206543,-9.713172767078504e-05,0.090522177517414,0,0,0
7663,259566.432804614,2010-09-24 15:54:06,1800.921522209284,7,23,-1.0997490882873535,3.6003520488739014,22.77597382842941,22.45186575568453,90.79186160676528,82.07321863083305,-6.47544875391759e-05,0.090522177517414,0,0,0
7664,259596.4480343652,2010-09-24 15:54:36,1830.9367519504456,7,23,-1.099929690361023,3.597276210784912,22.77597382842941,22.46103482671573,90.79186160676528,82.10621642672108,-6.47544875391759e-05,0.090522177517414,0,0,0
7665,259626.4634308626,2010-09-24 15:55:06,1860.952148477932,7,23,-1.0997490882873535,3.594362258911133,22.77597382842941,22.47020395181315,90.79186160676528,82.13918759828381,-9.713172767078504e-05,0.090522177517414,0,0,0
7666,259656.478781681,2010-09-24 15:55:36,1890.9674992963205,7,23,-1.0997490882873535,3.5914485454559326,22.77597382842941,22.479373062441013,90.79186160676528,82.17213206657351,-6.47544875391759e-05,0.090522177517414,0,0,0
7667,259686.494112705,2010-09-24 15:56:06,1920.982830280199,7,23,-1.0997490882873535,3.5885345935821533,22.77597382842941,22.488542213416245,90.79186160676528,82.20504979142555,-9.713172767078504e-05,0.090522177517414,0,0,0
7668,259716.50947612984,2010-09-24 15:56:36,1950.998193725106,7,23,-1.099568486213684,3.585782527923584,22.77597382842941,22.49771132715867,90.79186160676528,82.23794046155469,-3.237724376958795e-05,0.090522177517414,0,0,0
7669,259746.52505534337,2010-09-24 15:57:06,1981.01377292858,7,23,-1.099929690361023,3.5825448036193848,22.77597382842941,22.506880437932388,90.79186160676528,82.27080395538334,-6.47544875391759e-05,0.090522177517414,0,0,0
7670,259776.54021454343,2010-09-24 15:57:36,2011.02893212866,7,23,-1.0997490882873535,3.5797927379608154,22.77597382842941,22.516049517376477,90.79186160676528,82.30363985340952,-3.237724376958795e-05,0.090522177517414,0,0,0
7671,259806.5555833517,2010-09-24 15:58:06,2041.0443009369544,7,23,-1.099568486213684,3.576555013656616,22.77597382842941,22.525218633575587,90.79186160676528,82.3364477383177,-6.47544875391759e-05,0.090522177517414,0,0,0
7672,259836.5710706558,2010-09-24 15:58:36,2071.0597882410325,7,23,-1.099568486213684,3.573479175567627,22.77597382842941,22.534387825211635,90.79186160676528,82.36922732675092,-6.47544875391759e-05,0.090522177517414,0,0,0
7673,259866.58630763,2010-09-24 15:59:06,2101.075025220261,7,23,-1.0997490882873535,3.570241451263428,22.77597382842941,22.54355691801769,90.79186160676528,82.40197763220623,-6.47544875391759e-05,0.090522177517414,0,0,0
7674,259896.6016621877,2010-09-24 15:59:36,2131.090379798034,7,23,-1.099929690361023,3.5668418407440186,22.77597382842941,22.55272610433392,90.79186160676528,82.4346984068387,-9.713172767078504e-05,0.090522177517414,0,0,0
7675,259926.61701041463,2010-09-24 16:00:06,2161.105727999892,7,23,-1.0997490882873535,3.5634422302246094,22.77597382842941,22.56189523349736,90.79186160676528,82.46738832772928,-0.0001295089750783,0.090522177517414,0,0,0
7676,259956.63237202,2010-09-24 16:00:37,2191.121089605206,7,23,-1.099568486213684,3.56020450592041,22.77597382842941,22.571064388215937,90.79186160676528,82.50004778435557,-6.47544875391759e-05,0.090522177517414,0,0,0
7677,259986.647750748,2010-09-24 16:01:07,2221.1364683332627,7,23,-1.0997490882873535,3.556481122970581,22.77597382842941,22.58023351011679,90.79186160676528,82.53267491837993,-0.0001295089750783,0.090522177517414,0,0,0
7678,260016.66310514533,2010-09-24 16:01:37,2251.1518227355978,7,23,-1.0997490882873535,3.552919626235962,22.77597382842941,22.589402581113205,90.79186160676528,82.56526802763213,-6.47544875391759e-05,0.090522177517414,0,0,0
7679,260046.67860630903,2010-09-24 16:02:07,2281.167323894259,7,23,-1.0997490882873535,3.548872470855713,22.77597382842941,22.598571836885792,90.79186160676528,82.59782718363805,-9.713172767078504e-05,0.090522177517414,0,0,0
7680,260076.69383196492,2010-09-24 16:02:37,2311.1825495502235,7,23,-1.0997490882873535,3.544987201690674,22.77597382842941,22.607740939523246,90.79186160676528,82.63034952183703,-6.47544875391759e-05,0.090522177517414,0,0,0
7681,260106.70920448253,2010-09-24 16:03:07,2341.1979220677767,7,23,-1.0997490882873535,3.540778160095215,22.77597382842941,22.616910159586887,90.79186160676528,82.6628347532798,-9.713172767078504e-05,0.090522177517414,0,0,0
7682,260136.72454701524,2010-09-24 16:03:37,2371.213264600484,7,23,-1.1001102924346924,3.536407232284546,22.77597382842941,22.626079261052023,90.79186160676528,82.69528099729285,-0.0001618862152099,0.090522177517414,0,0,0
7683,260166.7399120241,2010-09-24 16:04:07,2401.228629609294,7,23,-1.099568486213684,3.532036304473877,22.77597382842941,22.63524846154786,90.79186160676528,82.72768755487833,-0.0001295089750783,0.090522177517414,0,0,0
7684,260196.75527479727,2010-09-24 16:04:37,2431.243992392549,7,23,-1.0997490882873535,3.527503490447998,22.77597382842941,22.64441766373772,90.79186160676528,82.76005297073891,-0.0001295089750783,0.090522177517414,0,0,0
7685,260226.7706499865,2010-09-24 16:05:07,2461.2593675717467,7,23,-1.0997490882873535,3.5224850177764893,22.77597382842941,22.653586855609124,90.79186160676528,82.79237498626041,-0.0001618862152099,0.090522177517414,0,0,0
7686,260256.78602113065,2010-09-24 16:05:37,2491.2747387459463,7,23,-1.0997490882873535,3.5174665451049805,22.77597382842941,22.662756025865328,90.79186160676528,82.8246509222751,-0.0001295089750783,0.090522177517414,0,0,0
7687,260286.80137199417,2010-09-24 16:06:07,2521.290089579373,7,23,-1.099929690361023,3.511638879776001,22.77597382842941,22.671925215443128,90.79186160676528,82.85687742164461,-0.0001942157687153,0.090522177517414,0,0,0
7688,260316.8168682455,2010-09-24 16:06:37,2551.305585926023,7,23,-1.099568486213684,3.5054872035980225,22.77597382842941,22.681094447531823,90.79186160676528,82.8890499711637,-0.0002266406954731,0.090522177517414,0,0,0
7689,260346.8321108388,2010-09-24 16:07:07,2581.320828424028,7,23,-1.0997490882873535,3.498687982559204,22.77597382842941,22.69026363072376,90.79186160676528,82.92116276046316,-0.0001942634553415,0.090522177517414,0,0,0
7690,260376.84745704065,2010-09-24 16:07:37,2611.336174625893,7,23,-1.0997490882873535,3.491241216659546,22.77597382842941,22.69943284667431,90.79186160676528,82.95320978742225,-0.0001942634553415,0.090522177517414,0,0,0
7691,260406.8628968261,2010-09-24 16:08:07,2641.351614621883,7,23,-1.0997490882873535,3.482499361038208,22.77597382842941,22.7086020401746,90.79186160676528,82.98518232705396,-0.0002590179501567,0.090522177517414,0,0,0
7692,260436.8781825821,2010-09-24 16:08:37,2671.366900167341,7,23,-1.0997490882873535,3.4724624156951904,22.77597382842941,22.717771145964083,90.79186160676528,83.0170685252713,-0.0002590179501567,0.090522177517414,0,0,0
7693,260466.89363401663,2010-09-24 16:09:07,2701.382351626946,7,23,-1.0997490882873535,3.4606447219848637,22.77597382842941,22.72694028356444,90.79186160676528,83.0488550898895,-0.0003237724304199,0.090522177517414,0,0,0
7694,260496.90891657968,2010-09-24 16:09:37,2731.397634174921,7,23,-1.099568486213684,3.446074962615967,22.77597382842941,22.73610941137612,90.79186160676528,83.08052179229655,-0.0004532813909463,0.090522177517414,0,0,0
7695,260526.92440733736,2010-09-24 16:10:07,2761.413124927608,7,23,-1.0997490882873535,3.4274582862854004,22.77597382842941,22.745278603595345,90.79186160676528,83.11203833313077,-0.0005827903514727,0.090522177517414,0,0,0
7696,260556.9396505471,2010-09-24 16:10:37,2791.4283681323764,7,23,-1.0997490882873535,3.4020421504974365,22.77597382842941,22.754447757206275,90.79186160676528,83.14335535064896,-0.0007770538213662,0.090522177517414,0,0,0
7697,260586.95502050832,2010-09-24 16:11:07,2821.4437380935487,7,23,-1.099568486213684,3.3654558658599854,22.77597382842941,22.763616964374084,90.79186160676528,83.1743923270109,-0.0011332035064697,0.090522177517414,0,0,0
7698,260616.97038093067,2010-09-24 16:11:37,2851.459098515911,7,23,-1.0997490882873535,3.3117098808288574,22.77597382842941,22.77278621235056,90.79186160676528,83.20501984804699,-0.0016836166614666,0.090522177517414,0,0,0
7699,260646.9857385159,2010-09-24 16:12:07,2881.474456101191,7,23,-1.1001102924346924,3.2335190773010254,22.77597382842941,22.78195539764026,90.79186160676528,83.23504989053943,-0.0024282932281494,0.090522177517414,0,0,0
7700,260677.00111587052,2010-09-24 16:12:37,2911.489833485893,7,23,-1.099929690361023,3.114694833755493,22.77597382842941,22.791124554715743,90.79186160676528,83.26419795337043,-0.003885269165039,0.090522177517414,0,0,0
7701,260703.4071461446,2010-09-24 16:13:03,2937.8958638300987,7,23,-1.0997490882873535,2.914442300796509,22.77597382842941,22.79919118002299,90.79186160676528,83.28864318313353,-0.0091950893402099,0.090522177517414,0,0,0
7702,260715.56326503755,2010-09-24 16:13:15,2950.05198262779,7,23,-1.0997490882873535,2.7138657569885254,22.77597382842941,22.802904634992096,90.79186160676528,83.29911854665569,-0.0147964004427194,0.090522177517414,0,0,0
7703,260716.3290320899,2010-09-24 16:13:16,2950.817749685176,7,23,-1.0997490882873535,2.699781894683838,22.77597382842941,22.803138569878303,90.79186160676528,83.29975184151769,-0.0147963520139455,0.090522177517414,0,0,0
7704,260776.3517286163,2010-09-24 16:14:16,60.0151155615363,8,23,0.0,3.330164909362793,22.77597382842941,22.803138569878303,90.79186160676528,83.29975184151769,0.0013922214275225,0.090522177517414,0,0,0
7705,260776.53196248208,2010-09-24 16:14:17,0.18762517630547,9,23,0.0003419754502829,3.3309743404388428,22.775973846252526,22.803138569878303,90.7918616661336,83.29975184151769,0.0,0.0906038731336593,0,0,0
7706,260781.3599531997,2010-09-24 16:14:21,5.015615898916912,9,23,0.0003419754502829,3.339068651199341,22.77597470087318,22.803138569878303,90.79186451648434,83.29975184151769,0.0012627125252038,0.0906038731336593,0,0,0
