Data_Point,Test_Time(s),Date_Time,Step_Time(s),Step_Index,Cycle_Index,Current(A),Voltage(V),Charge_Capacity(Ah),Discharge_Capacity(Ah),Charge_Energy(Wh),Discharge_Energy(Wh),dV/dt(V/s),Internal_Resistance(Ohm),Is_FC_Data,AC_Impedance(Ohm),ACI_Phase_Angle(Deg)
10802,365583.32197941234,2010-09-25 21:21:14,30.015265194658976,1,33,0.0,3.3638370037078857,31.90410035477053,31.94079463456537,127.12036169342296,116.84393393425412,0.0008741855854168,0.0889859497547149,0,0,0
10803,365613.3373862305,2010-09-25 21:21:44,60.03067198776947,1,33,0.0,3.39038634300232,31.90410035477053,31.94079463456537,127.12036169342296,116.84393393425412,0.0005827903514727,0.0889859497547149,0,0,0
10804,365643.3527742618,2010-09-25 21:22:14,90.04606003408507,1,33,0.0,3.4104602336883545,31.90410035477053,31.94079463456537,127.12036169342296,116.84393393425412,0.0004856586456298,0.0889859497547149,0,0,0
10805,365673.32133595226,2010-09-25 21:22:44,120.01462171458758,1,33,0.0,3.4263250827789307,31.90410035477053,31.94079463456537,127.12036169342296,116.84393393425412,0.0003885269106831,0.0889859497547149,0,0,0
10806,365703.3428655449,2010-09-25 21:23:14,30.01541263769949,2,33,0.550297200679779,3.5721840858459477,31.90868701650664,31.94079463456537,127.13658253831645,116.84393393425412,0.0016188621520996,0.0889859497547149,0,0,0
10807,365733.35849422193,2010-09-25 21:23:44,60.03104133471628,2,33,0.550297200679779,3.620264053344727,31.91327368772204,31.94079463456537,127.15308338410982,116.84393393425412,0.0011008263099938,0.0889859497547149,0,0,0
10808,365763.3736893115,2010-09-25 21:24:14,90.04623639430733,2,33,0.5501165986061096,3.655717134475708,31.917860373176698,31.94079463456537,127.16977332028844,116.84393393425412,0.0008418083307333,0.0889859497547149,0,0,0
10809,365793.38909294177,2010-09-25 21:24:44,120.06164003454778,2,33,0.550297200679779,3.683723211288452,31.92244699803805,31.94079463456537,127.18660722678652,116.84393393425412,0.0006799221155233,0.0889859497547149,0,0,0
10810,365823.4045225067,2010-09-25 21:25:14,150.07706958947526,2,33,0.5501165986061096,3.7067110538482666,31.927033669836124,31.94079463456537,127.20355746890245,116.84393393425412,0.0005827903514727,0.0889859497547149,0,0,0
10811,365853.41992732487,2010-09-25 21:25:44,180.09247441768105,2,33,0.5501165986061096,3.725813627243042,31.931620303833785,31.94079463456537,127.22060351679558,116.84393393425412,0.0004856586456298,0.0889859497547149,0,0,0
10812,365883.4353436519,2010-09-25 21:26:14,210.10789074458933,2,33,0.5501165986061096,3.7410309314727774,31.936206977987773,31.94079463456537,127.23772868469348,116.84393393425412,0.0003561496851034,0.0889859497547149,0,0,0
10813,365913.4507577783,2010-09-25 21:26:44,240.12330488102995,2,33,0.5501165986061096,3.7522010803222656,31.94079363040492,31.94079463456537,127.2549153386815,116.84393393425412,0.0002590179501567,0.0889859497547149,0,0,0
10814,365943.46614824055,2010-09-25 21:27:14,270.13869532332626,2,33,0.5499359965324402,3.758514404296875,31.94538029148842,31.94079463456537,127.27214181877515,116.84393393425412,0.0001295089750783,0.0889859497547149,0,0,0
10815,365973.48156483815,2010-09-25 21:27:44,300.1541119309353,2,33,0.5501165986061096,3.762723445892334,31.94996696611173,31.94079463456537,127.28939133316504,116.84393393425412,0.0001295089750783,0.0889859497547149,0,0,0
10816,366003.49696276913,2010-09-25 21:28:14,330.1695098619245,2,33,0.5501165986061096,3.765961170196533,31.95455363826865,31.94079463456537,127.30665736456297,116.84393393425412,9.713172767078504e-05,0.0889859497547149,0,0,0
10817,366033.51238985296,2010-09-25 21:28:44,360.1849369607212,2,33,0.5501165986061096,3.769198894500733,31.959140278715783,31.94079463456537,127.323938102938,116.84393393425412,9.713172767078504e-05,0.0889859497547149,0,0,0
10818,366063.5281766997,2010-09-25 21:29:14,390.2007237924665,2,33,0.5501165986061096,3.772436618804932,31.96372693954421,31.94079463456537,127.34123334362218,116.84393393425412,9.713172767078504e-05,0.0889859497547149,0,0,0
10819,366093.543335193,2010-09-25 21:29:44,420.2158822757576,2,33,0.5501165986061096,3.775512456893921,31.96831352329671,31.94079463456537,127.35854262417187,116.84393393425412,9.713172767078504e-05,0.0889859497547149,0,0,0
10820,366123.5586071495,2010-09-25 21:30:14,450.23115424232026,2,33,0.5501165986061096,3.7784264087677,31.97290010334083,31.94079463456537,127.3758659276434,116.84393393425412,9.713172767078504e-05,0.0889859497547149,0,0,0
10821,366153.5740055317,2010-09-25 21:30:44,480.2465526244357,2,33,0.5501165986061096,3.78134036064148,31.977486755784778,31.94079463456537,127.39320332417456,116.84393393425412,3.237724376958795e-05,0.0889859497547149,0,0,0
10822,366183.5895436376,2010-09-25 21:31:14,510.262090730323,2,33,0.5501165986061096,3.784578084945679,31.982073348174787,31.94079463456537,127.41055398185006,116.84393393425412,0.0001295089750783,0.0889859497547149,0,0,0
10823,366213.6049185511,2010-09-25 21:31:44,540.2774656438571,2,33,0.550297200679779,3.787168264389038,31.98666004895492,31.94079463456537,127.42791841354445,116.84393393425412,3.237724376958795e-05,0.0889859497547149,0,0,0
10824,366243.62026188587,2010-09-25 21:32:14,570.2928089685407,2,33,0.5501165986061096,3.789920330047608,31.991246699895896,31.94079463456537,127.4452958149212,116.84393393425412,3.237724376958795e-05,0.0889859497547149,0,0,0
10825,366273.6356520775,2010-09-25 21:32:44,600.3081991702364,2,33,0.5501165986061096,3.7929961681365967,31.995833363478,31.94079463456537,127.46268626052688,116.84393393425412,9.713172767078504e-05,0.0889859497547149,0,0,0
10826,366303.65123067953,2010-09-25 21:33:14,630.323777857421,2,33,0.550297200679779,3.795910120010376,32.00042009496276,31.94079463456537,127.48008997267928,116.84393393425412,6.47544875391759e-05,0.0889859497547149,0,0,0
10827,366333.6664884506,2010-09-25 21:33:44,660.339035543337,2,33,0.5499359965324402,3.798500299453736,32.00500677067247,31.94079463456537,127.49750646248408,116.84393393425412,3.237724376958795e-05,0.0889859497547149,0,0,0
10828,366363.6818820958,2010-09-25 21:34:14,690.3544291886286,2,33,0.5499359965324402,3.801414251327514,32.00959349233239,31.94079463456537,127.51493626537004,116.84393393425412,6.47544875391759e-05,0.0889859497547149,0,0,0
10829,366393.6972883025,2010-09-25 21:34:44,720.3698353902627,2,33,0.550297200679779,3.804651975631714,32.01418014495542,31.94079463456537,127.53237904960702,116.84393393425412,9.713172767078504e-05,0.0889859497547149,0,0,0
10830,366423.7126975266,2010-09-25 21:35:14,750.3852446194539,2,33,0.5501165986061096,3.807404041290283,32.018766873994586,31.94079463456537,127.54983586291436,116.84393393425412,6.47544875391759e-05,0.0889859497547149,0,0,0
10831,366453.7289735045,2010-09-25 21:35:44,780.4015205971829,2,33,0.5501165986061096,3.8106417655944815,32.023353724920945,31.94079463456537,127.5673072730753,116.84393393425412,9.713172767078504e-05,0.0889859497547149,0,0,0
10832,366483.7435595188,2010-09-25 21:36:14,810.4161066115033,2,33,0.5501165986061096,3.814041376113892,32.02794028086601,31.94079463456537,127.58479228716484,116.84393393425412,0.0001295089750783,0.0889859497547149,0,0,0
10833,366513.7589842567,2010-09-25 21:36:44,840.4315313443944,2,33,0.5501165986061096,3.817279100418091,32.032526986040146,31.94079463456537,127.60229326795344,116.84393393425412,9.713172767078504e-05,0.0889859497547149,0,0,0
10834,366543.774339441,2010-09-25 21:37:14,870.4468865286813,2,33,0.5499359965324402,3.82051682472229,32.03711371236526,31.94079463456537,127.6198098822804,116.84393393425412,6.47544875391759e-05,0.0889859497547149,0,0,0
10835,366573.78979320126,2010-09-25 21:37:44,900.4623411411561,2,33,0.5501165986061096,3.824078321456909,32.04170038783755,31.94079463456537,127.63734199040324,116.84393393425412,9.713172767078504e-05,0.0889859497547149,0,0,0
10836,366603.8051664256,2010-09-25 21:38:14,930.4777135183592,2,33,0.5501165986061096,3.8274779319763184,32.04628707873375,31.94079463456537,127.6548899129918,116.84393393425412,9.713172767078504e-05,0.0889859497547149,0,0,0
10837,366633.8205668578,2010-09-25 21:38:44,960.493113950592,2,33,0.5501165986061096,3.830877542495728,32.05087380629999,31.94079463456537,127.67245352490524,116.84393393425412,6.47544875391759e-05,0.0889859497547149,0,0,0
10838,366663.8360966278,2010-09-25 21:39:14,990.508643740722,2,33,0.5501165986061096,3.8342769145965576,32.0554605124808,31.94079463456537,127.69003227422412,116.84393393425412,9.713172767078504e-05,0.0889859497547149,0,0,0
10839,366693.85158420267,2010-09-25 21:39:44,1020.5241312854008,2,33,0.5501165986061096,3.837514638900757,32.06004717942167,31.94079463456537,127.70762584282488,116.84393393425412,9.713172767078504e-05,0.0889859497547149,0,0,0
10840,366723.8667802849,2010-09-25 21:40:14,1050.5393273725567,2,33,0.5501165986061096,3.840590476989746,32.06463376493631,31.94079463456537,127.72523373661444,116.84393393425412,6.47544875391759e-05,0.0889859497547149,0,0,0
10841,366753.88218539365,2010-09-25 21:40:44,1080.5547324965007,2,33,0.5501165986061096,3.843666315078736,32.06922040872486,31.94079463456537,127.742856228584,116.84393393425412,6.47544875391759e-05,0.0889859497547149,0,0,0
10842,366783.89775230153,2010-09-25 21:41:14,1110.5702993892448,2,33,0.5499359965324402,3.8467421531677246,32.0738070857811,31.94079463456537,127.76049298385058,116.84393393425412,9.713172767078504e-05,0.0889859497547149,0,0,0
10843,366813.9130287392,2010-09-25 21:41:44,1140.5855758219557,2,33,0.5501165986061096,3.849494218826294,32.07839379145449,31.94079463456537,127.77814364794632,116.84393393425412,6.47544875391759e-05,0.0889859497547149,0,0,0
10844,366843.9284315925,2010-09-25 21:42:14,1170.6009786752315,2,33,0.5501165986061096,3.852570056915283,32.08298050226314,31.94079463456537,127.79580762761512,116.84393393425412,9.713172767078504e-05,0.0889859497547149,0,0,0
10845,366873.9439312274,2010-09-25 21:42:44,1200.6164784253772,2,33,0.5501165986061096,3.8551602363586426,32.087567279691044,31.94079463456537,127.81348456178443,116.84393393425412,3.237724376958795e-05,0.0889859497547149,0,0,0
10846,366903.9592379306,2010-09-25 21:43:15,1230.6317850233852,2,33,0.5501165986061096,3.857750415802002,32.09215404206735,31.94079463456537,127.8311736632721,116.84393393425412,6.47544875391759e-05,0.0889859497547149,0,0,0
10847,366933.9746866183,2010-09-25 21:43:45,1260.6472337010462,2,33,0.5501165986061096,3.860178709030152,32.09674078551018,31.94079463456537,127.8488742106914,116.84393393425412,3.237724376958795e-05,0.0889859497547149,0,0,0
10848,366963.990059161,2010-09-25 21:44:15,1290.6626062486746,2,33,0.5499359965324402,3.862607002258301,32.10132750199612,31.94079463456537,127.86658558162038,116.84393393425412,6.47544875391759e-05,0.0889859497547149,0,0,0
10849,366994.0054705606,2010-09-25 21:44:45,1320.678017643271,2,33,0.5501165986061096,3.8647115230560303,32.10591424234837,31.94079463456537,127.8843072700442,116.84393393425412,6.47544875391759e-05,0.0889859497547149,0,0,0
10850,367024.02087254665,2010-09-25 21:45:15,1350.6934196394077,2,33,0.5501165986061096,3.86681604385376,32.110500933949325,31.94079463456537,127.90203844308223,116.84393393425412,6.47544875391759e-05,0.0889859497547149,0,0,0
10851,367054.0363280413,2010-09-25 21:45:45,1380.70887522431,2,33,0.5501165986061096,3.8687586784362793,32.115087710413086,31.94079463456537,127.919779006655,116.84393393425412,6.47544875391759e-05,0.0889859497547149,0,0,0
10852,367084.0517344234,2010-09-25 21:46:15,1410.7242815111565,2,33,0.5501165986061096,3.870539426803589,32.11967445716087,31.94079463456537,127.93752783267148,116.84393393425412,6.47544875391759e-05,0.0889859497547149,0,0,0
10853,367114.06711307634,2010-09-25 21:46:45,1440.7396601690373,2,33,0.550297200679779,3.872158288955689,32.124261305973405,31.94079463456537,127.95528494667114,116.84393393425412,6.47544875391759e-05,0.0889859497547149,0,0,0
10854,367144.082536551,2010-09-25 21:47:15,1470.7550837290005,2,33,0.5499359965324402,3.873615264892578,32.1288481378873,31.94079463456537,127.97304935676704,116.84393393425412,0.0,0.0889859497547149,0,0,0
10855,367174.097942046,2010-09-25 21:47:45,1500.7704891286328,2,33,0.550297200679779,3.8752341270446777,32.133434876486554,31.94079463456537,127.9908200844223,116.84393393425412,9.713172767078504e-05,0.0889859497547149,0,0,0
10856,367204.11333472375,2010-09-25 21:48:15,1530.7858818065092,2,33,0.5501165986061096,3.876367330551148,32.13802164654762,31.94079463456537,128.00859742177292,116.84393393425412,0.0,0.0889859497547149,0,0,0
10857,367234.1288706442,2010-09-25 21:48:45,1560.8014177369664,2,33,0.5499359965324402,3.877662420272827,32.14260840281625,31.94079463456537,128.02638081553215,116.84393393425412,0.0,0.0889859497547149,0,0,0
10858,367264.1442971866,2010-09-25 21:49:15,1590.8168442693493,2,33,0.5501165986061096,3.879119396209717,32.147195079300445,31.94079463456537,128.04416982311565,116.84393393425412,6.47544875391759e-05,0.0889859497547149,0,0,0
10859,367294.1597351024,2010-09-25 21:49:45,1620.8322822001844,2,33,0.5501165986061096,3.880414485931397,32.15178185946208,31.94079463456537,128.06196487695507,116.84393393425412,6.47544875391759e-05,0.0889859497547149,0,0,0
10860,367324.17511233175,2010-09-25 21:50:15,1650.847659419474,2,33,0.5499359965324402,3.881385803222656,32.156368567120204,31.94079463456537,128.07976524718345,116.84393393425412,6.47544875391759e-05,0.0889859497547149,0,0,0
10861,367354.1903843033,2010-09-25 21:50:45,1680.8629313860367,2,33,0.5501165986061096,3.882680892944336,32.16095531127607,31.94079463456537,128.0975712128594,116.84393393425412,3.237724376958795e-05,0.0889859497547149,0,0,0
10862,367384.20580275054,2010-09-25 21:51:15,1710.8783498332375,2,33,0.5504778623580933,3.8841378688812256,32.16554205149153,31.94079463456537,128.11538263132323,116.84393393425412,9.713172767078504e-05,0.0889859497547149,0,0,0
10863,367414.2212167266,2010-09-25 21:51:45,1740.8937638092775,2,33,0.5499359965324402,3.8849472999572754,32.17012877487144,31.94079463456537,128.13319925444378,116.84393393425412,3.237724376958795e-05,0.0889859497547149,0,0,0
10864,367444.2366195999,2010-09-25 21:52:15,1770.909166682604,2,33,0.550297200679779,3.886242389678955,32.17471550268294,31.94079463456537,128.15102127972636,116.84393393425412,3.237724376958795e-05,0.0889859497547149,0,0,0
10865,367474.25203798193,2010-09-25 21:52:45,1800.924585064642,2,33,0.5501165986061096,3.887213706970215,32.17930220927203,31.94079463456537,128.1688485438116,116.84393393425412,3.237724376958795e-05,0.0889859497547149,0,0,0
10866,367504.2676054912,2010-09-25 21:53:15,1830.9401525789376,2,33,0.5501165986061096,3.8885087966918954,32.18388899190617,31.94079463456537,128.18668145787345,116.84393393425412,0.0,0.0889859497547149,0,0,0
10867,367534.2828560643,2010-09-25 21:53:45,1860.9554031470864,2,33,0.5501165986061096,3.8894801139831534,32.18847573052506,31.94079463456537,128.2045195623574,116.84393393425412,-3.237724376958795e-05,0.0889859497547149,0,0,0
10868,367564.2983081806,2010-09-25 21:54:15,1890.970855273356,2,33,0.5501165986061096,3.890775203704834,32.19306258090332,31.94079463456537,128.22236341909493,116.84393393425412,0.0,0.0889859497547149,0,0,0
10869,367594.3137667579,2010-09-25 21:54:45,1920.98631393594,2,33,0.5501165986061096,3.8920702934265137,32.19764941117256,31.94079463456537,128.2402125784089,116.84393393425412,3.237724376958795e-05,0.0889859497547149,0,0,0
10870,367624.3290839825,2010-09-25 21:55:15,1951.001631075261,2,33,0.550297200679779,3.893365383148194,32.20223621483244,31.94079463456537,128.25806705088883,116.84393393425412,6.47544875391759e-05,0.0889859497547149,0,0,0
10871,367654.3447996416,2010-09-25 21:55:45,1981.0173467243235,2,33,0.550297200679779,3.894498586654663,32.20682310859535,31.94079463456537,128.27592741200075,116.84393393425412,3.237724376958795e-05,0.0889859497547149,0,0,0
10872,367684.3598314687,2010-09-25 21:56:15,2011.0323785614864,2,33,0.5501165986061096,3.895469903945923,32.21140991601125,31.94079463456537,128.29379255092525,116.84393393425412,0.0,0.0889859497547149,0,0,0
10873,367714.3753069182,2010-09-25 21:56:45,2041.0478540109737,2,33,0.5501165986061096,3.8967649936676025,32.215996729594345,31.94079463456537,128.3116633869015,116.84393393425412,3.237724376958795e-05,0.0889859497547149,0,0,0
10874,367744.3908243376,2010-09-25 21:57:15,2071.063371430224,2,33,0.5501165986061096,3.898060083389282,32.22058356263508,31.94079463456537,128.32953990012547,116.84393393425412,6.47544875391759e-05,0.0889859497547149,0,0,0
10875,367774.4061222187,2010-09-25 21:57:45,2101.0786693014484,2,33,0.5501165986061096,3.899193286895752,32.225170355816964,31.94079463456537,128.34742195801843,116.84393393425412,0.0,0.0889859497547149,0,0,0
10876,367804.42152598925,2010-09-25 21:58:15,2131.0940730720145,2,33,0.550297200679779,3.900488376617432,32.22975726638255,31.94079463456537,128.36531021647411,116.84393393425412,3.237724376958795e-05,0.0889859497547149,0,0,0
10877,367834.4370549173,2010-09-25 21:58:45,2161.109602010017,2,33,0.5501165986061096,3.9017834663391113,32.23434411175013,31.94079463456537,128.38320394576323,116.84393393425412,3.237724376958795e-05,0.0889859497547149,0,0,0
10878,367864.4523343174,2010-09-25 21:59:15,2191.124881405123,2,33,0.550297200679779,3.903078556060791,32.238930989667935,31.94079463456537,128.4011036814502,116.84393393425412,0.0,0.0889859497547149,0,0,0
10879,367894.46776336106,2010-09-25 21:59:45,2221.140310458799,2,33,0.5499359965324402,3.9042117595672607,32.2435178439778,31.94079463456537,128.41900921388927,116.84393393425412,0.0,0.0889859497547149,0,0,0
10880,367924.48319055,2010-09-25 22:00:15,2251.155737758096,2,33,0.5501165986061096,3.905506849288941,32.24810473024504,31.94079463456537,128.43692075868236,116.84393393425412,3.237724376958795e-05,0.0889859497547149,0,0,0
10881,367954.4985715287,2010-09-25 22:00:45,2281.171118701682,2,33,0.550297200679779,3.90696382522583,32.25269156393044,31.94079463456537,128.45483812028982,116.84393393425412,6.47544875391759e-05,0.0889859497547149,0,0,0
10882,367984.51436955336,2010-09-25 22:01:15,2311.1869166461665,2,33,0.5501165986061096,3.9082589149475098,32.25727844247471,31.94079463456537,128.4727617172478,116.84393393425412,0.0,0.0889859497547149,0,0,0
10883,368014.529405556,2010-09-25 22:01:45,2341.2019527389525,2,33,0.5501165986061096,3.9095540046691895,32.261865271641014,31.94079463456537,128.49069128034384,116.84393393425412,0.0,0.0889859497547149,0,0,0
10884,368044.5448223742,2010-09-25 22:02:15,2371.2173695520746,2,33,0.5501165986061096,3.910849094390869,32.266452102657375,31.94079463456537,128.50862701815043,116.84393393425412,3.237724376958795e-05,0.0889859497547149,0,0,0
10885,368074.5603375177,2010-09-25 22:02:45,2401.232884605419,2,33,0.550297200679779,3.912306070327759,32.27103899715453,31.94079463456537,128.52656921965746,116.84393393425412,6.47544875391759e-05,0.0889859497547149,0,0,0
10886,368104.5756191484,2010-09-25 22:03:15,2431.248166241118,2,33,0.5501165986061096,3.913762807846069,32.27562585801279,31.94079463456537,128.54451763717913,116.84393393425412,3.23295607813634e-05,0.0889859497547149,0,0,0
10887,368134.5910630892,2010-09-25 22:03:45,2461.263610202004,2,33,0.5501165986061096,3.915057897567749,32.28021276481004,31.94079463456537,128.56247262144058,116.84393393425412,3.237724376958795e-05,0.0889859497547149,0,0,0
10888,368164.6064413712,2010-09-25 22:04:15,2491.2789884538715,2,33,0.550297200679779,3.916514873504639,32.284799677963235,31.94079463456537,128.5804339026475,116.84393393425412,6.47544875391759e-05,0.0889859497547149,0,0,0
10889,368194.62182553776,2010-09-25 22:04:45,2521.294372645565,2,33,0.550297200679779,3.917971849441528,32.28938652043344,31.94079463456537,128.59840137420778,116.84393393425412,6.47544875391759e-05,0.0889859497547149,0,0,0
10890,368224.63735404966,2010-09-25 22:05:15,2551.309901162517,2,33,0.5499359965324402,3.919266939163208,32.293973359840976,31.94079463456537,128.616375316382,116.84393393425412,3.237724376958795e-05,0.0889859497547149,0,0,0
10891,368254.65265665273,2010-09-25 22:05:45,2581.3252037605407,2,33,0.5501165986061096,3.9207239151000977,32.29856016987161,31.94079463456537,128.63435574189143,116.84393393425412,3.237724376958795e-05,0.0889859497547149,0,0,0
10892,368284.6680536915,2010-09-25 22:06:15,2611.340600784265,2,33,0.5501165986061096,3.9221808910369873,32.30314705305686,31.94079463456537,128.65234305271738,116.84393393425412,3.237724376958795e-05,0.0889859497547149,0,0,0
10893,368314.6834632615,2010-09-25 22:06:45,2641.356010369345,2,33,0.5501165986061096,3.923637866973877,32.30773388143869,31.94079463456537,128.6703368568249,116.84393393425412,3.237724376958795e-05,0.0889859497547149,0,0,0
10894,368344.69912476046,2010-09-25 22:07:15,2671.371671838165,2,33,0.5501165986061096,3.925256729125977,32.3123207869538,31.94079463456537,128.68833778084408,116.84393393425412,3.237724376958795e-05,0.0889859497547149,0,0,0
10895,368374.7143028026,2010-09-25 22:07:45,2701.386849890303,2,33,0.550297200679779,3.926713705062866,32.31690762803256,31.94079463456537,128.70634520043464,116.84393393425412,6.47544875391759e-05,0.0889859497547149,0,0,0
10896,368404.72971593146,2010-09-25 22:08:15,2731.402263024241,2,33,0.5501165986061096,3.928170680999756,32.321494486858995,31.94079463456537,128.72435953522154,116.84393393425412,3.237724376958795e-05,0.0889859497547149,0,0,0
10897,368434.745109652,2010-09-25 22:08:45,2761.4176567597574,2,33,0.5501165986061096,3.929789543151856,32.32608130952821,31.94079463456537,128.74238064386722,116.84393393425412,6.47544875391759e-05,0.0889859497547149,0,0,0
10898,368464.7605233122,2010-09-25 22:09:15,2791.433070394947,2,33,0.550297200679779,3.931084632873535,32.33066819373842,31.94079463456537,128.76040902802296,116.84393393425412,3.237724376958795e-05,0.0889859497547149,0,0,0
10899,368494.7759567719,2010-09-25 22:09:45,2821.448503854622,2,33,0.5501165986061096,3.9327034950256343,32.33525505230776,31.94079463456537,128.77844431313062,116.84393393425412,3.237724376958795e-05,0.0889859497547149,0,0,0
10900,368524.7913305676,2010-09-25 22:10:15,2851.463877660391,2,33,0.550297200679779,3.9343223571777344,32.33984190824163,31.94079463456537,128.79648680775273,116.84393393425412,3.237724376958795e-05,0.0889859497547149,0,0,0
10901,368554.8067591652,2010-09-25 22:10:45,2881.4793062579283,2,33,0.5501165986061096,3.935941219329834,32.344428818850226,31.94079463456537,128.8145367205742,116.84393393425412,3.237724376958795e-05,0.0889859497547149,0,0,0
10902,368584.8222862836,2010-09-25 22:11:15,2911.4948333763896,2,33,0.5499359965324402,3.937398195266724,32.349015714136186,31.94079463456537,128.83259372729077,116.84393393425412,3.237724376958795e-05,0.0889859497547149,0,0,0
10903,368614.8377634122,2010-09-25 22:11:45,2941.510310500056,2,33,0.550297200679779,3.9390170574188232,32.35360260127335,31.94079463456537,128.85065816250653,116.84393393425412,0.0,0.0889859497547149,0,0,0
10904,368644.85298212594,2010-09-25 22:12:15,2971.5255292086786,2,33,0.5501165986061096,3.940797805786133,32.35818946694288,31.94079463456537,128.86872991675656,116.84393393425412,6.47544875391759e-05,0.0889859497547149,0,0,0
10905,368674.86837912456,2010-09-25 22:12:45,3001.5409262374155,2,33,0.5501165986061096,3.9422547817230233,32.362776383038856,31.94079463456537,128.8868093385396,116.84393393425412,3.237724376958795e-05,0.0889859497547149,0,0,0
10906,368704.8840241373,2010-09-25 22:13:15,3031.5565712250964,2,33,0.5501165986061096,3.943873643875122,32.36736324023932,31.94079463456537,128.9048960795185,116.84393393425412,3.237724376958795e-05,0.0889859497547149,0,0,0
10907,368734.8992186054,2010-09-25 22:13:45,3061.5717656881984,2,33,0.5501165986061096,3.9458162784576416,32.371950090250536,31.94079463456537,128.9229903784871,116.84393393425412,6.47544875391759e-05,0.0889859497547149,0,0,0
10908,368764.914782225,2010-09-25 22:14:15,3091.587329317797,2,33,0.5501165986061096,3.947435140609741,32.37653700395952,31.94079463456537,128.94109265248167,116.84393393425412,3.237724376958795e-05,0.0889859497547149,0,0,0
10909,368794.9300324022,2010-09-25 22:14:45,3121.602579484945,2,33,0.5501165986061096,3.949054002761841,32.381123889339754,31.94079463456537,128.95920258810082,116.84393393425412,3.237724376958795e-05,0.0889859497547149,0,0,0
10910,368824.94540594734,2010-09-25 22:15:16,3151.6179530601385,2,33,0.5501165986061096,3.9508347511291504,32.38571072768598,31.94079463456537,128.97732021381069,116.84393393425412,3.237724376958795e-05,0.0889859497547149,0,0,0
10911,368854.96097402304,2010-09-25 22:15:46,3181.633521231073,2,33,0.5501165986061096,3.95261549949646,32.39029761680969,31.94079463456537,128.9954460512004,116.84393393425412,3.237724376958795e-05,0.0889859497547149,0,0,0
10912,368884.9762229972,2010-09-25 22:16:16,3211.6487700799303,2,33,0.5501165986061096,3.95423436164856,32.39488439627925,31.94079463456537,129.01357946684735,116.84393393425412,6.47544875391759e-05,0.0889859497547149,0,0,0
10913,368914.99176245154,2010-09-25 22:16:46,3241.6643096344337,2,33,0.5499359965324402,3.956015110015869,32.39947118053982,31.94079463456537,129.0317209724065,116.84393393425412,6.47544875391759e-05,0.0889859497547149,0,0,0
10914,368945.00705176126,2010-09-25 22:17:16,3271.679598844037,2,33,0.550297200679779,3.9577958583831783,32.40405805468961,31.94079463456537,129.0498709761813,116.84393393425412,3.237724376958795e-05,0.0889859497547149,0,0,0
10915,368975.0224865744,2010-09-25 22:17:46,3301.69503367714,2,33,0.5501165986061096,3.9594147205352783,32.40864479874254,31.94079463456537,129.06802861963783,116.84393393425412,3.237724376958795e-05,0.0889859497547149,0,0,0
10916,369005.0378995278,2010-09-25 22:18:16,3331.710446640653,2,33,0.550297200679779,3.961519241333008,32.41323167112886,31.94079463456537,129.08619512309053,116.84393393425412,6.47544875391759e-05,0.0889859497547149,0,0,0
10917,369035.05332394486,2010-09-25 22:18:46,3361.725871027681,2,33,0.5501165986061096,3.9631381034851074,32.41781852919728,31.94079463456537,129.10436997300775,116.84393393425412,0.0,0.0889859497547149,0,0,0
10918,369065.0689357698,2010-09-25 22:19:16,3391.74148296787,2,33,0.550297200679779,3.965242624282837,32.42240549779877,31.94079463456537,129.12255380589724,116.84393393425412,9.713172767078504e-05,0.0889859497547149,0,0,0
10919,369095.0842487989,2010-09-25 22:19:46,3421.7567958916684,2,33,0.5501165986061096,3.9670233726501465,32.42699241034984,31.94079463456537,129.14074600257078,116.84393393425412,3.237724376958795e-05,0.0889859497547149,0,0,0
10920,369125.0995101339,2010-09-25 22:20:16,3451.772057216668,2,33,0.5501165986061096,3.968804121017456,32.431579314280505,31.94079463456537,129.1589467803339,116.84393393425412,3.237724376958795e-05,0.0889859497547149,0,0,0
10921,369155.11499872623,2010-09-25 22:20:46,3481.787545818987,2,33,0.5501165986061096,3.970746755599976,32.43616556393216,31.94079463456537,129.17715363217008,116.84393393425412,3.237724376958795e-05,0.0889859497547149,0,0,0
10922,369185.1304253237,2010-09-25 22:21:16,3511.8029724215444,2,33,0.5501165986061096,3.972851276397705,32.44075152152902,31.94079463456537,129.1953681112506,116.84393393425412,6.47544875391759e-05,0.0889859497547149,0,0,0
10923,369215.1456852152,2010-09-25 22:21:46,3541.8182322979283,2,33,0.5501165986061096,3.974632024765015,32.44533818492542,31.94079463456537,129.2135944466291,116.84393393425412,3.237724376958795e-05,0.0889859497547149,0,0,0
10924,369245.16107699584,2010-09-25 22:22:16,3571.833624078565,2,33,0.5501165986061096,3.976736545562744,32.44992506223786,31.94079463456537,129.23183070198218,116.84393393425412,6.47544875391759e-05,0.0889859497547149,0,0,0
10925,369275.1764995232,2010-09-25 22:22:46,3601.849046605951,2,33,0.5501165986061096,3.978679180145264,32.454511782185044,31.94079463456537,129.25007518687954,116.84393393425412,3.237724376958795e-05,0.0889859497547149,0,0,0
10926,369305.19204213534,2010-09-25 22:23:16,3631.864589218087,2,33,0.5501165986061096,3.980783700942993,32.45909857040966,31.94079463456537,129.26832969384165,116.84393393425412,3.237724376958795e-05,0.0889859497547149,0,0,0
10927,369335.2073388938,2010-09-25 22:23:46,3661.879885976533,2,33,0.5504778623580933,3.9830501079559326,32.463685772699485,31.94079463456537,129.28659537007178,116.84393393425412,6.47544875391759e-05,0.0889859497547149,0,0,0
10928,369365.22273876966,2010-09-25 22:24:16,3691.8952858523776,2,33,0.5501165986061096,3.984992742538452,32.46827346752384,31.94079463456537,129.3048726812221,116.84393393425412,3.237724376958795e-05,0.0889859497547149,0,0,0
10929,369395.2381630815,2010-09-25 22:24:46,3721.910710184268,2,33,0.5501165986061096,3.987259149551392,32.47286089167602,31.94079463456537,129.32315853229676,116.84393393425412,6.47544875391759e-05,0.0889859497547149,0,0,0
10930,369425.25355715794,2010-09-25 22:25:16,3751.9261042405847,2,33,0.5499359965324402,3.989039897918701,32.477447980601646,31.94079463456537,129.34145271010095,116.84393393425412,3.237724376958795e-05,0.0889859497547149,0,0,0
10931,369455.2689839458,2010-09-25 22:25:46,3781.941531028606,2,33,0.5501165986061096,3.9913063049316406,32.482034943030335,31.94079463456537,129.35975618104328,116.84393393425412,3.237724376958795e-05,0.0889859497547149,0,0,0
10932,369485.28452356055,2010-09-25 22:26:16,3811.957070643259,2,33,0.550297200679779,3.99357271194458,32.48662196562754,31.94079463456537,129.37806975831816,116.84393393425412,6.47544875391759e-05,0.0889859497547149,0,0,0
10933,369515.2997809056,2010-09-25 22:26:46,3841.9723279883247,2,33,0.5501165986061096,3.995838880538941,32.49120896143181,31.94079463456537,129.39639316073266,116.84393393425412,6.47544875391759e-05,0.0889859497547149,0,0,0
10934,369545.3151926912,2010-09-25 22:27:16,3871.987739773897,2,33,0.5501165986061096,3.99778151512146,32.49579603377445,31.94079463456537,129.41472686926542,116.84393393425412,3.237724376958795e-05,0.0889859497547149,0,0,0
10935,369575.33080324286,2010-09-25 22:27:46,3902.003350325621,2,33,0.550297200679779,4.000209808349609,32.500383089062915,31.94079463456537,129.43307048312852,116.84393393425412,6.47544875391759e-05,0.0889859497547149,0,0,0
10936,369605.3460352348,2010-09-25 22:28:16,3932.018582322413,2,33,0.5501165986061096,4.002314567565918,32.50497000113383,31.94079463456537,129.45142369428424,116.84393393425412,6.47544875391759e-05,0.0889859497547149,0,0,0
10937,369635.3615121929,2010-09-25 22:28:46,3962.034059275654,2,33,0.550297200679779,4.004742622375488,32.509557048563,31.94079463456537,129.46978769857844,116.84393393425412,9.70840483205393e-05,0.0889859497547149,0,0,0
10938,369665.3769547252,2010-09-25 22:29:16,3992.049501807975,2,33,0.550297200679779,4.006685256958008,32.5141440387617,31.94079463456537,129.48816172911938,116.84393393425412,3.23295607813634e-05,0.0889859497547149,0,0,0
10939,369695.3922582807,2010-09-25 22:29:46,4022.064805363388,2,33,0.5501165986061096,4.008951663970947,32.518731084365484,31.94079463456537,129.5065463729443,116.84393393425412,3.23295607813634e-05,0.0889859497547149,0,0,0
10940,369725.4077428329,2010-09-25 22:30:16,4052.080290010834,2,33,0.550297200679779,4.011380195617676,32.52331816790527,31.94079463456537,129.52494154007852,116.84393393425412,6.47544875391759e-05,0.0889859497547149,0,0,0
10941,369755.423059466,2010-09-25 22:30:46,4082.095606548653,2,33,0.5499359965324402,4.013484477996826,32.52790515838828,31.94079463456537,129.54334682289598,116.84393393425412,3.23295607813634e-05,0.0889859497547149,0,0,0
10942,369785.43846931664,2010-09-25 22:31:16,4112.111016399397,2,33,0.550297200679779,4.0160746574401855,32.532492219648674,31.94079463456537,129.5617629572469,116.84393393425412,9.70840483205393e-05,0.0889859497547149,0,0,0
10943,369815.4541479082,2010-09-25 22:31:46,4142.126695091209,2,33,0.550297200679779,4.018503189086914,32.53707930774389,31.94079463456537,129.5801898981603,116.84393393425412,9.71794142969884e-05,0.0889859497547149,0,0,0
10944,369845.4692884116,2010-09-25 22:32:16,4172.141835499381,2,33,0.550297200679779,4.0206074714660645,32.54166636694138,31.94079463456537,129.59862745258266,116.84393393425412,3.23295607813634e-05,0.0889859497547149,0,0,0
10945,369875.4847036408,2010-09-25 22:32:46,4202.157250723537,2,33,0.550297200679779,4.023036003112793,32.546253392295775,31.94079463456537,129.61707576791065,116.84393393425412,3.24249267578125e-05,0.0889859497547149,0,0,0
10946,369905.50051792106,2010-09-25 22:33:16,4232.173065109061,2,33,0.5501165986061096,4.025302410125732,32.55084052273485,31.94079463456537,129.63553545776762,116.84393393425412,3.24249267578125e-05,0.0889859497547149,0,0,0
10947,369935.5155457432,2010-09-25 22:33:46,4262.188092825939,2,33,0.5501165986061096,4.027892589569092,32.55542747148922,31.94079463456537,129.6540054141786,116.84393393425412,6.47544875391759e-05,0.0889859497547149,0,0,0
10948,369965.5309609924,2010-09-25 22:34:16,4292.203508175408,2,33,0.550297200679779,4.030320644378662,32.56001450295064,31.94079463456537,129.67248681781606,116.84393393425412,9.70840483205393e-05,0.0889859497547149,0,0,0
10949,369995.5463605324,2010-09-25 22:34:46,4322.218907620175,2,33,0.5501165986061096,4.032587051391602,32.56460150914605,31.94079463456537,129.69097933598985,116.84393393425412,3.23295607813634e-05,0.0889859497547149,0,0,0
10950,370025.5617734258,2010-09-25 22:35:16,4352.234320538575,2,33,0.5501165986061096,4.035338878631592,32.569188621559704,31.94079463456537,129.70948365821724,116.84393393425412,9.70840483205393e-05,0.0889859497547149,0,0,0
10951,370055.5773129903,2010-09-25 22:35:46,4382.249860173279,2,33,0.5501165986061096,4.037929058074951,32.573775691110484,31.94079463456537,129.7279992565152,116.84393393425412,6.47544875391759e-05,0.0889859497547149,0,0,0
10952,370085.59257592936,2010-09-25 22:36:16,4412.265123012056,2,33,0.5501165986061096,4.04003381729126,32.5783627560184,31.94079463456537,129.74652640153928,116.84393393425412,3.24249267578125e-05,0.0889859497547149,0,0,0
10953,370115.6079804217,2010-09-25 22:36:46,4442.280527504425,2,33,0.550297200679779,4.042947769165039,32.58294985348377,31.94079463456537,129.76506537408633,116.84393393425412,9.71794142969884e-05,0.0889859497547149,0,0,0
10954,370145.623523931,2010-09-25 22:37:16,4472.2960710138,2,33,0.5499359965324402,4.045375823974609,32.5875369358216,31.94079463456537,129.78361607860265,116.84393393425412,9.70840483205393e-05,0.0889859497547149,0,0,0
10955,370175.6389369748,2010-09-25 22:37:46,4502.311484067538,2,33,0.550297200679779,4.047966003417969,32.59212398267843,31.94079463456537,129.8021785493111,116.84393393425412,9.70840483205393e-05,0.0889859497547149,0,0,0
10956,370205.65433743206,2010-09-25 22:38:16,4532.326884519821,2,33,0.550297200679779,4.050556182861328,32.59671105412028,31.94079463456537,129.8207531450084,116.84393393425412,6.47544875391759e-05,0.0889859497547149,0,0,0
10957,370235.66963250126,2010-09-25 22:38:46,4562.342179614114,2,33,0.5499359965324402,4.053308486938477,32.601298123683335,31.94079463456537,129.8393398600062,116.84393393425412,6.47544875391759e-05,0.0889859497547149,0,0,0
10958,370265.6850237907,2010-09-25 22:39:16,4592.35757087345,2,33,0.5501165986061096,4.055898666381836,32.60588523022143,31.94079463456537,129.85793903795067,116.84393393425412,3.24249267578125e-05,0.0889859497547149,0,0,0
10959,370295.7004561526,2010-09-25 22:39:46,4622.373003235384,2,33,0.5501165986061096,4.058650493621826,32.61047241003369,31.94079463456537,129.87655090310838,116.84393393425412,3.23295607813634e-05,0.0889859497547149,0,0,0
10960,370325.715873457,2010-09-25 22:40:16,4652.388420539732,2,33,0.5501165986061096,4.0612406730651855,32.61505948665151,31.94079463456537,129.8951746604381,116.84393393425412,9.70840483205393e-05,0.0889859497547149,0,0,0
10961,370355.73138970335,2010-09-25 22:40:46,4682.403936786055,2,33,0.5501165986061096,4.064154624938965,32.6196465294598,31.94079463456537,129.9138107326688,116.84393393425412,9.70840483205393e-05,0.0889859497547149,0,0,0
10962,370385.74679029593,2010-09-25 22:41:16,4712.419337388713,2,33,0.5501165986061096,4.066906929016113,32.62423357827895,31.94079463456537,129.9324595671973,116.84393393425412,0.0001295089750783,0.0889859497547149,0,0,0
10963,370415.7620866333,2010-09-25 22:41:46,4742.434633716084,2,33,0.5501165986061096,4.069658756256104,32.628820579334295,31.94079463456537,129.95112104821004,116.84393393425412,6.47544875391759e-05,0.0889859497547149,0,0,0
10964,370445.77756845375,2010-09-25 22:42:16,4772.450115541486,2,33,0.5501165986061096,4.072572708129883,32.63340767347296,31.94079463456537,129.96979587380272,116.84393393425412,6.47544875391759e-05,0.0889859497547149,0,0,0
10965,370475.7929202245,2010-09-25 22:42:46,4802.465467312252,2,33,0.5501165986061096,4.075486660003662,32.637994669681575,31.94079463456537,129.9884833910281,116.84393393425412,9.70840483205393e-05,0.0889859497547149,0,0,0
10966,370505.8083029575,2010-09-25 22:43:16,4832.480850040293,2,33,0.5499359965324402,4.078400611877441,32.642581719212814,31.94079463456537,130.0071843917718,116.84393393425412,6.47544875391759e-05,0.0889859497547149,0,0,0
10967,370535.82395759935,2010-09-25 22:43:46,4862.496504682072,2,33,0.5501165986061096,4.08115291595459,32.64716881422404,31.94079463456537,130.02589895951724,116.84393393425412,6.47544875391759e-05,0.0889859497547149,0,0,0
10968,370565.8391334109,2010-09-25 22:44:16,4892.511680493617,2,33,0.5501165986061096,4.084228515625,32.65175581011006,31.94079463456537,130.0446265004138,116.84393393425412,9.70840483205393e-05,0.0889859497547149,0,0,0
10969,370595.8545304697,2010-09-25 22:44:46,4922.527077647666,2,33,0.5501165986061096,4.086980819702148,32.65634288529137,31.94079463456537,130.06336800749455,116.84393393425412,3.24249267578125e-05,0.0889859497547149,0,0,0
10970,370625.8700650568,2010-09-25 22:45:16,4952.54261223477,2,33,0.550297200679779,4.090218544006348,32.66092999874515,31.94079463456537,130.0821233634048,116.84393393425412,3.24249267578125e-05,0.0889859497547149,0,0,0
10971,370655.8853852688,2010-09-25 22:45:46,4982.557932371574,2,33,0.5501165986061096,4.093132495880127,32.66551705754487,31.94079463456537,130.1008922640107,116.84393393425412,6.47544875391759e-05,0.0889859497547149,0,0,0
10972,370685.9008160919,2010-09-25 22:46:16,5012.573363269855,2,33,0.5501165986061096,4.096208095550537,32.67010415519563,31.94079463456537,130.1196752793807,116.84393393425412,6.47544875391759e-05,0.0889859497547149,0,0,0
10973,370715.916330243,2010-09-25 22:46:46,5042.588877420947,2,33,0.5501165986061096,4.0992841720581055,32.67469124573997,31.94079463456537,130.1384722593969,116.84393393425412,9.71794142969884e-05,0.0889859497547149,0,0,0
10974,370745.93157664576,2010-09-25 22:47:17,5072.604123738485,2,33,0.5501165986061096,4.102359771728516,32.679278301351864,31.94079463456537,130.15728320941992,116.84393393425412,6.47544875391759e-05,0.0889859497547149,0,0,0
10975,370775.947127704,2010-09-25 22:47:47,5102.61967478668,2,33,0.5501165986061096,4.105597496032715,32.6838654153586,31.94079463456537,130.17610873801414,116.84393393425412,9.70840483205393e-05,0.0889859497547149,0,0,0
10976,370805.9623930089,2010-09-25 22:48:17,5132.634940091613,2,33,0.550297200679779,4.108673572540283,32.6884523638068,31.94079463456537,130.1949479809482,116.84393393425412,9.71794142969884e-05,0.0889859497547149,0,0,0
10977,370835.97780757135,2010-09-25 22:48:47,5162.650354654117,2,33,0.5501165986061096,4.111749172210693,32.693039456950224,31.94079463456537,130.21380240476068,116.84393393425412,6.47544875391759e-05,0.0889859497547149,0,0,0
10978,370865.99322656495,2010-09-25 22:49:17,5192.665773677757,2,33,0.5501165986061096,4.114986896514893,32.69762649968458,31.94079463456537,130.2326711659479,116.84393393425412,6.47544875391759e-05,0.0889859497547149,0,0,0
10979,370896.00876353297,2010-09-25 22:49:47,5222.68131061573,2,33,0.5501165986061096,4.118224620819092,32.70221359753232,31.94079463456537,130.25155494180737,116.84393393425412,3.24249267578125e-05,0.0889859497547149,0,0,0
10980,370926.0241516545,2010-09-25 22:50:17,5252.6966987372325,2,33,0.5501165986061096,4.121462345123291,32.706800644379285,31.94079463456537,130.27045338943,116.84393393425412,6.47544875391759e-05,0.0889859497547149,0,0,0
10981,370956.0394389894,2010-09-25 22:50:47,5282.711986167395,2,33,0.5501165986061096,4.124861717224121,32.711387706348006,31.94079463456537,130.2893668230673,116.84393393425412,6.47544875391759e-05,0.0889859497547149,0,0,0
10982,370986.0548480131,2010-09-25 22:51:17,5312.727395095835,2,33,0.5501165986061096,4.128261566162109,32.71597478451462,31.94079463456537,130.3082954809637,116.84393393425412,0.0001295089750783,0.0889859497547149,0,0,0
10983,371016.07029867073,2010-09-25 22:51:47,5342.742845853688,2,33,0.550297200679779,4.13166093826294,32.72056190792347,31.94079463456537,130.32723956976363,116.84393393425412,9.70840483205393e-05,0.0889859497547149,0,0,0
10984,371046.0856733687,2010-09-25 22:52:17,5372.75822046146,2,33,0.550297200679779,4.134898662567139,32.7251490319284,31.94079463456537,130.34619898053543,116.84393393425412,6.47544875391759e-05,0.0889859497547149,0,0,0
10985,371076.1012418805,2010-09-25 22:52:47,5402.77378896322,2,33,0.550297200679779,4.138298511505127,32.72973618507453,31.94079463456537,130.3651739584461,116.84393393425412,6.47544875391759e-05,0.0889859497547149,0,0,0
10986,371106.11662054335,2010-09-25 22:53:17,5432.789167626112,2,33,0.550297200679779,4.141536235809326,32.734323324489765,31.94079463456537,130.38416444745693,116.84393393425412,9.71794142969884e-05,0.0889859497547149,0,0,0
10987,371136.13192456495,2010-09-25 22:53:47,5462.80447164769,2,33,0.5501165986061096,4.145097732543945,32.738910385500304,31.94079463456537,130.40317033359318,116.84393393425412,9.71794142969884e-05,0.0889859497547149,0,0,0
10988,371166.1473173531,2010-09-25 22:54:17,5492.819864440855,2,33,0.5501165986061096,4.1486592292785645,32.74349744082819,31.94079463456537,130.42219230958355,116.84393393425412,9.71794142969884e-05,0.0889859497547149,0,0,0
10989,371196.162738908,2010-09-25 22:54:47,5522.835286000825,2,33,0.5501165986061096,4.1520586013793945,32.74808450539625,31.94079463456537,130.44123019456748,116.84393393425412,0.0001295089750783,0.0889859497547149,0,0,0
10990,371226.17812558095,2010-09-25 22:55:17,5552.850672673712,2,33,0.550297200679779,4.155620098114014,32.75267161746476,31.94079463456537,130.46028434029503,116.84393393425412,9.70840483205393e-05,0.0889859497547149,0,0,0
10991,371256.1935459329,2010-09-25 22:55:47,5582.866093015643,2,33,0.5501165986061096,4.159019947052002,32.75725865782169,31.94079463456537,130.479354332079,116.84393393425412,6.47544875391759e-05,0.0889859497547149,0,0,0
10992,371286.2089698989,2010-09-25 22:56:17,5612.88151700167,2,33,0.550297200679779,4.162743091583252,32.76184575174399,31.94079463456537,130.49844083796563,116.84393393425412,9.70840483205393e-05,0.0889859497547149,0,0,0
10993,371316.22435253166,2010-09-25 22:56:47,5642.896899619435,2,33,0.550297200679779,4.166304588317871,32.76643283883816,31.94079463456537,130.5175436822193,116.84393393425412,9.70840483205393e-05,0.0889859497547149,0,0,0
10994,371346.2398870487,2010-09-25 22:57:17,5672.912434131351,2,33,0.5499359965324402,4.16986608505249,32.77101989898802,31.94079463456537,130.5366629168251,116.84393393425412,9.70840483205393e-05,0.0889859497547149,0,0,0
10995,371376.255178193,2010-09-25 22:57:47,5702.927725280797,2,33,0.5501165986061096,4.173427581787109,32.77560693848314,31.94079463456537,130.55579867525134,116.84393393425412,6.47544875391759e-05,0.0889859497547149,0,0,0
10996,371406.270707482,2010-09-25 22:58:17,5732.943254564663,2,33,0.550297200679779,4.177151203155518,32.78019407314404,31.94079463456537,130.57495155323633,116.84393393425412,6.47544875391759e-05,0.0889859497547149,0,0,0
10997,371436.2859970073,2010-09-25 22:58:47,5762.958544100081,2,33,0.5501165986061096,4.180712699890137,32.78478114164153,31.94079463456537,130.59412099236175,116.84393393425412,6.47544875391759e-05,0.0889859497547149,0,0,0
10998,371466.301550707,2010-09-25 22:59:17,5792.97409779488,2,33,0.5499359965324402,4.184597969055176,32.789368240039025,31.94079463456537,130.6133075607042,116.84393393425412,0.0001295089750783,0.0889859497547149,0,0,0
10999,371496.3170394698,2010-09-25 22:59:47,5822.989586577649,2,33,0.5501165986061096,4.188321113586426,32.79395525718207,31.94079463456537,130.632510858853,116.84393393425412,9.70840483205393e-05,0.0889859497547149,0,0,0
11000,371526.3322269053,2010-09-25 23:00:17,5853.004773988148,2,33,0.5501165986061096,4.192044734954834,32.79854230510678,31.94079463456537,130.65173159168955,116.84393393425412,9.71794142969884e-05,0.0889859497547149,0,0,0
11001,371556.3476288564,2010-09-25 23:00:47,5883.020175939171,2,33,0.5501165986061096,4.195929527282715,32.80312939980033,31.94079463456537,130.67096989200218,116.84393393425412,0.0001295089750783,0.0889859497547149,0,0,0
11002,371586.3630367172,2010-09-25 23:01:17,5913.035583799947,2,33,0.550297200679779,4.199814796447754,32.80771641477359,31.94079463456537,130.6902253587244,116.84393393425412,0.0001295089750783,0.0889859497547149,0,0,0
11003,371587.28490531805,2010-09-25 23:01:18,5913.9574524008,2,33,0.550297200679779,4.200138568878174,32.80785729586328,31.94079463456537,130.69081703127733,116.84393393425412,0.0001618385285837,0.0889859497547149,0,0,0
11004,371617.2866248294,2010-09-25 23:01:48,30.01553059714441,3,33,0.0,4.122757434844971,32.80785729586328,31.94079463456537,130.69081703127733,116.84393393425412,-0.0003885269106831,0.0889859497547149,0,0,0
11005,371647.3018895729,2010-09-25 23:02:18,60.03079534568982,3,33,0.0,4.113530158996582,32.80785729586328,31.94079463456537,130.69081703127733,116.84393393425412,-0.0002265930233988,0.0889859497547149,0,0,0
11006,371677.3172891681,2010-09-25 23:02:48,90.04619493080807,3,33,0.0,4.108187675476074,32.80785729586328,31.94079463456537,130.69081703127733,116.84393393425412,-9.71794142969884e-05,0.0889859497547149,0,0,0
11007,371707.2858304928,2010-09-25 23:03:18,120.0147362554993,3,33,0.0,4.104788303375244,32.80785729586328,31.94079463456537,130.69081703127733,116.84393393425412,-6.47544875391759e-05,0.0889859497547149,0,0,0
11008,371707.28850589326,2010-09-25 23:03:18,2.701743969e-06,4,33,0.9922481179237366,4.199653148651123,32.80785729660795,31.94079463456537,130.6908170344047,116.84393393425412,0.0,0.0889859497547149,0,0,0
11009,371708.179137221,2010-09-25 23:03:19,0.890634054620958,4,33,0.9416775107383728,4.199491024017334,32.80809501920892,31.94079463456537,130.69181536353597,116.84393393425412,-3.24249267578125e-05,0.0889859497547149,0,0,0
11010,371710.1947340909,2010-09-25 23:03:21,2.906230924500002,4,33,0.8916487693786621,4.199491024017334,32.80860717992919,31.94079463456537,130.69396622283622,116.84393393425412,-3.24249267578125e-05,0.0889859497547149,0,0,0
11011,371713.2571703028,2010-09-25 23:03:24,5.968667116378962,4,33,0.8414393663406372,4.199653148651123,32.8093431493051,31.94079463456537,130.69705699209968,116.84393393425412,0.0,0.0889859497547149,0,0,0
11012,371717.4603619308,2010-09-25 23:03:28,10.171858744327189,4,33,0.7912300229072571,4.199491024017334,32.81029501040276,31.94079463456537,130.70105443008651,116.84393393425412,-3.24249267578125e-05,0.0889859497547149,0,0,0
11013,371722.9290390853,2010-09-25 23:03:34,15.640535898839795,4,33,0.7408400177955627,4.199653148651123,32.8114571906785,31.94079463456537,130.70593513948637,116.84393393425412,3.24249267578125e-05,0.0889859497547149,0,0,0
11014,371729.96022197953,2010-09-25 23:03:41,22.671718793064223,4,33,0.6908112168312073,4.199653148651123,32.812853335114895,31.94079463456537,130.71179841240613,116.84393393425412,0.0,0.0889859497547149,0,0,0
11015,371739.3820315808,2010-09-25 23:03:50,32.09352839433818,4,33,0.6406018733978271,4.199653148651123,32.814592375857345,31.94079463456537,130.7191017378422,116.84393393425412,3.24249267578125e-05,0.0889859497547149,0,0,0
11016,371752.2569873712,2010-09-25 23:04:03,44.96848427999121,4,33,0.5905730724334717,4.199491024017334,32.81678870679047,31.94079463456537,130.72832548872177,116.84393393425412,-6.47544875391759e-05,0.0889859497547149,0,0,0
11017,371771.3036877757,2010-09-25 23:04:22,64.01518458922465,4,33,0.540544331073761,4.199491024017334,32.8197721791507,31.94079463456537,130.74085494525494,116.84393393425412,-6.47544875391759e-05,0.0889859497547149,0,0,0
11018,371802.2257389075,2010-09-25 23:04:53,94.93723582133865,4,33,0.4905155599117279,4.199329376220703,32.82418333355342,31.94079463456537,130.75938008761608,116.84393393425412,-6.47544875391759e-05,0.0889859497547149,0,0,0
11019,371855.7874923694,2010-09-25 23:05:47,148.49898918299908,4,33,0.4404867887496948,4.199653148651123,32.83108069934255,31.94079463456537,130.7883464140451,116.84393393425412,6.47544875391759e-05,0.0889859497547149,0,0,0
11020,371937.6774933504,2010-09-25 23:07:09,230.3889901639091,4,33,0.3904580175876617,4.199814796447754,32.840503543656304,31.94079463456537,130.82791878916797,116.84393393425412,3.23295607813634e-05,0.0889859497547149,0,0,0
11021,372043.5048514373,2010-09-25 23:08:54,336.2163482508261,4,33,0.3400680124759674,4.199653148651123,32.85122123964986,31.94079463456537,130.872929070828,116.84393393425412,-3.23295607813634e-05,0.0889859497547149,0,0,0
11022,372171.3790560048,2010-09-25 23:11:02,464.0905528183813,4,33,0.2900392413139343,4.199653148651123,32.86239555448274,31.94079463456537,130.9198569726163,116.84393393425412,0.0,0.0889859497547149,0,0,0
11023,372325.4247599864,2010-09-25 23:13:36,618.1362567998581,4,33,0.2400104850530624,4.199491024017334,32.87371079702945,31.94079463456537,130.96737669748873,116.84393393425412,-3.24249267578125e-05,0.0889859497547149,0,0,0
11024,372519.439070238,2010-09-25 23:16:50,812.1505671468395,4,33,0.1899817138910293,4.199491024017334,32.88525370033593,31.94079463456537,131.015852569855,116.84393393425412,0.0,0.0889859497547149,0,0,0
11025,372777.70269957976,2010-09-25 23:21:09,1070.4141964133553,4,33,0.1399529427289962,4.199653148651123,32.89700923987791,31.94079463456537,131.06522145316958,116.84393393425412,0.0,0.0889859497547149,0,0,0
11026,373169.10613433376,2010-09-25 23:27:40,1461.8176311573889,4,33,0.0899241790175437,4.199491024017334,32.90931683532863,31.94079463456537,131.1169087975016,116.84393393425412,0.0,0.0889859497547149,0,0,0
11027,373733.523969549,2010-09-25 23:37:04,2026.2354663625745,4,33,0.0498289167881011,4.199329376220703,32.919991390512536,31.94079463456537,131.16173795818526,116.84393393425412,-3.23295607813634e-05,0.0889859497547149,0,0,0
11028,373763.52531662193,2010-09-25 23:37:34,30.015381780675607,5,33,0.0,4.192368507385254,32.919991390512536,31.94079463456537,131.16173795818526,116.84393393425412,-6.47544875391759e-05,0.0889859497547149,0,0,0
11029,373793.52510261815,2010-09-25 23:38:04,60.01516787211154,5,33,0.0,4.191558837890625,32.919991390512536,31.94079463456537,131.16173795818526,116.84393393425412,0.0,0.0889859497547149,0,0,0
11030,373793.7146635499,2010-09-25 23:38:05,0.187508184275364,6,33,-1.9243103452026844e-05,4.191397190093994,32.919991390512536,31.940794635567663,131.16173795818526,116.84393393845512,0.0,0.0890663415193557,0,0,0
11031,373798.542870427,2010-09-25 23:38:10,5.015715071466854,6,33,0.0008838032954372,4.191235065460205,32.91999228783008,31.940794635652296,131.16174171928705,116.84393393880984,-6.47544875391759e-05,0.0890663415193557,0,0,0
11032,373828.5447473826,2010-09-25 23:38:40,30.015538697363805,7,33,-1.099929690361023,4.032101631164551,32.91999228783008,31.949964472654443,131.16174171928705,116.88108827064536,-0.0008093834039755,0.0890663415193557,0,0,0
11033,373858.5601790628,2010-09-25 23:39:10,60.0309703826089,7,33,-1.0997490882873535,4.008304119110107,32.91999228783008,31.95913424812681,131.16174171928705,116.91794400282562,-0.0005180359003134,0.0890663415193557,0,0,0
11034,373888.5755497958,2010-09-25 23:39:40,90.04634111570806,7,33,-1.099929690361023,3.991630077362061,32.91999228783008,31.968303966623004,131.16174171928705,116.95461928453312,-0.0004209041653666,0.0890663415193557,0,0,0
11035,373918.5909540928,2010-09-25 23:40:10,120.06174552787536,7,33,-1.099568486213684,3.979002952575684,32.91999228783008,31.97747364714788,131.16174171928705,116.9911616325346,-0.0002590179501567,0.0890663415193557,0,0,0
11036,373948.60624192894,2010-09-25 23:40:40,150.0770332387382,7,33,-1.0997490882873535,3.9676709175109854,32.91999228783008,31.986642909640786,131.16174171928705,117.02759260519252,-0.0002913951757363,0.0890663415193557,0,0,0
11037,373978.6216497846,2010-09-25 23:41:10,180.09244111956383,7,33,-1.099929690361023,3.9576339721679688,32.91999228783008,31.995812215409547,131.16174171928705,117.06392729985292,-0.0002913951757363,0.0890663415193557,0,0,0
11038,374008.6370549487,2010-09-25 23:41:40,210.10784627859545,7,33,-1.099929690361023,3.948244571685791,32.91999228783008,32.0049815309842,131.16174171928705,117.10017326164692,-0.0002590179501567,0.0890663415193557,0,0,0
11039,374038.6524464086,2010-09-25 23:42:10,240.1232377183817,7,33,-1.099568486213684,3.939502716064453,32.91999228783008,32.01415088881031,131.16174171928705,117.13633569378374,-0.0002266406954731,0.0890663415193557,0,0,0
11040,374068.6678996827,2010-09-25 23:42:40,270.13869108775367,7,33,-1.099929690361023,3.930598974227905,32.91999228783008,32.02332049342843,131.16174171928705,117.17241891886276,-0.0002913951757363,0.0890663415193557,0,0,0
11041,374098.68329328287,2010-09-25 23:43:10,300.1540846027199,7,33,-1.0997490882873535,3.9225046634674072,32.91999228783008,32.032490131956365,131.16174171928705,117.2084244913968,-0.0001942634553415,0.0890663415193557,0,0,0
11042,374128.6988514639,2010-09-25 23:43:40,330.1696427736928,7,33,-1.099568486213684,3.914248466491699,32.91999228783008,32.04165985590544,131.16174171928705,117.24435436086723,-0.0002266406954731,0.0890663415193557,0,0,0
11043,374158.71448083257,2010-09-25 23:44:10,360.1852721574237,7,33,-1.099929690361023,3.90615439414978,32.91999228783008,32.05082959370729,131.16174171928705,117.28020986642288,-0.0002590179501567,0.0890663415193557,0,0,0
11044,374188.7295238426,2010-09-25 23:44:40,390.20031514742567,7,33,-1.0997490882873535,3.898221969604492,32.91999228783008,32.05999915748312,131.16174171928705,117.31599147121467,-0.0001942634553415,0.0890663415193557,0,0,0
11045,374218.7449317184,2010-09-25 23:45:10,420.2157230232387,7,33,-1.0997490882873535,3.890613317489624,32.91999228783008,32.06916883113642,131.16174171928705,117.35170149813857,-0.0001618862152099,0.0890663415193557,0,0,0
11046,374248.7603385968,2010-09-25 23:45:40,450.2311299065745,7,33,-1.099929690361023,3.882680892944336,32.91999228783008,32.07833851908593,131.16174171928705,117.38734039674686,-0.0002266406954731,0.0890663415193557,0,0,0
11047,374278.7757567182,2010-09-25 23:46:10,480.2465480279621,7,33,-1.0997490882873535,3.875072240829468,32.91999228783008,32.087508212818946,131.16174171928705,117.42290881169612,-0.0002266406954731,0.0890663415193557,0,0,0
11048,374308.79115759645,2010-09-25 23:46:40,510.261948901296,7,33,-1.099929690361023,3.8676254749298096,32.91999228783008,32.09667787420827,131.16174171928705,117.45840765082484,-0.0001942634553415,0.0890663415193557,0,0,0
11049,374338.8065859133,2010-09-25 23:47:10,540.277377218133,7,33,-1.0997490882873535,3.860178709030152,32.91999228783008,32.105847557761884,131.16174171928705,117.49383799467068,-0.0001942634553415,0.0890663415193557,0,0,0
11050,374368.82197207486,2010-09-25 23:47:40,570.2927633847565,7,33,-1.0997490882873535,3.852731943130493,32.91999228783008,32.11501729778504,131.16174171928705,117.52920104605496,-0.0001942634553415,0.0890663415193557,0,0,0
11051,374398.83739140927,2010-09-25 23:48:10,600.3081827141596,7,33,-1.099568486213684,3.845770835876465,32.91999228783008,32.124186927199844,131.16174171928705,117.56449726951146,-0.0001942634553415,0.0890663415193557,0,0,0
11052,374428.8527920822,2010-09-25 23:48:40,630.3235834020304,7,33,-1.0997490882873535,3.8386478424072266,32.91999228783008,32.13335665898826,131.16174171928705,117.59972843285684,-0.0001942634553415,0.0890663415193557,0,0,0
11053,374458.8681974016,2010-09-25 23:49:10,660.3389887064249,7,33,-1.0997490882873535,3.831525087356568,32.91999228783008,32.142526306295146,131.16174171928705,117.63489462771844,-0.0001942634553415,0.0890663415193557,0,0,0
11054,374488.8842170645,2010-09-25 23:49:40,690.3550084746155,7,33,-1.0997490882873535,3.824725866317749,32.91999228783008,32.15169612666281,131.16174171928705,117.66999801542876,-0.0001618862152099,0.0890663415193557,0,0,0
11055,374518.8990430328,2010-09-25 23:50:10,720.3698343426476,7,33,-1.099929690361023,3.81792664527893,32.91999228783008,32.160865661047474,131.16174171928705,117.7050379838314,-0.0001942634553415,0.0890663415193557,0,0,0
11056,374548.91473552905,2010-09-25 23:50:40,750.3855268639796,7,33,-1.0997490882873535,3.811289310455322,32.91999228783008,32.17003541471868,131.16174171928705,117.7400172027546,-0.0001618862152099,0.0890663415193557,0,0,0
11057,374578.9298196568,2010-09-25 23:51:10,780.4006109666051,7,33,-1.0997490882873535,3.804813861846924,32.91999228783008,32.17920497364223,131.16174171928705,117.7749350402868,-0.0001295089750783,0.0890663415193557,0,0,0
11058,374608.94529369776,2010-09-25 23:51:40,810.4160850176016,7,33,-1.0997490882873535,3.798500299453736,32.91999228783008,32.18837466475873,131.16174171928705,117.809794600734,-0.0001295089750783,0.0890663415193557,0,0,0
11059,374638.96079547296,2010-09-25 23:52:10,840.4315867928021,7,33,-1.0997490882873535,3.792024850845337,32.91999228783008,32.19754442165133,131.16174171928705,117.8445966700602,-0.0001942634553415,0.0890663415193557,0,0,0
11060,374668.9760654245,2010-09-25 23:52:40,870.4468567393224,7,33,-1.0997490882873535,3.786035060882568,32.91999228783008,32.206714072118,131.16174171928705,117.879341557516,-0.0001618862152099,0.0890663415193557,0,0,0
11061,374698.9914434658,2010-09-25 23:53:10,900.4622347756515,7,33,-1.0997490882873535,3.7800452709198,32.91999228783008,32.215883807358544,131.16174171928705,117.91403110067635,-0.0001618862152099,0.0890663415193557,0,0,0
11062,374729.0070046693,2010-09-25 23:53:40,930.4777959791942,7,33,-1.099929690361023,3.774217367172241,32.91999228783008,32.225053531594575,131.16174171928705,117.94866574809558,-9.713172767078504e-05,0.0890663415193557,0,0,0
11063,374759.0223166759,2010-09-25 23:54:10,960.4931080057528,7,33,-1.0997490882873535,3.7682275772094727,32.91999228783008,32.2342232649643,131.16174171928705,117.98324681483798,-0.0001942634553415,0.0890663415193557,0,0,0
11064,374789.0378072281,2010-09-25 23:54:40,990.5085985479136,7,33,-1.0997490882873535,3.762723445892334,32.91999228783008,32.2433930226876,131.16174171928705,118.01777541272249,-0.0001295089750783,0.0890663415193557,0,0,0
11065,374819.05321975047,2010-09-25 23:55:10,1020.5240110703256,7,33,-1.0997490882873535,3.7572193145751953,32.91999228783008,32.25256278108629,131.16174171928705,118.05225222413604,-9.713172767078504e-05,0.0890663415193557,0,0,0
11066,374849.0685427745,2010-09-25 23:55:40,1050.5393340843104,7,33,-1.099568486213684,3.751715421676636,32.91999228783008,32.26173249077624,131.16174171928705,118.08667859337778,-0.0001295089750783,0.0890663415193557,0,0,0
11067,374879.0839865399,2010-09-25 23:56:10,1080.554777944947,7,33,-1.099929690361023,3.746211290359497,32.91999228783008,32.27090222260557,131.16174171928705,118.12105566902127,-0.0001618862152099,0.0890663415193557,0,0,0
11068,374909.09939099214,2010-09-25 23:56:40,1110.5701823871896,7,33,-1.099568486213684,3.741192817687988,32.91999228783008,32.28007194794715,131.16174171928705,118.15538411034878,-0.0001295089750783,0.0890663415193557,0,0,0
11069,374939.114803284,2010-09-25 23:57:10,1140.5855945888006,7,33,-1.099568486213684,3.7360124588012695,32.91999228783008,32.28924178464171,131.16174171928705,118.18966510277292,-9.713172767078504e-05,0.0890663415193557,0,0,0
11070,374969.13021130016,2010-09-25 23:57:40,1170.6010027202517,7,33,-1.0997490882873535,3.7309939861297607,32.91999228783008,32.29841153192447,131.16174171928705,118.22389877561255,-9.713172767078504e-05,0.0890663415193557,0,0,0
11071,374999.1456168401,2010-09-25 23:58:10,1200.6164082451965,7,33,-1.099929690361023,3.725813627243042,32.91999228783008,32.30758125044653,131.16174171928705,118.25808645728218,-0.0001295089750783,0.0890663415193557,0,0,0
11072,375029.1611484097,2010-09-25 23:58:40,1230.6319398197809,7,33,-1.099929690361023,3.720957040786743,32.91999228783008,32.316750999333664,131.16174171928705,118.29222902945529,-0.0001295089750783,0.0890663415193557,0,0,0
11073,375059.1764128375,2010-09-25 23:59:10,1260.6472041472753,7,33,-1.099568486213684,3.716100454330444,32.91999228783008,32.32592065362251,131.16174171928705,118.32632634498052,-0.0001295089750783,0.0890663415193557,0,0,0
11074,375089.19194683805,2010-09-25 23:59:40,1290.6627381479154,7,33,-1.0997490882873535,3.711081981658936,32.91999228783008,32.33509041105946,131.16174171928705,118.3603798268549,-0.0001618862152099,0.0890663415193557,0,0,0
11075,375119.2076037305,2010-09-26 00:00:10,1320.6783950603624,7,33,-1.0997490882873535,3.7067110538482666,32.91999228783008,32.34426020648743,131.16174171928705,118.39438982215285,-9.713172767078504e-05,0.0890663415193557,0,0,0
11076,375149.22265049495,2010-09-26 00:00:40,1350.6934417997231,7,33,-1.1001102924346924,3.701854467391968,32.91999228783008,32.35342986953558,131.16174171928705,118.4283565816541,-0.0001295089750783,0.0890663415193557,0,0,0
11077,375179.2380771275,2010-09-26 00:01:10,1380.7088685526564,7,33,-1.0997490882873535,3.697321653366089,32.91999228783008,32.36259963134491,131.16174171928705,118.46228143251336,-0.0001295089750783,0.0890663415193557,0,0,0
11078,375209.2535945167,2010-09-26 00:01:40,1410.724385836569,7,33,-1.099929690361023,3.69278883934021,32.91999228783008,32.371769391599955,131.16174171928705,118.49616469860123,-0.0001618862152099,0.0890663415193557,0,0,0
11079,375239.2688818016,2010-09-26 00:02:10,1440.739673111343,7,33,-1.099929690361023,3.688256025314331,32.91999228783008,32.38093912542733,131.16174171928705,118.53000649815831,-0.0001295089750783,0.0890663415193557,0,0,0
11080,375269.284296745,2010-09-26 00:02:40,1470.7550880547983,7,33,-1.099929690361023,3.683885097503662,32.91999228783008,32.390108764640544,131.16174171928705,118.56380717571304,-0.0001295089750783,0.0890663415193557,0,0,0
11081,375299.29969224485,2010-09-26 00:03:10,1500.7704835497068,7,33,-1.0997490882873535,3.679676055908203,32.91999228783008,32.39927854634061,131.16174171928705,118.59756833779336,-9.713172767078504e-05,0.0890663415193557,0,0,0
11082,375329.3150975242,2010-09-26 00:03:41,1530.785888834051,7,33,-1.099929690361023,3.675305128097534,32.91999228783008,32.408448276944824,131.16174171928705,118.63128999219128,-0.0001295089750783,0.0890663415193557,0,0,0
11083,375359.3305376053,2010-09-26 00:04:11,1560.8013289152536,7,33,-1.0997490882873535,3.671258211135864,32.91999228783008,32.41761805902648,131.16174171928705,118.66497315456684,-9.713172767078504e-05,0.0890663415193557,0,0,0
11084,375389.345938609,2010-09-26 00:04:41,1590.8167299239255,7,33,-1.099929690361023,3.667049169540405,32.91999228783008,32.426787834568124,131.16174171928705,118.69861838006726,-0.0001295089750783,0.0890663415193557,0,0,0
11085,375419.3613382644,2010-09-26 00:05:11,1620.8321295691935,7,33,-1.099929690361023,3.6628401279449454,32.91999228783008,32.43595757406205,131.16174171928705,118.7322263377826,-0.0001295089750783,0.0890663415193557,0,0,0
11086,375449.37677429547,2010-09-26 00:05:41,1650.847565610312,7,33,-1.0997490882873535,3.659116744995117,32.91999228783008,32.44512736118825,131.16174171928705,118.7657979802816,-9.713172767078504e-05,0.0890663415193557,0,0,0
11087,375479.3921590285,2010-09-26 00:06:11,1680.8629503483696,7,33,-1.0997490882873535,3.655231475830078,32.91999228783008,32.454297117235,131.16174171928705,118.79933385320967,-0.0001295089750783,0.0890663415193557,0,0,0
11088,375509.40756084427,2010-09-26 00:06:41,1710.8783521540306,7,33,-1.099929690361023,3.651346206665039,32.91999228783008,32.46346689265532,131.16174171928705,118.83283468008044,-0.0001618862152099,0.0890663415193557,0,0,0
11089,375539.42296308593,2010-09-26 00:07:11,1740.8937543957802,7,33,-1.099929690361023,3.64778470993042,32.91999228783008,32.472636688663975,131.16174171928705,118.86630123822876,-6.47544875391759e-05,0.0890663415193557,0,0,0
11090,375569.43841181375,2010-09-26 00:07:41,1770.9092031235662,7,33,-1.0997490882873535,3.644061326980591,32.91999228783008,32.48180639496615,131.16174171928705,118.89973355672636,-0.0001295089750783,0.0890663415193557,0,0,0
11091,375599.4538361006,2010-09-26 00:08:11,1800.9246275206187,7,33,-1.0997490882873535,3.6406617164611816,32.91999228783008,32.49097610835309,131.16174171928705,118.933132991901,-9.713172767078504e-05,0.0890663415193557,0,0,0
11092,375629.4691763876,2010-09-26 00:08:41,1830.93996772752,7,33,-1.0997490882873535,3.6371002197265625,32.91999228783008,32.50014583683426,131.16174171928705,118.96650027800356,-9.713172767078504e-05,0.0890663415193557,0,0,0
11093,375659.4845947948,2010-09-26 00:09:11,1860.9553861045456,7,33,-1.0997490882873535,3.633700609207153,32.91999228783008,32.509315384477105,131.16174171928705,118.99983549848244,-6.47544875391759e-05,0.0890663415193557,0,0,0
11094,375689.5001922989,2010-09-26 00:09:41,1890.9709836087,7,33,-1.0997490882873535,3.630462884902954,32.91999228783008,32.51848544862155,131.16174171928705,119.03314183457232,-9.713172767078504e-05,0.0890663415193557,0,0,0
11095,375719.5154592329,2010-09-26 00:10:11,1920.9862505427009,7,33,-1.0997490882873535,3.627387046813965,32.91999228783008,32.52765541298869,131.16174171928705,119.06641793674171,-3.237724376958795e-05,0.0890663415193557,0,0,0
11096,375749.5308579358,2010-09-26 00:10:41,1951.001649225567,7,33,-1.0997490882873535,3.6241493225097656,32.91999228783008,32.53682538180111,131.16174171928705,119.099664832788,-9.713172767078504e-05,0.0890663415193557,0,0,0
11097,375779.5465308983,2010-09-26 00:11:11,1981.017322223165,7,33,-1.0997490882873535,3.621073484420776,32.91999228783008,32.545995620315274,131.16174171928705,119.13288442280086,-6.47544875391759e-05,0.0890663415193557,0,0,0
11098,375809.5617214015,2010-09-26 00:11:41,2011.0325127063325,7,33,-1.0997490882873535,3.617997646331787,32.91999228783008,32.55516529202726,131.16174171928705,119.16607428820222,-6.47544875391759e-05,0.0890663415193557,0,0,0
11099,375839.5772280439,2010-09-26 00:12:11,2041.0480193536944,7,33,-1.0997490882873535,3.614921808242798,32.91999228783008,32.56433515597303,131.16174171928705,119.19923741604455,-0.0001295089750783,0.0890663415193557,0,0,0
11100,375869.59249765455,2010-09-26 00:12:41,2071.063288969389,7,33,-1.0997490882873535,3.6120078563690186,32.91999228783008,32.573504868335604,131.16174171928705,119.23237326564085,-9.713172767078504e-05,0.0890663415193557,0,0,0
11101,375899.6079026131,2010-09-26 00:13:11,2101.0786939229074,7,33,-1.099929690361023,3.609255790710449,32.91999228783008,32.58267469293868,131.16174171928705,119.26548290279752,-9.713172767078504e-05,0.0890663415193557,0,0,0
11102,375929.6233940525,2010-09-26 00:13:41,2131.0941854525336,7,33,-1.099568486213684,3.60650372505188,32.91999228783008,32.59184455698137,131.16174171928705,119.29856651414477,-6.47544875391759e-05,0.0890663415193557,0,0,0
11103,375959.6387346604,2010-09-26 00:14:11,2161.109525980235,7,33,-1.099568486213684,3.603751659393311,32.91999228783008,32.60101432302745,131.16174171928705,119.3316237578936,-6.47544875391759e-05,0.0890663415193557,0,0,0
11104,375989.65415473166,2010-09-26 00:14:41,2191.124946046478,7,33,-1.099929690361023,3.6008377075195312,32.91999228783008,32.61018422809546,131.16174171928705,119.36465602151618,-9.713172767078504e-05,0.0890663415193557,0,0,0
11105,376019.6695677704,2010-09-26 00:15:11,2221.1403591002154,7,33,-1.099929690361023,3.598247528076172,32.91999228783008,32.619354094787546,131.16174171928705,119.39766258467712,-3.237724376958795e-05,0.0890663415193557,0,0,0
11106,376049.6849797714,2010-09-26 00:15:41,2251.155771076264,7,33,-1.0997490882873535,3.5953335762023926,32.91999228783008,32.62852401165783,131.16174171928705,119.43064371444154,-6.47544875391759e-05,0.0890663415193557,0,0,0
11107,376079.70060528046,2010-09-26 00:16:11,2281.1713966103853,7,33,-1.0997490882873535,3.5924196243286133,32.91999228783008,32.637693903154435,131.16174171928705,119.46359926953976,-9.713172767078504e-05,0.0890663415193557,0,0,0
11108,376109.7157784404,2010-09-26 00:16:41,2311.186569745249,7,33,-1.0997490882873535,3.589667797088623,32.91999228783008,32.6468636581962,131.16174171928705,119.49652856511672,-6.47544875391759e-05,0.0890663415193557,0,0,0
11109,376139.7160466854,2010-09-26 00:17:11,2341.186838115527,7,33,-1.0997490882873535,3.586753845214844,32.91999228783008,32.65602888826036,131.16174171928705,119.5294156430647,-6.47544875391759e-05,0.0890663415193557,0,0,0
11110,376169.73103942495,2010-09-26 00:17:41,2371.201830754846,7,33,-1.0997490882873535,3.5840017795562744,32.91999228783008,32.665198613160186,131.16174171928705,119.56229256800228,-3.237724376958795e-05,0.0890663415193557,0,0,0
11111,376199.7463812359,2010-09-26 00:18:11,2401.217172565751,7,33,-1.099929690361023,3.581249713897705,32.91999228783008,32.67436840763771,131.16174171928705,119.59514347115996,-6.47544875391759e-05,0.0890663415193557,0,0,0
11112,376229.7618154875,2010-09-26 00:18:41,2431.232606792339,7,33,-1.099929690361023,3.578011989593506,32.91999228783008,32.683538165520105,131.16174171928705,119.62796737196702,-0.0001295089750783,0.0890663415193557,0,0,0
11113,376259.77720353886,2010-09-26 00:19:11,2461.24799484868,7,33,-1.0997490882873535,3.5750980377197266,32.91999228783008,32.69270794180941,131.16174171928705,119.66076364851952,-6.47544875391759e-05,0.0890663415193557,0,0,0
11114,376289.79260763526,2010-09-26 00:19:41,2491.263398945059,7,33,-1.099929690361023,3.571860313415528,32.91999228783008,32.70187775048059,131.16174171928705,119.6935318392226,-9.713172767078504e-05,0.0890663415193557,0,0,0
11115,376319.8080178619,2010-09-26 00:20:11,2521.278809166728,7,33,-1.099929690361023,3.568622589111328,32.91999228783008,32.71104761239354,131.16174171928705,119.72627131807728,-0.0001295089750783,0.0890663415193557,0,0,0
11116,376349.8234440434,2010-09-26 00:20:41,2551.2942353482345,7,33,-1.099929690361023,3.565384864807129,32.91999228783008,32.720217474497346,131.16174171928705,119.75898092735946,-9.713172767078504e-05,0.0890663415193557,0,0,0
11117,376379.83887577377,2010-09-26 00:21:11,2581.309667108668,7,33,-1.0997490882873535,3.5621471405029297,32.91999228783008,32.729387359181345,131.16174171928705,119.7916598295196,-6.47544875391759e-05,0.0890663415193557,0,0,0
11118,376409.8542540858,2010-09-26 00:21:41,2611.3250453906094,7,33,-1.0997490882873535,3.5585856437683105,32.91999228783008,32.73855720659913,131.16174171928705,119.82430697213522,-6.47544875391759e-05,0.0890663415193557,0,0,0
11119,376439.8700618799,2010-09-26 00:22:11,2641.340853214755,7,33,-1.0997490882873535,3.554862260818481,32.91999228783008,32.7477271526996,131.16174171928705,119.85692107261738,-9.713172767078504e-05,0.0890663415193557,0,0,0
11120,376469.8852142328,2010-09-26 00:22:41,2671.356005637919,7,33,-1.099929690361023,3.5508151054382324,32.91999228783008,32.75689690850062,131.16174171928705,119.88949974614142,-6.47544875391759e-05,0.0890663415193557,0,0,0
11121,376499.9006071864,2010-09-26 00:23:11,2701.3713984962465,7,33,-1.0997490882873535,3.5469298362731934,32.91999228783008,32.76606678895804,131.16174171928705,119.92204235176744,-9.713172767078504e-05,0.0890663415193557,0,0,0
11122,376529.9158864913,2010-09-26 00:23:41,2731.386677806139,7,33,-1.099568486213684,3.5425589084625244,32.91999228783008,32.775236617875606,131.16174171928705,119.95454706872316,-0.0001295089750783,0.0890663415193557,0,0,0
11123,376559.93142688286,2010-09-26 00:24:11,2761.4022181927194,7,33,-1.099929690361023,3.538349866867065,32.91999228783008,32.784406518015565,131.16174171928705,119.98701326143537,-0.0001295089750783,0.0890663415193557,0,0,0
11124,376589.9468620919,2010-09-26 00:24:41,2791.41765340176,7,33,-1.0997490882873535,3.5339789390563965,32.91999228783008,32.793576423977285,131.16174171928705,120.01943917860308,-9.713172767078504e-05,0.0890663415193557,0,0,0
11125,376619.9621218931,2010-09-26 00:25:11,2821.432913223007,7,33,-1.0997490882873535,3.5291223526000977,32.91999228783008,32.802746288501275,131.16174171928705,120.05182294546611,-0.0001295089750783,0.0890663415193557,0,0,0
11126,376649.97765938746,2010-09-26 00:25:41,2851.448450797568,7,33,-1.0997490882873535,3.524103879928589,32.91999228783008,32.81191622138517,131.16174171928705,120.08416247064751,-0.0001618862152099,0.0890663415193557,0,0,0
11127,376679.9930500403,2010-09-26 00:26:11,2881.463841345126,7,33,-1.099929690361023,3.51876163482666,32.91999228783008,32.82108606651496,131.16174171928705,120.1164540932112,-0.0001618862152099,0.0890663415193557,0,0,0
11128,376710.0083395959,2010-09-26 00:26:41,2911.4791309005946,7,33,-1.0997490882873535,3.5129337310791016,32.91999228783008,32.83025600132492,131.16174171928705,120.14869504516072,-0.0001618862152099,0.0890663415193557,0,0,0
11129,376740.023786108,2010-09-26 00:27:11,2941.494577422875,7,33,-1.0997490882873535,3.506782293319702,32.91999228783008,32.83942596121879,131.16174171928705,120.18088063774556,-0.0001942634553415,0.0890663415193557,0,0,0
11130,376770.0392092671,2010-09-26 00:27:41,2971.510000571812,7,33,-1.0997490882873535,3.499659299850464,32.91999228783008,32.84859587102161,131.16174171928705,120.2130047413016,-0.0002266406954731,0.0890663415193557,0,0,0
11131,376800.0546216641,2010-09-26 00:28:11,3001.5254129689106,7,33,-1.0997490882873535,3.491726875305176,32.91999228783008,32.85776578026566,131.16174171928705,120.24506068740428,-0.0001942634553415,0.0890663415193557,0,0,0
11132,376830.0706335226,2010-09-26 00:28:41,3031.541424917583,7,33,-1.1001102924346924,3.482823133468628,32.91999228783008,32.866935873098114,131.16174171928705,120.27704028881624,-0.0002590179501567,0.0890663415193557,0,0,0
11133,376860.085453957,2010-09-26 00:29:11,3061.5562453570647,7,33,-1.099929690361023,3.4721386432647705,32.91999228783008,32.87610556458302,131.16174171928705,120.30892885322154,-0.0003237724304199,0.0890663415193557,0,0,0
11134,376890.1008589105,2010-09-26 00:29:41,3091.5716502253704,7,33,-1.099929690361023,3.4595115184783936,32.91999228783008,32.88527548039824,131.16174171928705,120.3407128249822,-0.0003885269106831,0.0890663415193557,0,0,0
11135,376920.1162492926,2010-09-26 00:30:11,3121.5870405974915,7,33,-1.0997490882873535,3.443808555603028,32.91999228783008,32.8944453324256,131.16174171928705,120.3723664228186,-0.0004209041653666,0.0890663415193557,0,0,0
11136,376950.1316765268,2010-09-26 00:30:41,3151.602467831626,7,33,-1.0997490882873535,3.4222779273986816,32.91999228783008,32.90361519981022,131.16174171928705,120.4038510241052,-0.0006151676061563,0.0890663415193557,0,0,0
11137,376980.1470749992,2010-09-26 00:31:11,3181.6178663039664,7,33,-1.0997490882873535,3.392328977584839,32.91999228783008,32.912785164797185,131.16174171928705,120.43510391963224,-0.0009389400365762,0.0890663415193557,0,0,0
11138,377010.16249904525,2010-09-26 00:31:41,3211.633290375206,7,33,-1.099929690361023,3.3492674827575684,32.91999228783008,32.92195516614414,131.16174171928705,120.46602637158372,-0.0013274193042889,0.0890663415193557,0,0,0
11139,377040.177884836,2010-09-26 00:32:11,3241.6486761408287,7,33,-1.099929690361023,3.2869412899017334,32.91999228783008,32.93112507115319,131.16174171928705,120.49647045184273,-0.0019426345825195,0.0890663415193557,0,0,0
11140,377070.1935228011,2010-09-26 00:32:41,3271.664314116005,7,33,-1.0997490882873535,3.1967709064483643,32.91999228783008,32.94029505956016,131.16174171928705,120.52622553806452,-0.002816820051521,0.0890663415193557,0,0,0
11141,377100.2087083119,2010-09-26 00:33:11,3301.6794996167355,7,33,-1.099929690361023,3.051721334457397,32.91999228783008,32.949464918255465,131.16174171928705,120.55493625629477,-0.0049213408492505,0.0890663415193557,0,0,0
11142,377119.55232032354,2010-09-26 00:33:31,3321.023111653319,7,33,-1.0997490882873535,2.851630687713623,32.91999228783008,32.95537453108212,131.16174171928705,120.57247280151384,-0.0117528913542628,0.0890663415193557,0,0,0
11143,377128.06790782494,2010-09-26 00:33:39,3329.538699149801,7,33,-1.0997490882873535,2.699943780899048,32.91999228783008,32.95797611706801,131.16174171928705,120.57969855819182,-0.0146344657987356,0.0890663415193557,0,0,0
11144,377188.0778213498,2010-09-26 00:34:39,60.01528567115608,8,33,0.0,3.3149476051330566,32.91999228783008,32.95797611706801,131.16174171928705,120.57969855819182,0.0013598442310467,0.0890663415193557,0,0,0
11145,377188.2758713437,2010-09-26 00:34:40,0.187438665746421,9,33,-1.9243103452026844e-05,3.3155951499938965,32.91999228783008,32.95797611806992,131.16174171928705,120.57969856151377,0.0,0.0883364379405975,0,0,0
11146,377193.1039528129,2010-09-26 00:34:45,5.015520109812571,9,33,0.0007031940040178,3.3243370056152344,32.91999307428965,32.95797611823703,131.16174433075895,120.57969856206834,0.0012950897216796,0.0883364379405975,0,0,0
