Data_Point,Test_Time(s),Date_Time,Step_Time(s),Step_Index,Cycle_Index,Current(A),Voltage(V),Charge_Capacity(Ah),Discharge_Capacity(Ah),Charge_Energy(Wh),Discharge_Energy(Wh),dV/dt(V/s),Internal_Resistance(Ohm),Is_FC_Data,AC_Impedance(Ohm),ACI_Phase_Angle(Deg)
1330,44272.826034456186,2010-09-22 04:05:30,30.015408667789984,1,5,0.0,3.406413078308105,3.916313274467057,3.933036875473247,15.60395089945096,14.367038183619444,0.0009389400365762,0.0868726819753646,0,0,0
1331,44302.841477048656,2010-09-22 04:06:00,60.03085135549892,1,5,0.0,3.43280029296875,3.916313274467057,3.933036875473247,15.60395089945096,14.367038183619444,0.000615119934082,0.0868726819753646,0,0,0
1332,44332.85683744595,2010-09-22 04:06:30,90.04621176783586,1,5,0.0,3.453197956085205,3.916313274467057,3.933036875473247,15.60395089945096,14.367038183619444,0.0005180359003134,0.0868726819753646,0,0,0
1333,44362.82511471652,2010-09-22 04:07:00,120.01448893815716,1,5,0.0,3.469062805175781,3.916313274467057,3.933036875473247,15.60395089945096,14.367038183619444,0.0003561496851034,0.0868726819753646,0,0,0
1334,44392.84261849578,2010-09-22 04:07:31,30.015192377897137,2,5,0.5501165986061096,3.6113603115081783,3.920899864737266,3.933036875473247,15.620364452486983,14.367038183619444,0.0014569759368896,0.0868726819753646,0,0,0
1335,44422.85792531433,2010-09-22 04:08:01,60.03049919645577,2,5,0.5501165986061096,3.655069589614868,3.925486480366817,3.933036875473247,15.637034905071006,14.367038183619444,0.0009713172912597,0.0868726819753646,0,0,0
1336,44452.87338734533,2010-09-22 04:08:31,90.04596130764871,2,5,0.5501165986061096,3.6864752769470215,3.930072996774118,3.933036875473247,15.653874010358525,14.367038183619444,0.0008094310760498,0.0868726819753646,0,0,0
1337,44482.88873721133,2010-09-22 04:09:01,120.06131110348524,2,5,0.5499359965324402,3.7109200954437256,3.934659458384708,3.933036875473247,15.670839893099778,14.367038183619444,0.0006151676061563,0.0868726819753646,0,0,0
1338,44512.90399184964,2010-09-22 04:09:31,150.0765657317689,2,5,0.5499359965324402,3.730670213699341,3.939245978897588,3.933036875473247,15.687906948093453,14.367038183619444,0.0004856586456298,0.0868726819753646,0,0,0
1339,44542.91918058344,2010-09-22 04:10:01,180.09175447559485,2,5,0.5499359965324402,3.746373176574707,3.943832451514491,3.933036875473247,15.705055084508247,14.367038183619444,0.0003561496851034,0.0868726819753646,0,0,0
1340,44572.93454878021,2010-09-22 04:10:31,210.10712266735044,2,5,0.5499359965324402,3.757704973220825,3.948418057762238,3.933036875473247,15.722262305880871,14.367038183619444,0.0002266406954731,0.0868726819753646,0,0,0
1341,44602.93568578373,2010-09-22 04:11:01,240.10825966084573,2,5,0.5501165986061096,3.764504194259644,3.953001427557389,3.933036875473247,15.73950209762844,14.367038183619444,0.0001618862152099,0.0868726819753646,0,0,0
1342,44632.949690251415,2010-09-22 04:11:31,270.1222641686364,2,5,0.5501165986061096,3.768875122070313,3.957587735213799,3.933036875473247,15.756777703555828,14.367038183619444,9.713172767078504e-05,0.0868726819753646,0,0,0
1343,44662.96481157696,2010-09-22 04:12:01,300.13738545908825,2,5,0.5501165986061096,3.772436618804932,3.962174220259688,3.933036875473247,15.774071631928145,14.367038183619444,9.713172767078504e-05,0.0868726819753646,0,0,0
1344,44692.98023496149,2010-09-22 04:12:31,330.1528088436135,2,5,0.5499359965324402,3.775836229324341,3.966760667637386,3.933036875473247,15.791381330797003,14.367038183619444,9.713172767078504e-05,0.0868726819753646,0,0,0
1345,44722.9956182409,2010-09-22 04:13:01,360.1681921230302,2,5,0.5501165986061096,3.77907395362854,3.971347130472951,3.933036875473247,15.808706574670657,14.367038183619444,6.47544875391759e-05,0.0868726819753646,0,0,0
1346,44753.01071984722,2010-09-22 04:13:31,390.18329373937246,2,5,0.5501165986061096,3.782473564147949,3.975933525187179,3.933036875473247,15.826046897808784,14.367038183619444,0.0001295089750783,0.0868726819753646,0,0,0
1347,44783.02601318212,2010-09-22 04:14:01,420.1985870642488,2,5,0.5501165986061096,3.785711288452149,3.980519980737052,3.933036875473247,15.84340267428234,14.367038183619444,6.47544875391759e-05,0.0868726819753646,0,0,0
1348,44813.04130858218,2010-09-22 04:14:31,450.21388246430513,2,5,0.5501165986061096,3.7891108989715576,3.985106440636088,3.933036875473247,15.860773431748482,14.367038183619444,9.713172767078504e-05,0.0868726819753646,0,0,0
1349,44843.056640859286,2010-09-22 04:15:01,480.22921475143727,2,5,0.5501165986061096,3.792024850845337,3.989692937328426,3.933036875473247,15.87815910475656,14.367038183619444,3.237724376958795e-05,0.0868726819753646,0,0,0
1350,44873.071944234245,2010-09-22 04:15:31,510.2445181163751,2,5,0.5501165986061096,3.795424461364746,3.994279413456996,3.933036875473247,15.895559317523874,14.367038183619444,6.47544875391759e-05,0.0868726819753646,0,0,0
1351,44903.0873373833,2010-09-22 04:16:01,540.259911265428,2,5,0.5501165986061096,3.798500299453736,3.998865949279743,3.933036875473247,15.912974215881537,14.367038183619444,6.47544875391759e-05,0.0868726819753646,0,0,0
1352,44933.10252886896,2010-09-22 04:16:31,570.2751028663857,2,5,0.5501165986061096,3.8015761375427246,4.003452436889517,3.933036875473247,15.930403228126918,14.367038183619444,3.237724376958795e-05,0.0868726819753646,0,0,0
1353,44963.1178157277,2010-09-22 04:17:01,600.2903896198588,2,5,0.5499359965324402,3.804651975631714,4.008038911539815,3.933036875473247,15.947846333109434,14.367038183619444,6.47544875391759e-05,0.0868726819753646,0,0,0
1354,44993.133092230586,2010-09-22 04:17:31,630.3056661177322,2,5,0.5501165986061096,3.807727813720703,4.012625398857797,3.933036875473247,15.965303702851608,14.367038183619444,6.47544875391759e-05,0.0868726819753646,0,0,0
1355,45023.14838968578,2010-09-22 04:18:01,660.3209635729186,2,5,0.5501165986061096,3.8109655380249023,4.017212057494599,3.933036875473247,15.982775939713072,14.367038183619444,9.713172767078504e-05,0.0868726819753646,0,0,0
1356,45053.16370583763,2010-09-22 04:18:31,690.336279719762,2,5,0.5501165986061096,3.8142032623291016,4.021799353671209,3.933036875473247,16.000265016435606,14.367038183619444,9.713172767078504e-05,0.0868726819753646,0,0,0
1357,45083.17913571336,2010-09-22 04:19:01,720.3517095954902,2,5,0.5501165986061096,3.817279100418091,4.026386536872299,3.933036875473247,16.01776837069992,14.367038183619444,6.47544875391759e-05,0.0868726819753646,0,0,0
1358,45113.19429633198,2010-09-22 04:19:31,750.3668702241363,2,5,0.550297200679779,3.8206787109375,4.030972917604458,3.933036875473247,16.035283525451234,14.367038183619444,9.713172767078504e-05,0.0868726819753646,0,0,0
1359,45143.20959164682,2010-09-22 04:20:01,780.3821655389802,2,5,0.5501165986061096,3.823916435241699,4.035559313316588,3.933036875473247,16.05281395151177,14.367038183619444,9.713172767078504e-05,0.0868726819753646,0,0,0
1360,45173.22488647546,2010-09-22 04:20:31,810.3974603575849,2,5,0.5501165986061096,3.827316045761109,4.040145728707844,3.933036875473247,16.07036003692471,14.367038183619444,6.47544875391759e-05,0.0868726819753646,0,0,0
1361,45203.24018659229,2010-09-22 04:21:01,840.4127605746653,2,5,0.5499359965324402,3.830877542495728,4.044732142075768,3.933036875473247,16.087921883414953,14.367038183619444,0.0001295089750783,0.0868726819753646,0,0,0
1362,45233.25547380691,2010-09-22 04:21:31,870.4280476990641,2,5,0.5501165986061096,3.8342769145965576,4.049318530397744,3.933036875473247,16.105499526719314,14.367038183619444,9.713172767078504e-05,0.0868726819753646,0,0,0
1363,45263.27080077076,2010-09-22 04:22:01,900.4433746528836,2,5,0.5499359965324402,3.837676525115967,4.053904910684238,3.933036875473247,16.123093029332495,14.367038183619444,6.47544875391759e-05,0.0868726819753646,0,0,0
1364,45293.28626653106,2010-09-22 04:22:31,930.4588405134356,2,5,0.5501165986061096,3.841238021850586,4.058491336181604,3.933036875473247,16.140702400122393,14.367038183619444,9.713172767078504e-05,0.0868726819753646,0,0,0
1365,45323.30151694884,2010-09-22 04:23:01,960.4740908409836,2,5,0.5499359965324402,3.844313859939575,4.063077719925805,3.933036875473247,16.15832708543877,14.367038183619444,6.47544875391759e-05,0.0868726819753646,0,0,0
1366,45353.31664332698,2010-09-22 04:23:31,990.4892172993356,2,5,0.550297200679779,3.8478753566741934,4.067664126561465,3.933036875473247,16.175967016824398,14.367038183619444,0.0001295089750783,0.0868726819753646,0,0,0
1367,45383.331930581706,2010-09-22 04:24:01,1020.5045045690974,2,5,0.5501165986061096,3.8507893085479736,4.072250514267781,3.933036875473247,16.19362169810409,14.367038183619444,6.47544875391759e-05,0.0868726819753646,0,0,0
1368,45413.34758203552,2010-09-22 04:24:31,1050.5201559427185,2,5,0.5501165986061096,3.854027032852173,4.076836995975687,3.933036875473247,16.211291274481965,14.367038183619444,9.713172767078504e-05,0.0868726819753646,0,0,0
1369,45443.36247571783,2010-09-22 04:25:01,1080.535049599963,2,5,0.5499359965324402,3.857102870941162,4.081423262670783,3.933036875473247,16.228974291953246,14.367038183619444,3.237724376958795e-05,0.0868726819753646,0,0,0
1370,45473.37777108782,2010-09-22 04:25:31,1110.5503449749567,2,5,0.550297200679779,3.860178709030152,4.086009619055136,3.933036875473247,16.24667139129341,14.367038183619444,9.713172767078504e-05,0.0868726819753646,0,0,0
1371,45503.39304402681,2010-09-22 04:26:01,1140.565617918959,2,5,0.5501165986061096,3.8629307746887207,4.090595979604805,3.933036875473247,16.264381836896067,14.367038183619444,6.47544875391759e-05,0.0868726819753646,0,0,0
1372,45533.40847667947,2010-09-22 04:26:31,1170.581050561594,2,5,0.550297200679779,3.86568284034729,4.095182432115482,3.933036875473247,16.28210532321801,14.367038183619444,6.47544875391759e-05,0.0868726819753646,0,0,0
1373,45563.423630746736,2010-09-22 04:27:01,1200.5962047240996,2,5,0.5501165986061096,3.8682730197906494,4.099768868845593,3.933036875473247,16.29984095027398,14.367038183619444,6.47544875391759e-05,0.0868726819753646,0,0,0
1374,45593.43889928975,2010-09-22 04:27:31,1230.6114731969417,2,5,0.5501165986061096,3.870701313018799,4.104355362641074,3.933036875473247,16.317588336154905,14.367038183619444,9.713172767078504e-05,0.0868726819753646,0,0,0
1375,45623.45431127081,2010-09-22 04:28:01,1260.6268851579518,2,5,0.5501165986061096,3.8729677200317374,4.108941731882258,3.933036875473247,16.335346124444406,14.367038183619444,3.237724376958795e-05,0.0868726819753646,0,0,0
1376,45653.469628299856,2010-09-22 04:28:31,1290.642202181985,2,5,0.5499359965324402,3.875072240829468,4.113528311085695,3.933036875473247,16.353114979962182,14.367038183619444,6.47544875391759e-05,0.0868726819753646,0,0,0
1377,45683.48478782074,2010-09-22 04:29:01,1320.6573617128909,2,5,0.5499359965324402,3.877176761627197,4.11811475703461,3.933036875473247,16.37089289081434,14.367038183619444,6.47544875391759e-05,0.0868726819753646,0,0,0
1378,45713.50005092016,2010-09-22 04:29:31,1350.6726248073076,2,5,0.5501165986061096,3.879119396209717,4.122701182277504,3.933036875473247,16.38867973083702,14.367038183619444,6.47544875391759e-05,0.0868726819753646,0,0,0
1379,45743.515336846576,2010-09-22 04:30:01,1380.6879107587788,2,5,0.5499359965324402,3.880738258361816,4.127287653339643,3.933036875473247,16.406474986422513,14.367038183619444,3.237724376958795e-05,0.0868726819753646,0,0,0
1380,45773.530610011134,2010-09-22 04:30:31,1410.703183893257,2,5,0.5501165986061096,3.882519006729126,4.131874146545257,3.933036875473247,16.424278079964495,14.367038183619444,6.47544875391759e-05,0.0868726819753646,0,0,0
1381,45803.54590764176,2010-09-22 04:31:01,1440.7184815238809,2,5,0.550297200679779,3.8841378688812256,4.136460652348416,3.933036875473247,16.44208846783566,14.367038183619444,6.47544875391759e-05,0.0868726819753646,0,0,0
1382,45833.561304084025,2010-09-22 04:31:31,1470.733877976179,2,5,0.5501165986061096,3.885432958602905,4.14104711269994,3.933036875473247,16.459905304527066,14.367038183619444,3.237724376958795e-05,0.0868726819753646,0,0,0
1383,45863.576614065474,2010-09-22 04:32:01,1500.74918795262,2,5,0.5501165986061096,3.886566162109375,4.145633585130265,3.933036875473247,16.477728607863163,14.367038183619444,0.0,0.0868726819753646,0,0,0
1384,45893.591767310696,2010-09-22 04:32:31,1530.7643411928236,2,5,0.5501165986061096,3.8880231380462646,4.150220042921788,3.933036875473247,16.49555787067046,14.367038183619444,3.237724376958795e-05,0.0868726819753646,0,0,0
1385,45923.60704170331,2010-09-22 04:33:01,1560.7796155904546,2,5,0.5499359965324402,3.8891563415527344,4.154806489150032,3.933036875473247,16.513392965943495,14.367038183619444,0.0,0.0868726819753646,0,0,0
1386,45953.62244126337,2010-09-22 04:33:31,1590.795015145498,2,5,0.5501165986061096,3.890613317489624,4.159393005284963,3.933036875473247,16.531233953616365,14.367038183619444,3.237724376958795e-05,0.0868726819753646,0,0,0
1387,45983.63762242326,2010-09-22 04:34:01,1620.810196305393,2,5,0.550297200679779,3.8917465209960938,4.163979403743406,3.933036875473247,16.549080017058518,14.367038183619444,3.237724376958795e-05,0.0868726819753646,0,0,0
1388,46013.652957793085,2010-09-22 04:34:31,1650.8255316802326,2,5,0.5501165986061096,3.892879724502564,4.168565959014497,3.933036875473247,16.56693217503688,14.367038183619444,3.237724376958795e-05,0.0868726819753646,0,0,0
1389,46043.67004746693,2010-09-22 04:35:01,1680.842621359085,2,5,0.550297200679779,3.894012928009033,4.173152642135898,3.933036875473247,16.5847901172232,14.367038183619444,3.237724376958795e-05,0.0868726819753646,0,0,0
1390,46073.683487475646,2010-09-22 04:35:31,1710.8560613728114,2,5,0.5499359965324402,3.894984245300293,4.177738806809763,3.933036875473247,16.60265127072345,14.367038183619444,0.0,0.0868726819753646,0,0,0
1391,46103.698756544974,2010-09-22 04:36:01,1740.871330432117,2,5,0.550297200679779,3.896441221237183,4.182325175371583,3.933036875473247,16.620518250936016,14.367038183619444,6.47544875391759e-05,0.0868726819753646,0,0,0
1392,46133.71398241146,2010-09-22 04:36:31,1770.8865563186573,2,5,0.5501165986061096,3.8974125385284415,4.186911541627745,3.933036875473247,16.638390774118303,14.367038183619444,3.237724376958795e-05,0.0868726819753646,0,0,0
1393,46163.72930380139,2010-09-22 04:37:01,1800.9018776835255,2,5,0.5501165986061096,3.898707628250122,4.191497967269436,3.933036875473247,16.65626897689339,14.367038183619444,6.47544875391759e-05,0.0868726819753646,0,0,0
1394,46193.744578499776,2010-09-22 04:37:31,1830.9171523819075,2,5,0.5501165986061096,3.899840831756592,4.196084347523903,3.933036875473247,16.67415253526417,14.367038183619444,0.0,0.0868726819753646,0,0,0
1395,46223.75985651143,2010-09-22 04:38:01,1860.9324303935591,2,5,0.5499359965324402,3.900812149047852,4.200670849023687,3.933036875473247,16.69204195138014,14.367038183619444,-3.237724376958795e-05,0.0868726819753646,0,0,0
1396,46253.77525918927,2010-09-22 04:38:32,1890.947833071397,2,5,0.5499359965324402,3.902269124984741,4.205257333143898,3.933036875473247,16.709936843065865,14.367038183619444,3.237724376958795e-05,0.0868726819753646,0,0,0
1397,46283.7904344344,2010-09-22 04:39:02,1920.9630083165284,2,5,0.550297200679779,3.903564214706421,4.209843785038448,3.933036875473247,16.727837075700894,14.367038183619444,3.237724376958795e-05,0.0868726819753646,0,0,0
1398,46313.80584972372,2010-09-22 04:39:32,1950.978423605847,2,5,0.5501165986061096,3.9048593044281006,4.21443022359053,3.933036875473247,16.745742862611237,14.367038183619444,6.47544875391759e-05,0.0868726819753646,0,0,0
1399,46343.82103280842,2010-09-22 04:40:02,1980.9936067857848,2,5,0.5501165986061096,3.9059925079345694,4.21901663731114,3.933036875473247,16.763654051796106,14.367038183619444,6.47544875391759e-05,0.0868726819753646,0,0,0
1400,46373.83625801325,2010-09-22 04:40:32,2011.008831895385,2,5,0.5501165986061096,3.90712571144104,4.223603006343283,3.933036875473247,16.7815707775694,14.367038183619444,0.0,0.0868726819753646,0,0,0
1401,46403.851549488514,2010-09-22 04:41:02,2041.0241233706445,2,5,0.5499359965324402,3.9082589149475098,4.228189424417303,3.933036875473247,16.799493398057702,14.367038183619444,3.237724376958795e-05,0.0868726819753646,0,0,0
1402,46433.86683928459,2010-09-22 04:41:32,2071.039413166712,2,5,0.5499359965324402,3.9095540046691895,4.232775793509072,3.933036875473247,16.817421600917843,14.367038183619444,0.0,0.0868726819753646,0,0,0
1403,46463.88210832885,2010-09-22 04:42:02,2101.0546822109804,2,5,0.5501165986061096,3.911010980606079,4.2373622013595,3.933036875473247,16.835355721253176,14.367038183619444,6.47544875391759e-05,0.0868726819753646,0,0,0
1404,46493.89739423521,2010-09-22 04:42:32,2131.069968117339,2,5,0.5501165986061096,3.912144184112549,4.24194862159217,3.933036875473247,16.85329576665961,14.367038183619444,3.237724376958795e-05,0.0868726819753646,0,0,0
1405,46523.91284583516,2010-09-22 04:43:02,2161.085419747369,2,5,0.5501165986061096,3.9136011600494394,4.24653506245854,3.933036875473247,16.87124180263794,14.367038183619444,6.47544875391759e-05,0.0868726819753646,0,0,0
1406,46553.91486849943,2010-09-22 04:43:32,2191.0874423865725,2,5,0.5501165986061096,3.915057897567749,4.251119468008985,3.933036875473247,16.88918584962278,14.367038183619444,6.47544875391759e-05,0.0868726819753646,0,0,0
1407,46583.92773483618,2010-09-22 04:44:02,2221.1003088185507,2,5,0.5499359965324402,3.916029214859009,4.255705511577233,3.933036875473247,16.907142235726486,14.367038183619444,6.47544875391759e-05,0.0868726819753646,0,0,0
1408,46613.9429055149,2010-09-22 04:44:32,2251.115479492272,2,5,0.5501165986061096,3.9174861907958975,4.260291849650878,3.933036875473247,16.92510589538503,14.367038183619444,6.47544875391759e-05,0.0868726819753646,0,0,0
1409,46643.95829044845,2010-09-22 04:45:02,2281.1308643305792,2,5,0.5501165986061096,3.918781280517578,4.264878305068791,3.933036875473247,16.943076134958545,14.367038183619444,3.237724376958795e-05,0.0868726819753646,0,0,0
1410,46673.97347693164,2010-09-22 04:45:32,2311.1460508237874,2,5,0.5501165986061096,3.920238256454468,4.269464666928189,3.933036875473247,16.96105225116882,14.367038183619444,6.47544875391759e-05,0.0868726819753646,0,0,0
1411,46703.97528603281,2010-09-22 04:46:02,2341.147859914942,2,5,0.5501165986061096,3.921533346176148,4.274049045323959,3.933036875473247,16.97902677021292,14.367038183619444,6.47544875391759e-05,0.0868726819753646,0,0,0
1412,46733.98837391256,2010-09-22 04:46:32,2371.1609478899254,2,5,0.5501165986061096,3.922828435897827,4.278635057862782,3.933036875473247,16.99701402722943,14.367038183619444,3.237724376958795e-05,0.0868726819753646,0,0,0
1413,46764.00377588363,2010-09-22 04:47:02,2401.1763497557367,2,5,0.5499359965324402,3.924285411834717,4.283221519361777,3.933036875473247,17.015009443968925,14.367038183619444,3.237724376958795e-05,0.0868726819753646,0,0,0
1414,46794.01892231684,2010-09-22 04:47:32,2431.191496203986,2,5,0.5501165986061096,3.9257423877716064,4.287807945454989,3.933036875473247,17.0330112175507,14.367038183619444,6.47544875391759e-05,0.0868726819753646,0,0,0
1415,46824.03426103504,2010-09-22 04:48:02,2461.206834917158,2,5,0.5501165986061096,3.927037477493286,4.292394372311081,3.933036875473247,17.05101936528983,14.367038183619444,3.237724376958795e-05,0.0868726819753646,0,0,0
1416,46854.04948494664,2010-09-22 04:48:32,2491.222058858844,2,5,0.5499359965324402,3.928494453430176,4.296980835702248,3.933036875473247,17.069034264906726,14.367038183619444,0.0,0.0868726819753646,0,0,0
1417,46884.0647648029,2010-09-22 04:49:02,2521.2373387151,2,5,0.550297200679779,3.9301133155822754,4.301567246920465,3.933036875473247,17.087055540056966,14.367038183619444,6.47544875391759e-05,0.0868726819753646,0,0,0
1418,46914.08015667376,2010-09-22 04:49:32,2551.2527305809504,2,5,0.5499359965324402,3.931570291519165,4.306153706937677,3.933036875473247,17.1050837113168,14.367038183619444,6.47544875391759e-05,0.0868726819753646,0,0,0
1419,46944.09531893648,2010-09-22 04:50:02,2581.2678928186124,2,5,0.5501165986061096,3.933027267456055,4.310740077755198,3.933036875473247,17.123118202714707,14.367038183619444,3.237724376958795e-05,0.0868726819753646,0,0,0
1420,46974.11058558478,2010-09-22 04:50:32,2611.2831594669,2,5,0.5501165986061096,3.934484243392944,4.315326477655493,3.933036875473247,17.141159599070367,14.367038183619444,6.47544875391759e-05,0.0868726819753646,0,0,0
1421,47004.12599110972,2010-09-22 04:51:02,2641.2985649918446,2,5,0.5501165986061096,3.935941219329834,4.319912926236866,3.933036875473247,17.159208031127374,14.367038183619444,3.237724376958795e-05,0.0868726819753646,0,0,0
1422,47034.141157923805,2010-09-22 04:51:32,2671.313731810944,2,5,0.5501165986061096,3.9375600814819336,4.324499420664251,3.933036875473247,17.17726338979866,14.367038183619444,9.713172767078504e-05,0.0868726819753646,0,0,0
1423,47064.15642621118,2010-09-22 04:52:02,2701.3290000983225,2,5,0.5499359965324402,3.9386932849884033,4.32908584619029,3.933036875473247,17.195325502986247,14.367038183619444,0.0,0.0868726819753646,0,0,0
1424,47094.17182626246,2010-09-22 04:52:32,2731.344400149604,2,5,0.550297200679779,3.940635919570923,4.333672316522961,3.933036875473247,17.213394789721303,14.367038183619444,0.0001295089750783,0.0868726819753646,0,0,0
1425,47124.18704921167,2010-09-22 04:53:02,2761.3596232141,2,5,0.5501165986061096,3.9419310092926025,4.338258782216527,3.933036875473247,17.2314710728561,14.367038183619444,3.237724376958795e-05,0.0868726819753646,0,0,0
1426,47154.2023478849,2010-09-22 04:53:32,2791.374921767026,2,5,0.5499359965324402,3.943387985229492,4.342845178151377,3.933036875473247,17.24955419395605,14.367038183619444,3.237724376958795e-05,0.0868726819753646,0,0,0
1427,47184.21766892896,2010-09-22 04:54:02,2821.390242811094,2,5,0.5501165986061096,3.9451687335968018,4.34743163559506,3.933036875473247,17.267644734443103,14.367038183619444,3.237724376958795e-05,0.0868726819753646,0,0,0
1428,47214.23281730202,2010-09-22 04:54:32,2851.405391184148,2,5,0.5501165986061096,3.9466257095336914,4.352018054933867,3.933036875473247,17.285742389280255,14.367038183619444,3.237724376958795e-05,0.0868726819753646,0,0,0
1429,47244.248273719,2010-09-22 04:55:02,2881.420847611153,2,5,0.5501165986061096,3.948244571685791,4.356604595493699,3.933036875473247,17.303847674904937,14.367038183619444,0.0,0.0868726819753646,0,0,0
1430,47274.26336657848,2010-09-22 04:55:32,2911.435940460611,2,5,0.5501165986061096,3.9500253200531006,4.361191022515712,3.933036875473247,17.321959893802923,14.367038183619444,9.713172767078504e-05,0.0868726819753646,0,0,0
1431,47304.27866225423,2010-09-22 04:56:02,2941.4512361664306,2,5,0.5501165986061096,3.9514822959899902,4.365777463972686,3.933036875473247,17.34007961235179,14.367038183619444,6.47544875391759e-05,0.0868726819753646,0,0,0
1432,47334.29391485745,2010-09-22 04:56:32,2971.4664887395847,2,5,0.550297200679779,3.9532630443573,4.370363924149743,3.933036875473247,17.358206803161845,14.367038183619444,3.237724376958795e-05,0.0868726819753646,0,0,0
1433,47364.3091914656,2010-09-22 04:57:02,3001.481765347733,2,5,0.550297200679779,3.9548819065094,4.374950400027701,3.933036875473247,17.376341646049358,14.367038183619444,9.713172767078504e-05,0.0868726819753646,0,0,0
1434,47394.3248578517,2010-09-22 04:57:32,3031.4974317388405,2,5,0.5501165986061096,3.956500768661499,4.37953690367004,3.933036875473247,17.394484186915605,14.367038183619444,3.237724376958795e-05,0.0868726819753646,0,0,0
1435,47424.33988228538,2010-09-22 04:58:02,3061.51245616751,2,5,0.5501165986061096,3.9582815170288086,4.384123306572887,3.933036875473247,17.412633867050115,14.367038183619444,6.47544875391759e-05,0.0868726819753646,0,0,0
1436,47454.355036307534,2010-09-22 04:58:32,3091.527610219741,2,5,0.5501165986061096,3.959900379180908,4.388709738778655,3.933036875473247,17.430791402246406,14.367038183619444,6.47544875391759e-05,0.0868726819753646,0,0,0
1437,47484.37028413886,2010-09-22 04:59:02,3121.542858031009,2,5,0.5501165986061096,3.9616811275482178,4.393296167553348,3.933036875473247,17.448956718610706,14.367038183619444,6.47544875391759e-05,0.0868726819753646,0,0,0
1438,47514.385543869874,2010-09-22 04:59:32,3151.558117782079,2,5,0.5501165986061096,3.963299989700317,4.397882539414611,3.933036875473247,17.467129651696162,14.367038183619444,6.47544875391759e-05,0.0868726819753646,0,0,0
1439,47544.40083796668,2010-09-22 05:00:02,3181.573411848807,2,5,0.5499359965324402,3.964918851852417,4.402468947899973,3.933036875473247,17.485310677236008,14.367038183619444,3.237724376958795e-05,0.0868726819753646,0,0,0
1440,47574.41609191326,2010-09-22 05:00:32,3211.588665800402,2,5,0.5501165986061096,3.966699600219727,4.407055470555195,3.933036875473247,17.503500275525653,14.367038183619444,6.47544875391759e-05,0.0868726819753646,0,0,0
1441,47604.4313924762,2010-09-22 05:01:02,3241.603966358333,2,5,0.5501165986061096,3.968318462371826,4.411641920687969,3.933036875473247,17.521697610117926,14.367038183619444,0.0,0.0868726819753646,0,0,0
1442,47634.44678326938,2010-09-22 05:01:32,3271.619357151505,2,5,0.5499359965324402,3.970099210739136,4.416228406267688,3.933036875473247,17.539903251543706,14.367038183619444,3.237724376958795e-05,0.0868726819753646,0,0,0
1443,47664.46215850371,2010-09-22 05:02:02,3301.6347323858404,2,5,0.5501165986061096,3.972203731536865,4.420814986252961,3.933036875473247,17.558117554846408,14.367038183619444,6.47544875391759e-05,0.0868726819753646,0,0,0
1444,47694.47732490176,2010-09-22 05:02:32,3331.6498987889,2,5,0.5499359965324402,3.973822593688965,4.425401445860079,3.933036875473247,17.576339665366515,14.367038183619444,3.237724376958795e-05,0.0868726819753646,0,0,0
1445,47724.49247320965,2010-09-22 05:03:02,3361.66504709178,2,5,0.5501165986061096,3.975765228271485,4.429987931154227,3.933036875473247,17.594570364855965,14.367038183619444,0.0,0.0868726819753646,0,0,0
1446,47754.50787242384,2010-09-22 05:03:32,3391.6804463159965,2,5,0.5501165986061096,3.977707862854004,4.434574461558182,3.933036875473247,17.612809808487842,14.367038183619444,6.47544875391759e-05,0.0868726819753646,0,0,0
1447,47784.52304418026,2010-09-22 05:04:02,3421.6956180623943,2,5,0.550297200679779,3.979650497436523,4.43916097382998,3.933036875473247,17.631057331770478,14.367038183619444,3.237724376958795e-05,0.0868726819753646,0,0,0
1448,47814.53829968072,2010-09-22 05:04:32,3451.71087359293,2,5,0.5501165986061096,3.981431245803833,4.443747390008361,3.933036875473247,17.649313658604424,14.367038183619444,3.237724376958795e-05,0.0868726819753646,0,0,0
1449,47844.55358455451,2010-09-22 05:05:02,3481.726158436636,2,5,0.5499359965324402,3.983373880386353,4.448333753462735,3.933036875473247,17.66757860731237,14.367038183619444,3.237724376958795e-05,0.0868726819753646,0,0,0
1450,47874.568897663776,2010-09-22 05:05:32,3511.741471555922,2,5,0.5499359965324402,3.985316514968872,4.452920152246057,3.933036875473247,17.68585258705955,14.367038183619444,3.237724376958795e-05,0.0868726819753646,0,0,0
1451,47904.58414046754,2010-09-22 05:06:02,3541.7567143496653,2,5,0.5499359965324402,3.987259149551392,4.45750653698922,3.933036875473247,17.704135573759032,14.367038183619444,0.0,0.0868726819753646,0,0,0
1452,47934.59940406822,2010-09-22 05:06:32,3571.7719779553577,2,5,0.5501165986061096,3.989363670349121,4.462092939218087,3.933036875473247,17.722427662779108,14.367038183619444,6.47544875391759e-05,0.0868726819753646,0,0,0
1453,47964.61469174399,2010-09-22 05:07:02,3601.78726562612,2,5,0.5499359965324402,3.9913063049316406,4.466679321517201,3.933036875473247,17.74072893572528,14.367038183619444,3.237724376958795e-05,0.0868726819753646,0,0,0
1454,47994.63009517371,2010-09-22 05:07:32,3631.802669060848,2,5,0.5501165986061096,3.99341082572937,4.471265693137676,3.933036875473247,17.759039543753754,14.367038183619444,6.47544875391759e-05,0.0868726819753646,0,0,0
1455,48024.6452491708,2010-09-22 05:08:02,3661.8178230378912,2,5,0.5499359965324402,3.995353221893311,4.475852073196362,3.933036875473247,17.777359610062575,14.367038183619444,3.237724376958795e-05,0.0868726819753646,0,0,0
1456,48054.66049805976,2010-09-22 05:08:32,3691.8330719468986,2,5,0.5501165986061096,3.99778151512146,4.480438424129573,3.933036875473247,17.795689093498112,14.367038183619444,0.0001295089750783,0.0868726819753646,0,0,0
1457,48084.67581792588,2010-09-22 05:09:02,3721.848391898237,2,5,0.5501165986061096,3.99972414970398,4.485024778320995,3.933036875473247,17.814028155568693,14.367038183619444,3.237724376958795e-05,0.0868726819753646,0,0,0
1458,48114.69107344138,2010-09-22 05:09:32,3751.863647348574,2,5,0.5501165986061096,4.001828670501709,4.489611130230525,3.933036875473247,17.83237691307337,14.367038183619444,6.47544875391759e-05,0.0868726819753646,0,0,0
1459,48144.70633544307,2010-09-22 05:10:02,3781.878909330213,2,5,0.5501165986061096,4.0037713050842285,4.494197494498722,3.933036875473247,17.850735475125425,14.367038183619444,3.23295607813634e-05,0.0868726819753646,0,0,0
1460,48174.72160668282,2010-09-22 05:10:32,3811.894180564949,2,5,0.5501165986061096,4.006199836730957,4.49878387945579,3.933036875473247,17.869104009524612,14.367038183619444,9.71794142969884e-05,0.0868726819753646,0,0,0
1461,48204.736908463805,2010-09-22 05:11:02,3841.9094823559594,2,5,0.5501165986061096,4.008304119110107,4.503370331596961,3.933036875473247,17.88748278244809,14.367038183619444,3.23295607813634e-05,0.0868726819753646,0,0,0
1462,48234.75214403953,2010-09-22 05:11:33,3871.9247179266704,2,5,0.5501165986061096,4.010408878326416,4.507956751378544,3.933036875473247,17.905871386149347,14.367038183619444,3.24249267578125e-05,0.0868726819753646,0,0,0
1463,48264.7675624366,2010-09-22 05:12:03,3901.940136323746,2,5,0.550297200679779,4.012675285339356,4.512543194658027,3.933036875473247,17.92427021443333,14.367038183619444,6.47544875391759e-05,0.0868726819753646,0,0,0
1464,48294.78270928085,2010-09-22 05:12:33,3931.955283172997,2,5,0.5499359965324402,4.014779567718506,4.517129550581625,3.933036875473247,17.942678847364437,14.367038183619444,6.47544875391759e-05,0.0868726819753646,0,0,0
1465,48324.79796764345,2010-09-22 05:13:03,3961.970541555652,2,5,0.5501165986061096,4.017208099365234,4.521715964698065,3.933036875473247,17.961097954369738,14.367038183619444,6.47544875391759e-05,0.0868726819753646,0,0,0
1466,48354.81323762506,2010-09-22 05:13:33,3991.9858115071856,2,5,0.5499359965324402,4.019150733947754,4.526302392258782,3.933036875473247,17.979527401807402,14.367038183619444,3.24249267578125e-05,0.0868726819753646,0,0,0
1467,48384.828543706775,2010-09-22 05:14:03,4022.001117684142,2,5,0.5501165986061096,4.021578788757324,4.530888811183725,3.933036875473247,17.997967112498202,14.367038183619444,6.47544875391759e-05,0.0868726819753646,0,0,0
1468,48414.84390915669,2010-09-22 05:14:33,4052.016483043829,2,5,0.5501165986061096,4.023845195770264,4.535475208808193,3.933036875473247,18.016417279045225,14.367038183619444,3.23295607813634e-05,0.0868726819753646,0,0,0
1469,48444.8591894791,2010-09-22 05:15:03,4082.0317633712607,2,5,0.5501165986061096,4.026111602783203,4.540061635916823,3.933036875473247,18.03487812875559,14.367038183619444,3.23295607813634e-05,0.0868726819753646,0,0,0
1470,48474.87433747623,2010-09-22 05:15:33,4112.046911358352,2,5,0.550297200679779,4.028540134429932,4.544648038794544,3.933036875473247,18.05334958414497,14.367038183619444,6.47544875391759e-05,0.0868726819753646,0,0,0
1471,48504.892256725805,2010-09-22 05:16:03,4142.064830708191,2,5,0.5499359965324402,4.030806541442871,4.549234871967139,3.933036875473247,18.07183343394308,14.367038183619444,3.24249267578125e-05,0.0868726819753646,0,0,0
1472,48534.90488885794,2010-09-22 05:16:33,4172.077462755108,2,5,0.550297200679779,4.033234596252441,4.553820885640469,3.933036875473247,18.090324806260444,14.367038183619444,6.47544875391759e-05,0.0868726819753646,0,0,0
1473,48564.92015580698,2010-09-22 05:17:03,4202.092729784346,2,5,0.5501165986061096,4.035662651062012,4.558407294496329,3.933036875473247,18.108828738578847,14.367038183619444,6.47544875391759e-05,0.0868726819753646,0,0,0
1474,48594.93566510597,2010-09-22 05:17:33,4232.108238993102,2,5,0.5501165986061096,4.038252830505371,4.562993785949274,3.933036875473247,18.127344085462106,14.367038183619444,9.70840483205393e-05,0.0868726819753646,0,0,0
1475,48624.9509141503,2010-09-22 05:18:03,4262.123488032436,2,5,0.5501165986061096,4.040519237518311,4.567580157068932,3.933036875473247,18.14587000482676,14.367038183619444,6.47544875391759e-05,0.0868726819753646,0,0,0
1476,48654.96600570653,2010-09-22 05:18:33,4292.138579618741,2,5,0.5501165986061096,4.042947769165039,4.572166474524934,3.933036875473247,18.16440695361845,14.367038183619444,6.47544875391759e-05,0.0868726819753646,0,0,0
1477,48684.98124442511,2010-09-22 05:19:03,4322.153818307236,2,5,0.5499359965324402,4.0452141761779785,4.576752858476688,3.933036875473247,18.18295553557231,14.367038183619444,0.0,0.0868726819753646,0,0,0
1478,48714.996668381056,2010-09-22 05:19:33,4352.169242273212,2,5,0.550297200679779,4.048128128051758,4.58133923437155,3.933036875473247,18.20151553141209,14.367038183619444,9.71794142969884e-05,0.0868726819753646,0,0,0
1479,48745.01180856868,2010-09-22 05:20:03,4382.184382480885,2,5,0.5499359965324402,4.050394535064697,4.585925668253088,3.933036875473247,18.22008734819787,14.367038183619444,3.24249267578125e-05,0.0868726819753646,0,0,0
1480,48775.02707934228,2010-09-22 05:20:33,4412.199653224395,2,5,0.5501165986061096,4.053146362304688,4.590512039169573,3.933036875473247,18.238670540106007,14.367038183619444,9.70840483205393e-05,0.0868726819753646,0,0,0
1481,48805.04233932893,2010-09-22 05:21:03,4442.214913211054,2,5,0.5501165986061096,4.055574893951416,4.595098442292955,3.933036875473247,18.257265648471613,14.367038183619444,6.47544875391759e-05,0.0868726819753646,0,0,0
1482,48835.05773209703,2010-09-22 05:21:33,4472.230305979156,2,5,0.550297200679779,4.058326721191406,4.599684935688361,3.933036875473247,18.27587303628328,14.367038183619444,6.47544875391759e-05,0.0868726819753646,0,0,0
1483,48865.07289768304,2010-09-22 05:22:03,4502.245471595251,2,5,0.5499359965324402,4.060755252838135,4.604271375548153,3.933036875473247,18.294492142791164,14.367038183619444,3.24249267578125e-05,0.0868726819753646,0,0,0
1484,48895.08827851636,2010-09-22 05:22:33,4532.260852408512,2,5,0.5499359965324402,4.063345432281494,4.608857755695693,3.933036875473247,18.313122689515417,14.367038183619444,3.24249267578125e-05,0.0868726819753646,0,0,0
1485,48925.1034503981,2010-09-22 05:23:03,4562.276024280222,2,5,0.5501165986061096,4.066259384155273,4.613444145070057,3.933036875473247,18.33176558179308,14.367038183619444,9.71794142969884e-05,0.0868726819753646,0,0,0
1486,48955.11869236478,2010-09-22 05:23:33,4592.291266251913,2,5,0.5501165986061096,4.069011211395264,4.618030571884419,3.933036875473247,18.35042097504939,14.367038183619444,0.0001295089750783,0.0868726819753646,0,0,0
1487,48985.13398890266,2010-09-22 05:24:03,4622.306562784797,2,5,0.5501165986061096,4.071439743041992,4.62261702935511,3.933036875473247,18.369088965827693,14.367038183619444,6.47544875391759e-05,0.0868726819753646,0,0,0
1488,49015.14924177157,2010-09-22 05:24:33,4652.32181565369,2,5,0.5501165986061096,4.074353694915772,4.627203428814415,3.933036875473247,18.38776927884032,14.367038183619444,6.47544875391759e-05,0.0868726819753646,0,0,0
1489,49045.16451555266,2010-09-22 05:25:03,4682.337089434781,2,5,0.5501165986061096,4.077105522155762,4.631789744329703,3.933036875473247,18.406461940046075,14.367038183619444,6.47544875391759e-05,0.0868726819753646,0,0,0
1490,49075.17978978989,2010-09-22 05:25:33,4712.352363697074,2,5,0.5499359965324402,4.07985782623291,4.636376112088593,3.933036875473247,18.425167641860018,14.367038183619444,3.24249267578125e-05,0.0868726819753646,0,0,0
1491,49105.19507741052,2010-09-22 05:26:03,4742.367651322726,2,5,0.5497553944587708,4.0826096534729,4.640962556805885,3.933036875473247,18.4438865342624,14.367038183619444,3.23295607813634e-05,0.0868726819753646,0,0,0
1492,49135.21038909122,2010-09-22 05:26:33,4772.382963068583,2,5,0.5499359965324402,4.08552360534668,4.645548969999907,3.933036875473247,18.46261835471425,14.367038183619444,6.47544875391759e-05,0.0868726819753646,0,0,0
1493,49165.2256167572,2010-09-22 05:27:03,4802.398190644339,2,5,0.550297200679779,4.088437557220459,4.650135367227698,3.933036875473247,18.481363274210345,14.367038183619444,6.47544875391759e-05,0.0868726819753646,0,0,0
1494,49195.24100325465,2010-09-22 05:27:33,4832.413577136776,2,5,0.5501165986061096,4.091513633728027,4.65472176265161,3.933036875473247,18.50012151523073,14.367038183619444,9.71794142969884e-05,0.0868726819753646,0,0,0
1495,49225.25628959709,2010-09-22 05:28:03,4862.428863579474,2,5,0.5501165986061096,4.094265460968018,4.659308150124221,3.933036875473247,18.51889303240841,14.367038183619444,6.47544875391759e-05,0.0868726819753646,0,0,0
1496,49255.2714277346,2010-09-22 05:28:33,4892.4440016468025,2,5,0.5499359965324402,4.097341537475586,4.663894581268201,3.933036875473247,18.537678274436768,14.367038183619444,9.71794142969884e-05,0.0868726819753646,0,0,0
1497,49285.28670860839,2010-09-22 05:29:03,4922.459282500549,2,5,0.550297200679779,4.100417137145996,4.668481014588993,3.933036875473247,18.556477230624456,14.367038183619444,0.0001295089750783,0.0868726819753646,0,0,0
1498,49315.30236018754,2010-09-22 05:29:33,4952.474934169909,2,5,0.5499359965324402,4.103331089019775,4.673067460233807,3.933036875473247,18.575289952744296,14.367038183619444,9.70840483205393e-05,0.0868726819753646,0,0,0
1499,49345.31725877709,2010-09-22 05:30:03,4982.489832659215,2,5,0.5501165986061096,4.106407165527344,4.677653797130944,3.933036875473247,18.59411613441506,14.367038183619444,6.47544875391759e-05,0.0868726819753646,0,0,0
1500,49375.33250446806,2010-09-22 05:30:33,5012.505078350189,2,5,0.5501165986061096,4.109482765197754,4.682240227635829,3.933036875473247,18.612956745114865,14.367038183619444,9.70840483205393e-05,0.0868726819753646,0,0,0
1501,49405.34770302638,2010-09-22 05:31:03,5042.5202769085145,2,5,0.5501165986061096,4.112396717071533,4.686826598056389,3.933036875473247,18.631811216317452,14.367038183619444,6.47544875391759e-05,0.0868726819753646,0,0,0
1502,49435.36302693761,2010-09-22 05:31:33,5072.535600824751,2,5,0.5499359965324402,4.115472316741943,4.691412858849861,3.933036875473247,18.650679272473543,14.367038183619444,6.47544875391759e-05,0.0868726819753646,0,0,0
1503,49465.37841319947,2010-09-22 05:32:03,5102.550987086613,2,5,0.5501165986061096,4.118872165679932,4.695999187024618,3.933036875473247,18.66956196993124,14.367038183619444,0.0001295089750783,0.0868726819753646,0,0,0
1504,49495.39361669512,2010-09-22 05:32:33,5132.566190587274,2,5,0.5499359965324402,4.121947765350342,4.700585551498229,3.933036875473247,18.688459493439463,14.367038183619444,6.47544875391759e-05,0.0868726819753646,0,0,0
1505,49525.408887388505,2010-09-22 05:33:03,5162.581461270634,2,5,0.5499359965324402,4.12502384185791,4.705171924747647,3.933036875473247,18.707371656648498,14.367038183619444,3.24249267578125e-05,0.0868726819753646,0,0,0
1506,49555.42434225662,2010-09-22 05:33:33,5192.596916148772,2,5,0.5499359965324402,4.128261566162109,4.709758354966293,3.933036875473247,18.726298815191942,14.367038183619444,6.47544875391759e-05,0.0868726819753646,0,0,0
1507,49585.43964234338,2010-09-22 05:34:03,5222.6122162255015,2,5,0.5499359965324402,4.13166093826294,4.714344782095629,3.933036875473247,18.745240868189416,14.367038183619444,9.70840483205393e-05,0.0868726819753646,0,0,0
1508,49615.4547555336,2010-09-22 05:34:33,5252.627329415734,2,5,0.550297200679779,4.135060787200928,4.718931266749699,3.933036875473247,18.764198205207677,14.367038183619444,9.71794142969884e-05,0.0868726819753646,0,0,0
1509,49645.46999293388,2010-09-22 05:35:03,5282.642566826039,2,5,0.5499359965324402,4.138136386871338,4.723517752932689,3.933036875473247,18.78317069857582,14.367038183619444,6.47544875391759e-05,0.0868726819753646,0,0,0
1510,49675.48523630908,2010-09-22 05:35:33,5312.657810191208,2,5,0.5501165986061096,4.141536235809326,4.72810417579829,3.933036875473247,18.8021581256812,14.367038183619444,9.71794142969884e-05,0.0868726819753646,0,0,0
1511,49705.50064588915,2010-09-22 05:36:03,5342.673219771275,2,5,0.550297200679779,4.145097732543945,4.732690548320696,3.933036875473247,18.82116070380115,14.367038183619444,9.71794142969884e-05,0.0868726819753646,0,0,0
1512,49735.51577652291,2010-09-22 05:36:33,5372.688350415075,2,5,0.5499359965324402,4.1483354568481445,4.737276782857191,3.933036875473247,18.84017851189058,14.367038183619444,6.47544875391759e-05,0.0868726819753646,0,0,0
1513,49765.5310835871,2010-09-22 05:37:03,5402.703657479246,2,5,0.5501165986061096,4.151896953582764,4.7418630150453,3.933036875473247,18.859211927319752,14.367038183619444,9.71794142969884e-05,0.0868726819753646,0,0,0
1514,49795.54632740339,2010-09-22 05:37:33,5432.718901285516,2,5,0.5499359965324402,4.155134677886963,4.746449321049857,3.933036875473247,18.87826150337587,14.367038183619444,3.24249267578125e-05,0.0868726819753646,0,0,0
1515,49825.5616101669,2010-09-22 05:38:03,5462.734184074093,2,5,0.5499359965324402,4.158696174621582,4.751035627676581,3.933036875473247,18.897327047043067,14.367038183619444,9.71794142969884e-05,0.0868726819753646,0,0,0
1516,49855.576998353565,2010-09-22 05:38:33,5492.749572235696,2,5,0.5499359965324402,4.162257671356201,4.755621941303472,3.933036875473247,18.916408662043327,14.367038183619444,9.71794142969884e-05,0.0868726819753646,0,0,0
1517,49885.59214260634,2010-09-22 05:39:03,5522.764716493478,2,5,0.5501165986061096,4.16581916809082,4.760208260072386,3.933036875473247,18.935506445913266,14.367038183619444,6.47544875391759e-05,0.0868726819753646,0,0,0
1518,49915.60741017191,2010-09-22 05:39:33,5552.779984054043,2,5,0.5501165986061096,4.16938066482544,4.764794597868119,3.933036875473247,18.954620616475008,14.367038183619444,9.71794142969884e-05,0.0868726819753646,0,0,0
1519,49945.622884558754,2010-09-22 05:40:03,5582.795458536116,2,5,0.5499359965324402,4.172942161560059,4.769380988625329,3.933036875473247,18.97375139349157,14.367038183619444,6.47544875391759e-05,0.0868726819753646,0,0,0
1520,49975.63796627542,2010-09-22 05:40:33,5612.81054016256,2,5,0.5501165986061096,4.176503658294678,4.773967311932103,3.933036875473247,18.99289843702151,14.367038183619444,6.47544875391759e-05,0.0868726819753646,0,0,0
1521,50005.65329947984,2010-09-22 05:41:03,5642.82587336197,2,5,0.5501165986061096,4.180388927459717,4.778553704141024,3.933036875473247,19.01206247313981,14.367038183619444,0.0001295089750783,0.0868726819753646,0,0,0
1522,50035.66860278462,2010-09-22 05:41:33,5672.841176761995,2,5,0.550297200679779,4.183950424194336,4.783140080011752,3.933036875473247,19.031243290305337,14.367038183619444,9.71794142969884e-05,0.0868726819753646,0,0,0
1523,50065.683773132536,2010-09-22 05:42:03,5702.856347019676,2,5,0.5501165986061096,4.187673568725586,4.787726524346225,3.933036875473247,19.050441256551004,14.367038183619444,9.70840483205393e-05,0.0868726819753646,0,0,0
1524,50095.69917014623,2010-09-22 05:42:33,5732.871744038388,2,5,0.5501165986061096,4.191397190093994,4.792312918403283,3.933036875473247,19.06965613594364,14.367038183619444,9.71794142969884e-05,0.0868726819753646,0,0,0
1525,50125.71446320545,2010-09-22 05:43:03,5762.887037092589,2,5,0.5499359965324402,4.195120334625244,4.796899288613535,3.933036875473247,19.08888811984156,14.367038183619444,6.47544875391759e-05,0.0868726819753646,0,0,0
1526,50155.72958011496,2010-09-22 05:43:34,5792.902154022156,2,5,0.5501165986061096,4.199005603790283,4.801485650291792,3.933036875473247,19.108137299503017,14.367038183619444,9.71794142969884e-05,0.0868726819753646,0,0,0
1527,50163.495128924485,2010-09-22 05:43:41,5800.667702806621,2,5,0.550297200679779,4.200138568878174,4.802672241625871,3.933036875473247,19.11312032591585,14.367038183619444,0.0001618385285837,0.0868726819753646,0,0,0
1528,50193.50893455433,2010-09-22 05:44:11,30.01525469344633,3,5,0.0,4.116443634033203,4.802672241625871,3.933036875473247,19.11312032591585,14.367038183619444,-0.0004209518374409,0.0868726819753646,0,0,0
1529,50223.52421025021,2010-09-22 05:44:41,60.03053041438052,3,5,0.0,4.105921268463135,4.802672241625871,3.933036875473247,19.11312032591585,14.367038183619444,-0.0002590179501567,0.0868726819753646,0,0,0
1530,50253.53979166419,2010-09-22 05:45:11,90.0461118333841,3,5,0.0,4.099769592285156,4.802672241625871,3.933036875473247,19.11312032591585,14.367038183619444,-0.0001619339018361,0.0868726819753646,0,0,0
1531,50283.50797727096,2010-09-22 05:45:41,120.0142975303739,3,5,0.0,4.095560550689697,4.802672241625871,3.933036875473247,19.11312032591585,14.367038183619444,-0.0001295089750783,0.0868726819753646,0,0,0
1532,50283.5234828319,2010-09-22 05:45:42,0.015623192893029,4,5,1.0029040575027466,4.199814796447754,4.802676594004602,3.933036875473247,19.113138605100453,14.367038183619444,0.0,0.0868726819753646,0,0,0
1533,50284.39847079146,2010-09-22 05:45:42,0.890611177516185,4,5,0.9526947140693665,4.199814796447754,4.802912587144782,3.933036875473247,19.114129711429243,14.367038183619444,0.0,0.0868726819753646,0,0,0
1534,50286.47657890903,2010-09-22 05:45:45,2.968719295086582,4,5,0.902304708957672,4.199653148651123,4.803446959458872,3.933036875473247,19.11637392785568,14.367038183619444,-3.23295607813634e-05,0.0868726819753646,0,0,0
1535,50289.617397575625,2010-09-22 05:45:48,6.109537936618714,4,5,0.8519147038459778,4.199653148651123,4.804211209780497,3.933036875473247,19.119583582866444,14.367038183619444,-3.23295607813634e-05,0.0868726819753646,0,0,0
1536,50293.80464233775,2010-09-22 05:45:52,10.29678269873646,4,5,0.8018859624862671,4.199814796447754,4.805171996914925,3.933036875473247,19.12361864502417,14.367038183619444,0.0,0.0868726819753646,0,0,0
1537,50299.28893681049,2010-09-22 05:45:57,15.781077171478035,4,5,0.7516765594482422,4.199653148651123,4.806354175973453,3.933036875473247,19.128583519121765,14.367038183619444,0.0,0.0868726819753646,0,0,0
1538,50306.35136540379,2010-09-22 05:46:04,22.84350576978689,4,5,0.7016478180885315,4.199814796447754,4.807777633899322,3.933036875473247,19.134561708795616,14.367038183619444,3.23295607813634e-05,0.0868726819753646,0,0,0
1539,50315.50759449525,2010-09-22 05:46:14,31.99973488631237,4,5,0.651619017124176,4.199653148651123,4.809495822061273,3.933036875473247,19.141777702534224,14.367038183619444,-3.23295607813634e-05,0.0868726819753646,0,0,0
1540,50328.27297084853,2010-09-22 05:46:26,44.76511120951916,4,5,0.6014096736907959,4.199814796447754,4.811713212257172,3.933036875473247,19.151090240973797,14.367038183619444,0.0,0.0868726819753646,0,0,0
1541,50347.02285586112,2010-09-22 05:46:45,63.514996227120776,4,5,0.5513808727264404,4.199814796447754,4.814706361909844,3.933036875473247,19.16366077355559,14.367038183619444,3.23295607813634e-05,0.0868726819753646,0,0,0
1542,50377.67863279663,2010-09-22 05:47:16,94.17077315761266,4,5,0.5013521313667297,4.199814796447754,4.819171318232991,3.933036875473247,19.182412574748533,14.367038183619444,0.0,0.0868726819753646,0,0,0
1543,50432.881103405954,2010-09-22 05:48:11,149.3732437920039,4,5,0.4509621262550354,4.199653148651123,4.826443666663932,3.933036875473247,19.212954745351716,14.367038183619444,0.0,0.0868726819753646,0,0,0
1544,50521.974277049005,2010-09-22 05:49:40,238.46641743505907,4,5,0.4009333550930023,4.199653148651123,4.836960774114124,3.933036875473247,19.25712419659524,14.367038183619444,0.0,0.0868726819753646,0,0,0
1545,50638.03492911706,2010-09-22 05:51:36,354.5270694780433,4,5,0.3509045839309692,4.199653148651123,4.84906216166106,3.933036875473247,19.30794731722239,14.367038183619444,-6.47544875391759e-05,0.0868726819753646,0,0,0
1546,50777.26765083588,2010-09-22 05:53:55,493.75979120689726,4,5,0.3008758127689361,4.199653148651123,4.861646873962875,3.933036875473247,19.360800256913027,14.367038183619444,0.0,0.0868726819753646,0,0,0
1547,50945.62531459079,2010-09-22 05:56:44,662.1174550520337,4,5,0.2508470416069031,4.199653148651123,4.8745177519823,3.933036875473247,19.41485503026643,14.367038183619444,-3.23295607813634e-05,0.0868726819753646,0,0,0
1548,51153.966719404736,2010-09-22 06:00:12,870.4588598659731,4,5,0.20081827044487,4.199653148651123,4.887538899798752,3.933036875473247,19.469540924178084,14.367038183619444,-3.23295607813634e-05,0.0868726819753646,0,0,0
1549,51428.72872271607,2010-09-22 06:04:47,1145.220863072053,4,5,0.1506088972091674,4.199814796447754,4.900879542018553,3.933036875473247,19.52556860428817,14.367038183619444,3.23295607813634e-05,0.0868726819753646,0,0,0
1550,51830.09918229248,2010-09-22 06:11:28,1546.591322763745,4,5,0.1005801260471344,4.199653148651123,4.914718129632343,3.933036875473247,19.58368727903799,14.367038183619444,0.0,0.0868726819753646,0,0,0
1551,52562.16834264775,2010-09-22 06:23:40,2278.660483008741,4,5,0.0505513548851013,4.199814796447754,4.929533688316417,3.933036875473247,19.645909362436456,14.367038183619444,3.23295607813634e-05,0.0868726819753646,0,0,0
1552,52579.840034960485,2010-09-22 06:23:58,2296.3321753164632,4,5,0.0498289167881011,4.199653148651123,4.92978258501672,3.933036875473247,19.646954673381,14.367038183619444,0.0,0.0868726819753646,0,0,0
1553,52609.85485705606,2010-09-22 06:24:28,30.01498619322848,5,5,0.0,4.192044734954834,4.92978258501672,3.933036875473247,19.646954673381,14.367038183619444,-3.23295607813634e-05,0.0868726819753646,0,0,0
1554,52639.85434816618,2010-09-22 06:24:58,60.01447718805788,5,5,0.0,4.190749645233154,4.92978258501672,3.933036875473247,19.646954673381,14.367038183619444,-3.23295607813634e-05,0.0868726819753646,0,0,0
1555,52640.04232611581,2010-09-22 06:24:58,0.187412560583919,6,5,-1.9243103452026844e-05,4.190911293029785,4.92978258501672,3.933036876475024,19.646954673381,14.367038187817805,0.0,0.0923885703086853,0,0,0
1556,52644.8704125373,2010-09-22 06:25:03,5.015498982074486,6,5,0.0007031940040178,4.190587520599365,4.929783524434049,3.933036876642157,19.64695861031021,14.367038188518242,-9.71794142969884e-05,0.0923885703086853,0,0,0
1557,52674.88639117984,2010-09-22 06:25:33,30.01536326946879,7,5,-1.099568486213684,4.015589237213135,4.929783524434049,3.942204590438168,19.64695861031021,14.404053064409448,-0.0009713172912597,0.0923885703086853,0,0,0
1558,52704.901608840846,2010-09-22 06:26:03,60.03058102070168,7,5,-1.099568486213684,3.9880685806274414,4.929783524434049,3.95137225301019,19.64695861031021,14.440732472156466,-0.0006475448608398,0.0923885703086853,0,0,0
1559,52734.916975764434,2010-09-22 06:26:33,90.04594784905399,7,5,-1.099568486213684,3.969451665878296,4.929783524434049,3.960539868430097,19.64695861031021,14.477204150600572,-0.0004209041653666,0.0923885703086853,0,0,0
1560,52764.93208146597,2010-09-22 06:27:03,120.06105355560612,7,5,-1.099568486213684,3.95504379272461,4.929783524434049,3.96970729108213,19.64695861031021,14.513524642881148,-0.0003561496851034,0.0923885703086853,0,0,0
1561,52794.9473297033,2010-09-22 06:27:33,150.0763017979495,7,5,-1.0993878841400146,3.943064212799072,4.929783524434049,3.978874750526249,19.64695861031021,14.549725166765244,-0.0002913951757363,0.0923885703086853,0,0,0
1562,52824.96260413101,2010-09-22 06:28:03,180.09157622064308,7,5,-1.099568486213684,3.932379722595215,4.929783524434049,3.988042288850717,19.64695861031021,14.585822801657065,-0.0002590179501567,0.0923885703086853,0,0,0
1563,52854.9779077566,2010-09-22 06:28:33,210.10687984623155,7,5,-1.0993878841400146,3.922666549682617,4.929783524434049,3.99720977877663,19.64695861031021,14.621827026109528,-0.0002266406954731,0.0923885703086853,0,0,0
1564,52884.99314231479,2010-09-22 06:29:03,240.12211440942968,7,5,-1.099568486213684,3.9132773876190186,4.929783524434049,4.006377316076743,19.64695861031021,14.657744803047892,-0.0002913475036621,0.0923885703086853,0,0,0
1565,52915.00841253699,2010-09-22 06:29:33,270.1373846216132,7,5,-1.099568486213684,3.9045355319976807,4.929783524434049,4.015544795834576,19.64695861031021,14.693579790585924,-0.0002266406954731,0.0923885703086853,0,0,0
1566,52945.02370324534,2010-09-22 06:30:03,300.15267533998326,7,5,-1.0993878841400146,3.8959555625915527,4.929783524434049,4.024712136660456,19.64695861031021,14.729334203509332,-0.0001942634553415,0.0923885703086853,0,0,0
1567,52975.03905861008,2010-09-22 06:30:34,330.16803070472065,7,5,-1.0997490882873535,3.8875374794006343,4.929783524434049,4.033879344372025,19.64695861031021,14.765010894023916,-0.0002266406954731,0.0923885703086853,0,0,0
1568,53005.0542211134,2010-09-22 06:31:04,360.1831932030337,7,5,-1.0992072820663452,3.8794431686401367,4.929783524434049,4.043046492596843,19.64695861031021,14.800611991221292,-0.0002266406954731,0.0923885703086853,0,0,0
1569,53035.06955602708,2010-09-22 06:31:34,390.19852830218514,7,5,-1.0993878841400146,3.871348857879639,4.929783524434049,4.052213739420771,19.64695861031021,14.836139136571584,-0.0001942634553415,0.0923885703086853,0,0,0
1570,53065.08474241002,2010-09-22 06:32:04,420.21371450466745,7,5,-1.099568486213684,3.863578319549561,4.929783524434049,4.061381108812369,19.64695861031021,14.87159395033812,-0.0002266406954731,0.0923885703086853,0,0,0
1571,53095.10000246184,2010-09-22 06:32:34,450.2289745514766,7,5,-1.0997490882873535,3.8558077812194815,4.929783524434049,4.070548691797105,19.64695861031021,14.906977918236905,-0.0001942634553415,0.0923885703086853,0,0,0
1572,53125.11528097976,2010-09-22 06:33:04,480.24425306939247,7,5,-1.0993878841400146,3.848361015319824,4.929783524434049,4.079716293429368,19.64695861031021,14.942291408877406,-0.0001618862152099,0.0923885703086853,0,0,0
1573,53155.13055164808,2010-09-22 06:33:34,510.2595237377146,7,5,-1.0993878841400146,3.840590476989746,4.929783524434049,4.088883904820582,19.64695861031021,14.977535811101449,-0.0002266406954731,0.0923885703086853,0,0,0
1574,53185.145802562096,2010-09-22 06:34:04,540.2747746467144,7,5,-1.099568486213684,3.833143949508667,4.929783524434049,4.098051461391481,19.64695861031021,15.01271141909125,-0.0002265930233988,0.0923885703086853,0,0,0
1575,53215.16106926552,2010-09-22 06:34:34,570.2900413601644,7,5,-1.099568486213684,3.8260209560394287,4.929783524434049,4.10721898855062,19.64695861031021,15.047819604936002,-0.0001942634553415,0.0923885703086853,0,0,0
1576,53245.17881367869,2010-09-22 06:35:04,600.3077859587972,7,5,-1.099568486213684,3.818736076354981,4.929783524434049,4.116387346708017,19.64695861031021,15.082864868023986,-0.0001942634553415,0.0923885703086853,0,0,0
1577,53275.19159909344,2010-09-22 06:35:34,630.3205711680309,7,5,-1.0993878841400146,3.811774969100952,4.929783524434049,4.125554197819415,19.64695861031021,15.11783931451129,-0.0002266406954731,0.0923885703086853,0,0,0
1578,53305.2069320372,2010-09-22 06:36:04,660.3359041468897,7,5,-1.0993878841400146,3.804813861846924,4.929783524434049,4.134721816436579,19.64695861031021,15.152752494167023,-0.0002266406954731,0.0923885703086853,0,0,0
1579,53335.22229991318,2010-09-22 06:36:34,690.351272002807,7,5,-1.099568486213684,3.7980146408081055,4.929783524434049,4.143889450846146,19.64695861031021,15.18760308197896,-0.0001618862152099,0.0923885703086853,0,0,0
1580,53365.23768839057,2010-09-22 06:37:04,720.3666605002487,7,5,-1.099568486213684,3.791539192199707,4.929783524434049,4.153057086947484,19.64695861031021,15.222392429317823,-0.0001618862152099,0.0923885703086853,0,0,0
1581,53395.252721846766,2010-09-22 06:37:34,750.3816939313903,7,5,-1.099568486213684,3.7850637435913086,4.929783524434049,4.162224612296081,19.64695861031021,15.257121292094526,-0.0001618862152099,0.0923885703086853,0,0,0
1582,53425.26796385356,2010-09-22 06:38:04,780.3969359431812,7,5,-1.0993878841400146,3.77875018119812,4.929783524434049,4.171392238538994,19.64695861031021,15.291791492127532,-0.0001295089750783,0.0923885703086853,0,0,0
1583,53455.28322858204,2010-09-22 06:38:34,810.412200666664,7,5,-1.0993878841400146,3.772436618804932,4.929783524434049,4.180559803034453,19.64695861031021,15.326403422293913,-0.0001618862152099,0.0923885703086853,0,0,0
1584,53485.29850685435,2010-09-22 06:39:04,840.4274789439794,7,5,-1.0993878841400146,3.766123056411743,4.929783524434049,4.189727402692209,19.64695861031021,15.360958224901951,-0.0001618862152099,0.0923885703086853,0,0,0
1585,53515.31389221897,2010-09-22 06:39:34,870.4428643086011,7,5,-1.0997490882873535,3.7599713802337646,4.929783524434049,4.198894992960458,19.64695861031021,15.395456988347243,-0.0002266406954731,0.0923885703086853,0,0,0
1586,53545.32903967473,2010-09-22 06:40:04,900.4580117643656,7,5,-1.099568486213684,3.754305362701416,4.929783524434049,4.208062594395508,19.64695861031021,15.429901175851644,-9.713172767078504e-05,0.0923885703086853,0,0,0
1587,53575.34431353101,2010-09-22 06:40:34,930.4732856206456,7,5,-1.099568486213684,3.748477697372437,4.929783524434049,4.217230189067164,19.64695861031021,15.46429144397372,-0.0001295089750783,0.0923885703086853,0,0,0
1588,53605.3595718485,2010-09-22 06:41:04,960.4885439331256,7,5,-1.099568486213684,3.742811679840088,4.929783524434049,4.226397803894694,19.64695861031021,15.498629066232638,-9.713172767078504e-05,0.0923885703086853,0,0,0
1589,53635.37482779007,2010-09-22 06:41:34,990.5037998746872,7,5,-1.0997490882873535,3.736983776092529,4.929783524434049,4.235565441514614,19.64695861031021,15.532914828525392,-0.0001618862152099,0.0923885703086853,0,0,0
1590,53665.39009611253,2010-09-22 06:42:04,1020.5190681971536,7,5,-1.099568486213684,3.731479644775391,4.929783524434049,4.244733082984134,19.64695861031021,15.567149766900451,-0.0001618862152099,0.0923885703086853,0,0,0
1591,53695.40537045001,2010-09-22 06:42:34,1050.5343425396472,7,5,-1.099568486213684,3.726299285888672,4.929783524434049,4.253900689799495,19.64695861031021,15.601334603607285,-9.713172767078504e-05,0.0923885703086853,0,0,0
1592,53725.42066663703,2010-09-22 06:43:04,1080.5496387266678,7,5,-1.0993878841400146,3.721118927001953,4.929783524434049,4.26306827044425,19.64695861031021,15.635470312201786,-9.713172767078504e-05,0.0923885703086853,0,0,0
1593,53755.43589795213,2010-09-22 06:43:34,1110.5648700367458,7,5,-1.0993878841400146,3.7156147956848153,4.929783524434049,4.272235870575601,19.64695861031021,15.669557442059226,-0.0001295089750783,0.0923885703086853,0,0,0
1594,53785.45131684042,2010-09-22 06:44:04,1140.5802889350723,7,5,-1.0997490882873535,3.710434436798096,4.929783524434049,4.281403560120917,19.64695861031021,15.703597535921924,-0.0001618862152099,0.0923885703086853,0,0,0
1595,53815.46642122869,2010-09-22 06:44:34,1170.5953933133087,7,5,-1.099568486213684,3.705577850341797,4.929783524434049,4.290571162321556,19.64695861031021,15.737590765409434,-9.713172767078504e-05,0.0923885703086853,0,0,0
1596,53845.48170456864,2010-09-22 06:45:04,1200.6106766532614,7,5,-1.099568486213684,3.700397491455078,4.929783524434049,4.299738824211995,19.64695861031021,15.771538266546951,-0.0001295089750783,0.0923885703086853,0,0,0
1597,53875.49698830959,2010-09-22 06:45:34,1230.6259603942149,7,5,-1.099568486213684,3.6955409049987793,4.929783524434049,4.308906433912452,19.64695861031021,15.80544047062232,-0.0001618862152099,0.0923885703086853,0,0,0
1598,53905.51225000051,2010-09-22 06:46:04,1260.641222095153,7,5,-1.099568486213684,3.690684318542481,4.929783524434049,4.318074089936996,19.64695861031021,15.839297973358889,-0.0001295089750783,0.0923885703086853,0,0,0
1599,53935.52762542532,2010-09-22 06:46:34,1290.6565975149506,7,5,-1.0997490882873535,3.6858277320861816,4.929783524434049,4.327241760323446,19.64695861031021,15.873111224678745,-0.0001295089750783,0.0923885703086853,0,0,0
1600,53965.54277648508,2010-09-22 06:47:04,1320.6717485747113,7,5,-1.0993878841400146,3.681294918060303,4.929783524434049,4.336409354427746,19.64695861031021,15.906880589042524,-9.713172767078504e-05,0.0923885703086853,0,0,0
1601,53995.55804829625,2010-09-22 06:47:34,1350.6870203808735,7,5,-1.099568486213684,3.676438331604004,4.929783524434049,4.345577002475256,19.64695861031021,15.940607144332112,-0.0001295089750783,0.0923885703086853,0,0,0
1602,54025.57329628797,2010-09-22 06:48:04,1380.7022683776042,7,5,-1.099568486213684,3.671905755996704,4.929783524434049,4.354744617971273,19.64695861031021,15.97429113755118,-0.0001294612884521,0.0923885703086853,0,0,0
1603,54055.5889610049,2010-09-22 06:48:34,1410.7179331045572,7,5,-1.099568486213684,3.6672110557556152,4.929783524434049,4.363912383820084,19.64695861031021,16.007934110263268,-0.0001942634553415,0.0923885703086853,0,0,0
1604,54085.60399330822,2010-09-22 06:49:04,1440.7329654930963,7,5,-1.0993878841400146,3.663163900375366,4.929783524434049,4.373079879340186,19.64695861031021,16.041535713215552,-0.0001295089750783,0.0923885703086853,0,0,0
1605,54115.61909307495,2010-09-22 06:49:34,1470.7480651595713,7,5,-1.099568486213684,3.658792972564697,4.929783524434049,4.382247485709156,19.64695861031021,16.075097837339477,-9.713172767078504e-05,0.0923885703086853,0,0,0
1606,54145.63436077588,2010-09-22 06:50:04,1500.7633328604863,7,5,-1.0993878841400146,3.6545839309692383,4.929783524434049,4.391415125366497,19.64695861031021,16.10862074674169,-0.0001295089750783,0.0923885703086853,0,0,0
1607,54175.64977199001,2010-09-22 06:50:34,1530.7787440746324,7,5,-1.099568486213684,3.6503748893737793,4.929783524434049,4.400582739868153,19.64695861031021,16.142104809511533,-9.713172767078504e-05,0.0923885703086853,0,0,0
1608,54205.66491931546,2010-09-22 06:51:04,1560.7938914000715,7,5,-1.099568486213684,3.64616584777832,4.929783524434049,4.409750311029066,19.64695861031021,16.175550129987304,-6.47544875391759e-05,0.0923885703086853,0,0,0
1609,54235.68015067064,2010-09-22 06:51:34,1590.8091227602747,7,5,-1.0993878841400146,3.6421186923980713,4.929783524434049,4.418917847118983,19.64695861031021,16.208957514361956,-9.713172767078504e-05,0.0923885703086853,0,0,0
1610,54265.69541911341,2010-09-22 06:52:04,1620.8243912030414,7,5,-1.099568486213684,3.6380715370178223,4.929783524434049,4.428085463347942,19.64695861031021,16.242328347216432,-0.0001295089750783,0.0923885703086853,0,0,0
1611,54295.71081112963,2010-09-22 06:52:34,1650.8397832192663,7,5,-1.0997490882873535,3.634186267852783,4.929783524434049,4.437253110713167,19.64695861031021,16.275663264607218,-9.713172767078504e-05,0.0923885703086853,0,0,0
1612,54325.72621307564,2010-09-22 06:53:04,1680.8551851652778,7,5,-1.099568486213684,3.630462884902954,4.929783524434049,4.44642076910527,19.64695861031021,16.308963150621132,-6.47544875391759e-05,0.0923885703086853,0,0,0
1613,54355.741217103394,2010-09-22 06:53:34,1710.870189193024,7,5,-1.099568486213684,3.626739501953125,4.929783524434049,4.455588361497142,19.64695861031021,16.342227937645795,-9.713172767078504e-05,0.0923885703086853,0,0,0
1614,54385.75645703499,2010-09-22 06:54:04,1740.8854291145976,7,5,-1.099568486213684,3.622854232788086,4.929783524434049,4.464755929236117,19.64695861031021,16.375458922019284,-9.713172767078504e-05,0.0923885703086853,0,0,0
1615,54415.77188098091,2010-09-22 06:54:34,1770.900853095612,7,5,-1.099568486213684,3.6194546222686768,4.929783524434049,4.473923606329125,19.64695861031021,16.40865726776981,-9.713172767078504e-05,0.0923885703086853,0,0,0
1616,54445.7870435895,2010-09-22 06:55:04,1800.91601568415,7,5,-1.099568486213684,3.616055011749268,4.929783524434049,4.483091223799104,19.64695861031021,16.44182290069633,-6.47544875391759e-05,0.0923885703086853,0,0,0
1617,54475.80230624282,2010-09-22 06:55:34,1830.9312783324533,7,5,-1.099568486213684,3.612493515014648,4.929783524434049,4.49225883216736,19.64695861031021,16.474956615097174,-9.713172767078504e-05,0.0923885703086853,0,0,0
1618,54505.817765356536,2010-09-22 06:56:04,1860.9467383383908,7,5,-1.099568486213684,3.6090939044952393,4.929783524434049,4.501426475873667,19.64695861031021,16.508059310404114,-9.713172767078504e-05,0.0923885703086853,0,0,0
1619,54535.83285571978,2010-09-22 06:56:34,1890.9618278094167,7,5,-1.099568486213684,3.60585618019104,4.929783524434049,4.51059407462018,19.64695861031021,16.541131194931108,-9.713172767078504e-05,0.0923885703086853,0,0,0
1620,54565.84810354609,2010-09-22 06:57:04,1920.977075640734,7,5,-1.099568486213684,3.602618455886841,4.929783524434049,4.519761703705316,19.64695861031021,16.574173253768418,-6.47544875391759e-05,0.0923885703086853,0,0,0
1621,54595.863358079136,2010-09-22 06:57:34,1950.99233017378,7,5,-1.0993878841400146,3.5993807315826416,4.929783524434049,4.528929384844879,19.64695861031021,16.607185810251387,-6.47544875391759e-05,0.0923885703086853,0,0,0
1622,54625.87864684763,2010-09-22 06:58:04,1981.0076189372703,7,5,-1.0993878841400146,3.5961430072784424,4.929783524434049,4.538097050447413,19.64695861031021,16.640169124172303,-0.0001295089750783,0.0923885703086853,0,0,0
1623,54655.89389575665,2010-09-22 06:58:34,2011.0228678462777,7,5,-1.099568486213684,3.593229055404663,4.929783524434049,4.547264712370978,19.64695861031021,16.67312378106897,-6.47544875391759e-05,0.0923885703086853,0,0,0
1624,54685.9091827457,2010-09-22 06:59:04,2041.038154840352,7,5,-1.099568486213684,3.590153455734253,4.929783524434049,4.556432407827006,19.64695861031021,16.706050622043282,-6.47544875391759e-05,0.0923885703086853,0,0,0
1625,54715.92444854688,2010-09-22 06:59:34,2071.053420636512,7,5,-1.0993878841400146,3.587077617645264,4.929783524434049,4.565600049290808,19.64695861031021,16.738949352780633,-6.47544875391759e-05,0.0923885703086853,0,0,0
1626,54745.93968818274,2010-09-22 07:00:04,2101.068660272372,7,5,-1.0997490882873535,3.5838398933410645,4.929783524434049,4.574767667158265,19.64695861031021,16.771819805339533,-9.713172767078504e-05,0.0923885703086853,0,0,0
1627,54775.95506846969,2010-09-22 07:00:34,2131.0840405593194,7,5,-1.099568486213684,3.581087827682495,4.929783524434049,4.583935338438357,19.64695861031021,16.80466296142004,-6.47544875391759e-05,0.0923885703086853,0,0,0
1628,54805.97022766976,2010-09-22 07:01:04,2161.0991997594,7,5,-1.0997490882873535,3.577850103378296,4.929783524434049,4.593102926574331,19.64695861031021,16.83747820438726,-9.713172767078504e-05,0.0923885703086853,0,0,0
1629,54835.98551490444,2010-09-22 07:01:34,2191.1144869990862,7,5,-1.0997490882873535,3.574774265289306,4.929783524434049,4.602270607293006,19.64695861031021,16.87026582388851,-9.713172767078504e-05,0.0923885703086853,0,0,0
1630,54866.00076364302,2010-09-22 07:02:04,2221.129735732656,7,5,-1.0993878841400146,3.5720221996307373,4.929783524434049,4.611438271772942,19.64695861031021,16.90302525109177,-3.237724376958795e-05,0.0923885703086853,0,0,0
1631,54896.01613888237,2010-09-22 07:02:35,2251.145110982028,7,5,-1.099568486213684,3.568784475326538,4.929783524434049,4.620605987552161,19.64695861031021,16.935756688412066,-9.713172767078504e-05,0.0923885703086853,0,0,0
1632,54926.03146482867,2010-09-22 07:03:05,2281.160436918308,7,5,-1.0997490882873535,3.565546751022339,4.929783524434049,4.629773676831521,19.64695861031021,16.968459771669295,-9.713172767078504e-05,0.0923885703086853,0,0,0
1633,54956.04666703109,2010-09-22 07:03:35,2311.1756391307536,7,5,-1.0993878841400146,3.5624709129333496,4.929783524434049,4.638941274994127,19.64695861031021,17.001134188452365,-0.0001295089750783,0.0923885703086853,0,0,0
1634,54986.06193449141,2010-09-22 07:04:05,2341.190906586055,7,5,-1.0997490882873535,3.5593950748443604,4.929783524434049,4.648108953460902,19.64695861031021,17.03378063384583,-9.713172767078504e-05,0.0923885703086853,0,0,0
1635,55016.07706909509,2010-09-22 07:04:35,2371.206041179714,7,5,-1.099568486213684,3.556157350540161,4.929783524434049,4.6572765905121,19.64695861031021,17.066397714364822,-9.713172767078504e-05,0.0923885703086853,0,0,0
1636,55046.092494359305,2010-09-22 07:05:05,2401.2214664489434,7,5,-1.0997490882873535,3.552919626235962,4.929783524434049,4.666444320468447,19.64695861031021,17.098985651538772,-0.0001295089750783,0.0923885703086853,0,0,0
1637,55076.10760451196,2010-09-22 07:05:35,2431.2365766015937,7,5,-1.0993878841400146,3.5498437881469727,4.929783524434049,4.675611909544555,19.64695861031021,17.13154353065217,-6.47544875391759e-05,0.0923885703086853,0,0,0
1638,55106.12287227803,2010-09-22 07:06:05,2461.251844372684,7,5,-1.099568486213684,3.5464441776275635,4.929783524434049,4.684779574176909,19.64695861031021,17.164071487801703,-9.713172767078504e-05,0.0923885703086853,0,0,0
1639,55136.13813887119,2010-09-22 07:06:35,2491.267110960822,7,5,-1.099568486213684,3.5428826808929443,4.929783524434049,4.69394724185288,19.64695861031021,17.19656849256733,-9.713172767078504e-05,0.0923885703086853,0,0,0
1640,55166.15597106348,2010-09-22 07:07:05,2521.284943248339,7,5,-1.0997490882873535,3.539483070373535,4.929783524434049,4.703115586777677,19.64695861031021,17.22903612103656,-9.713172767078504e-05,0.0923885703086853,0,0,0
1641,55196.16881036773,2010-09-22 07:07:35,2551.2977825526023,7,5,-1.099568486213684,3.536083459854126,4.929783524434049,4.712282593547615,19.64695861031021,17.261466488978666,-6.47544875391759e-05,0.0923885703086853,0,0,0
1642,55226.18394224461,2010-09-22 07:08:05,2581.312914334242,7,5,-1.099568486213684,3.532198190689087,4.929783524434049,4.72145033868182,19.64695861031021,17.2938658571474,-6.47544875391759e-05,0.0923885703086853,0,0,0
1643,55256.199360085295,2010-09-22 07:08:35,2611.328332184954,7,5,-1.099568486213684,3.528312921524048,4.929783524434049,4.730618112278341,19.64695861031021,17.326230753791954,-0.0001295089750783,0.0923885703086853,0,0,0
1644,55286.21470863804,2010-09-22 07:09:05,2641.3436807276626,7,5,-1.099568486213684,3.524427652359009,4.929783524434049,4.739785894232941,19.64695861031021,17.358560117952624,-6.47544875391759e-05,0.0923885703086853,0,0,0
1645,55316.2297482496,2010-09-22 07:09:35,2671.358720359281,7,5,-1.099568486213684,3.52038049697876,4.929783524434049,4.748953443344842,19.64695861031021,17.390851819365196,-6.47544875391759e-05,0.0923885703086853,0,0,0
1646,55346.24499750948,2010-09-22 07:10:05,2701.373969599115,7,5,-1.0997490882873535,3.515847682952881,4.929783524434049,4.758121071921625,19.64695861031021,17.42310469507815,-0.0001295089750783,0.0923885703086853,0,0,0
1647,55376.26026469912,2010-09-22 07:10:35,2731.3892367987787,7,5,-1.099568486213684,3.511153221130371,4.929783524434049,4.767288782899625,19.64695861031021,17.45531595832094,-0.0001294612884521,0.0923885703086853,0,0,0
1648,55406.27553752282,2010-09-22 07:11:05,2761.4045096124555,7,5,-1.099568486213684,3.5061347484588623,4.929783524434049,4.776456503471382,19.64695861031021,17.487483130776408,-0.0001618862152099,0.0923885703086853,0,0,0
1649,55436.2907992388,2010-09-22 07:11:35,2791.419771328432,7,5,-1.0997490882873535,3.5007925033569336,4.929783524434049,4.785624137843358,19.64695861031021,17.51960225210514,-0.0001618862152099,0.0923885703086853,0,0,0
1650,55466.306164327805,2010-09-22 07:12:05,2821.435136417442,7,5,-1.099568486213684,3.495126485824585,4.929783524434049,4.794791800904172,19.64695861031021,17.55167102077226,-0.0001618862152099,0.0923885703086853,0,0,0
1651,55496.32132175847,2010-09-22 07:12:35,2851.450293853118,7,5,-1.099568486213684,3.4888129234313965,4.929783524434049,4.803959481305506,19.64695861031021,17.58368439895167,-0.0001618862152099,0.0923885703086853,0,0,0
1652,55526.336605188655,2010-09-22 07:13:05,2881.465577278283,7,5,-1.099568486213684,3.482013702392578,4.929783524434049,4.813127184737705,19.64695861031021,17.61563779718946,-0.0001942634553415,0.0923885703086853,0,0,0
1653,55556.351851546286,2010-09-22 07:13:35,2911.4808236409344,7,5,-1.099568486213684,3.47391939163208,4.929783524434049,4.822294828052709,19.64695861031021,17.647523727791587,-0.0002913951757363,0.0923885703086853,0,0,0
1654,55586.36736570239,2010-09-22 07:14:05,2941.4963378120774,7,5,-1.0993878841400146,3.465663194656372,4.929783524434049,4.83146255234479,19.64695861031021,17.679334951436918,-0.0001942634553415,0.0923885703086853,0,0,0
1655,55616.38238406091,2010-09-22 07:14:35,2971.5113561555577,7,5,-1.099568486213684,3.4554643630981445,4.929783524434049,4.840630116008464,19.64695861031021,17.711060838261538,-0.0003237724304199,0.0923885703086853,0,0,0
1656,55646.39766236831,2010-09-22 07:15:05,3001.526634462948,7,5,-1.099568486213684,3.444294214248657,4.929783524434049,4.849797775090811,19.64695861031021,17.74269035086393,-0.0003237724304199,0.0923885703086853,0,0,0
1657,55676.41294462054,2010-09-22 07:15:35,3031.5419167151854,7,5,-1.0997490882873535,3.4310197830200195,4.929783524434049,4.858965434116871,19.64695861031021,17.774207077129404,-0.0003561019839253,0.0923885703086853,0,0,0
1658,55706.42821175504,2010-09-22 07:16:05,3061.557183844674,7,5,-1.099568486213684,3.4148311614990234,4.929783524434049,4.868133112140323,19.64695861031021,17.805589871939627,-0.0004856586456298,0.0923885703086853,0,0,0
1659,55736.443444864606,2010-09-22 07:16:35,3091.572416954244,7,5,-1.099568486213684,3.3944334983825684,4.929783524434049,4.877300769045728,19.64695861031021,17.8368061792691,-0.0006151676061563,0.0923885703086853,0,0,0
1660,55766.45872279606,2010-09-22 07:17:05,3121.587694885696,7,5,-1.0997490882873535,3.367722272872925,4.929783524434049,4.886468435216687,19.64695861031021,17.867808852579632,-0.0008094310760498,0.0923885703086853,0,0,0
1661,55796.47398126393,2010-09-22 07:17:35,3151.6029533535634,7,5,-1.099568486213684,3.330488681793213,4.929783524434049,4.895636223025784,19.64695861031021,17.898522355864813,-0.0011655807029455,0.0923885703086853,0,0,0
1662,55826.48924394231,2010-09-22 07:18:05,3181.6182160319413,7,5,-1.099568486213684,3.277066230773926,4.929783524434049,4.904803950940458,19.64695861031021,17.928825908689316,-0.0016512393485754,0.0923885703086853,0,0,0
1663,55856.504635427205,2010-09-22 07:18:35,3211.63360751684,7,5,-1.0993878841400146,3.199684858322144,4.929783524434049,4.913971696859997,19.64695861031021,17.95853808350752,-0.0024282932281494,0.0923885703086853,0,0,0
1664,55886.51980850192,2010-09-22 07:19:05,3241.648780591553,7,5,-1.099568486213684,3.0795657634735107,4.929783524434049,4.923139408536184,19.64695861031021,17.987365910944764,-0.0039500235579907,0.0923885703086853,0,0,0
1665,55912.28511148706,2010-09-22 07:19:31,3267.4140835817097,7,5,-1.0993878841400146,2.879474878311157,4.929783524434049,4.931009076452876,19.64695861031021,18.01092778758173,-0.0089037418365478,0.0923885703086853,0,0,0
1666,55924.53497084061,2010-09-22 07:19:43,3279.663942930237,7,5,-1.0997490882873535,2.699620008468628,4.929783524434049,4.934750630221077,19.64695861031021,18.021384161929724,-0.0129508497193455,0.0923885703086853,0,0,0
1667,55984.55107878234,2010-09-22 07:20:43,60.01537683872436,8,5,0.0,3.407870054244995,4.929783524434049,4.934750630221077,19.64695861031021,18.021384161929724,0.0014893531333655,0.0923885703086853,0,0,0
1668,55984.73970346389,2010-09-22 07:20:43,0.187643842900162,9,5,-1.9243103452026844e-05,3.408193826675415,4.929783524434049,4.934750631224091,19.64695861031021,18.021384165348188,0.0,0.0914128422737121,0,0,0
1669,55989.567603389856,2010-09-22 07:20:48,5.015543773881729,9,5,0.0010644125286489,3.417259454727173,4.929784396306172,4.934750631307023,19.646961586346265,18.02138416563084,0.0013274669181555,0.0914128422737121,0,0,0
