Data_Point,Test_Time(s),Date_Time,Step_Time(s),Step_Index,Cycle_Index,Current(A),Voltage(V),Charge_Capacity(Ah),Discharge_Capacity(Ah),Charge_Energy(Wh),Discharge_Energy(Wh),dV/dt(V/s),Internal_Resistance(Ohm),Is_FC_Data,AC_Impedance(Ohm),ACI_Phase_Angle(Deg)
2684,91033.85658959732,2010-09-22 17:04:56,30.015264944033376,1,9,0.0,3.4434847831726074,7.9371186389045,7.945092548558949,31.65429992828849,29.01291713710325,0.0008741855854168,0.0890663415193557,0,0,0
2685,91063.87200405454,2010-09-22 17:05:26,60.030679411299744,1,9,0.0,3.469710350036621,7.9371186389045,7.945092548558949,31.65429992828849,29.01291713710325,0.0006151676061563,0.0890663415193557,0,0,0
2686,91093.88716764055,2010-09-22 17:05:56,90.04584299231543,1,9,0.0,3.4892985820770264,7.9371186389045,7.945092548558949,31.65429992828849,29.01291713710325,0.0004856586456298,0.0890663415193557,0,0,0
2687,91123.85553550228,2010-09-22 17:06:26,120.01421085401635,1,9,0.0,3.5045158863067627,7.9371186389045,7.945092548558949,31.65429992828849,29.01291713710325,0.0003561496851034,0.0890663415193557,0,0,0
2688,91153.87263184262,2010-09-22 17:06:56,30.015284172029418,2,9,0.5501165986061096,3.642280578613281,7.941705055395896,7.945092548558949,31.670868781905423,29.01291713710325,0.0012950897216796,0.0890663415193557,0,0,0
2689,91183.88789381424,2010-09-22 17:07:26,60.03054616369322,2,9,0.550297200679779,3.681294918060303,7.946291425623268,7.945092548558949,31.68766921226685,29.01291713710325,0.0008741855854168,0.0890663415193557,0,0,0
2690,91213.90346385483,2010-09-22 17:07:56,90.04611627446974,2,9,0.5499359965324402,3.708977460861206,7.950877811261558,7.945092548558949,31.70461951388473,29.01291713710325,0.0006475448608398,0.0890663415193557,0,0,0
2691,91243.91859345102,2010-09-22 17:08:26,120.06124578042883,2,9,0.5499359965324402,3.730184555053711,7.955464145799625,7.945092548558949,31.721681156819024,29.01291713710325,0.0004856586456298,0.0890663415193557,0,0,0
2692,91273.9337192377,2010-09-22 17:08:56,150.0763715921666,2,9,0.5501165986061096,3.747020721435547,7.960050458230151,7.945092548558949,31.738829488810488,29.01291713710325,0.0003885269106831,0.0890663415193557,0,0,0
2693,91303.94913594556,2010-09-22 17:09:26,180.09178826995077,2,9,0.5501165986061096,3.759323835372925,7.964636814406473,7.945092548558949,31.75604481341049,29.01291713710325,0.0002590179501567,0.0890663415193557,0,0,0
2694,91333.9642870003,2010-09-22 17:09:57,210.10693932469897,2,9,0.5501165986061096,3.766932487487793,7.969223185351135,7.945092548558949,31.773305540536512,29.01291713710325,9.713172767078504e-05,0.0890663415193557,0,0,0
2695,91363.9795743252,2010-09-22 17:10:27,240.12222666964848,2,9,0.5501165986061096,3.771627187728882,7.973809563422279,7.945092548558949,31.7905937776159,29.01291713710325,6.47544875391759e-05,0.0890663415193557,0,0,0
2696,91393.99484465268,2010-09-22 17:10:57,270.1374969870947,2,9,0.5499359965324402,3.775350570678711,7.978395922414485,7.945092548558949,31.80790101203055,29.01291713710325,6.47544875391759e-05,0.0890663415193557,0,0,0
2697,91424.01015416796,2010-09-22 17:11:27,300.15280673797287,2,9,0.5501165986061096,3.77875018119812,7.982982231805951,7.945092548558949,31.825224547908224,29.01291713710325,0.0,0.0890663415193557,0,0,0
2698,91454.02538769356,2010-09-22 17:11:57,330.16804001796794,2,9,0.550297200679779,3.782473564147949,7.987568589212387,7.945092548558949,31.84256421512928,29.01291713710325,9.713172767078504e-05,0.0890663415193557,0,0,0
2699,91484.04066519896,2010-09-22 17:12:27,360.1833175233564,2,9,0.5499359965324402,3.785711288452149,7.992154857851006,7.945092548558949,31.859919286905452,29.01291713710325,6.47544875391759e-05,0.0890663415193557,0,0,0
2700,91514.05593948632,2010-09-22 17:12:57,390.1985918107122,2,9,0.5501165986061096,3.789272785186768,7.996741161446663,7.945092548558949,31.87729015910285,29.01291713710325,6.47544875391759e-05,0.0890663415193557,0,0,0
2701,91544.07119921233,2010-09-22 17:13:27,420.213851531708,2,9,0.5499359965324402,3.792510509490967,8.001327447265133,7.945092548558949,31.89467650786187,29.01291713710325,6.47544875391759e-05,0.0890663415193557,0,0,0
2702,91574.08647277286,2010-09-22 17:13:57,450.22912512232455,2,9,0.5501165986061096,3.795910120010376,8.005913802927218,7.945092548558949,31.91207848449424,29.01291713710325,6.47544875391759e-05,0.0890663415193557,0,0,0
2703,91604.10174598252,2010-09-22 17:14:27,480.2443983069277,2,9,0.5499359965324402,3.799147844314575,8.010500116351894,7.945092548558949,31.92949547748769,29.01291713710325,6.47544875391759e-05,0.0890663415193557,0,0,0
2704,91634.1196414277,2010-09-22 17:14:57,510.26229385735934,2,9,0.5501165986061096,3.802547454833984,8.015086801398802,7.945092548558949,31.94692887608796,29.01291713710325,9.713172767078504e-05,0.0890663415193557,0,0,0
2705,91664.132397018,2010-09-22 17:15:27,540.2750494677098,2,9,0.5501165986061096,3.805785179138184,8.019672738325124,7.945092548558949,31.96437426342565,29.01291713710325,0.0001295089750783,0.0890663415193557,0,0,0
2706,91694.14781705417,2010-09-22 17:15:57,570.2904693885893,2,9,0.5499359965324402,3.809022903442383,8.02425915985971,7.945092548558949,31.98183620977904,29.01291713710325,9.713172767078504e-05,0.0890663415193557,0,0,0
2707,91724.16283517209,2010-09-22 17:16:27,600.3054874964816,2,9,0.5501165986061096,3.812098741531372,8.028845514515865,7.945092548558949,31.99931248019391,29.01291713710325,6.47544875391759e-05,0.0890663415193557,0,0,0
2708,91754.1783258546,2010-09-22 17:16:57,630.320978178993,2,9,0.5499359965324402,3.8153364658355713,8.033431932762786,7.945092548558949,32.016803767695635,29.01291713710325,9.713172767078504e-05,0.0890663415193557,0,0,0
2709,91784.19339098988,2010-09-22 17:17:27,660.336043344348,2,9,0.5501165986061096,3.8185741901397705,8.03801821789714,7.945092548558949,32.03430935031393,29.01291713710325,9.713172767078504e-05,0.0890663415193557,0,0,0
2710,91814.20866201408,2010-09-22 17:17:57,690.3513143685585,2,9,0.5501165986061096,3.8218119144439697,8.042604521241216,7.945092548558949,32.05182983578724,29.01291713710325,9.713172767078504e-05,0.0890663415193557,0,0,0
2711,91844.2239574292,2010-09-22 17:18:27,720.3666097786397,2,9,0.5497553944587708,3.824887752532959,8.047190871972033,7.945092548558949,32.069365492011315,29.01291713710325,3.237724376958795e-05,0.0890663415193557,0,0,0
2712,91874.23937631249,2010-09-22 17:18:57,750.3820287371168,2,9,0.5501165986061096,3.828449249267578,8.051777155679243,7.945092548558949,32.08691628961653,29.01291713710325,9.713172767078504e-05,0.0890663415193557,0,0,0
2713,91904.25451146252,2010-09-22 17:19:27,780.3971638069643,2,9,0.5501165986061096,3.8318488597869873,8.056363423627618,7.945092548558949,32.10448263263664,29.01291713710325,6.47544875391759e-05,0.0890663415193557,0,0,0
2714,91934.26989335346,2010-09-22 17:19:57,810.4125456828776,2,9,0.5501165986061096,3.8354101181030273,8.060949744210028,7.945092548558949,32.12206489776726,29.01291713710325,9.713172767078504e-05,0.0890663415193557,0,0,0
2715,91964.28502035316,2010-09-22 17:20:27,840.4276726775684,2,9,0.550297200679779,3.8389716148376474,8.06553602165586,7.945092548558949,32.13966282686973,29.01291713710325,0.0001295089750783,0.0890663415193557,0,0,0
2716,91994.3003145452,2010-09-22 17:20:57,870.4429669949219,2,9,0.5501165986061096,3.8422093391418457,8.070122315826666,7.945092548558949,32.15727654801368,29.01291713710325,9.713172767078504e-05,0.0890663415193557,0,0,0
2717,92024.3156033538,2010-09-22 17:21:27,900.4582557985125,2,9,0.5499359965324402,3.845447063446045,8.074708629153697,7.945092548558949,32.174905807822014,29.01291713710325,6.47544875391759e-05,0.0890663415193557,0,0,0
2718,92054.33087799203,2010-09-22 17:21:57,930.473530316444,2,9,0.5501165986061096,3.848846673965454,8.079294924737638,7.945092548558949,32.19255021543223,29.01291713710325,9.713172767078504e-05,0.0890663415193557,0,0,0
2719,92084.34623925148,2010-09-22 17:22:27,960.4888915708829,2,9,0.5501165986061096,3.8519225120544434,8.083881251991185,7.945092548558949,32.210209640257474,29.01291713710325,6.47544875391759e-05,0.0890663415193557,0,0,0
2720,92114.36140721846,2010-09-22 17:22:57,990.5040595428588,2,9,0.550297200679779,3.8551602363586426,8.08846758853128,7.945092548558949,32.22788356406584,29.01291713710325,3.237724376958795e-05,0.0890663415193557,0,0,0
2721,92144.37678539514,2010-09-22 17:23:27,1020.5194377245508,2,9,0.5501165986061096,3.858074188232422,8.093053852081134,7.945092548558949,32.24557145889161,29.01291713710325,6.47544875391759e-05,0.0890663415193557,0,0,0
2722,92174.39193888094,2010-09-22 17:23:57,1050.53459123543,2,9,0.5501165986061096,3.861150026321411,8.097640175940965,7.945092548558949,32.26327330872533,29.01291713710325,6.47544875391759e-05,0.0890663415193557,0,0,0
2723,92204.40720765956,2010-09-22 17:24:27,1080.5498599889725,2,9,0.5501165986061096,3.8640639781951904,8.102226505907826,7.945092548558949,32.28098854590494,29.01291713710325,9.713172767078504e-05,0.0890663415193557,0,0,0
2724,92234.4224996461,2010-09-22 17:24:57,1110.5651520005706,2,9,0.5501165986061096,3.8669779300689697,8.106812747473025,7.945092548558949,32.29871620871843,29.01291713710325,9.713172767078504e-05,0.0890663415193557,0,0,0
2725,92264.43790975248,2010-09-22 17:25:27,1140.580562081889,2,9,0.5501165986061096,3.869406223297119,8.111399103910811,7.945092548558949,32.31645656191838,29.01291713710325,9.713172767078504e-05,0.0890663415193557,0,0,0
2726,92294.45303522336,2010-09-22 17:25:57,1170.5956875477634,2,9,0.550297200679779,3.8719964027404794,8.115985372048769,7.945092548558949,32.33420827534471,29.01291713710325,6.47544875391759e-05,0.0890663415193557,0,0,0
2727,92324.46830163104,2010-09-22 17:26:27,1200.6109539755005,2,9,0.5501165986061096,3.874100923538208,8.120571645002922,7.945092548558949,32.35197102471716,29.01291713710325,3.237724376958795e-05,0.0890663415193557,0,0,0
2728,92354.48358358252,2010-09-22 17:26:57,1230.626235937012,2,9,0.5501165986061096,3.876367330551148,8.125157946038351,7.945092548558949,32.36974418566108,29.01291713710325,6.47544875391759e-05,0.0890663415193557,0,0,0
2729,92384.49884378974,2010-09-22 17:27:27,1260.641496109134,2,9,0.5499359965324402,3.878471851348877,8.129744105380603,7.945092548558949,32.38752652273271,29.01291713710325,9.713172767078504e-05,0.0890663415193557,0,0,0
2730,92414.51451390516,2010-09-22 17:27:57,1290.6571662546123,2,9,0.5499359965324402,3.8802525997161865,8.134329593994567,7.945092548558949,32.40531516198453,29.01291713710325,3.237724376958795e-05,0.0890663415193557,0,0,0
2731,92444.52941656488,2010-09-22 17:28:27,1320.6720688892658,2,9,0.5501165986061096,3.882033348083496,8.138915066879342,7.945092548558949,32.4231122312,29.01291713710325,3.237724376958795e-05,0.0890663415193557,0,0,0
2732,92474.54472107266,2010-09-22 17:28:57,1350.6873734271317,2,9,0.550297200679779,3.8838140964508057,8.143501370187746,7.945092548558949,32.44092059847858,29.01291713710325,0.0,0.0890663415193557,0,0,0
2733,92504.56008069305,2010-09-22 17:29:27,1380.7027330174164,2,9,0.5499359965324402,3.8852710723876953,8.148087745621776,7.945092548558949,32.4587365591201,29.01291713710325,3.237724376958795e-05,0.0890663415193557,0,0,0
2734,92534.57523321644,2010-09-22 17:29:57,1410.7178855709058,2,9,0.5501165986061096,3.886889934539795,8.15267400901127,7.945092548558949,32.47655902135708,29.01291713710325,6.47544875391759e-05,0.0890663415193557,0,0,0
2735,92564.59050857648,2010-09-22 17:30:27,1440.7331609259263,2,9,0.5501165986061096,3.8880231380462646,8.15726030789197,7.945092548558949,32.494388051671194,29.01291713710325,3.237724376958795e-05,0.0890663415193557,0,0,0
2736,92594.60578740014,2010-09-22 17:30:57,1470.7484397546184,2,9,0.550297200679779,3.8894801139831534,8.161846659405667,7.945092548558949,32.51222349551326,29.01291713710325,3.237724376958795e-05,0.0890663415193557,0,0,0
2737,92624.621087527,2010-09-22 17:31:27,1500.7637398513984,2,9,0.5499359965324402,3.890613317489624,8.166433006022565,7.945092548558949,32.530064730352684,29.01291713710325,0.0,0.0890663415193557,0,0,0
2738,92654.63659596884,2010-09-22 17:31:57,1530.779248288227,2,9,0.5499359965324402,3.891908407211304,8.171019314454849,7.945092548558949,32.54791151165171,29.01291713710325,3.237724376958795e-05,0.0890663415193557,0,0,0
2739,92684.65161401156,2010-09-22 17:32:27,1560.7942663359693,2,9,0.5501165986061096,3.893203496932984,8.175605673198866,7.945092548558949,32.56576403509645,29.01291713710325,3.237724376958795e-05,0.0890663415193557,0,0,0
2740,92714.66708697486,2010-09-22 17:32:57,1590.8097392992509,2,9,0.5501165986061096,3.894336700439453,8.18019202141741,7.945092548558949,32.58362196036552,29.01291713710325,3.237724376958795e-05,0.0890663415193557,0,0,0
2741,92744.68214478684,2010-09-22 17:33:27,1620.8247971162632,2,9,0.5501165986061096,3.895308017730713,8.184778304106164,7.945092548558949,32.60148460675754,29.01291713710325,3.237724376958795e-05,0.0890663415193557,0,0,0
2742,92774.69740942512,2010-09-22 17:33:57,1650.8400617495213,2,9,0.5499359965324402,3.8966031074523926,8.18936457167606,7.945092548558949,32.61935260165202,29.01291713710325,0.0,0.0890663415193557,0,0,0
2743,92804.71280471452,2010-09-22 17:34:27,1680.8554570389165,2,9,0.550297200679779,3.897898197174072,8.193950888934543,7.945092548558949,32.63722613961335,29.01291713710325,6.47544875391759e-05,0.0890663415193557,0,0,0
2744,92834.72796991456,2010-09-22 17:34:57,1710.870622264036,2,9,0.5499359965324402,3.899031400680542,8.198537049277773,7.945092548558949,32.65510442106169,29.01291713710325,3.237724376958795e-05,0.0890663415193557,0,0,0
2745,92864.74323846762,2010-09-22 17:35:27,1740.8858907920155,2,9,0.5499359965324402,3.9000027179718018,8.203123310106646,7.945092548558949,32.67298851103414,29.01291713710325,3.237724376958795e-05,0.0890663415193557,0,0,0
2746,92894.75852222362,2010-09-22 17:35:57,1770.9011745480063,2,9,0.550297200679779,3.9012978076934814,8.207709573804511,7.945092548558949,32.69087788806795,29.01291713710325,6.47544875391759e-05,0.0890663415193557,0,0,0
2747,92924.77376785944,2010-09-22 17:36:27,1800.9164201838437,2,9,0.5499359965324402,3.902431011199951,8.212295824379284,7.945092548558949,32.70877268803377,29.01291713710325,3.237724376958795e-05,0.0890663415193557,0,0,0
2748,92954.7890533648,2010-09-22 17:36:57,1830.931705719276,2,9,0.5501165986061096,3.903726100921631,8.216882097364556,7.945092548558949,32.7266729948171,29.01291713710325,6.47544875391759e-05,0.0890663415193557,0,0,0
2749,92984.80443350135,2010-09-22 17:37:27,1860.9470858257728,2,9,0.5499359965324402,3.9048593044281006,8.22146840324444,7.945092548558949,32.74457897175336,29.01291713710325,3.237724376958795e-05,0.0890663415193557,0,0,0
2750,93014.8195796238,2010-09-22 17:37:57,1890.9622319782843,2,9,0.5501165986061096,3.9059925079345694,8.226054693026848,7.945092548558949,32.76249023445351,29.01291713710325,3.237724376958795e-05,0.0890663415193557,0,0,0
2751,93044.8348567282,2010-09-22 17:38:27,1920.9775090776595,2,9,0.5501165986061096,3.90728759765625,8.23064098112886,7.945092548558949,32.780407129691284,29.01291713710325,3.237724376958795e-05,0.0890663415193557,0,0,0
2752,93074.85013711578,2010-09-22 17:38:57,1950.9927894401792,2,9,0.5501165986061096,3.90842080116272,8.235227221964005,7.945092548558949,32.79832941151411,29.01291713710325,3.237724376958795e-05,0.0890663415193557,0,0,0
2753,93104.86541002472,2010-09-22 17:39:27,1981.0080623541069,2,9,0.5501165986061096,3.9095540046691895,8.23981350715986,7.945092548558949,32.81625757310573,29.01291713710325,0.0,0.0890663415193557,0,0,0
2754,93134.8818081774,2010-09-22 17:39:57,2011.0244605970288,2,9,0.5501165986061096,3.911010980606079,8.244399961039559,7.945092548558949,32.83419201554877,29.01291713710325,6.47544875391759e-05,0.0890663415193557,0,0,0
2755,93164.89601599268,2010-09-22 17:40:27,2041.0386684223315,2,9,0.5499359965324402,3.911982297897339,8.248986084209575,7.945092548558949,32.852130904816214,29.01291713710325,-3.237724376958795e-05,0.0890663415193557,0,0,0
2756,93194.9112164407,2010-09-22 17:40:57,2071.053868775135,2,9,0.5501165986061096,3.913439273834229,8.253572419903586,7.945092548558949,32.87007642511086,29.01291713710325,3.237724376958795e-05,0.0890663415193557,0,0,0
2757,93224.91273728236,2010-09-22 17:41:27,2101.0553897019868,2,9,0.5499359965324402,3.914734125137329,8.258156633880018,7.945092548558949,32.88801953817234,29.01291713710325,3.237724376958795e-05,0.0890663415193557,0,0,0
2758,93254.9262190152,2010-09-22 17:41:57,2131.068871459913,2,9,0.5501165986061096,3.915867328643799,8.262742686039275,7.945092548558949,32.90597571908142,29.01291713710325,3.237724376958795e-05,0.0890663415193557,0,0,0
2759,93284.9414323454,2010-09-22 17:42:28,2161.0840846898604,2,9,0.5501165986061096,3.9174861907958975,8.267328956458824,7.945092548558949,32.92393872242705,29.01291713710325,6.47544875391759e-05,0.0890663415193557,0,0,0
2760,93314.95670117416,2010-09-22 17:42:58,2191.099353523603,2,9,0.5501165986061096,3.918619394302368,8.271915217445207,7.945092548558949,32.94190769828308,29.01291713710325,3.237724376958795e-05,0.0890663415193557,0,0,0
2761,93344.9720090804,2010-09-22 17:43:28,2221.11466149504,2,9,0.5501165986061096,3.920076370239258,8.27650151454752,7.945092548558949,32.95988297987092,29.01291713710325,6.47544875391759e-05,0.0890663415193557,0,0,0
2762,93374.98727056582,2010-09-22 17:43:58,2251.1299237724165,2,9,0.5501165986061096,3.921209573745728,8.281087755078186,7.945092548558949,32.97786410014805,29.01291713710325,0.0,0.0890663415193557,0,0,0
2763,93405.00251234202,2010-09-22 17:44:28,2281.1451646664177,2,9,0.550297200679779,3.922828435897827,8.285674030157788,7.945092548558949,32.99585157132776,29.01291713710325,3.237724376958795e-05,0.0890663415193557,0,0,0
2764,93435.01778680984,2010-09-22 17:44:58,2311.1604391342235,2,9,0.5501165986061096,3.924123525619507,8.290260338901302,7.945092548558949,33.01384543159995,29.01291713710325,3.237724376958795e-05,0.0890663415193557,0,0,0
2765,93465.03307979384,2010-09-22 17:45:28,2341.175732123261,2,9,0.5499359965324402,3.9254186153411865,8.29484658023222,7.945092548558949,33.031845400793486,29.01291713710325,6.47544875391759e-05,0.0890663415193557,0,0,0
2766,93495.04845849184,2010-09-22 17:45:58,2371.1911108162294,2,9,0.5501165986061096,3.926713705062866,8.29943287170862,7.945092548558949,33.04985185099873,29.01291713710325,6.47544875391759e-05,0.0890663415193557,0,0,0
2767,93525.0636004589,2010-09-22 17:46:28,2401.2062527883063,2,9,0.5501165986061096,3.928332567214966,8.304019145983174,7.945092548558949,33.06786472510632,29.01291713710325,6.47544875391759e-05,0.0890663415193557,0,0,0
2768,93555.0788764906,2010-09-22 17:46:58,2431.221528815004,2,9,0.5499359965324402,3.9296276569366455,8.308605431260712,7.945092548558949,33.08588412107201,29.01291713710325,6.47544875391759e-05,0.0890663415193557,0,0,0
2769,93585.09418832167,2010-09-22 17:47:28,2461.2368406560995,2,9,0.5501165986061096,3.931084632873535,8.313191691501235,7.945092548558949,33.10391004636304,29.01291713710325,3.237724376958795e-05,0.0890663415193557,0,0,0
2770,93615.10946710524,2010-09-22 17:47:58,2491.2521195549666,2,9,0.5501165986061096,3.932541608810425,8.317778611947691,7.945092548558949,33.12194510974604,29.01291713710325,3.237724376958795e-05,0.0890663415193557,0,0,0
2771,93645.12481570811,2010-09-22 17:48:28,2521.267468032512,2,9,0.5501165986061096,3.9339985847473145,8.322365830734734,7.945092548558949,33.13998805034273,29.01291713710325,6.47544875391759e-05,0.0890663415193557,0,0,0
2772,93675.14012656677,2010-09-22 17:48:58,2551.282778896168,2,9,0.5499359965324402,3.935455560684204,8.32695246373707,7.945092548558949,33.15803547046859,29.01291713710325,3.237724376958795e-05,0.0890663415193557,0,0,0
2773,93705.15547242777,2010-09-22 17:49:28,2581.29812477222,2,9,0.5497553944587708,3.937074422836304,8.331538763247798,7.945092548558949,33.17608820932251,29.01291713710325,9.713172767078504e-05,0.0890663415193557,0,0,0
2774,93735.170661728,2010-09-22 17:49:58,2611.3133140573973,2,9,0.5501165986061096,3.938531398773194,8.336124941012985,7.945092548558949,33.194147397523835,29.01291713710325,3.237724376958795e-05,0.0890663415193557,0,0,0
2775,93765.18576962,2010-09-22 17:50:28,2641.328421944392,2,9,0.5501165986061096,3.939988374710083,8.340711095528103,7.945092548558949,33.212213304373016,29.01291713710325,3.237724376958795e-05,0.0890663415193557,0,0,0
2776,93795.20116453846,2010-09-22 17:50:58,2671.343816963112,2,9,0.5499359965324402,3.9414453506469727,8.345297268776125,7.945092548558949,33.23028622765259,29.01291713710325,3.237724376958795e-05,0.0890663415193557,0,0,0
2777,93825.21637829472,2010-09-22 17:51:28,2701.3590306191227,2,9,0.550297200679779,3.943064212799072,8.349883445515115,7.945092548558949,33.2483662446388,29.01291713710325,0.0,0.0890663415193557,0,0,0
2778,93855.23166440158,2010-09-22 17:51:58,2731.374316821219,2,9,0.5501165986061096,3.944683074951172,8.35446971283887,7.945092548558949,33.266453811094564,29.01291713710325,3.237724376958795e-05,0.0890663415193557,0,0,0
2779,93885.24692494964,2010-09-22 17:52:28,2761.389577284067,2,9,0.5497553944587708,3.946301937103272,8.359056001281969,7.945092548558949,33.28454863041369,29.01291713710325,6.47544875391759e-05,0.0890663415193557,0,0,0
2780,93915.2626837414,2010-09-22 17:52:58,2791.405336065795,2,9,0.5501165986061096,3.947758913040161,8.363642265860513,7.945092548558949,33.30265038166546,29.01291713710325,3.237724376958795e-05,0.0890663415193557,0,0,0
2781,93945.277471374,2010-09-22 17:53:28,2821.4201236983854,2,9,0.5501165986061096,3.949215888977051,8.36822841923731,7.945092548558949,33.320759018539896,29.01291713710325,0.0,0.0890663415193557,0,0,0
2782,93975.2928350244,2010-09-22 17:53:58,2851.435487353818,2,9,0.5499359965324402,3.95099663734436,8.372814644742009,7.945092548558949,33.33887523288432,29.01291713710325,6.47544875391759e-05,0.0890663415193557,0,0,0
2783,94005.30798118192,2010-09-22 17:54:28,2881.4506335063293,2,9,0.5501165986061096,3.95261549949646,8.377400844814177,7.945092548558949,33.35699876219105,29.01291713710325,6.47544875391759e-05,0.0890663415193557,0,0,0
2784,94035.3232329581,2010-09-22 17:54:58,2911.4658852925186,2,9,0.5501165986061096,3.9540724754333496,8.381987114900804,7.945092548558949,33.37512994364566,29.01291713710325,3.237724376958795e-05,0.0890663415193557,0,0,0
2785,94065.33851685443,2010-09-22 17:55:28,2941.481169193872,2,9,0.5501165986061096,3.955853223800659,8.386573459872041,7.945092548558949,33.39326891633864,29.01291713710325,3.237724376958795e-05,0.0890663415193557,0,0,0
2786,94095.3537887859,2010-09-22 17:55:58,2971.4964411153223,2,9,0.5499359965324402,3.957472085952759,8.39115981625155,7.945092548558949,33.41141547493044,29.01291713710325,3.237724376958795e-05,0.0890663415193557,0,0,0
2787,94125.3690414944,2010-09-22 17:56:28,3001.511693828827,2,9,0.550297200679779,3.9594147205352783,8.395746141558211,7.945092548558949,33.429569518551766,29.01291713710325,9.713172767078504e-05,0.0890663415193557,0,0,0
2788,94155.3843113858,2010-09-22 17:56:58,3031.526963710184,2,9,0.550297200679779,3.960871696472168,8.400332509097739,7.945092548558949,33.44773153167924,29.01291713710325,6.47544875391759e-05,0.0890663415193557,0,0,0
2789,94185.39960911666,2010-09-22 17:57:28,3061.5422614510835,2,9,0.5499359965324402,3.9626524448394775,8.404918927025864,7.945092548558949,33.465901571887265,29.01291713710325,6.47544875391759e-05,0.0890663415193557,0,0,0
2790,94215.41488707818,2010-09-22 17:57:58,3091.557539402585,2,9,0.5501165986061096,3.964433193206787,8.409505387948899,7.945092548558949,33.48407969116553,29.01291713710325,6.47544875391759e-05,0.0890663415193557,0,0,0
2791,94245.43012575664,2010-09-22 17:58:28,3121.572778091081,2,9,0.5499359965324402,3.9658901691436768,8.414091860432354,7.945092548558949,33.50226581617576,29.01291713710325,3.237724376958795e-05,0.0890663415193557,0,0,0
2792,94275.44539964804,2010-09-22 17:58:58,3151.588051972424,2,9,0.5501165986061096,3.9676709175109854,8.418678384887299,7.945092548558949,33.52046011443671,29.01291713710325,3.237724376958795e-05,0.0890663415193557,0,0,0
2793,94305.46084852118,2010-09-22 17:59:28,3181.6035008505846,2,9,0.5501165986061096,3.969613552093506,8.423264938672164,7.945092548558949,33.538662580685646,29.01291713710325,6.47544875391759e-05,0.0890663415193557,0,0,0
2794,94335.47594237817,2010-09-22 17:59:58,3211.618594712571,2,9,0.5501165986061096,3.9712324142456055,8.427851336632628,7.945092548558949,33.556872584167195,29.01291713710325,3.237724376958795e-05,0.0890663415193557,0,0,0
2795,94365.4917501622,2010-09-22 18:00:28,3241.6344024966165,2,9,0.550297200679779,3.973175048828125,8.43243794383732,7.945092548558949,33.57509169246924,29.01291713710325,6.47544875391759e-05,0.0890663415193557,0,0,0
2796,94395.50648799048,2010-09-22 18:00:58,3271.649140314863,2,9,0.5499359965324402,3.9749557971954346,8.437024337338917,7.945092548558949,33.59331830448498,29.01291713710325,3.237724376958795e-05,0.0890663415193557,0,0,0
2797,94425.52178148576,2010-09-22 18:01:28,3301.664433825202,2,9,0.5501165986061096,3.976898431777954,8.441610801991832,7.945092548558949,33.61155364406726,29.01291713710325,9.713172767078504e-05,0.0890663415193557,0,0,0
2798,94455.53717774258,2010-09-22 18:01:58,3331.679830167225,2,9,0.5501165986061096,3.978679180145264,8.446197368018314,7.945092548558949,33.62979751333282,29.01291713710325,9.713172767078504e-05,0.0890663415193557,0,0,0
2799,94485.5522987824,2010-09-22 18:02:28,3361.6949511118137,2,9,0.5501165986061096,3.980621814727783,8.450783696503215,7.945092548558949,33.64804948526584,29.01291713710325,6.47544875391759e-05,0.0890663415193557,0,0,0
2800,94515.56760494431,2010-09-22 18:02:58,3391.710257273733,2,9,0.5501165986061096,3.9827263355255127,8.455370091329673,7.945092548558949,33.66631049171307,29.01291713710325,9.713172767078504e-05,0.0890663415193557,0,0,0
2801,94545.58279809916,2010-09-22 18:03:28,3421.725450433582,2,9,0.5499359965324402,3.9845070838928223,8.45995647751117,7.945092548558949,33.68458023939982,29.01291713710325,9.713172767078504e-05,0.0890663415193557,0,0,0
2802,94575.5979322016,2010-09-22 18:03:58,3451.74058452599,2,9,0.550297200679779,3.986449718475342,8.464542794664542,7.945092548558949,33.70285871439936,29.01291713710325,6.47544875391759e-05,0.0890663415193557,0,0,0
2803,94605.61333669898,2010-09-22 18:04:28,3481.7559890283824,2,9,0.5501165986061096,3.988392353057861,8.469129124209344,7.945092548558949,33.721146284530526,29.01291713710325,6.47544875391759e-05,0.0890663415193557,0,0,0
2804,94635.62847339288,2010-09-22 18:04:58,3511.771125717271,2,9,0.5501165986061096,3.990334987640381,8.473715373627472,7.945092548558949,33.73944264447983,29.01291713710325,3.237724376958795e-05,0.0890663415193557,0,0,0
2805,94665.64395920822,2010-09-22 18:05:28,3541.7866115326333,2,9,0.5501165986061096,3.992277622222901,8.478301750957131,7.945092548558949,33.75774878681132,29.01291713710325,3.237724376958795e-05,0.0890663415193557,0,0,0
2806,94695.65901650896,2010-09-22 18:05:58,3571.8016688333573,2,9,0.5499359965324402,3.994381904602051,8.482888103089167,7.945092548558949,33.776064170865304,29.01291713710325,0.0,0.0890663415193557,0,0,0
2807,94725.67445361774,2010-09-22 18:06:28,3601.8171060474037,2,9,0.5501165986061096,3.9966483116149902,8.487474472778239,7.945092548558949,33.79438908457176,29.01291713710325,6.47544875391759e-05,0.0890663415193557,0,0,0
2808,94755.68955552984,2010-09-22 18:06:58,3631.832207854221,2,9,0.5501165986061096,3.9985909461975098,8.492060853958323,7.945092548558949,33.81272356602112,29.01291713710325,3.237724376958795e-05,0.0890663415193557,0,0,0
2809,94785.7048422382,2010-09-22 18:07:28,3661.8474945675935,2,9,0.5499359965324402,4.000695705413818,8.496647237252608,7.945092548558949,33.83106754957079,29.01291713710325,0.0,0.0890663415193557,0,0,0
2810,94815.72012434508,2010-09-22 18:07:58,3691.862776669456,2,9,0.5501165986061096,4.002962112426758,8.501233584698983,7.945092548558949,33.84942111085791,29.01291713710325,9.71794142969884e-05,0.0890663415193557,0,0,0
2811,94845.73537295833,2010-09-22 18:08:28,3721.8780252827246,2,9,0.5501165986061096,4.005066394805908,8.50581992911689,7.945092548558949,33.86778442947298,29.01291713710325,9.70840483205393e-05,0.0890663415193557,0,0,0
2812,94875.75063833845,2010-09-22 18:08:58,3751.893290667859,2,9,0.5499359965324402,4.007171154022217,8.510406332923042,7.945092548558949,33.88615791368733,29.01291713710325,6.47544875391759e-05,0.0890663415193557,0,0,0
2813,94905.76592835507,2010-09-22 18:09:28,3781.9085806794646,2,9,0.5499359965324402,4.009275436401367,8.514992692627189,7.945092548558949,33.904541176981525,29.01291713710325,3.23295607813634e-05,0.0890663415193557,0,0,0
2814,94935.78119821638,2010-09-22 18:09:58,3811.9238505457856,2,9,0.5499359965324402,4.011541843414307,8.519579027704557,7.945092548558949,33.92293436324285,29.01291713710325,6.47544875391759e-05,0.0890663415193557,0,0,0
2815,94965.79651486449,2010-09-22 18:10:28,3841.939167188867,2,9,0.5501165986061096,4.013808250427246,8.524165421117099,7.945092548558949,33.94133797969313,29.01291713710325,9.70840483205393e-05,0.0890663415193557,0,0,0
2816,94995.81185068042,2010-09-22 18:10:58,3871.9545030098207,2,9,0.5499359965324402,4.015913009643555,8.528751882852191,7.945092548558949,33.95975204140244,29.01291713710325,3.24249267578125e-05,0.0890663415193557,0,0,0
2817,95025.82713696772,2010-09-22 18:11:28,3901.9697893171806,2,9,0.550297200679779,4.018341064453125,8.533338313477218,7.945092548558949,33.97817631526978,29.01291713710325,9.70840483205393e-05,0.0890663415193557,0,0,0
2818,95055.84229545602,2010-09-22 18:11:58,3931.984947970896,2,9,0.5499359965324402,4.020445823669434,8.537924757056022,7.945092548558949,33.99661092163348,29.01291713710325,6.47544875391759e-05,0.0890663415193557,0,0,0
2819,95085.8580689194,2010-09-22 18:12:28,3962.0007212588334,2,9,0.5501165986061096,4.022873878479004,8.542511134488835,7.945092548558949,34.0150558056015,29.01291713710325,6.47544875391759e-05,0.0890663415193557,0,0,0
2820,95115.87295219072,2010-09-22 18:12:58,3992.0156045151166,2,9,0.5499359965324402,4.025140285491943,8.54709746786666,7.945092548558949,34.033511012866406,29.01291713710325,6.47544875391759e-05,0.0890663415193557,0,0,0
2821,95145.88812428298,2010-09-22 18:13:28,4022.030776702616,2,9,0.5501165986061096,4.027406692504883,8.551683853552348,7.945092548558949,34.05197702698252,29.01291713710325,6.47544875391759e-05,0.0890663415193557,0,0,0
2822,95175.90348902612,2010-09-22 18:13:58,4052.046141350525,2,9,0.5501165986061096,4.029835224151611,8.556270302430761,7.945092548558949,34.07045399237434,29.01291713710325,6.47544875391759e-05,0.0890663415193557,0,0,0
2823,95205.91864749436,2010-09-22 18:14:29,4082.0612998187785,2,9,0.5501165986061096,4.032263278961182,8.56085666910626,7.945092548558949,34.088941310099,29.01291713710325,9.70840483205393e-05,0.0890663415193557,0,0,0
2824,95235.93389333576,2010-09-22 18:14:59,4112.076545670154,2,9,0.5501165986061096,4.034529685974121,8.565443050778734,7.945092548558949,34.10743957305346,29.01291713710325,6.47544875391759e-05,0.0890663415193557,0,0,0
2825,95265.94919835478,2010-09-22 18:15:29,4142.091850684208,2,9,0.5501165986061096,4.036957740783691,8.57002945789924,7.945092548558949,34.125948865198936,29.01291713710325,6.47544875391759e-05,0.0890663415193557,0,0,0
2826,95295.9644398854,2010-09-22 18:15:59,4172.10709221981,2,9,0.5499359965324402,4.039224147796631,8.574615833036846,7.945092548558949,34.14446912333925,29.01291713710325,6.47544875391759e-05,0.0890663415193557,0,0,0
2827,95325.9797044635,2010-09-22 18:16:29,4202.12235679793,2,9,0.5501165986061096,4.04181432723999,8.57920224089467,7.945092548558949,34.163000598688065,29.01291713710325,6.47544875391759e-05,0.0890663415193557,0,0,0
2828,95355.99512777786,2010-09-22 18:16:59,4232.137780102255,2,9,0.5501165986061096,4.04440450668335,8.583788656649887,7.945092548558949,34.18154342120294,29.01291713710325,9.70840483205393e-05,0.0890663415193557,0,0,0
2829,95386.01025947428,2010-09-22 18:17:29,4262.152911798682,2,9,0.5499359965324402,4.046670913696289,8.588375102034215,7.945092548558949,34.20009772949534,29.01291713710325,6.47544875391759e-05,0.0890663415193557,0,0,0
2830,95416.02553251854,2010-09-22 18:17:59,4292.168184842935,2,9,0.550297200679779,4.0494232177734375,8.592961518955411,7.945092548558949,34.21866341020993,29.01291713710325,9.71794142969884e-05,0.0890663415193557,0,0,0
2831,95446.04079119692,2010-09-22 18:18:29,4322.183443521329,2,9,0.5501165986061096,4.051851272583008,8.597547944473506,7.945092548558949,34.23724067568095,29.01291713710325,6.47544875391759e-05,0.0890663415193557,0,0,0
2832,95476.05606588029,2010-09-22 18:18:59,4352.198718214697,2,9,0.5499359965324402,4.054279804229736,8.602134389031628,7.945092548558949,34.2558297305972,29.01291713710325,6.47544875391759e-05,0.0890663415193557,0,0,0
2833,95506.07137530034,2010-09-22 18:19:29,4382.214027724975,2,9,0.5499359965324402,4.056869983673096,8.606720881516706,7.945092548558949,34.27443078449049,29.01291713710325,6.47544875391759e-05,0.0890663415193557,0,0,0
2834,95536.07195767942,2010-09-22 18:19:59,4412.214610099055,2,9,0.5501165986061096,4.059783935546875,8.611305089822801,7.945092548558949,34.293034479624566,29.01291713710325,0.0001295089750783,0.0890663415193557,0,0,0
2835,95566.08630893272,2010-09-22 18:20:29,4442.228961477688,2,9,0.5501165986061096,4.061888217926025,8.615891378367298,7.945092548558949,34.31165832234814,29.01291713710325,3.23295607813634e-05,0.0890663415193557,0,0,0
2836,95596.10165539524,2010-09-22 18:20:59,4472.244307729679,2,9,0.5501165986061096,4.064640522003174,8.620477811220905,7.945092548558949,34.33029478131373,29.01291713710325,6.47544875391759e-05,0.0890663415193557,0,0,0
2837,95626.11691884555,2010-09-22 18:21:29,4502.259571174972,2,9,0.5501165986061096,4.067392349243164,8.625064196517739,7.945092548558949,34.348943241234494,29.01291713710325,9.70840483205393e-05,0.0890663415193557,0,0,0
2838,95656.13207534893,2010-09-22 18:21:59,4532.2747276833325,2,9,0.5501165986061096,4.069982528686523,8.629650565827042,7.945092548558949,34.367603993146616,29.01291713710325,3.23295607813634e-05,0.0890663415193557,0,0,0
2839,95686.14752501402,2010-09-22 18:22:29,4562.290177478783,2,9,0.5501165986061096,4.072896480560303,8.634237036702123,7.945092548558949,34.386277509879434,29.01291713710325,0.0001295089750783,0.0890663415193557,0,0,0
2840,95716.16262787348,2010-09-22 18:22:59,4592.305280207903,2,9,0.5501165986061096,4.075648784637451,8.638823410287767,7.945092548558949,34.4049631475546,29.01291713710325,9.71794142969884e-05,0.0890663415193557,0,0,0
2841,95746.17788696793,2010-09-22 18:23:29,4622.320539297323,2,9,0.5501165986061096,4.0782389640808105,8.64340980625836,7.945092548558949,34.42366151157332,29.01291713710325,3.24249267578125e-05,0.0890663415193557,0,0,0
2842,95776.19318600204,2010-09-22 18:23:59,4652.335838326439,2,9,0.5501165986061096,4.080990791320801,8.64799628035027,7.945092548558949,34.442372952153995,29.01291713710325,6.47544875391759e-05,0.0890663415193557,0,0,0
2843,95806.20842346246,2010-09-22 18:24:29,4682.351075786868,2,9,0.5501165986061096,4.083743095397949,8.652582667118681,7.945092548558949,34.46109678593146,29.01291713710325,3.24249267578125e-05,0.0890663415193557,0,0,0
2844,95836.22369191026,2010-09-22 18:24:59,4712.366344239659,2,9,0.550297200679779,4.086980819702148,8.657169094540032,7.945092548558949,34.47983387624512,29.01291713710325,0.0001295089750783,0.0890663415193557,0,0,0
2845,95866.23896409736,2010-09-22 18:25:29,4742.381616426774,2,9,0.5501165986061096,4.089732646942139,8.661755475566126,7.945092548558949,34.498583855084064,29.01291713710325,9.70840483205393e-05,0.0890663415193557,0,0,0
2846,95896.25423706645,2010-09-22 18:25:59,4772.396889390825,2,9,0.550297200679779,4.092646598815918,8.666341908428008,7.945092548558949,34.517347239667885,29.01291713710325,9.70840483205393e-05,0.0890663415193557,0,0,0
2847,95926.26951820588,2010-09-22 18:26:29,4802.412170535298,2,9,0.5499359965324402,4.095398902893066,8.67092830806054,7.945092548558949,34.53612377553372,29.01291713710325,6.47544875391759e-05,0.0890663415193557,0,0,0
2848,95956.28476805724,2010-09-22 18:26:59,4832.42742037162,2,9,0.5501165986061096,4.098474502563477,8.67551478930599,7.945092548558949,34.554914198327964,29.01291713710325,0.0001295089750783,0.0890663415193557,0,0,0
2849,95986.30005121171,2010-09-22 18:27:29,4862.442703536134,2,9,0.5501165986061096,4.101388454437256,8.680101243751238,7.945092548558949,34.57371814397506,29.01291713710325,3.23295607813634e-05,0.0890663415193557,0,0,0
2850,96016.31532392516,2010-09-22 18:27:59,4892.457976259587,2,9,0.5499359965324402,4.104302406311035,8.68468771051643,7.945092548558949,34.59253581314357,29.01291713710325,3.23295607813634e-05,0.0890663415193557,0,0,0
2851,96046.33058701456,2010-09-22 18:28:29,4922.473239444228,2,9,0.550297200679779,4.107378482818604,8.689274173538942,7.945092548558949,34.61136742775946,29.01291713710325,6.47544875391759e-05,0.0890663415193557,0,0,0
2852,96076.34585888588,2010-09-22 18:28:59,4952.488511220316,2,9,0.5501165986061096,4.110454082489014,8.693860618157498,7.945092548558949,34.630212897710585,29.01291713710325,9.70840483205393e-05,0.0890663415193557,0,0,0
2853,96106.36115504285,2010-09-22 18:29:29,4982.503807387286,2,9,0.5501165986061096,4.113530158996582,8.698447059055411,7.945092548558949,34.649072425409024,29.01291713710325,6.47544875391759e-05,0.0890663415193557,0,0,0
2854,96136.37643167104,2010-09-22 18:29:59,5012.519084095685,2,9,0.5497553944587708,4.116605758666992,8.70303351653084,7.945092548558949,34.66794627558323,29.01291713710325,6.47544875391759e-05,0.0890663415193557,0,0,0
2855,96166.39167674546,2010-09-22 18:30:29,5042.534329079896,2,9,0.5499359965324402,4.119843482971191,8.707619990035752,7.945092548558949,34.6868345956146,29.01291713710325,9.71794142969884e-05,0.0890663415193557,0,0,0
2856,96196.4069485416,2010-09-22 18:30:59,5072.549600876033,2,9,0.5501165986061096,4.122919082641602,8.712206402736141,7.945092548558949,34.70573722170865,29.01291713710325,6.47544875391759e-05,0.0890663415193557,0,0,0
2857,96226.42222014727,2010-09-22 18:31:29,5102.564872481695,2,9,0.5501165986061096,4.12631893157959,8.716792896534995,7.945092548558949,34.724654839686856,29.01291713710325,9.71794142969884e-05,0.0890663415193557,0,0,0
2858,96256.43949877276,2010-09-22 18:31:59,5132.582151227487,2,9,0.5501165986061096,4.129556655883789,8.721379675091136,7.945092548558949,34.743588452680086,29.01291713710325,9.71794142969884e-05,0.0890663415193557,0,0,0
2859,96286.45279313793,2010-09-22 18:32:29,5162.5954456528025,2,9,0.550297200679779,4.132956027984619,8.725965817744651,7.945092548558949,34.76253441054188,29.01291713710325,9.70840483205393e-05,0.0890663415193557,0,0,0
2860,96316.45286340872,2010-09-22 18:32:59,5192.5955158433935,2,9,0.5499359965324402,4.136032104492188,8.730549950517556,7.945092548558949,34.78148706917775,29.01291713710325,6.47544875391759e-05,0.0890663415193557,0,0,0
2861,96346.46805492949,2010-09-22 18:33:29,5222.610707349114,2,9,0.5499359965324402,4.139431476593018,8.735136393752775,7.945092548558949,34.800464469935,29.01291713710325,6.47544875391759e-05,0.0890663415193557,0,0,0
2862,96376.48296590496,2010-09-22 18:33:59,5252.625618234361,2,9,0.550297200679779,4.142992973327637,8.739722780989688,7.945092548558949,34.81945694133451,29.01291713710325,0.0001618385285837,0.0890663415193557,0,0,0
2863,96406.49824374117,2010-09-22 18:34:29,5282.640896160801,2,9,0.550297200679779,4.146230697631836,8.744309202324539,7.945092548558949,34.838465099568566,29.01291713710325,9.70840483205393e-05,0.0890663415193557,0,0,0
2864,96436.51349740203,2010-09-22 18:34:59,5312.656149731445,2,9,0.5501165986061096,4.149468421936035,8.748895603403346,7.945092548558949,34.85748891133402,29.01291713710325,9.70840483205393e-05,0.0890663415193557,0,0,0
2865,96466.52859581036,2010-09-22 18:35:29,5342.671248134767,2,9,0.5499359965324402,4.153029918670654,8.753481892721886,7.945092548558949,34.876527878486904,29.01291713710325,9.70840483205393e-05,0.0890663415193557,0,0,0
2866,96496.54389549611,2010-09-22 18:35:59,5372.686547830546,2,9,0.5501165986061096,4.156591415405273,8.758068254236393,7.945092548558949,34.89558293161715,29.01291713710325,0.0001295089750783,0.0890663415193557,0,0,0
2867,96526.55915032992,2010-09-22 18:36:29,5402.701802749556,2,9,0.5501165986061096,4.159829139709473,8.762654617667211,7.945092548558949,34.91465394167347,29.01291713710325,6.47544875391759e-05,0.0890663415193557,0,0,0
2868,96556.57441431156,2010-09-22 18:36:59,5432.717066635949,2,9,0.5501165986061096,4.163390636444092,8.767240967363968,7.945092548558949,34.93374096514959,29.01291713710325,9.70840483205393e-05,0.0890663415193557,0,0,0
2869,96586.58981568112,2010-09-22 18:37:29,5462.732468110784,2,9,0.5501165986061096,4.1671142578125,8.771827369454975,7.945092548558949,34.95284429365338,29.01291713710325,9.71794142969884e-05,0.0890663415193557,0,0,0
2870,96616.60496212936,2010-09-22 18:37:59,5492.747614554021,2,9,0.5501165986061096,4.17051362991333,8.776413625265262,7.945092548558949,34.971963261104314,29.01291713710325,6.47544875391759e-05,0.0890663415193557,0,0,0
2871,96646.6204449272,2010-09-22 18:38:29,5522.763097281676,2,9,0.5501165986061096,4.174237251281738,8.781000035982444,7.945092548558949,34.991099300025255,29.01291713710325,0.0001295089750783,0.0890663415193557,0,0,0
2872,96676.6354957267,2010-09-22 18:38:59,5552.778148061122,2,9,0.5501165986061096,4.177636623382568,8.785586356598788,7.945092548558949,35.010251431981104,29.01291713710325,6.47544875391759e-05,0.0890663415193557,0,0,0
2873,96706.65079270068,2010-09-22 18:39:29,5582.793445025081,2,9,0.5501165986061096,4.181521892547607,8.790172739154729,7.945092548558949,35.0294205084285,29.01291713710325,0.0001295089750783,0.0890663415193557,0,0,0
2874,96736.66603731396,2010-09-22 18:39:59,5612.80868964338,2,9,0.5501165986061096,4.184921741485596,8.794759129540504,7.945092548558949,35.048606428316134,29.01291713710325,6.47544875391759e-05,0.0890663415193557,0,0,0
2875,96766.68146117468,2010-09-22 18:40:29,5642.8241135040935,2,9,0.5501165986061096,4.188644886016846,8.799345522671139,7.945092548558949,35.0678091648702,29.01291713710325,6.47544875391759e-05,0.0890663415193557,0,0,0
2876,96796.69658819443,2010-09-22 18:40:59,5672.839240518833,2,9,0.5501165986061096,4.192368507385254,8.803931827160874,7.945092548558949,35.08702858204494,29.01291713710325,6.47544875391759e-05,0.0890663415193557,0,0,0
2877,96826.71187388526,2010-09-22 18:41:29,5702.854526219679,2,9,0.5501165986061096,4.196253299713135,8.808518165272158,7.945092548558949,35.10626526054665,29.01291713710325,9.70840483205393e-05,0.0890663415193557,0,0,0
2878,96856.11796733351,2010-09-22 18:41:59,5732.260619687991,2,9,0.550297200679779,4.200138568878174,8.813011443710696,7.945092548558949,35.12512839454249,29.01291713710325,0.0001618385285837,0.0890663415193557,0,0,0
2879,96886.13221521684,2010-09-22 18:42:29,30.015244924060443,3,9,0.0,4.116767406463623,8.813011443710696,7.945092548558949,35.12512839454249,29.01291713710325,-0.0003885269106831,0.0890663415193557,0,0,0
2880,96916.14748462202,2010-09-22 18:42:59,60.030514334242014,3,9,0.0,4.106083393096924,8.813011443710696,7.945092548558949,35.12512839454249,29.01291713710325,-0.0002590179501567,0.0890663415193557,0,0,0
2881,96946.16277522007,2010-09-22 18:43:29,90.04580493732432,3,9,0.0,4.100093364715576,8.813011443710696,7.945092548558949,35.12512839454249,29.01291713710325,-0.0001295089750783,0.0890663415193557,0,0,0
2882,96976.13117761296,2010-09-22 18:43:59,120.01420733022044,3,9,0.0,4.096208095550537,8.813011443710696,7.945092548558949,35.12512839454249,29.01291713710325,-6.47544875391759e-05,0.0890663415193557,0,0,0
2883,96976.13178215442,2010-09-22 18:43:59,2.526306049e-06,4,9,1.0021816492080688,4.199653148651123,8.813011444413979,7.945092548558949,35.125128397496034,29.01291713710325,0.0,0.0890663415193557,0,0,0
2884,96977.05364047462,2010-09-22 18:44:00,0.921860881585188,4,9,0.9514304399490356,4.199814796447754,8.813260065323123,7.945092548558949,35.12617253637831,29.01291713710325,3.23295607813634e-05,0.0890663415193557,0,0,0
2885,96979.17895656054,2010-09-22 18:44:02,3.047176967507355,4,9,0.9010404348373412,4.199653148651123,8.813805837436995,7.945092548558949,35.12846463182845,29.01291713710325,0.0,0.0890663415193557,0,0,0
2886,96982.30370722392,2010-09-22 18:44:05,6.171927630894039,4,9,0.8510116934776306,4.199814796447754,8.814565120960197,7.945092548558949,35.131653438760225,29.01291713710325,3.23295607813634e-05,0.0890663415193557,0,0,0
2887,96986.53790144912,2010-09-22 18:44:09,10.406121861107149,4,9,0.8008022904396057,4.199814796447754,8.815535341426607,7.945092548558949,35.13572812073214,29.01291713710325,0.0,0.0890663415193557,0,0,0
2888,96992.0065905284,2010-09-22 18:44:15,15.874810925348273,4,9,0.750773549079895,4.199814796447754,8.816712407045578,7.945092548558949,35.14067150408328,29.01291713710325,0.0,0.0890663415193557,0,0,0
2889,96999.03775563824,2010-09-22 18:44:22,22.905976045205144,4,9,0.7007447481155396,4.199653148651123,8.818128086333115,7.945092548558949,35.14661703857212,29.01291713710325,0.0,0.0890663415193557,0,0,0
2890,97008.31889956136,2010-09-22 18:44:31,32.18711995828048,4,9,0.6507160067558289,4.199653148651123,8.819867377783295,7.945092548558949,35.15392164803486,29.01291713710325,0.0,0.0890663415193557,0,0,0
2891,97020.99062513789,2010-09-22 18:44:44,44.85884555987831,4,9,0.6006872057914734,4.199653148651123,8.82206588352788,7.945092548558949,35.16315485964127,29.01291713710325,0.0,0.0890663415193557,0,0,0
2892,97039.94354263578,2010-09-22 18:45:03,63.811763037736505,4,9,0.5506584644317627,4.199814796447754,8.825088223788685,7.945092548558949,35.17584798955641,29.01291713710325,0.0,0.0890663415193557,0,0,0
2893,97070.91194163906,2010-09-22 18:45:34,94.7801620510428,4,9,0.5006296634674072,4.199653148651123,8.829591102468402,7.945092548558949,35.194759027759126,29.01291713710325,-3.23295607813634e-05,0.0890663415193557,0,0,0
2894,97126.4426361608,2010-09-22 18:46:29,150.31085656272774,4,9,0.4506008923053741,4.199653148651123,8.83689332682681,7.945092548558949,35.22542669398,29.01291713710325,-3.23295607813634e-05,0.0890663415193557,0,0,0
2895,97215.23833826411,2010-09-22 18:47:58,239.1065586610424,4,9,0.400572121143341,4.199653148651123,8.84735800441994,7.945092548558949,35.26937589516804,29.01291713710325,-3.23295607813634e-05,0.0890663415193557,0,0,0
2896,97330.37773282168,2010-09-22 18:49:53,354.2459532186111,4,9,0.350543349981308,4.199653148651123,8.859349049898327,7.945092548558949,35.319735581790255,29.01291713710325,-3.23295607813634e-05,0.0890663415193557,0,0,0
2897,97469.40724863228,2010-09-22 18:52:12,493.27546903925565,4,9,0.3003339767456054,4.199653148651123,8.871903196766612,7.945092548558949,35.37246009579067,29.01291713710325,-3.23295607813634e-05,0.0890663415193557,0,0,0
2898,97637.92087684348,2010-09-22 18:55:01,661.7890972504443,4,9,0.2503052055835724,4.199814796447754,8.884768922502346,7.945092548558949,35.426493210402214,29.01291713710325,3.23295607813634e-05,0.0890663415193557,0,0,0
2899,97845.18406626592,2010-09-22 18:58:28,869.0522866628623,4,9,0.2002764493227005,4.199653148651123,8.89769704612815,7.945092548558949,35.480788350156175,29.01291713710325,0.0,0.0890663415193557,0,0,0
2900,98119.61833897626,2010-09-22 19:03:03,1143.4865593782172,4,9,0.1502476781606674,4.199653148651123,8.910983048313877,7.945092548558949,35.53658656851703,29.01291713710325,0.0,0.0890663415193557,0,0,0
2901,98517.67628982628,2010-09-22 19:09:41,1541.544510233236,4,9,0.1002189069986343,4.199653148651123,8.924658632093482,7.945092548558949,35.59402091154157,29.01291713710325,-3.23295607813634e-05,0.0890663415193557,0,0,0
2902,99248.10511408026,2010-09-22 19:21:51,2271.9733345774644,4,9,0.0501901358366012,4.199653148651123,8.939322030866526,7.945092548558949,35.6556038761949,29.01291713710325,-3.23295607813634e-05,0.0890663415193557,0,0,0
2903,99255.1051510996,2010-09-22 19:21:58,2278.9733715065686,4,9,0.0498289167881011,4.199653148651123,8.939419942602056,7.945092548558949,35.65601508353734,29.01291713710325,-3.23295607813634e-05,0.0890663415193557,0,0,0
2904,99285.12423287796,2010-09-22 19:22:28,30.015272162050657,5,9,0.0,4.191882610321045,8.939419942602056,7.945092548558949,35.65601508353734,29.01291713710325,-6.47544875391759e-05,0.0890663415193557,0,0,0
2905,99315.1238562432,2010-09-22 19:22:58,60.014895427046746,5,9,0.0,4.190911293029785,8.939419942602056,7.945092548558949,35.65601508353734,29.01291713710325,0.0,0.0890663415193557,0,0,0
2906,99315.30812206584,2010-09-22 19:22:58,0.187427472807122,6,9,-1.9243103452026844e-05,4.190749645233154,8.939419946301813,7.945092548558949,35.6560150990424,29.01291713710325,-3.23295607813634e-05,0.0923885703086853,0,0,0
2907,99320.13631020622,2010-09-22 19:23:03,5.015615608191216,6,9,0.0008838032954372,4.190749645233154,8.93942084680836,7.94509254872594,35.65601887297337,29.01291713780307,-3.23295607813634e-05,0.0923885703086853,0,0,0
2908,99350.148475493,2010-09-22 19:23:33,30.01539415656774,7,9,-1.0997490882873535,4.016884326934815,8.93942084680836,7.954260565475722,35.65601887297337,29.04994351488415,-0.0009713172912597,0.0923885703086853,0,0,0
2909,99380.16363445246,2010-09-22 19:24:03,60.03055314110992,7,9,-1.0997490882873535,3.989687442779541,8.93942084680836,7.963428390162136,35.65601887297337,29.086636181756464,-0.0005827903514727,0.0923885703086853,0,0,0
2910,99410.17890801802,2010-09-22 19:24:33,90.04582668160137,7,9,-1.0993878841400146,3.9709086418151855,8.93942084680836,7.972596200310713,35.65601887297337,29.12312283971985,-0.0004532813909463,0.0923885703086853,0,0,0
2911,99440.19420603962,2010-09-22 19:25:03,120.06112479843918,7,9,-1.099568486213684,3.956662654876709,8.93942084680836,7.981763989801575,35.65601887297337,29.15946000330574,-0.0003561496851034,0.0923885703086853,0,0,0
2912,99470.21017573282,2010-09-22 19:25:33,150.07709443649725,7,9,-1.0993878841400146,3.944683074951172,8.93942084680836,7.990931988548481,35.65601887297337,29.19567868956767,-0.0003237724304199,0.0923885703086853,0,0,0
2913,99500.22469659951,2010-09-22 19:26:03,180.09161528816162,7,9,-1.099568486213684,3.9339985847473145,8.93942084680836,8.000099780027755,35.65601887297337,29.23179354766066,-0.0002913951757363,0.0923885703086853,0,0,0
2914,99530.23996880166,2010-09-22 19:26:33,210.10688748028736,7,9,-1.0997490882873535,3.924285411834717,8.93942084680836,8.009268447564905,35.65601887297337,29.26781851255945,-0.0002590179501567,0.0923885703086853,0,0,0
2915,99560.25521537986,2010-09-22 19:27:03,240.122134158727,7,9,-1.0997490882873535,3.915057897567749,8.93942084680836,8.018436943036404,35.65601887297337,29.30375603028792,-0.0002590179501567,0.0923885703086853,0,0,0
2916,99590.27051784756,2010-09-22 19:27:34,270.13743652116244,7,9,-1.0997490882873535,3.90615439414978,8.93942084680836,8.027605635675657,35.65601887297337,29.33961130075881,-0.0002913951757363,0.0923885703086853,0,0,0
2917,99620.2857825159,2010-09-22 19:28:04,300.1527011744701,7,9,-1.0997490882873535,3.8977363109588623,8.93942084680836,8.036774530038636,35.65601887297337,29.37538798206579,-0.0002590179501567,0.0923885703086853,0,0,0
2918,99650.30108379062,2010-09-22 19:28:34,330.1680024792656,7,9,-1.0997490882873535,3.8894801139831534,8.93942084680836,8.045943506320999,35.65601887297337,29.411088397781093,-0.0001942634553415,0.0923885703086853,0,0,0
2919,99680.31629788772,2010-09-22 19:29:04,360.1832165513146,7,9,-1.099568486213684,3.881385803222656,8.93942084680836,8.055112422734757,35.65601887297337,29.446713451549165,-0.0001942634553415,0.0923885703086853,0,0,0
2920,99710.3316417638,2010-09-22 19:29:34,390.198560432387,7,9,-1.099568486213684,3.873291492462158,8.93942084680836,8.064280347831618,35.65601887297337,29.48226028295595,-0.0001942634553415,0.0923885703086853,0,0,0
2921,99740.34687871796,2010-09-22 19:30:04,420.2137973815408,7,9,-1.099568486213684,3.86535906791687,8.93942084680836,8.073448142466514,35.65601887297337,29.517733695985264,-0.0001942634553415,0.0923885703086853,0,0,0
2922,99770.3621602935,2010-09-22 19:30:34,450.2290789621016,7,9,-1.099568486213684,3.857588529586792,8.93942084680836,8.08261595044465,35.65601887297337,29.553135441737307,-0.0001942634553415,0.0923885703086853,0,0,0
2923,99800.37742496184,2010-09-22 19:31:04,480.2443436504968,7,9,-1.0997490882873535,3.849979877471924,8.93942084680836,8.091783687298564,35.65601887297337,29.588466518304383,-0.0001942634553415,0.0923885703086853,0,0,0
2924,99830.39281648184,2010-09-22 19:31:34,510.2597351754957,7,9,-1.099568486213684,3.842694997787476,8.93942084680836,8.100951434368591,35.65601887297337,29.62372841025381,-0.0001618862152099,0.0923885703086853,0,0,0
2925,99860.40797069446,2010-09-22 19:32:04,540.2748893831141,7,9,-1.099568486213684,3.8352482318878174,8.93942084680836,8.110119238617603,35.65601887297337,29.658922386496545,-0.0001942634553415,0.0923885703086853,0,0,0
2926,99890.42325099684,2010-09-22 19:32:34,570.2901696604215,7,9,-1.099568486213684,3.827963590621948,8.93942084680836,8.119287041416767,35.65601887297337,29.694049433759595,-0.0001942634553415,0.0923885703086853,0,0,0
2927,99920.43857955466,2010-09-22 19:33:04,600.3054983134825,7,9,-1.0997490882873535,3.8206787109375,8.93942084680836,8.128454868512828,35.65601887297337,29.72911066780975,-0.0001942634553415,0.0923885703086853,0,0,0
2928,99950.45393097456,2010-09-22 19:33:34,630.3208496431477,7,9,-1.099568486213684,3.8138794898986816,8.93942084680836,8.137622736268911,35.65601887297337,29.764107349540577,-0.0001618862152099,0.0923885703086853,0,0,0
2929,99980.46908560322,2010-09-22 19:34:04,660.3360043620422,7,9,-1.0997490882873535,3.806918382644653,8.93942084680836,8.146790397151834,35.65601887297337,29.799038935402432,-0.0001942634553415,0.0923885703086853,0,0,0
2930,100010.48453221071,2010-09-22 19:34:34,690.3514508742977,7,9,-1.0997490882873535,3.800119161605835,8.93942084680836,8.155958228397811,35.65601887297337,29.83390889319904,-0.0001942634553415,0.0923885703086853,0,0,0
2931,100040.49964258392,2010-09-22 19:35:04,720.3665613427362,7,9,-1.099568486213684,3.7933199405670166,8.93942084680836,8.165125996010527,35.65601887297337,29.868717346329102,-0.0001942634553415,0.0923885703086853,0,0,0
2932,100070.51505124167,2010-09-22 19:35:34,750.3819699002511,7,9,-1.099568486213684,3.787006378173828,8.93942084680836,8.174293857828856,35.65601887297337,29.90346593364394,-0.0001942634553415,0.0923885703086853,0,0,0
2933,100100.53028076228,2010-09-22 19:36:04,780.3971994409121,7,9,-1.099568486213684,3.78069281578064,8.93942084680836,8.18346161749929,35.65601887297337,29.938155202634825,-0.0001618862152099,0.0923885703086853,0,0,0
2934,100130.5454496616,2010-09-22 19:36:34,810.4123683251654,7,9,-1.0997490882873535,3.774379253387451,8.93942084680836,8.192629368680985,35.65601887297337,29.972786599004827,-0.0001618862152099,0.0923885703086853,0,0,0
2935,100160.56088058994,2010-09-22 19:37:04,840.427799378834,7,9,-1.0993878841400146,3.7682275772094727,8.93942084680836,8.201797244037678,35.65601887297337,30.007361673474712,-0.0001618862152099,0.0923885703086853,0,0,0
2936,100190.57597917871,2010-09-22 19:37:34,870.4428978423064,7,9,-1.099568486213684,3.762237787246704,8.93942084680836,8.21096504167281,35.65601887297337,30.041880777192887,-0.0001295089750783,0.0923885703086853,0,0,0
2937,100220.59123634336,2010-09-22 19:38:04,900.4581550169462,7,9,-1.0997490882873535,3.756247997283936,8.93942084680836,8.220132888692985,35.65601887297337,30.07634525346045,-0.0001942634553415,0.0923885703086853,0,0,0
2938,100250.60652235497,2010-09-22 19:38:34,930.4734410436048,7,9,-1.0997490882873535,3.750420331954956,8.93942084680836,8.229300743503913,35.65601887297337,30.1107561754708,-0.0001942634553415,0.0923885703086853,0,0,0
2939,100280.6217723166,2010-09-22 19:39:04,960.48869098519,7,9,-1.099568486213684,3.744754314422608,8.93942084680836,8.238468527355508,35.65601887297337,30.145113891204502,-0.0001618862152099,0.0923885703086853,0,0,0
2940,100310.6371698616,2010-09-22 19:39:34,990.5040885252032,7,9,-1.099568486213684,3.739412069320679,8.93942084680836,8.247636443539443,35.65601887297337,30.17942026968471,-9.713172767078504e-05,0.0923885703086853,0,0,0
2941,100340.65236577332,2010-09-22 19:40:04,1020.5192845321592,7,9,-1.0997490882873535,3.73358416557312,8.93942084680836,8.256804273654174,35.65601887297337,30.21367541677884,-0.0001618862152099,0.0923885703086853,0,0,0
2942,100370.66760202074,2010-09-22 19:40:34,1050.5345206843235,7,9,-1.099568486213684,3.728403806686402,8.93942084680836,8.265972018741822,35.65601887297337,30.247880213208543,-0.0001618862152099,0.0923885703086853,0,0,0
2943,100400.68286982692,2010-09-22 19:41:04,1080.5497884905012,7,9,-1.0993878841400146,3.7230615615844727,8.93942084680836,8.275139797747789,35.65601887297337,30.28203680777008,-0.0001618862152099,0.0923885703086853,0,0,0
2944,100430.6981347158,2010-09-22 19:41:34,1110.5650533743844,7,9,-1.099568486213684,3.717881202697754,8.93942084680836,8.28430759517548,35.65601887297337,30.316145346534523,-0.0001295089750783,0.0923885703086853,0,0,0
2945,100460.71340947936,2010-09-22 19:42:04,1140.5803281429414,7,9,-1.099568486213684,3.712538957595825,8.93942084680836,8.293475425916677,35.65601887297337,30.350206519253444,-0.0001295089750783,0.0923885703086853,0,0,0
2946,100490.72869833309,2010-09-22 19:42:34,1170.595616996657,7,9,-1.099568486213684,3.707520484924317,8.93942084680836,8.302643222376304,35.65601887297337,30.384220405079663,-0.0001618862152099,0.0923885703086853,0,0,0
2947,100520.7439488912,2010-09-22 19:43:04,1200.610867554781,7,9,-1.099568486213684,3.7026638984680176,8.93942084680836,8.3118109794513,35.65601887297337,30.41818816975377,-0.0001295089750783,0.0923885703086853,0,0,0
2948,100550.75937043614,2010-09-22 19:43:34,1230.626289114752,7,9,-1.0997490882873535,3.697645425796509,8.93942084680836,8.320978878393769,35.65601887297337,30.452111137293578,-0.0001942634553415,0.0923885703086853,0,0,0
2949,100580.77450991698,2010-09-22 19:44:04,1260.6414285805724,7,9,-1.099568486213684,3.69278883934021,8.93942084680836,8.330146654298952,35.65601887297337,30.485989184121586,-0.0001295089750783,0.0923885703086853,0,0,0
2950,100610.78978489104,2010-09-22 19:44:34,1290.65670364988,7,9,-1.0993878841400146,3.688256025314331,8.93942084680836,8.3393145066779,35.65601887297337,30.51982350584205,-9.713172767078504e-05,0.0923885703086853,0,0,0
2951,100640.80507586006,2010-09-22 19:45:04,1320.6719947391755,7,9,-1.099568486213684,3.683399438858032,8.93942084680836,8.348482340241278,35.65601887297337,30.55361419229571,-0.0001295089750783,0.0923885703086853,0,0,0
2952,100670.82063638692,2010-09-22 19:45:34,1350.6875550655293,7,9,-1.099568486213684,3.678866624832153,8.93942084680836,8.357650263587932,35.65601887297337,30.58736259205653,-9.713172767078504e-05,0.0923885703086853,0,0,0
2953,100700.835519964,2010-09-22 19:46:04,1380.7024386526368,7,9,-1.0993878841400146,3.674171924591065,8.93942084680836,8.366817810644516,35.65601887297337,30.621067585016167,-0.0001295089750783,0.0923885703086853,0,0,0
2954,100730.85093234104,2010-09-22 19:46:34,1410.717851034698,7,9,-1.099568486213684,3.669801235198975,8.93942084680836,8.375984888468606,35.65601887297337,30.654729723784936,-0.0001295089750783,0.0923885703086853,0,0,0
2955,100760.86612732544,2010-09-22 19:47:04,1440.7330460140888,7,9,-1.0993878841400146,3.665592193603516,8.93942084680836,8.385152074899654,35.65601887297337,30.688351421337167,-9.713172767078504e-05,0.0923885703086853,0,0,0
2956,100790.88137419938,2010-09-22 19:47:34,1470.7482929581918,7,9,-1.0993878841400146,3.6610593795776367,8.93942084680836,8.394319191710169,35.65601887297337,30.7219328236051,-0.0001295089750783,0.0923885703086853,0,0,0
2957,100820.89677329324,2010-09-22 19:48:04,1500.7636919518336,7,9,-1.0993878841400146,3.6568503379821777,8.93942084680836,8.403486218721383,35.65601887297337,30.75547465381262,-0.0001295089750783,0.0923885703086853,0,0,0
2958,100850.91192489938,2010-09-22 19:48:34,1530.778843562971,7,9,-1.0993878841400146,3.652641296386719,8.93942084680836,8.412653207772202,35.65601887297337,30.78897761989489,-0.0001295089750783,0.0923885703086853,0,0,0
2959,100880.92703345804,2010-09-22 19:49:04,1560.7939521216422,7,9,-1.0997490882873535,3.64843225479126,8.93942084680836,8.421820159709068,35.65601887297337,30.822442377907635,-9.713172767078504e-05,0.0923885703086853,0,0,0
2960,100910.9425801203,2010-09-22 19:49:34,1590.8094987838874,7,9,-1.099568486213684,3.6443850994110103,8.93942084680836,8.430987886548614,35.65601887297337,30.855872335400505,-0.0001295089750783,0.0923885703086853,0,0,0
2961,100940.95773977652,2010-09-22 19:50:04,1620.8246584451188,7,9,-1.099568486213684,3.6406617164611816,8.93942084680836,8.440155406776247,35.65601887297337,30.88926496230421,-6.47544875391759e-05,0.0923885703086853,0,0,0
2962,100970.97325068954,2010-09-22 19:50:34,1650.840169383191,7,9,-1.099568486213684,3.636776447296143,8.93942084680836,8.44932319010171,35.65601887297337,30.92262257352886,-9.713172767078504e-05,0.0923885703086853,0,0,0
2963,101000.98827035632,2010-09-22 19:51:04,1680.8551890198996,7,9,-1.099568486213684,3.6327292919158936,8.93942084680836,8.45849075372052,35.65601887297337,30.95594405550856,-9.713172767078504e-05,0.0923885703086853,0,0,0
2964,101031.00354309482,2010-09-22 19:51:34,1710.8704617583892,7,9,-1.0997490882873535,3.629005908966065,8.93942084680836,8.467658438254055,35.65601887297337,30.98923154347443,-0.0001295089750783,0.0923885703086853,0,0,0
2965,101061.01881762776,2010-09-22 19:52:04,1740.885736291358,7,9,-1.0993878841400146,3.625444412231445,8.93942084680836,8.476826141051681,35.65601887297337,31.02248523724205,-9.713172767078504e-05,0.0923885703086853,0,0,0
2966,101091.03409695772,2010-09-22 19:52:34,1770.9010156463637,7,9,-1.0993878841400146,3.622044801712036,8.93942084680836,8.485993751679972,35.65601887297337,31.05570584343252,-6.47544875391759e-05,0.0923885703086853,0,0,0
2967,101121.0494125632,2010-09-22 19:53:04,1800.916331226793,7,9,-1.099568486213684,3.618483304977417,8.93942084680836,8.495161432921623,35.65601887297337,31.08889453037297,-9.713172767078504e-05,0.0923885703086853,0,0,0
2968,101151.06464402366,2010-09-22 19:53:34,1830.931562782484,7,9,-1.0997490882873535,3.614921808242798,8.93942084680836,8.504329075480696,35.65601887297337,31.12205155096949,-0.0001295089750783,0.0923885703086853,0,0,0
2969,101181.0799322458,2010-09-22 19:54:04,1860.946850914398,7,9,-1.099568486213684,3.611684083938599,8.93942084680836,8.513496753165473,35.65601887297337,31.15517765256067,-6.47544875391759e-05,0.0923885703086853,0,0,0
2970,101211.09532430714,2010-09-22 19:54:34,1890.9622429707229,7,9,-1.099568486213684,3.6082844734191895,8.93942084680836,8.522664568100222,35.65601887297337,31.188273885926048,-0.0001295089750783,0.0923885703086853,0,0,0
2971,101241.1104718431,2010-09-22 19:55:04,1920.9773906019257,7,9,-1.099568486213684,3.60488486289978,8.93942084680836,8.531832186367186,35.65601887297337,31.221339452683157,-0.0001295089750783,0.0923885703086853,0,0,0
2972,101271.12574084228,2010-09-22 19:55:34,1950.992659530906,7,9,-1.099568486213684,3.601970911026001,8.93942084680836,8.54099983418396,35.65601887297337,31.254375993145207,-9.713172767078504e-05,0.0923885703086853,0,0,0
2973,101301.14099420236,2010-09-22 19:56:04,1981.007912865961,7,9,-1.099568486213684,3.5990569591522217,8.93942084680836,8.550167508009178,35.65601887297337,31.28738374591664,-6.47544875391759e-05,0.0923885703086853,0,0,0
2974,101331.15628121652,2010-09-22 19:56:34,2011.0231998800853,7,9,-1.0993878841400146,3.5958192348480225,8.93942084680836,8.559335227458883,35.65601887297337,31.32036277731704,-6.47544875391759e-05,0.0923885703086853,0,0,0
2975,101361.17153758412,2010-09-22 19:57:04,2041.0384562477109,7,9,-1.099568486213684,3.5925815105438232,8.93942084680836,8.568502901729099,35.65601887297337,31.35331346988577,-6.47544875391759e-05,0.0923885703086853,0,0,0
2976,101391.1868611044,2010-09-22 19:57:34,2071.053779767959,7,9,-1.099568486213684,3.589505910873413,8.93942084680836,8.577670664783685,35.65601887297337,31.386236571334383,-0.0001295089750783,0.0923885703086853,0,0,0
2977,101421.2020815724,2010-09-22 19:58:04,2101.0690002459987,7,9,-1.0993878841400146,3.586591958999634,8.93942084680836,8.58683836825218,35.65601887297337,31.41913150561636,-6.47544875391759e-05,0.0923885703086853,0,0,0
2978,101451.21738758894,2010-09-22 19:58:34,2131.0843062525305,7,9,-1.099568486213684,3.5835161209106445,8.93942084680836,8.596006067409787,35.65601887297337,31.451998773427075,-9.713172767078504e-05,0.0923885703086853,0,0,0
2979,101481.23263975108,2010-09-22 19:59:04,2161.099558444733,7,9,-1.0997490882873535,3.580602169036865,8.93942084680836,8.605173799552658,35.65601887297337,31.484838800645143,-9.713172767078504e-05,0.0923885703086853,0,0,0
2980,101511.24790590312,2010-09-22 19:59:35,2191.1148245717195,7,9,-1.099568486213684,3.577526330947876,8.93942084680836,8.614341512436283,35.65601887297337,31.517650962346792,-9.713172767078504e-05,0.0923885703086853,0,0,0
2981,101541.2631773083,2010-09-22 20:00:05,2221.130096067106,7,9,-1.099568486213684,3.5744504928588867,8.93942084680836,8.623509271524382,35.65601887297337,31.55043538184371,-9.713172767078504e-05,0.0923885703086853,0,0,0
2982,101571.2784680868,2010-09-22 20:00:35,2251.1453867503883,7,9,-1.099568486213684,3.5715365409851074,8.93942084680836,8.632677015349412,35.65601887297337,31.583192318090497,-9.713172767078504e-05,0.0923885703086853,0,0,0
2983,101601.29386587245,2010-09-22 20:01:05,2281.160784536015,7,9,-1.0997490882873535,3.568460702896118,8.93942084680836,8.641844837934444,35.65601887297337,31.61592261264087,-9.713172767078504e-05,0.0923885703086853,0,0,0
2984,101631.30903012512,2010-09-22 20:01:35,2311.175948788707,7,9,-1.099568486213684,3.565870523452759,8.93942084680836,8.651012583684475,35.65601887297337,31.64862603658165,-6.47544875391759e-05,0.0923885703086853,0,0,0
2985,101661.32427212688,2010-09-22 20:02:05,2341.191190790473,7,9,-1.0997490882873535,3.562794685363769,8.93942084680836,8.660180318348441,35.65601887297337,31.68130264208503,-9.713172767078504e-05,0.0923885703086853,0,0,0
2986,101691.33968243375,2010-09-22 20:02:35,2371.2066011274296,7,9,-1.099568486213684,3.5600426197052,8.93942084680836,8.669348111102584,35.65601887297337,31.71395309280805,-6.47544875391759e-05,0.0923885703086853,0,0,0
2987,101721.35494958331,2010-09-22 20:03:05,2401.2218682468933,7,9,-1.099568486213684,3.556966781616211,8.93942084680836,8.678515951906084,35.65601887297337,31.746576716249866,-6.47544875391759e-05,0.0923885703086853,0,0,0
2988,101751.37021995088,2010-09-22 20:03:35,2431.2371386144646,7,9,-1.099568486213684,3.554052829742432,8.93942084680836,8.687683779384045,35.65601887297337,31.779172911362465,-6.47544875391759e-05,0.0923885703086853,0,0,0
2989,101781.38538398304,2010-09-22 20:04:05,2461.252302646606,7,9,-1.099568486213684,3.5509769916534424,8.93942084680836,8.696851606404193,35.65601887297337,31.811741311389,-9.713172767078504e-05,0.0923885703086853,0,0,0
2990,101811.40067997956,2010-09-22 20:04:35,2491.267598643152,7,9,-1.0997490882873535,3.547739267349243,8.93942084680836,8.706019492845934,35.65601887297337,31.844281449411387,-6.47544875391759e-05,0.0923885703086853,0,0,0
2991,101841.41609821122,2010-09-22 20:05:05,2521.2830168848395,7,9,-1.099568486213684,3.544663429260254,8.93942084680836,8.715187558170403,35.65601887297337,31.876793139281435,-6.47544875391759e-05,0.0923885703086853,0,0,0
2992,101871.43134393229,2010-09-22 20:05:35,2551.2982625958643,7,9,-1.099568486213684,3.5414257049560547,8.93942084680836,8.72435557228176,35.65601887297337,31.90927476712501,-6.47544875391759e-05,0.0923885703086853,0,0,0
2993,101901.4464894532,2010-09-22 20:06:05,2581.313408116799,7,9,-1.0997490882873535,3.5378642082214355,8.93942084680836,8.733523653909153,35.65601887297337,31.94172599609115,-0.0001295089750783,0.0923885703086853,0,0,0
2994,101931.46199239133,2010-09-22 20:06:35,2611.3289110549026,7,9,-1.099568486213684,3.5343027114868164,8.93942084680836,8.74269176973451,35.65601887297337,31.974145646809266,-9.713172767078504e-05,0.0923885703086853,0,0,0
2995,101961.4770786794,2010-09-22 20:07:05,2641.343997342983,7,9,-1.099568486213684,3.5307412147521973,8.93942084680836,8.751859702510266,35.65601887297337,32.00653184834397,-9.713172767078504e-05,0.0923885703086853,0,0,0
2996,101991.49245140248,2010-09-22 20:07:35,2671.3593700710617,7,9,-1.099568486213684,3.526855945587158,8.93942084680836,8.761027806134686,35.65601887297337,32.0388844634773,-9.713172767078504e-05,0.0923885703086853,0,0,0
2997,102021.50763815633,2010-09-22 20:08:05,2701.3745568199083,7,9,-1.099568486213684,3.522970676422119,8.93942084680836,8.77019586992097,35.65601887297337,32.07120117341188,-9.713172767078504e-05,0.0923885703086853,0,0,0
2998,102051.5229040377,2010-09-22 20:08:35,2731.3898227062937,7,9,-1.099568486213684,3.51859974861145,8.93942084680836,8.779363902833909,35.65601887297337,32.10347977852328,-0.0001295089750783,0.0923885703086853,0,0,0
2999,102081.53818313706,2010-09-22 20:09:05,2761.4051018006485,7,9,-1.099568486213684,3.514228820800781,8.93942084680836,8.788532045589507,35.65601887297337,32.135718996366975,-9.713172767078504e-05,0.0923885703086853,0,0,0
3000,102111.553471274,2010-09-22 20:09:35,2791.420389937575,7,9,-1.099568486213684,3.509372472763061,8.93942084680836,8.797700150246959,35.65601887297337,32.16791551139968,-0.0001295089750783,0.0923885703086853,0,0,0
3001,102141.56874561647,2010-09-22 20:10:05,2821.4356643702936,7,9,-1.0997490882873535,3.5041921138763428,8.93942084680836,8.806868265767093,35.65601887297337,32.200066063680055,-9.713172767078504e-05,0.0923885703086853,0,0,0
3002,102171.58421312114,2010-09-22 20:10:35,2851.451131794749,7,9,-1.0997490882873535,3.498364210128784,8.93942084680836,8.816036467467612,35.65601887297337,32.23216662383886,-0.0001618862152099,0.0923885703086853,0,0,0
3003,102201.59936764457,2010-09-22 20:11:05,2881.4662863081307,7,9,-1.099929690361023,3.492050647735596,8.93942084680836,8.825204588723599,35.65601887297337,32.26421222068626,-0.0001942634553415,0.0923885703086853,0,0,0
3004,102231.61463699458,2010-09-22 20:11:35,2911.481555658162,7,9,-1.099568486213684,3.4852514266967773,8.93942084680836,8.834372757615029,35.65601887297337,32.29619745774639,-0.0001942634553415,0.0923885703086853,0,0,0
3005,102261.63001834918,2010-09-22 20:12:05,2941.496937012774,7,9,-1.099568486213684,3.4773190021514893,8.93942084680836,8.84354098832739,35.65601887297337,32.3281148566851,-0.0001942634553415,0.0923885703086853,0,0,0
3006,102291.64519235122,2010-09-22 20:12:35,2971.51211100979,7,9,-1.099568486213684,3.4684152603149414,8.93942084680836,8.852709088567813,35.65601887297337,32.35995512224285,-0.0002266406954731,0.0923885703086853,0,0,0
3007,102321.66046241805,2010-09-22 20:13:05,3001.527381081623,7,9,-1.099568486213684,3.458216428756714,8.93942084680836,8.861877220130824,35.65601887297337,32.39170830959162,-0.0002913951757363,0.0923885703086853,0,0,0
3008,102351.67582009354,2010-09-22 20:13:35,3031.5427387771783,7,9,-1.0997490882873535,3.4462368488311768,8.93942084680836,8.87104545468934,35.65601887297337,32.42336075265549,-0.0003237724304199,0.0923885703086853,0,0,0
3009,102381.69104034602,2010-09-22 20:14:05,3061.5579590096045,7,9,-1.099568486213684,3.4318289756774902,8.93942084680836,8.880213625122996,35.65601887297337,32.45489262654339,-0.0004209041653666,0.0923885703086853,0,0,0
3010,102411.70635050292,2010-09-22 20:14:35,3091.573269176521,7,9,-1.0997490882873535,3.413859844207764,8.93942084680836,8.889381795237743,35.65601887297337,32.48627682612289,-0.0005180359003134,0.0923885703086853,0,0,0
3011,102441.7216679079,2010-09-22 20:15:05,3121.588586666718,7,9,-1.099568486213684,3.3900625705718994,8.93942084680836,8.89854998323221,35.65601887297337,32.51747119841268,-0.0007446765666827,0.0923885703086853,0,0,0
3012,102471.73691872168,2010-09-22 20:15:35,3151.6038373852425,7,9,-1.0997490882873535,3.3568758964538574,8.93942084680836,8.907718228982407,35.65601887297337,32.54840883273605,-0.0010684489971026,0.0923885703086853,0,0,0
3013,102501.75221580092,2010-09-22 20:16:05,3181.6191344644903,7,9,-1.0997490882873535,3.309443473815918,8.93942084680836,8.916886506656272,35.65601887297337,32.578981629004815,-0.0014893531333655,0.0923885703086853,0,0,0
3014,102531.76751290522,2010-09-22 20:16:35,3211.63443166905,7,9,-1.099568486213684,3.240318298339844,8.93942084680836,8.9260546844719,35.65601887297337,32.609025721654035,-0.0021692751906812,0.0923885703086853,0,0,0
3015,102561.78279884666,2010-09-22 20:17:05,3241.649717510247,7,9,-1.099568486213684,3.136387586593628,8.93942084680836,8.935222885447244,35.65601887297337,32.63829254875304,-0.0033348561264574,0.0923885703086853,0,0,0
3016,102591.79843356872,2010-09-22 20:17:35,3271.665352252353,7,9,-1.099568486213684,2.9484384059906006,8.93942084680836,8.944391272886477,35.65601887297337,32.66630484226834,-0.0072524547576904,0.0923885703086853,0,0,0
3017,102606.40736204172,2010-09-22 20:17:50,3286.274280800537,7,9,-1.0997490882873535,2.748347520828247,8.93942084680836,8.948853605177122,35.65601887297337,32.679056288118844,-0.013080358505249,0.0923885703086853,0,0,0
3018,102609.25102075636,2010-09-22 20:17:53,3289.1179394199366,7,9,-1.0997490882873535,2.699781894683838,8.93942084680836,8.949722206237837,35.65601887297337,32.68142261628125,-0.0136307720094919,0.0923885703086853,0,0,0
3019,102669.26987185178,2010-09-22 20:18:53,60.01488357245586,8,9,0.0,3.384234666824341,8.93942084680836,8.949722206237837,35.65601887297337,32.68142261628125,0.0014893531333655,0.0923885703086853,0,0,0
3020,102669.45419651708,2010-09-22 20:18:53,0.187504339678659,9,9,-1.9243103452026844e-05,3.3845584392547607,8.93942084680836,8.949722207240105,35.65601887297337,32.681422619673484,0.0,0.0897949114441871,0,0,0
3021,102674.2823867026,2010-09-22 20:18:58,5.015694515155137,9,9,0.0007031940040178,3.3934621810913086,8.939421779810209,8.949722207240105,35.65602203545846,32.681422619673484,0.0012950897216796,0.0897949114441871,0,0,0
