Data_Point,Test_Time(s),Date_Time,Step_Time(s),Step_Index,Cycle_Index,Current(A),Voltage(V),Charge_Capacity(Ah),Discharge_Capacity(Ah),Charge_Energy(Wh),Discharge_Energy(Wh),dV/dt(V/s),Internal_Resistance(Ohm),Is_FC_Data,AC_Impedance(Ohm),ACI_Phase_Angle(Deg)
13907,470360.0225676782,2010-09-27 02:27:41,30.015347981307187,1,42,0.0,3.3533143997192383,41.05435600213172,41.10164383170996,163.5159903869207,150.49422164219175,0.0008093834039755,0.0882566422224044,0,0,0
13908,470390.03809446073,2010-09-27 02:28:11,60.03087476392996,1,42,0.0,3.380187511444092,41.05435600213172,41.10164383170996,163.5159903869207,150.49422164219175,0.0006475448608398,0.0882566422224044,0,0,0
13909,470420.05345930415,2010-09-27 02:28:41,90.04623961735255,1,42,0.0,3.400261402130127,41.05435600213172,41.10164383170996,163.5159903869207,150.49422164219175,0.0005180359003134,0.0882566422224044,0,0,0
13910,470450.0220346638,2010-09-27 02:29:11,120.01481496697528,1,42,0.0,3.416288137435913,41.05435600213172,41.10164383170996,163.5159903869207,150.49422164219175,0.0003885269106831,0.0882566422224044,0,0,0
13911,470480.03607403947,2010-09-27 02:29:41,30.015147410651977,2,42,0.5501165986061096,3.5634422302246094,41.05894221539284,41.10164383170996,163.53216812325104,150.49422164219175,0.0015864849556237,0.0882566422224044,0,0,0
13912,470510.0513698605,2010-09-27 02:30:11,60.0304432417843,2,42,0.5499359965324402,3.613141059875488,41.06352838629485,41.10164383170996,163.54863218152727,150.49422164219175,0.0011008263099938,0.0882566422224044,0,0,0
13913,470540.06694422686,2010-09-27 02:30:41,90.04601760317098,2,42,0.5501165986061096,3.64972734451294,41.068114605926034,41.10164383170996,163.56529037231394,150.49422164219175,0.0009065627818927,0.0882566422224044,0,0,0
13914,470570.0822470255,2010-09-27 02:31:11,120.06132039166997,2,42,0.5499359965324402,3.678380966186523,41.07270073309613,41.10164383170996,163.5820964730575,150.49422164219175,0.0007122993702068,0.0882566422224044,0,0,0
13915,470600.097652039,2010-09-27 02:31:41,150.07672540533872,2,42,0.5501165986061096,3.7020163536071777,41.07728686735981,41.10164383170996,163.59902205247332,150.49422164219175,0.0005827903514727,0.0882566422224044,0,0,0
13916,470630.1130785514,2010-09-27 02:32:11,180.0921519176714,2,42,0.5501165986061096,3.721604585647583,41.081873027879965,41.10164383170996,163.61604668761535,150.49422164219175,0.0004532813909463,0.0882566422224044,0,0,0
13917,470660.12849245226,2010-09-27 02:32:41,210.10756582854896,2,42,0.5499359965324402,3.737631320953369,41.08645918177659,41.10164383170996,163.63315325964794,150.49422164219175,0.0003885269106831,0.0882566422224044,0,0,0
13918,470690.143928749,2010-09-27 02:33:11,240.1230021152801,2,42,0.5499359965324402,3.749934673309326,41.091045314256256,41.10164383170996,163.65032516661813,150.49422164219175,0.0002913951757363,0.0882566422224044,0,0,0
13919,470720.159338685,2010-09-27 02:33:41,270.13841205123555,2,42,0.5501165986061096,3.7572193145751953,41.09563150879704,41.10164383170996,163.6675416648096,150.49422164219175,0.0001295089750783,0.0882566422224044,0,0,0
13920,470750.1747821296,2010-09-27 02:34:11,300.15385549583385,2,42,0.5499359965324402,3.761590242385864,41.10021757677176,41.10164383170996,163.6847831995381,150.49422164219175,9.713172767078504e-05,0.0882566422224044,0,0,0
13921,470780.1906134072,2010-09-27 02:34:41,330.1696867935732,2,42,0.5501165986061096,3.7649898529052734,41.104803779182525,41.10164383170996,163.7020425022705,150.49422164219175,9.713172767078504e-05,0.0882566422224044,0,0,0
13922,470810.2056369587,2010-09-27 02:35:11,360.1847103300161,2,42,0.5499359965324402,3.768065690994263,41.10938992231021,41.10164383170996,163.71931652587114,150.49422164219175,6.47544875391759e-05,0.0882566422224044,0,0,0
13923,470840.2210459975,2010-09-27 02:35:41,390.20011936371947,2,42,0.5501165986061096,3.771303415298462,41.11397614808247,41.10164383170996,163.73660527256263,150.49422164219175,9.713172767078504e-05,0.0882566422224044,0,0,0
13924,470870.23646182806,2010-09-27 02:36:11,420.21553519438913,2,42,0.5499359965324402,3.774217367172241,41.11856227926789,41.10164383170996,163.75390790324852,150.49422164219175,6.47544875391759e-05,0.0882566422224044,0,0,0
13925,470900.25189424027,2010-09-27 02:36:41,450.2309676064484,2,42,0.5501165986061096,3.7772932052612314,41.12314840604385,41.10164383170996,163.77122448959676,150.49422164219175,3.237724376958795e-05,0.0882566422224044,0,0,0
13926,470930.2673660506,2010-09-27 02:37:11,480.24643941685207,2,42,0.5501165986061096,3.7802071571350098,41.12773454846359,41.10164383170996,163.7885548560858,150.49422164219175,6.47544875391759e-05,0.0882566422224044,0,0,0
13927,470960.2829336902,2010-09-27 02:37:41,510.2620070664852,2,42,0.5501165986061096,3.783282995223999,41.13232073301474,41.10164383170996,163.805898810446,150.49422164219175,6.47544875391759e-05,0.0882566422224044,0,0,0
13928,470990.2981647096,2010-09-27 02:38:11,540.2772380758123,2,42,0.5501165986061096,3.786035060882568,41.136906860090704,41.10164383170996,163.82325580847862,150.49422164219175,9.713172767078504e-05,0.0882566422224044,0,0,0
13929,471020.2981850106,2010-09-27 02:38:41,570.2772584721092,2,42,0.5501165986061096,3.788949012756348,41.14149062739583,41.10164383170996,163.8406169240689,150.49422164219175,6.47544875391759e-05,0.0882566422224044,0,0,0
13930,471050.3135134732,2010-09-27 02:39:11,600.2925868394569,2,42,0.5501165986061096,3.791701078414917,41.14607678138937,41.10164383170996,163.85799999017223,150.49422164219175,6.47544875391759e-05,0.0882566422224044,0,0,0
13931,471080.3288206828,2010-09-27 02:39:41,630.3078940489914,2,42,0.5499359965324402,3.794615030288696,41.15066293130288,41.10164383170996,163.87539585334588,150.49422164219175,9.713172767078504e-05,0.0882566422224044,0,0,0
13932,471110.3442494357,2010-09-27 02:40:11,660.3233228019171,2,42,0.5501165986061096,3.7973670959472656,41.15524902788441,41.10164383170996,163.89280439926517,150.49422164219175,9.713172767078504e-05,0.0882566422224044,0,0,0
13933,471140.359660324,2010-09-27 02:40:41,690.3387336902498,2,42,0.5501165986061096,3.800281047821045,41.1598351704805,41.10164383170996,163.9102260861758,150.49422164219175,6.47544875391759e-05,0.0882566422224044,0,0,0
13934,471170.3750781546,2010-09-27 02:41:11,720.3541515209118,2,42,0.5501165986061096,3.803194999694824,41.16442139211224,41.10164383170996,163.92766121394263,150.49422164219175,9.713172767078504e-05,0.0882566422224044,0,0,0
13935,471200.39051339374,2010-09-27 02:41:41,750.3695867901031,2,42,0.5501165986061096,3.806108951568604,41.1690075635882,41.10164383170996,163.94510957055573,150.49422164219175,9.713172767078504e-05,0.0882566422224044,0,0,0
13936,471230.3909277184,2010-09-27 02:42:11,780.3700010846305,2,42,0.5497553944587708,3.809022903442383,41.173591431838254,41.10164383170996,163.96256305107408,150.49422164219175,6.47544875391759e-05,0.0882566422224044,0,0,0
13937,471260.4057655713,2010-09-27 02:42:41,810.3848390328167,2,42,0.5501165986061096,3.812260627746582,41.17817752911397,41.10164383170996,163.980039448577,150.49422164219175,6.47544875391759e-05,0.0882566422224044,0,0,0
13938,471290.42116128176,2010-09-27 02:43:11,840.4002346480253,2,42,0.5499359965324402,3.815660238265991,41.18276364527702,41.10164383170996,163.99753126067012,150.49422164219175,6.47544875391759e-05,0.0882566422224044,0,0,0
13939,471320.43657703727,2010-09-27 02:43:41,870.4156504035072,2,42,0.5499359965324402,3.8190598487854,41.18734978070463,41.10164383170996,164.01503853450973,150.49422164219175,6.47544875391759e-05,0.0882566422224044,0,0,0
13940,471350.4520068078,2010-09-27 02:44:11,900.4310801739728,2,42,0.5499359965324402,3.8224594593048096,41.19193593950013,41.10164383170996,164.03256157982764,150.49422164219175,6.47544875391759e-05,0.0882566422224044,0,0,0
13941,471380.4675403171,2010-09-27 02:44:41,930.4466136833864,2,42,0.5499359965324402,3.8260209560394287,41.19652203348236,41.10164383170996,164.05009998490408,150.49422164219175,9.713172767078504e-05,0.0882566422224044,0,0,0
13942,471410.4828459378,2010-09-27 02:45:11,960.4619193039548,2,42,0.5499359965324402,3.829258680343628,41.20110818684669,41.10164383170996,164.06765421122626,150.49422164219175,9.713172767078504e-05,0.0882566422224044,0,0,0
13943,471440.4982663648,2010-09-27 02:45:41,990.477339731098,2,42,0.5501165986061096,3.832658290863037,41.20569435654135,41.10164383170996,164.08522382477577,150.49422164219175,6.47544875391759e-05,0.0882566422224044,0,0,0
13944,471470.5139115431,2010-09-27 02:46:11,1020.4929849142668,2,42,0.5501165986061096,3.835895776748657,41.21028056556182,41.10164383170996,164.10280853492318,150.49422164219175,6.47544875391759e-05,0.0882566422224044,0,0,0
13945,471500.5290736954,2010-09-27 02:46:41,1050.508147061704,2,42,0.5499359965324402,3.8389716148376474,41.21486665512926,41.10164383170996,164.1204075301143,150.49422164219175,9.713172767078504e-05,0.0882566422224044,0,0,0
13946,471530.5445488142,2010-09-27 02:47:11,1080.5236222756032,2,42,0.5499359965324402,3.842047452926636,41.21945277648665,41.10164383170996,164.13802099229142,150.49422164219175,6.47544875391759e-05,0.0882566422224044,0,0,0
13947,471560.56001918594,2010-09-27 02:47:41,1110.5390925521783,2,42,0.5497553944587708,3.845123291015625,41.224038872901794,41.10164383170996,164.15564841445234,150.49422164219175,6.47544875391759e-05,0.0882566422224044,0,0,0
13948,471590.5753965806,2010-09-27 02:48:11,1140.5544699569307,2,42,0.5499359965324402,3.8481991291046143,41.22862491277845,41.10164383170996,164.1732893763301,150.49422164219175,6.47544875391759e-05,0.0882566422224044,0,0,0
13949,471620.5907362662,2010-09-27 02:48:41,1170.569809732756,2,42,0.5501165986061096,3.850951194763184,41.23321096237689,41.10164383170996,164.19094373478345,150.49422164219175,3.237724376958795e-05,0.0882566422224044,0,0,0
13950,471650.6062118511,2010-09-27 02:49:11,1200.5852852173307,2,42,0.5501165986061096,3.853703260421753,41.23779710812033,41.10164383170996,164.2086113552901,150.49422164219175,6.47544875391759e-05,0.0882566422224044,0,0,0
13951,471680.62160536106,2010-09-27 02:49:42,1230.6006787272845,2,42,0.5499359965324402,3.856293439865112,41.24238320988509,41.10164383170996,164.2262911236814,150.49422164219175,6.47544875391759e-05,0.0882566422224044,0,0,0
13952,471710.6372450355,2010-09-27 02:50:12,1260.6163184067152,2,42,0.5499359965324402,3.8590455055236816,41.24696945644804,41.10164383170996,164.24398331304604,150.49422164219175,6.47544875391759e-05,0.0882566422224044,0,0,0
13953,471740.65251998446,2010-09-27 02:50:42,1290.6315933557223,2,42,0.5501165986061096,3.861150026321411,41.251555566395325,41.10164383170996,164.26168602139722,150.49422164219175,3.237724376958795e-05,0.0882566422224044,0,0,0
13954,471770.6680798146,2010-09-27 02:51:12,1320.6471531858367,2,42,0.5499359965324402,3.863416433334351,41.25614177013947,41.10164383170996,164.27939956845216,150.49422164219175,3.237724376958795e-05,0.0882566422224044,0,0,0
13955,471800.6833695706,2010-09-27 02:51:42,1350.6624429468172,2,42,0.5501165986061096,3.86535906791687,41.260727952012815,41.10164383170996,164.29712278871904,150.49422164219175,3.237724376958795e-05,0.0882566422224044,0,0,0
13956,471830.69893172645,2010-09-27 02:52:12,1380.6780051027372,2,42,0.5501165986061096,3.8674635887146,41.26531416146731,41.10164383170996,164.31485538316252,150.49422164219175,3.237724376958795e-05,0.0882566422224044,0,0,0
13957,471860.7143399632,2010-09-27 02:52:42,1410.6934133394511,2,42,0.5499359965324402,3.869244337081909,41.26990033663849,41.10164383170996,164.33259642543138,150.49422164219175,6.47544875391759e-05,0.0882566422224044,0,0,0
13958,471890.729659709,2010-09-27 02:53:12,1440.7087330902907,2,42,0.5501165986061096,3.8710250854492183,41.2744864944019,41.10164383170996,164.35034538862394,150.49422164219175,3.237724376958795e-05,0.0882566422224044,0,0,0
13959,471920.74519853166,2010-09-27 02:53:42,1470.7242719029423,2,42,0.5499359965324402,3.8726439476013184,41.27907270981953,41.10164383170996,164.36810204791698,150.49422164219175,3.237724376958795e-05,0.0882566422224044,0,0,0
13960,471950.7604951749,2010-09-27 02:54:12,1500.7395685711642,2,42,0.5499359965324402,3.873939037322998,41.28365886724858,41.10164383170996,164.38586545970895,150.49422164219175,3.237724376958795e-05,0.0882566422224044,0,0,0
13961,471980.7759115068,2010-09-27 02:54:42,1530.7549848730098,2,42,0.5501165986061096,3.875396013259888,41.288245091064375,41.10164383170996,164.4036355297782,150.49422164219175,3.237724376958795e-05,0.0882566422224044,0,0,0
13962,472010.79146330187,2010-09-27 02:55:12,1560.7705366680675,2,42,0.5501165986061096,3.876691102981568,41.29283135940985,41.10164383170996,164.42141203689488,150.49422164219175,3.237724376958795e-05,0.0882566422224044,0,0,0
13963,472040.8068979946,2010-09-27 02:55:42,1590.7859714610702,2,42,0.5499359965324402,3.877986192703247,41.29741755177013,41.10164383170996,164.4391941453381,150.49422164219175,3.237724376958795e-05,0.0882566422224044,0,0,0
13964,472070.8222166376,2010-09-27 02:56:12,1620.8012900089068,2,42,0.5501165986061096,3.879119396209717,41.30200375501168,41.10164383170996,164.45698210278076,150.49422164219175,3.237724376958795e-05,0.0882566422224044,0,0,0
13965,472100.8376538016,2010-09-27 02:56:42,1650.8167271728275,2,42,0.5501165986061096,3.880414485931397,41.306589973766535,41.10164383170996,164.47477562336894,150.49422164219175,6.47544875391759e-05,0.0882566422224044,0,0,0
13966,472130.8530160334,2010-09-27 02:57:12,1680.8320894949316,2,42,0.5501165986061096,3.881385803222656,41.31117615940369,41.10164383170996,164.49257447809,150.49422164219175,0.0,0.0882566422224044,0,0,0
13967,472160.8684456234,2010-09-27 02:57:42,1710.8475190849467,2,42,0.550297200679779,3.882842779159546,41.315762343696896,41.10164383170996,164.51037864738956,150.49422164219175,6.47544875391759e-05,0.0882566422224044,0,0,0
13968,472190.8838631032,2010-09-27 02:58:12,1740.862936469495,2,42,0.5501165986061096,3.8838140964508057,41.32034846651998,41.10164383170996,164.52818798354366,150.49422164219175,6.47544875391759e-05,0.0882566422224044,0,0,0
13969,472220.88387497823,2010-09-27 02:58:42,1770.862948349534,2,42,0.5501165986061096,3.885109186172485,41.324932333588265,41.10164383170996,164.545993884272,150.49422164219175,6.47544875391759e-05,0.0882566422224044,0,0,0
13970,472250.899155832,2010-09-27 02:59:12,1800.878229198268,2,42,0.5501165986061096,3.886404275894165,41.32951852696071,41.10164383170996,164.56381417696025,150.49422164219175,9.713172767078504e-05,0.0882566422224044,0,0,0
13971,472280.914692394,2010-09-27 02:59:42,1830.893765860552,2,42,0.5501165986061096,3.8875374794006343,41.33410476634855,41.10164383170996,164.5816399794897,150.49422164219175,6.47544875391759e-05,0.0882566422224044,0,0,0
13972,472310.93017619936,2010-09-27 03:00:12,1860.9092495706595,2,42,0.5501165986061096,3.8885087966918954,41.33869102602996,41.10164383170996,164.5994711927401,150.49422164219175,6.47544875391759e-05,0.0882566422224044,0,0,0
13973,472340.94550421584,2010-09-27 03:00:42,1890.9245775821184,2,42,0.5501165986061096,3.889642000198364,41.34327724284748,41.10164383170996,164.6173076681393,150.49422164219175,6.47544875391759e-05,0.0882566422224044,0,0,0
13974,472370.9608195506,2010-09-27 03:01:12,1920.93989292696,2,42,0.5499359965324402,3.890937089920044,41.3478635151727,41.10164383170996,164.63514969688686,150.49422164219175,3.237724376958795e-05,0.0882566422224044,0,0,0
13975,472400.97636918526,2010-09-27 03:01:42,1950.9554425516,2,42,0.5501165986061096,3.8920702934265137,41.352449880468185,41.10164383170996,164.65299751619125,150.49422164219175,3.237724376958795e-05,0.0882566422224044,0,0,0
13976,472430.9917959183,2010-09-27 03:02:12,1980.970869289496,2,42,0.550297200679779,3.893365383148194,41.35703685301293,41.10164383170996,164.6708531220939,150.49422164219175,6.47544875391759e-05,0.0882566422224044,0,0,0
13977,472461.00733663066,2010-09-27 03:02:42,2010.986410026952,2,42,0.5501165986061096,3.894336700439453,41.3616238898655,41.10164383170996,164.6887145188373,150.49422164219175,0.0,0.0882566422224044,0,0,0
13978,472491.0225301664,2010-09-27 03:03:12,2041.001603532664,2,42,0.550297200679779,3.895631790161133,41.36621087039833,41.10164383170996,164.70658075741562,150.49422164219175,3.237724376958795e-05,0.0882566422224044,0,0,0
13979,472521.0379550246,2010-09-27 03:03:42,2071.017028390868,2,42,0.5497553944587708,3.8967649936676025,41.37079771915266,41.10164383170996,164.72445215458308,150.49422164219175,0.0,0.0882566422224044,0,0,0
13980,472551.05336947687,2010-09-27 03:04:12,2101.032442848109,2,42,0.550297200679779,3.898383855819702,41.3753839556261,41.10164383170996,164.7423267896331,150.49422164219175,9.713172767078504e-05,0.0882566422224044,0,0,0
13981,472581.0688079591,2010-09-27 03:04:42,2131.047881325308,2,42,0.5499359965324402,3.899355173110962,41.37997013140474,41.10164383170996,164.7602069451059,150.49422164219175,3.237724376958795e-05,0.0882566422224044,0,0,0
13982,472611.0843503456,2010-09-27 03:05:12,2161.063423721906,2,42,0.550297200679779,3.9006502628326416,41.384556315630896,41.10164383170996,164.77809283994452,150.49422164219175,6.47544875391759e-05,0.0882566422224044,0,0,0
13983,472641.09965655766,2010-09-27 03:05:42,2191.078729928938,2,42,0.5499359965324402,3.9017834663391113,41.38914240460538,41.10164383170996,164.7959841830462,150.49422164219175,3.237724376958795e-05,0.0882566422224044,0,0,0
13984,472671.1152398764,2010-09-27 03:06:12,2221.094313257709,2,42,0.5499359965324402,3.903078556060791,41.39372861436421,41.10164383170996,164.81388186404075,150.49422164219175,0.0,0.0882566422224044,0,0,0
13985,472701.13050660485,2010-09-27 03:06:42,2251.109579981184,2,42,0.5499359965324402,3.904373645782471,41.398314728026726,41.10164383170996,164.83178513391238,150.49422164219175,0.0,0.0882566422224044,0,0,0
13986,472731.14592648565,2010-09-27 03:07:12,2281.1249998519384,2,42,0.5499359965324402,3.9056687355041504,41.40290088596902,41.10164383170996,164.84969445269783,150.49422164219175,3.237724376958795e-05,0.0882566422224044,0,0,0
13987,472761.16134838655,2010-09-27 03:07:42,2311.14042175276,2,42,0.5499359965324402,3.90696382522583,41.40748700515011,41.10164383170996,164.86760967431243,150.49422164219175,0.0,0.0882566422224044,0,0,0
13988,472791.1771883558,2010-09-27 03:08:12,2341.156261727157,2,42,0.5499359965324402,3.90842080116272,41.412073211541625,41.10164383170996,164.88553132053417,150.49422164219175,6.47544875391759e-05,0.0882566422224044,0,0,0
13989,472821.1922134362,2010-09-27 03:08:42,2371.171286802441,2,42,0.5499359965324402,3.9097158908844,41.41665931210555,41.10164383170996,164.9034587369323,150.49422164219175,0.0,0.0882566422224044,0,0,0
13990,472851.2076226353,2010-09-27 03:09:12,2401.1866960015577,2,42,0.5501165986061096,3.911172866821289,41.42124543840223,41.10164383170996,164.9213924595414,150.49422164219175,6.47544875391759e-05,0.0882566422224044,0,0,0
13991,472881.22306821024,2010-09-27 03:09:42,2431.2021415764734,2,42,0.5501165986061096,3.9124679565429688,41.42583157119931,41.10164383170996,164.93933250932668,150.49422164219175,3.237724376958795e-05,0.0882566422224044,0,0,0
13992,472911.23847352463,2010-09-27 03:10:12,2461.217546890893,2,42,0.5501165986061096,3.9139246940612793,41.43041769255585,41.10164383170996,164.9572788021237,150.49422164219175,6.470680091297254e-05,0.0882566422224044,0,0,0
13993,472941.25391251815,2010-09-27 03:10:42,2491.232985889393,2,42,0.5499359965324402,3.915219783782959,41.43500384568558,41.10164383170996,164.9752316502274,150.49422164219175,0.0,0.0882566422224044,0,0,0
13994,472971.2693159679,2010-09-27 03:11:12,2521.2483893391586,2,42,0.5499359965324402,3.916514873504639,41.43958993561578,41.10164383170996,164.99319052629647,150.49422164219175,0.0,0.0882566422224044,0,0,0
13995,473001.2847452421,2010-09-27 03:11:42,2551.2638186083723,2,42,0.5501165986061096,3.9181337356567374,41.44417603582174,41.10164383170996,165.0111560147632,150.49422164219175,3.237724376958795e-05,0.0882566422224044,0,0,0
13996,473031.3002885459,2010-09-27 03:12:12,2581.2793620074726,2,42,0.5501165986061096,3.919590711593628,41.44876209585179,41.10164383170996,165.02912792801834,150.49422164219175,3.237724376958795e-05,0.0882566422224044,0,0,0
13997,473061.3157321158,2010-09-27 03:12:42,2611.294805487158,2,42,0.5499359965324402,3.9207239151000977,41.453348063567226,41.10164383170996,165.04710621608749,150.49422164219175,-3.237724376958795e-05,0.0882566422224044,0,0,0
13998,473091.33115532,2010-09-27 03:13:12,2641.3102286962458,2,42,0.5501165986061096,3.9225046634674072,41.4579339642697,41.10164383170996,165.06509088873594,150.49422164219175,3.237724376958795e-05,0.0882566422224044,0,0,0
13999,473121.3464392565,2010-09-27 03:13:42,2671.325512622662,2,42,0.5501165986061096,3.923961639404297,41.4625198412454,41.10164383170996,165.08308226214464,150.49422164219175,6.47544875391759e-05,0.0882566422224044,0,0,0
14000,473151.3619874374,2010-09-27 03:14:12,2701.3410608087106,2,42,0.5499359965324402,3.9254186153411865,41.46710578127573,41.10164383170996,165.10108078141783,150.49422164219175,3.237724376958795e-05,0.0882566422224044,0,0,0
14001,473181.3774555186,2010-09-27 03:14:42,2731.3565289850435,2,42,0.5497553944587708,3.926713705062866,41.47169185267119,41.10164383170996,165.11908640811856,150.49422164219175,0.0,0.0882566422224044,0,0,0
14002,473211.3927343924,2010-09-27 03:15:12,2761.37180776361,2,42,0.5501165986061096,3.928494453430176,41.47627783169418,41.10164383170996,165.1370986496531,150.49422164219175,3.237724376958795e-05,0.0882566422224044,0,0,0
14003,473241.40814555134,2010-09-27 03:15:42,2791.387219007831,2,42,0.5499359965324402,3.9299514293670654,41.480863850200016,41.10164383170996,165.1551179682753,150.49422164219175,6.47544875391759e-05,0.0882566422224044,0,0,0
14004,473271.4235628205,2010-09-27 03:16:12,2821.4026361818537,2,42,0.5501165986061096,3.931408405303955,41.485449972103964,41.10164383170996,165.1731447376156,150.49422164219175,3.237724376958795e-05,0.0882566422224044,0,0,0
14005,473301.43901907216,2010-09-27 03:16:42,2851.4180924334205,2,42,0.5499359965324402,3.933027267456055,41.49003608350593,41.10164383170996,165.1911785592394,150.49422164219175,3.237724376958795e-05,0.0882566422224044,0,0,0
14006,473331.45453987486,2010-09-27 03:17:12,2881.4336132661915,2,42,0.5501165986061096,3.934484243392944,41.49462219597656,41.10164383170996,165.20921959252473,150.49422164219175,0.0,0.0882566422224044,0,0,0
14007,473361.4698816707,2010-09-27 03:17:42,2911.448955031984,2,42,0.550297200679779,3.936264991760254,41.49920828212639,41.10164383170996,165.227267799198,150.49422164219175,6.47544875391759e-05,0.0882566422224044,0,0,0
14008,473391.4852571407,2010-09-27 03:18:12,2941.4643305971445,2,42,0.5499359965324402,3.9375600814819336,41.50379440882013,41.10164383170996,165.24532333217095,150.49422164219175,0.0,0.0882566422224044,0,0,0
14009,473421.500909993,2010-09-27 03:18:42,2971.479983359231,2,42,0.5501165986061096,3.939340829849243,41.50838056866607,41.10164383170996,165.26338649096985,150.49422164219175,3.237724376958795e-05,0.0882566422224044,0,0,0
14010,473451.5161099599,2010-09-27 03:19:12,3001.49518332106,2,42,0.550297200679779,3.9411215782165527,41.51296663644683,41.10164383170996,165.28145675781303,150.49422164219175,6.47544875391759e-05,0.0882566422224044,0,0,0
14011,473481.5315923466,2010-09-27 03:19:42,3031.510665707863,2,42,0.5497553944587708,3.942740440368652,41.51755274883005,41.10164383170996,165.29953468040554,150.49422164219175,6.47544875391759e-05,0.0882566422224044,0,0,0
14012,473511.5469804832,2010-09-27 03:20:12,3061.526053854429,2,42,0.5499359965324402,3.944359302520752,41.52213885777079,41.10164383170996,165.3176202346212,150.49422164219175,3.237724376958795e-05,0.0882566422224044,0,0,0
14013,473541.5624758574,2010-09-27 03:20:42,3091.541549218626,2,42,0.5501165986061096,3.945978164672852,41.52672501215949,41.10164383170996,165.33571368130052,150.49422164219175,0.0,0.0882566422224044,0,0,0
14014,473571.5782677217,2010-09-27 03:21:12,3121.557341198222,2,42,0.5501165986061096,3.947758913040161,41.53131115346278,41.10164383170996,165.35381474595414,150.49422164219175,6.47544875391759e-05,0.0882566422224044,0,0,0
14015,473601.5932979649,2010-09-27 03:21:42,3151.5723713261177,2,42,0.5497553944587708,3.9493777751922607,41.5358971883859,41.10164383170996,165.3719232533261,150.49422164219175,3.237724376958795e-05,0.0882566422224044,0,0,0
14016,473631.6087938855,2010-09-27 03:22:13,3181.587867281792,2,42,0.5501165986061096,3.95132040977478,41.54048325444625,41.10164383170996,165.39003984336168,150.49422164219175,6.47544875391759e-05,0.0882566422224044,0,0,0
14017,473661.62433177576,2010-09-27 03:22:43,3211.603405157104,2,42,0.5501165986061096,3.95310115814209,41.54506936557132,41.10164383170996,165.4081645875897,150.49422164219175,6.47544875391759e-05,0.0882566422224044,0,0,0
14018,473691.6395051662,2010-09-27 03:23:13,3241.618578527555,2,42,0.5499359965324402,3.9547200202941895,41.54965539325367,41.10164383170996,165.42629709883605,150.49422164219175,3.237724376958795e-05,0.0882566422224044,0,0,0
14019,473721.654958666,2010-09-27 03:23:43,3271.634032032265,2,42,0.5499359965324402,3.956500768661499,41.554241485089655,41.10164383170996,165.44443811940465,150.49422164219175,3.237724376958795e-05,0.0882566422224044,0,0,0
14020,473751.6703583162,2010-09-27 03:24:13,3301.6494316875587,2,42,0.5499359965324402,3.9582815170288086,41.55882756561834,41.10164383170996,165.46258719736997,150.49422164219175,3.237724376958795e-05,0.0882566422224044,0,0,0
14021,473781.6857983824,2010-09-27 03:24:43,3331.664871753724,2,42,0.5499359965324402,3.960062265396118,41.563413666249,41.10164383170996,165.48074473203206,150.49422164219175,6.47544875391759e-05,0.0882566422224044,0,0,0
14022,473811.70120429335,2010-09-27 03:25:13,3361.680277654607,2,42,0.5499359965324402,3.9620048999786377,41.56799971157514,41.10164383170996,165.4989104775485,150.49422164219175,6.47544875391759e-05,0.0882566422224044,0,0,0
14023,473841.716631748,2010-09-27 03:25:43,3391.695705109292,2,42,0.5501165986061096,3.9637856483459473,41.572585760665504,41.10164383170996,165.5170847006811,150.49422164219175,3.237724376958795e-05,0.0882566422224044,0,0,0
14024,473871.73206224525,2010-09-27 03:26:13,3421.711135606572,2,42,0.5501165986061096,3.9658901691436768,41.57717179569672,41.10164383170996,165.53526749078912,150.49422164219175,9.713172767078504e-05,0.0882566422224044,0,0,0
14025,473901.7474939155,2010-09-27 03:26:43,3451.7265672767794,2,42,0.5501165986061096,3.9676709175109854,41.58175789820134,41.10164383170996,165.55345921060984,150.49422164219175,6.47544875391759e-05,0.0882566422224044,0,0,0
14026,473931.7629207888,2010-09-27 03:27:13,3481.741994150013,2,42,0.5501165986061096,3.969775438308716,41.58634407623184,41.10164383170996,165.5716599657224,150.49422164219175,6.47544875391759e-05,0.0882566422224044,0,0,0
14027,473961.77833220846,2010-09-27 03:27:43,3511.7574055696723,2,42,0.5501165986061096,3.9715561866760254,41.59093011063327,41.10164383170996,165.58986895316409,150.49422164219175,6.47544875391759e-05,0.0882566422224044,0,0,0
14028,473991.7938827754,2010-09-27 03:28:13,3541.772956141677,2,42,0.5499359965324402,3.973336935043335,41.59551620996852,41.10164383170996,165.60808720611627,150.49422164219175,3.237724376958795e-05,0.0882566422224044,0,0,0
14029,474021.80919,2010-09-27 03:28:43,3571.788263371261,2,42,0.550297200679779,3.9756033420562735,41.60010222147436,41.10164383170996,165.6263141711519,150.49422164219175,6.47544875391759e-05,0.0882566422224044,0,0,0
14030,474051.8247277299,2010-09-27 03:29:13,3601.8038011212607,2,42,0.5501165986061096,3.977545976638794,41.60468835129159,41.10164383170996,165.64455081826245,150.49422164219175,6.47544875391759e-05,0.0882566422224044,0,0,0
14031,474081.8400264232,2010-09-27 03:29:43,3631.819099794487,2,42,0.5499359965324402,3.9794886112213135,41.60927436431607,41.10164383170996,165.6627958831077,150.49422164219175,6.47544875391759e-05,0.0882566422224044,0,0,0
14032,474111.8554653616,2010-09-27 03:30:13,3661.834538722812,2,42,0.550297200679779,3.981593132019043,41.6138603198787,41.10164383170996,165.6810505351267,150.49422164219175,3.237724376958795e-05,0.0882566422224044,0,0,0
14033,474141.8709345304,2010-09-27 03:30:43,3691.850007996885,2,42,0.5501165986061096,3.983697652816773,41.6184463455683,41.10164383170996,165.69931493451762,150.49422164219175,3.237724376958795e-05,0.0882566422224044,0,0,0
14034,474171.8863097798,2010-09-27 03:31:13,3721.865383140994,2,42,0.5501165986061096,3.985964059829712,41.623032307280525,41.10164383170996,165.7175886229467,150.49422164219175,9.713172767078504e-05,0.0882566422224044,0,0,0
14035,474201.9017355151,2010-09-27 03:31:43,3751.880808876387,2,42,0.5499359965324402,3.9877448081970215,41.627618360061874,41.10164383170996,165.73587236695062,150.49422164219175,3.237724376958795e-05,0.0882566422224044,0,0,0
14036,474231.9171683784,2010-09-27 03:32:13,3781.896241749598,2,42,0.5501165986061096,3.990011215209961,41.63220436135043,41.10164383170996,165.75416553863897,150.49422164219175,6.47544875391759e-05,0.0882566422224044,0,0,0
14037,474261.93260198337,2010-09-27 03:32:43,3811.9116753446106,2,42,0.5499359965324402,3.9921157360076895,41.63679029529769,41.10164383170996,165.77246830403865,150.49422164219175,6.47544875391759e-05,0.0882566422224044,0,0,0
14038,474291.9480185558,2010-09-27 03:33:13,3841.927091947208,2,42,0.5499359965324402,3.994220018386841,41.64137622966123,41.10164383170996,165.79078100198666,150.49422164219175,6.470680091297254e-05,0.0882566422224044,0,0,0
14039,474321.9634432186,2010-09-27 03:33:43,3871.942516579847,2,42,0.5499359965324402,3.99648642539978,41.645962175160776,41.10164383170996,165.80910368478573,150.49422164219175,3.237724376958795e-05,0.0882566422224044,0,0,0
14040,474351.9790172943,2010-09-27 03:34:13,3901.958090685596,2,42,0.5499359965324402,3.9985909461975098,41.65054815024474,41.10164383170996,165.8274365262653,150.49422164219175,6.47544875391759e-05,0.0882566422224044,0,0,0
14041,474381.9945754452,2010-09-27 03:34:43,3931.973648901682,2,42,0.5499359965324402,4.001019477844238,41.65513422604778,41.10164383170996,165.84577978977342,150.49422164219175,6.47544875391759e-05,0.0882566422224044,0,0,0
14042,474412.0097252819,2010-09-27 03:35:13,3961.9887987383886,2,42,0.5499359965324402,4.003123760223389,41.65972013623301,41.10164383170996,165.86413262452382,150.49422164219175,3.23295607813634e-05,0.0882566422224044,0,0,0
14043,474442.02514582936,2010-09-27 03:35:43,3992.004219190595,2,42,0.5499359965324402,4.005228519439697,41.66430610389805,41.10164383170996,165.88249591656825,150.49422164219175,6.47544875391759e-05,0.0882566422224044,0,0,0
14044,474472.0405708279,2010-09-27 03:36:13,4022.019644189149,2,42,0.5499359965324402,4.007494926452637,41.66889207213237,41.10164383170996,165.9008695819007,150.49422164219175,3.24249267578125e-05,0.0882566422224044,0,0,0
14045,474502.0559950596,2010-09-27 03:36:43,4052.035068425801,2,42,0.5501165986061096,4.009922981262207,41.67347809011363,41.10164383170996,165.91925388923286,150.49422164219175,6.47544875391759e-05,0.0882566422224044,0,0,0
14046,474532.07154090976,2010-09-27 03:37:13,4082.050614391307,2,42,0.5499359965324402,4.012027740478516,41.678064122004834,41.10164383170996,165.93764870658862,150.49422164219175,3.24249267578125e-05,0.0882566422224044,0,0,0
14047,474562.08679844526,2010-09-27 03:37:43,4112.06587181156,2,42,0.5501165986061096,4.014617919921875,41.68265007501678,41.10164383170996,165.95605377923417,150.49422164219175,9.71794142969884e-05,0.0882566422224044,0,0,0
14048,474592.10223719815,2010-09-27 03:38:13,4142.081310574473,2,42,0.5501165986061096,4.016884326934815,41.68723595642041,41.10164383170996,165.97446909120333,150.49422164219175,6.47544875391759e-05,0.0882566422224044,0,0,0
14049,474622.1176837606,2010-09-27 03:38:43,4172.096757126828,2,42,0.5501165986061096,4.019312381744385,41.69182190764375,41.10164383170996,165.99289543968226,150.49422164219175,6.47544875391759e-05,0.0882566422224044,0,0,0
14050,474652.1331128193,2010-09-27 03:39:13,4202.112186195542,2,42,0.5499359965324402,4.021578788757324,41.69640778688415,41.10164383170996,166.01133217144414,150.49422164219175,6.47544875391759e-05,0.0882566422224044,0,0,0
14051,474682.14851705095,2010-09-27 03:39:43,4232.127590422247,2,42,0.5501165986061096,4.024007320404053,41.700993643564246,41.10164383170996,166.02977987156726,150.49422164219175,3.24249267578125e-05,0.0882566422224044,0,0,0
14052,474712.1643647497,2010-09-27 03:40:13,4262.143438120925,2,42,0.5501165986061096,4.026435375213623,41.70557969305216,41.10164383170996,166.04823946722283,150.49422164219175,6.47544875391759e-05,0.0882566422224044,0,0,0
14053,474742.17938361946,2010-09-27 03:40:43,4292.158456980694,2,42,0.5499359965324402,4.0287017822265625,41.710165572611885,41.10164383170996,166.06670955136812,150.49422164219175,3.23295607813634e-05,0.0882566422224044,0,0,0
14054,474772.19481386605,2010-09-27 03:41:13,4322.173887227348,2,42,0.5497553944587708,4.031130313873291,41.71475155623886,41.10164383170996,166.08519124966625,150.49422164219175,3.24249267578125e-05,0.0882566422224044,0,0,0
14055,474802.21022268926,2010-09-27 03:41:43,4352.189296050527,2,42,0.5501165986061096,4.03372049331665,41.71933744787864,41.10164383170996,166.10368391402892,150.49422164219175,6.47544875391759e-05,0.0882566422224044,0,0,0
14056,474832.22564736207,2010-09-27 03:42:13,4382.204720723266,2,42,0.5501165986061096,4.036310195922852,41.723923412043305,41.10164383170996,166.1221883576539,150.49422164219175,6.47544875391759e-05,0.0882566422224044,0,0,0
14057,474862.2412386056,2010-09-27 03:42:43,4412.220311966794,2,42,0.5501165986061096,4.038900375366211,41.72850942803035,41.10164383170996,166.14070458478847,150.49422164219175,6.47544875391759e-05,0.0882566422224044,0,0,0
14058,474892.2564927577,2010-09-27 03:43:13,4442.235566118889,2,42,0.5499359965324402,4.04116678237915,41.733095453738784,41.10164383170996,166.1592324512985,150.49422164219175,3.23295607813634e-05,0.0882566422224044,0,0,0
14059,474922.2719574804,2010-09-27 03:43:43,4472.251030946864,2,42,0.5501165986061096,4.04408073425293,41.73768142250098,41.10164383170996,166.1777718608012,150.49422164219175,6.47544875391759e-05,0.0882566422224044,0,0,0
14060,474952.28747327055,2010-09-27 03:44:13,4502.266546732035,2,42,0.5501165986061096,4.046509265899658,41.74226809995711,41.10164383170996,166.19632609210478,150.49422164219175,6.47544875391759e-05,0.0882566422224044,0,0,0
14061,474982.3027999236,2010-09-27 03:44:43,4532.281873289866,2,42,0.550297200679779,4.049099445343018,41.74685495590636,41.10164383170996,166.2148930934121,150.49422164219175,6.47544875391759e-05,0.0882566422224044,0,0,0
14062,475012.3182194385,2010-09-27 03:45:13,4562.29729279972,2,42,0.5499359965324402,4.051851272583008,41.75144110457039,41.10164383170996,166.23346929782562,150.49422164219175,9.70840483205393e-05,0.0882566422224044,0,0,0
14063,475042.3336434195,2010-09-27 03:45:43,4592.312716785746,2,42,0.5499359965324402,4.054279804229736,41.756027039089055,41.10164383170996,166.2520568844631,150.49422164219175,3.24249267578125e-05,0.0882566422224044,0,0,0
14064,475072.3490706385,2010-09-27 03:46:13,4622.328144009855,2,42,0.5501165986061096,4.0573554039001465,41.7606130272728,41.10164383170996,166.27065700502848,150.49422164219175,0.0001295089750783,0.0882566422224044,0,0,0
14065,475102.3655109164,2010-09-27 03:46:43,4652.3445845132655,2,42,0.5501165986061096,4.059945583343506,41.76519920720597,41.10164383170996,166.2892704376203,150.49422164219175,6.47544875391759e-05,0.0882566422224044,0,0,0
14066,475132.3799420242,2010-09-27 03:47:13,4682.3590154103895,2,42,0.5501165986061096,4.062697887420654,41.76978499920664,41.10164383170996,166.30789448833897,150.49422164219175,6.47544875391759e-05,0.0882566422224044,0,0,0
14067,475162.3954976738,2010-09-27 03:47:43,4712.374571060069,2,42,0.5501165986061096,4.0654497146606445,41.77437093414789,41.10164383170996,166.32653180470624,150.49422164219175,6.47544875391759e-05,0.0882566422224044,0,0,0
14068,475192.4107884473,2010-09-27 03:48:13,4742.389861838589,2,42,0.5501165986061096,4.068202018737793,41.77895683497309,41.10164383170996,166.34518182463947,150.49422164219175,6.47544875391759e-05,0.0882566422224044,0,0,0
14069,475222.426213115,2010-09-27 03:48:43,4772.40528657148,2,42,0.5501165986061096,4.071115970611572,41.78354278106527,41.10164383170996,166.36384498464508,150.49422164219175,9.71794142969884e-05,0.0882566422224044,0,0,0
14070,475252.4416338329,2010-09-27 03:49:13,4802.420707199124,2,42,0.5501165986061096,4.0738677978515625,41.78812869543721,41.10164383170996,166.38252098128223,150.49422164219175,9.70840483205393e-05,0.0882566422224044,0,0,0
14071,475282.4570495282,2010-09-27 03:49:43,4832.436122889443,2,42,0.5501165986061096,4.076781749725342,41.79271467898452,41.10164383170996,166.40121046480868,150.49422164219175,6.47544875391759e-05,0.0882566422224044,0,0,0
14072,475312.4725376544,2010-09-27 03:50:13,4862.451611110811,2,42,0.5499359965324402,4.079695701599121,41.79730060911441,41.10164383170996,166.419913026775,150.49422164219175,6.47544875391759e-05,0.0882566422224044,0,0,0
14073,475342.48810118873,2010-09-27 03:50:43,4892.467174549935,2,42,0.5499359965324402,4.0826096534729,41.8018865660301,41.10164383170996,166.4386290334715,150.49422164219175,6.47544875391759e-05,0.0882566422224044,0,0,0
14074,475372.50332606776,2010-09-27 03:51:13,4922.482399428959,2,42,0.5501165986061096,4.085685729980469,41.80647247428323,41.10164383170996,166.4573582975946,150.49422164219175,0.0001295089750783,0.0882566422224044,0,0,0
14075,475402.5187884446,2010-09-27 03:51:43,4952.497861906066,2,42,0.5499359965324402,4.088437557220459,41.8110584840664,41.10164383170996,166.4761016324102,150.49422164219175,6.47544875391759e-05,0.0882566422224044,0,0,0
14076,475432.5341736689,2010-09-27 03:52:13,4982.51324713535,2,42,0.5501165986061096,4.091675281524658,41.8156443601817,41.10164383170996,166.49485818489632,150.49422164219175,9.70840483205393e-05,0.0882566422224044,0,0,0
14077,475462.5496233038,2010-09-27 03:52:43,5012.528696665137,2,42,0.5501165986061096,4.0945892333984375,41.82023029436744,41.10164383170996,166.5136287886253,150.49422164219175,6.47544875391759e-05,0.0882566422224044,0,0,0
14078,475492.5650372399,2010-09-27 03:53:13,5042.54411060609,2,42,0.5501165986061096,4.097665309906006,41.82481624460823,41.10164383170996,166.53241349842264,150.49422164219175,6.47544875391759e-05,0.0882566422224044,0,0,0
14079,475522.5804509251,2010-09-27 03:53:43,5072.559524291404,2,42,0.5499359965324402,4.100740909576416,41.82940223051369,41.10164383170996,166.55121250976916,150.49422164219175,3.23295607813634e-05,0.0882566422224044,0,0,0
14080,475552.5958744049,2010-09-27 03:54:14,5102.574947781192,2,42,0.5499359965324402,4.103816986083984,41.83398821579259,41.10164383170996,166.57002574525268,150.49422164219175,3.24249267578125e-05,0.0882566422224044,0,0,0
14081,475582.6112894586,2010-09-27 03:54:44,5132.590362824897,2,42,0.5501165986061096,4.107054710388184,41.8385740556212,41.10164383170996,166.58885272136584,150.49422164219175,9.71794142969884e-05,0.0882566422224044,0,0,0
14082,475612.6267319559,2010-09-27 03:55:14,5162.605805322131,2,42,0.5499359965324402,4.110130310058594,41.84315983352983,41.10164383170996,166.60769381283842,150.49422164219175,9.70840483205393e-05,0.0882566422224044,0,0,0
14083,475642.6422008942,2010-09-27 03:55:44,5192.6212742553535,2,42,0.5499359965324402,4.113368034362793,41.8477457035552,41.10164383170996,166.62654990635173,150.49422164219175,6.47544875391759e-05,0.0882566422224044,0,0,0
14084,475672.6575940431,2010-09-27 03:56:14,5222.636667409418,2,42,0.550297200679779,4.116767406463623,41.85233158945712,41.10164383170996,166.64542077034503,150.49422164219175,0.0001618385285837,0.0882566422224044,0,0,0
14085,475702.6730436482,2010-09-27 03:56:44,5252.652117009381,2,42,0.5501165986061096,4.119843482971191,41.85691755178308,41.10164383170996,166.66430679937983,150.49422164219175,9.71794142969884e-05,0.0882566422224044,0,0,0
14086,475732.6884526016,2010-09-27 03:57:14,5282.667525967897,2,42,0.5501165986061096,4.1232428550720215,41.8615035049556,41.10164383170996,166.68320770306414,150.49422164219175,0.0001618385285837,0.0882566422224044,0,0,0
14087,475762.70387282834,2010-09-27 03:57:44,5312.682946199552,2,42,0.5501165986061096,4.126480579376221,41.866089395700406,41.10164383170996,166.7021234116403,150.49422164219175,9.70840483205393e-05,0.0882566422224044,0,0,0
14088,475792.7194265782,2010-09-27 03:58:14,5342.698499964527,2,42,0.5499359965324402,4.12971830368042,41.87067534848007,41.10164383170996,166.72105456033867,150.49422164219175,9.70840483205393e-05,0.0882566422224044,0,0,0
14089,475822.7347576874,2010-09-27 03:58:44,5372.713831078731,2,42,0.5501165986061096,4.133118152618408,41.87526121472645,41.10164383170996,166.74000066506625,150.49422164219175,6.47544875391759e-05,0.0882566422224044,0,0,0
14090,475852.7501913677,2010-09-27 03:59:14,5402.729265601059,2,42,0.5501165986061096,4.136517524719238,41.87984714456488,41.10164383170996,166.75896236627676,150.49422164219175,0.0001295089750783,0.0882566422224044,0,0,0
14091,475882.7655837197,2010-09-27 03:59:44,5432.744657085957,2,42,0.5501165986061096,4.1397552490234375,41.884433091438126,41.10164383170996,166.77793968953856,150.49422164219175,6.47544875391759e-05,0.0882566422224044,0,0,0
14092,475912.7811297253,2010-09-27 04:00:14,5462.760203096576,2,42,0.5501165986061096,4.143316745758057,41.88901912908747,41.10164383170996,166.79693306737198,150.49422164219175,9.70840483205393e-05,0.0882566422224044,0,0,0
14093,475942.796442213,2010-09-27 04:00:44,5492.775515574261,2,42,0.5501165986061096,4.146878242492676,41.89360499484416,41.10164383170996,166.81594158720216,150.49422164219175,0.0001295089750783,0.0882566422224044,0,0,0
14094,475972.8119838928,2010-09-27 04:01:14,5522.791057289156,2,42,0.5501165986061096,4.150439739227295,41.898190923900216,41.10164383170996,166.83496640775047,150.49422164219175,0.0001618385285837,0.0882566422224044,0,0,0
14095,476002.8272766814,2010-09-27 04:01:44,5552.806350072681,2,42,0.5501165986061096,4.153839588165283,41.902776892903546,41.10164383170996,166.85400736821853,150.49422164219175,9.71794142969884e-05,0.0882566422224044,0,0,0
14096,476032.84272833145,2010-09-27 04:02:14,5582.821801722762,2,42,0.5501165986061096,4.157238960266113,41.90736289476166,41.10164383170996,166.87306453831712,150.49422164219175,6.47544875391759e-05,0.0882566422224044,0,0,0
14097,476062.8581322123,2010-09-27 04:02:44,5612.837205573528,2,42,0.5499359965324402,4.1609625816345215,41.9119488041717,41.10164383170996,166.8921376774029,150.49422164219175,0.0001295089750783,0.0882566422224044,0,0,0
14098,476092.8735390906,2010-09-27 04:03:14,5642.852612456863,2,42,0.5501165986061096,4.164361953735352,41.916534755232746,41.10164383170996,166.91122753549723,150.49422164219175,6.47544875391759e-05,0.0882566422224044,0,0,0
14099,476122.88895888114,2010-09-27 04:03:44,5672.868032242405,2,42,0.5499359965324402,4.167923450469971,41.9211205938384,41.10164383170996,166.9303336233776,150.49422164219175,3.23295607813634e-05,0.0882566422224044,0,0,0
14100,476152.88910045486,2010-09-27 04:04:14,5702.868173986605,2,42,0.5499359965324402,4.171970844268799,41.92570413661661,41.10164383170996,166.9494470913636,150.49422164219175,9.71794142969884e-05,0.0882566422224044,0,0,0
14101,476182.9043354342,2010-09-27 04:04:44,5732.883408820479,2,42,0.5499359965324402,4.175370216369629,41.93028998315374,41.10164383170996,166.96858719394396,150.49422164219175,6.47544875391759e-05,0.0882566422224044,0,0,0
14102,476212.9196297616,2010-09-27 04:05:14,5762.898703137833,2,42,0.5501165986061096,4.179417610168457,41.93487581822902,41.10164383170996,166.9877443949541,150.49422164219175,0.0001295089750783,0.0882566422224044,0,0,0
14103,476242.9349637379,2010-09-27 04:05:44,5792.914037114181,2,42,0.5501165986061096,4.183140754699707,41.93946172951947,41.10164383170996,167.0069192946306,150.49422164219175,0.0001295089750783,0.0882566422224044,0,0,0
14104,476272.9503629872,2010-09-27 04:06:14,5822.9294363584495,2,42,0.550297200679779,4.187188148498535,41.94404750758163,41.10164383170996,167.0261110855029,150.49422164219175,0.0001295089750783,0.0882566422224044,0,0,0
14105,476302.9657376602,2010-09-27 04:06:44,5852.944811036395,2,42,0.550297200679779,4.190911293029785,41.94863312567307,41.10164383170996,167.04531988613317,150.49422164219175,0.0001295089750783,0.0882566422224044,0,0,0
14106,476332.98139161017,2010-09-27 04:07:14,5882.960464981435,2,42,0.5501165986061096,4.194796562194824,41.95321873513056,41.10164383170996,167.06454648216769,150.49422164219175,0.0001295089750783,0.0882566422224044,0,0,0
14107,476362.99664920586,2010-09-27 04:07:44,5912.975722572112,2,42,0.5497553944587708,4.198519706726074,41.95780444034115,41.10164383170996,167.08379128822122,150.49422164219175,6.47544875391759e-05,0.0882566422224044,0,0,0
14108,476372.3246860008,2010-09-27 04:07:53,5922.303759367036,2,42,0.5501165986061096,4.200138568878174,41.9592295237906,41.10164383170996,167.0897755866663,150.49422164219175,0.0001618385285837,0.0882566422224044,0,0,0
14109,476402.3317397571,2010-09-27 04:08:23,30.015371299513017,3,42,0.0,4.122919082641602,41.9592295237906,41.10164383170996,167.0897755866663,150.49422164219175,-0.0003237724304199,0.0882566422224044,0,0,0
14110,476432.3472661889,2010-09-27 04:08:53,60.03089776133502,3,42,0.0,4.113691806793213,41.9592295237906,41.10164383170996,167.0897755866663,150.49422164219175,-0.0002265930233988,0.0882566422224044,0,0,0
14111,476462.3627516583,2010-09-27 04:09:23,90.04638320577133,3,42,0.0,4.108349800109863,41.9592295237906,41.10164383170996,167.0897755866663,150.49422164219175,-6.47544875391759e-05,0.0882566422224044,0,0,0
14112,476492.3310502872,2010-09-27 04:09:53,120.01468184468152,3,42,0.0,4.104626178741455,41.9592295237906,41.10164383170996,167.0897755866663,150.49422164219175,-9.71794142969884e-05,0.0882566422224044,0,0,0
14113,476492.3394089163,2010-09-27 04:09:54,0.015760430459108,4,42,0.9841207265853882,4.199653148651123,41.95923383217017,41.10164383170996,167.08979368036614,150.49422164219175,0.0,0.0882566422224044,0,0,0
14114,476493.3237804391,2010-09-27 04:09:55,1.000131943196672,4,42,0.9337307214736938,4.199653148651123,41.95949453897239,41.10164383170996,167.09088854978393,150.49422164219175,0.0,0.0882566422224044,0,0,0
14115,476495.4331138599,2010-09-27 04:09:57,3.109465368940162,4,42,0.8833407163619995,4.199653148651123,41.960025677026366,41.10164383170996,167.09311911609348,150.49422164219175,0.0,0.0882566422224044,0,0,0
14116,476498.604847144,2010-09-27 04:10:00,6.281198648164072,4,42,0.8331313729286194,4.199653148651123,41.960780627576426,41.10164383170996,167.09628961147723,150.49422164219175,3.24249267578125e-05,0.0882566422224044,0,0,0
14117,476502.8860568121,2010-09-27 04:10:04,10.562408316142989,4,42,0.7831025719642639,4.199491024017334,41.96174050039942,41.10164383170996,167.10032070704838,150.49422164219175,0.0,0.0882566422224044,0,0,0
14118,476508.495515148,2010-09-27 04:10:10,16.171866687230818,4,42,0.7328932285308838,4.199814796447754,41.962920159445744,41.10164383170996,167.10527481292826,150.49422164219175,9.70840483205393e-05,0.0882566422224044,0,0,0
14119,476515.682973976,2010-09-27 04:10:17,23.359325485153324,4,42,0.6828644275665283,4.199491024017334,41.96433168558252,41.10164383170996,167.11120269499617,150.49422164219175,-6.47544875391759e-05,0.0882566422224044,0,0,0
14120,476525.3233822082,2010-09-27 04:10:27,32.99973371222784,4,42,0.6328356862068176,4.199491024017334,41.966090714068514,41.10164383170996,167.1185899532918,150.49422164219175,-3.24249267578125e-05,0.0882566422224044,0,0,0
14121,476538.6982692087,2010-09-27 04:10:40,46.37462071786884,4,42,0.5826262831687927,4.199491024017334,41.96834386120828,41.10164383170996,167.12805233022314,150.49422164219175,0.0,0.0882566422224044,0,0,0
14122,476558.541878355,2010-09-27 04:11:00,66.21822987418595,4,42,0.5324168801307678,4.199491024017334,41.971408718183866,41.10164383170996,167.14092358586817,150.49422164219175,-3.24249267578125e-05,0.0882566422224044,0,0,0
14123,476591.30721785326,2010-09-27 04:11:33,98.9835693573574,4,42,0.4823881387710571,4.199491024017334,41.97600949764995,41.10164383170996,167.16024512318282,150.49422164219175,0.0,0.0882566422224044,0,0,0
14124,476646.6663514676,2010-09-27 04:12:28,154.34270297164846,4,42,0.432359367609024,4.199491024017334,41.98301408026835,41.10164383170996,167.18966174863894,150.49422164219175,-3.24249267578125e-05,0.0882566422224044,0,0,0
14125,476730.665682586,2010-09-27 04:13:52,238.3420342103944,4,42,0.3823305964469909,4.199491024017334,41.99249372839808,41.10164383170996,167.22947282098676,150.49422164219175,-3.24249267578125e-05,0.0882566422224044,0,0,0
14126,476837.6020287128,2010-09-27 04:15:39,345.2783802468469,4,42,0.3323018252849579,4.199491024017334,42.0030883410246,41.10164383170996,167.27396638606993,150.49422164219175,-3.24249267578125e-05,0.0882566422224044,0,0,0
14127,476967.4604183714,2010-09-27 04:17:49,475.13676988058654,4,42,0.2822730541229248,4.199814796447754,42.01415309138277,41.10164383170996,167.32043434162156,150.49422164219175,3.23295607813634e-05,0.0882566422224044,0,0,0
14128,477124.0995949345,2010-09-27 04:20:25,631.7759464536477,4,42,0.2322442829608917,4.199653148651123,42.02532525990366,41.10164383170996,167.36735341471572,150.49422164219175,0.0,0.0882566422224044,0,0,0
14129,477324.910257016,2010-09-27 04:23:46,832.5866085401636,4,42,0.1822155117988586,4.199653148651123,42.036847075010535,41.10164383170996,167.41574085679918,150.49422164219175,3.24249267578125e-05,0.0882566422224044,0,0,0
14130,477598.82998156,2010-09-27 04:28:20,1106.5063331693343,4,42,0.1320061385631561,4.199814796447754,42.04871794982935,41.10164383170996,167.46559433619527,150.49422164219175,3.23295607813634e-05,0.0882566422224044,0,0,0
14131,478028.1070612636,2010-09-27 04:35:29,1535.783412872902,4,42,0.081977367401123,4.199491024017334,42.06125964404078,41.10164383170996,167.51826505531812,150.49422164219175,-3.24249267578125e-05,0.0882566422224044,0,0,0
14132,478516.52366999496,2010-09-27 04:43:38,2024.2000215090743,4,42,0.0498289167881011,4.199653148651123,42.070042793198496,41.10164383170996,167.55515123205984,150.49422164219175,-3.23295607813634e-05,0.0882566422224044,0,0,0
14133,478546.5505148673,2010-09-27 04:44:08,30.01550160978751,5,42,0.0,4.192206382751465,42.070042793198496,41.10164383170996,167.55515123205984,150.49422164219175,-6.47544875391759e-05,0.0882566422224044,0,0,0
14134,478576.5502261219,2010-09-27 04:44:38,60.01521288446931,5,42,0.0,4.191073417663574,42.070042793198496,41.10164383170996,167.55515123205984,150.49422164219175,-6.47544875391759e-05,0.0882566422224044,0,0,0
14135,478576.7495824201,2010-09-27 04:44:38,0.187592805502967,6,42,-1.9243103452026844e-05,4.191235065460205,42.070042793198496,41.101643832712696,167.55515123205984,150.49422164639446,0.0,0.0906857252120971,0,0,0
14136,478581.57752170926,2010-09-27 04:44:43,5.015532099741277,6,42,0.0005225847125984,4.191235065460205,42.07004326247261,41.10164383279588,167.55515319891168,150.4942216467431,-3.24249267578125e-05,0.0906857252120971,0,0,0
14137,478611.60505032295,2010-09-27 04:45:13,30.01551702326191,7,42,-1.0997490882873535,4.026273727416992,42.07004326247261,41.11081386753348,167.55515319891168,150.53133071464632,-0.0008741378551349,0.0906857252120971,0,0,0
14138,478641.62015704205,2010-09-27 04:45:43,60.030623642091214,7,42,-1.0997490882873535,4.001343250274658,42.07004326247261,41.11998368919683,167.55515319891168,150.56812800332054,-0.0005180359003134,0.0906857252120971,0,0,0
14139,478671.6355198504,2010-09-27 04:46:13,90.04598656569668,7,42,-1.0997490882873535,3.984021425247192,42.07004326247261,41.12915355489434,167.55515319891168,150.60473671443876,-0.0004532813909463,0.0906857252120971,0,0,0
14140,478701.6509417412,2010-09-27 04:46:43,120.06140844145578,7,42,-1.099929690361023,3.970746755599976,42.07004326247261,41.138323316600136,167.55515319891168,150.64120671504733,-0.0002913951757363,0.0906857252120971,0,0,0
14141,478731.6661526052,2010-09-27 04:47:13,150.07661921527196,7,42,-1.099929690361023,3.959252834320069,42.07004326247261,41.14749299076077,167.55515319891168,150.6775639061656,-0.0003237724304199,0.0906857252120971,0,0,0
14142,478761.68145965936,2010-09-27 04:47:43,180.09192635964388,7,42,-1.099929690361023,3.949054002761841,42.07004326247261,41.15666279686481,167.55515319891168,150.71382291335252,-0.0002913951757363,0.0906857252120971,0,0,0
14143,478791.6967918713,2010-09-27 04:48:13,210.10725847635052,7,42,-1.0997490882873535,3.939664602279663,42.07004326247261,41.1658325405738,167.55515319891168,150.74999168493156,-0.0002590179501567,0.0906857252120971,0,0,0
14144,478821.7121381984,2010-09-27 04:48:43,240.12260480854133,7,42,-1.0997490882873535,3.930598974227905,42.07004326247261,41.17500239866775,167.55515319891168,150.7860760453272,-0.0002266406954731,0.0906857252120971,0,0,0
14145,478851.7274644104,2010-09-27 04:49:13,270.13793103053393,7,42,-1.099929690361023,3.921695232391357,42.07004326247261,41.184172219813455,167.55515319891168,150.82207878486028,-0.0002590179501567,0.0906857252120971,0,0,0
14146,478881.7429201157,2010-09-27 04:49:43,300.1533868109242,7,42,-1.099929690361023,3.9132773876190186,42.07004326247261,41.19334207131866,167.55515319891168,150.85800267537385,-0.0002589702489785,0.0906857252120971,0,0,0
14147,478911.7581989192,2010-09-27 04:50:13,330.1686656145533,7,42,-1.0997490882873535,3.905021190643311,42.07004326247261,41.20251182609077,167.55515319891168,150.89384884863048,-0.0002266406954731,0.0906857252120971,0,0,0
14148,478941.77338251023,2010-09-27 04:50:43,360.18384912030416,7,42,-1.0997490882873535,3.8967649936676025,42.07004326247261,41.21168145648248,167.55515319891168,150.92961875697128,-0.0001942634553415,0.0906857252120971,0,0,0
14149,478971.7887167823,2010-09-27 04:51:13,390.19918339239103,7,42,-1.0997490882873535,3.888994455337525,42.07004326247261,41.22085116109881,167.55515319891168,150.96531496956993,-0.0001942634553415,0.0906857252120971,0,0,0
14150,479001.80402509455,2010-09-27 04:51:43,420.2144916996657,7,42,-1.0997490882873535,3.8809001445770255,42.07004326247261,41.23002087580376,167.55515319891168,151.00093804612075,-0.0001942634553415,0.0906857252120971,0,0,0
14151,479031.81938070495,2010-09-27 04:52:13,450.2298473150286,7,42,-1.0997490882873535,3.8729677200317374,42.07004326247261,41.23919064688226,167.55515319891168,151.03648870118872,-0.0002266406954731,0.0906857252120971,0,0,0
14152,479061.83480719227,2010-09-27 04:52:43,480.245273812324,7,42,-1.099929690361023,3.86519718170166,42.07004326247261,41.24836044523558,167.55515319891168,151.0719680667463,-0.0001942634553415,0.0906857252120971,0,0,0
14153,479091.850204246,2010-09-27 04:53:13,510.2606708460734,7,42,-1.099929690361023,3.857750415802002,42.07004326247261,41.25753029397306,167.55515319891168,151.10737722354585,-0.0001618862152099,0.0906857252120971,0,0,0
14154,479121.8653655514,2010-09-27 04:53:43,540.2758321714588,7,42,-1.0997490882873535,3.850141763687134,42.07004326247261,41.26670003975146,167.55515319891168,151.1427166712751,-0.0002266406954731,0.0906857252120971,0,0,0
14155,479151.8806413927,2010-09-27 04:54:13,570.2911079926431,7,42,-1.0997490882873535,3.842694997787476,42.07004326247261,41.27586983198884,167.55515319891168,151.17798737038632,-0.0001942634553415,0.0906857252120971,0,0,0
14156,479181.8959511033,2010-09-27 04:54:43,600.3064178036715,7,42,-1.0997490882873535,3.8354101181030273,42.07004326247261,41.28503961850443,167.55515319891168,151.21319042518803,-0.0001618862152099,0.0906857252120971,0,0,0
14157,479211.9112762678,2010-09-27 04:55:13,630.3217428677738,7,42,-1.0997490882873535,3.828287363052368,42.07004326247261,41.294209452533714,167.55515319891168,151.2483277510744,-0.0001618862152099,0.0906857252120971,0,0,0
14158,479241.92661901086,2010-09-27 04:55:43,660.3370856110059,7,42,-1.0997490882873535,3.82116436958313,42.07004326247261,41.303379246261805,167.55515319891168,151.28339982024596,-0.0001942634553415,0.0906857252120971,0,0,0
14159,479271.9420456336,2010-09-27 04:56:13,690.3525122586765,7,42,-1.1001102924346924,3.814365148544312,42.07004326247261,41.31254906612773,167.55515319891168,151.31840848049754,-0.0001942634553415,0.0906857252120971,0,0,0
14160,479301.95740957966,2010-09-27 04:56:44,720.3678762950595,7,42,-1.0997490882873535,3.807565927505493,42.07004326247261,41.32171881575587,167.55515319891168,151.353353593984,-0.0001942634553415,0.0906857252120971,0,0,0
14161,479331.972567642,2010-09-27 04:57:14,750.3830342420118,7,42,-1.099929690361023,3.800766706466675,42.07004326247261,41.33088848247781,167.55515319891168,151.38823634421547,-0.0001618862152099,0.0906857252120971,0,0,0
14162,479361.9880346403,2010-09-27 04:57:44,780.3985012454165,7,42,-1.0997490882873535,3.794291257858277,42.07004326247261,41.3400582516668,167.55515319891168,151.42305858221323,-0.0001295089750783,0.0906857252120971,0,0,0
14163,479392.0032090935,2010-09-27 04:58:14,810.4136756985707,7,42,-1.099929690361023,3.787653923034668,42.07004326247261,41.34922791129651,167.55515319891168,151.4578208722323,-0.0001618862152099,0.0906857252120971,0,0,0
14164,479422.0185182981,2010-09-27 04:58:44,840.4289849080975,7,42,-1.0997490882873535,3.7815022468566895,42.07004326247261,41.35839770081506,167.55515319891168,151.4925256294822,-0.0001618862152099,0.0906857252120971,0,0,0
14165,479452.0338783696,2010-09-27 04:59:14,870.4443449795837,7,42,-1.0997490882873535,3.775350570678711,42.07004326247261,41.36756748965372,167.55515319891168,151.52717312668935,-0.0001942634553415,0.0906857252120971,0,0,0
14166,479482.0491657546,2010-09-27 04:59:44,900.4596323596209,7,42,-1.099568486213684,3.7693607807159424,42.07004326247261,41.376737248565455,167.55515319891168,151.5617643511311,-0.0001618862152099,0.0906857252120971,0,0,0
14167,479512.0644915304,2010-09-27 05:00:14,930.4749581304872,7,42,-1.099929690361023,3.763209104537964,42.07004326247261,41.38590697188605,167.55515319891168,151.59630056531282,-0.0001618862152099,0.0906857252120971,0,0,0
14168,479542.0798238677,2010-09-27 05:00:44,960.4902905629824,7,42,-1.0997490882873535,3.7575430870056152,42.07004326247261,41.39507676148904,167.55515319891168,151.63078313150598,-0.0001942634553415,0.0906857252120971,0,0,0
14169,479572.0951640896,2010-09-27 05:01:14,990.505630699708,7,42,-1.099929690361023,3.7518773078918457,42.07004326247261,41.404246564648034,167.55515319891168,151.66521298471727,-0.0001618862152099,0.0906857252120971,0,0,0
14170,479602.1104483268,2010-09-27 05:01:44,1020.5209149369,7,42,-1.0997490882873535,3.746211290359497,42.07004326247261,41.4134162825136,167.55515319891168,151.69959063843365,-0.0001295089750783,0.0906857252120971,0,0,0
14171,479632.1257382633,2010-09-27 05:02:14,1050.5362048632933,7,42,-1.0997490882873535,3.740869045257568,42.07004326247261,41.42258606447376,167.55515319891168,151.7339180299866,-0.0001295089750783,0.0906857252120971,0,0,0
14172,479662.141177392,2010-09-27 05:02:44,1080.5516440021438,7,42,-1.0997490882873535,3.7353649139404297,42.07004326247261,41.431755888955145,167.55515319891168,151.76819604471055,-0.0001295089750783,0.0906857252120971,0,0,0
14173,479692.1563635043,2010-09-27 05:03:14,1110.566830114401,7,42,-1.0997490882873535,3.730184555053711,42.07004326247261,41.44092573882506,167.55515319891168,151.8024249234159,-9.713172767078504e-05,0.0906857252120971,0,0,0
14174,479722.1716672903,2010-09-27 05:03:44,1140.5821338903647,7,42,-1.1001102924346924,3.7248423099517822,42.07004326247261,41.45009560577801,167.55515319891168,151.83660629599802,-0.0001618862152099,0.0906857252120971,0,0,0
14175,479752.1871165495,2010-09-27 05:04:14,1170.5975831494768,7,42,-1.0997490882873535,3.7198238372802734,42.07004326247261,41.45926541605514,167.55515319891168,151.8707399831765,-9.713172767078504e-05,0.0906857252120971,0,0,0
14176,479782.2023255037,2010-09-27 05:04:44,1200.6127921338264,7,42,-1.099929690361023,3.7148053646087646,42.07004326247261,41.46843508732664,167.55515319891168,151.90482589272307,-0.0001295089750783,0.0906857252120971,0,0,0
14177,479812.21763886354,2010-09-27 05:05:14,1230.6281054686506,7,42,-1.0997490882873535,3.709786891937256,42.07004326247261,41.47760470750475,167.55515319891168,151.9388655080332,-0.0001295089750783,0.0906857252120971,0,0,0
14178,479842.2329503488,2010-09-27 05:05:44,1260.6434169488457,7,42,-1.099929690361023,3.704768419265747,42.07004326247261,41.486774321700494,167.55515319891168,151.97285965003658,-0.0001295089750783,0.0906857252120971,0,0,0
14179,479872.2482917888,2010-09-27 05:06:14,1290.658758489075,7,42,-1.099929690361023,3.6997499465942383,42.07004326247261,41.495943959727086,167.55515319891168,152.0068089320627,-0.0001618862152099,0.0906857252120971,0,0,0
14180,479902.2645606488,2010-09-27 05:06:44,1320.6750273590617,7,42,-1.0997490882873535,3.695055246353149,42.07004326247261,41.505113958738285,167.55515319891168,152.04071506480378,-0.0001295089750783,0.0906857252120971,0,0,0
14181,479932.278915461,2010-09-27 05:07:14,1350.6893820710156,7,42,-1.0997490882873535,3.6905224323272714,42.07004326247261,41.51428331952849,167.55515319891168,152.07457548602832,-9.713172767078504e-05,0.0906857252120971,0,0,0
14182,479962.2942144901,2010-09-27 05:07:44,1380.704681090106,7,42,-1.0997490882873535,3.6858277320861816,42.07004326247261,41.52345301024786,167.55515319891168,152.1083941313095,-0.0001295089750783,0.0906857252120971,0,0,0
14183,479992.3095403511,2010-09-27 05:08:14,1410.7200069511975,7,42,-1.0997490882873535,3.6811330318450928,42.07004326247261,41.53262263553777,167.55515319891168,152.14217040382266,-0.0001618862152099,0.0906857252120971,0,0,0
14184,480022.3248450344,2010-09-27 05:08:44,1440.735311634426,7,42,-1.099929690361023,3.676600217819214,42.07004326247261,41.541792274344594,167.55515319891168,152.17590529160483,-0.0001618862152099,0.0906857252120971,0,0,0
14185,480052.3403728496,2010-09-27 05:09:14,1470.7508394496265,7,42,-1.099929690361023,3.672229528427124,42.07004326247261,41.55096197086264,167.55515319891168,152.20959984850634,-0.0001294612884521,0.0906857252120971,0,0,0
14186,480082.3556414026,2010-09-27 05:09:44,1500.7661080126932,7,42,-1.0997490882873535,3.668020486831665,42.07004326247261,41.5601316299947,167.55515319891168,152.2432538507706,-0.0001295089750783,0.0906857252120971,0,0,0
14187,480112.3708033947,2010-09-27 05:10:14,1530.78126999973,7,42,-1.0997490882873535,3.663649559020996,42.07004326247261,41.56930119494507,167.55515319891168,152.27686758395384,-9.713172767078504e-05,0.0906857252120971,0,0,0
14188,480142.3861096568,2010-09-27 05:10:44,1560.7965762568872,7,42,-1.099568486213684,3.659440517425537,42.07004326247261,41.57847081997776,167.55515319891168,152.31044247292496,-9.713172767078504e-05,0.0906857252120971,0,0,0
14189,480172.4014494628,2010-09-27 05:11:14,1590.8119160627873,7,42,-1.0997490882873535,3.655231475830078,42.07004326247261,41.5876404907394,167.55515319891168,152.3439790330331,-0.0001295089750783,0.0906857252120971,0,0,0
14190,480202.4167456998,2010-09-27 05:11:44,1620.8272122999333,7,42,-1.0997490882873535,3.651184320449829,42.07004326247261,41.59681011480496,167.55515319891168,152.37747750810354,-9.713172767078504e-05,0.0906857252120971,0,0,0
14191,480232.432061576,2010-09-27 05:12:14,1650.8425281761013,7,42,-1.0997490882873535,3.64713716506958,42.07004326247261,41.60597972356684,167.55515319891168,152.4109388390476,-0.0001295089750783,0.0906857252120971,0,0,0
14192,480262.44737326674,2010-09-27 05:12:44,1680.8578398968964,7,42,-1.0997490882873535,3.643251895904541,42.07004326247261,41.61514922629264,167.55515319891168,152.4443629696512,-9.713172767078504e-05,0.0906857252120971,0,0,0
14193,480292.4627082506,2010-09-27 05:13:14,1710.87317488076,7,42,-1.0997490882873535,3.639528512954712,42.07004326247261,41.624318784119126,167.55515319891168,152.47775214086664,-9.713172767078504e-05,0.0906857252120971,0,0,0
14194,480322.4780033399,2010-09-27 05:13:44,1740.8884699399655,7,42,-1.0997490882873535,3.635643243789673,42.07004326247261,41.633488339714205,167.55515319891168,152.51110653221517,-6.47544875391759e-05,0.0906857252120971,0,0,0
14195,480352.4933354416,2010-09-27 05:14:14,1770.9038021418853,7,42,-1.0997490882873535,3.631919860839844,42.07004326247261,41.64265792388747,167.55515319891168,152.5444270112776,-0.0001295089750783,0.0906857252120971,0,0,0
14196,480382.50923150097,2010-09-27 05:14:44,1800.919698111054,7,42,-1.0997490882873535,3.6283583641052246,42.07004326247261,41.65182768240711,167.55515319891168,152.57771451406813,-9.713172767078504e-05,0.0906857252120971,0,0,0
14197,480412.524089414,2010-09-27 05:15:14,1830.934556029088,7,42,-1.0997490882873535,3.6247968673706055,42.07004326247261,41.66099712754924,167.55515319891168,152.61096821912082,-0.0001295089750783,0.0906857252120971,0,0,0
14198,480442.5392502783,2010-09-27 05:15:44,1860.9497168883097,7,42,-1.099929690361023,3.621397256851196,42.07004326247261,41.67016661500463,167.55515319891168,152.64419065072627,-9.713172767078504e-05,0.0906857252120971,0,0,0
14199,480472.5545743148,2010-09-27 05:16:14,1890.965040914822,7,42,-1.099929690361023,3.617997646331787,42.07004326247261,41.67933612131952,167.55515319891168,152.67738219784206,-9.713172767078504e-05,0.0906857252120971,0,0,0
14200,480502.5699113487,2010-09-27 05:16:44,1920.980378044041,7,42,-1.0997490882873535,3.614921808242798,42.07004326247261,41.68850561760452,167.55515319891168,152.7105436151114,-6.47544875391759e-05,0.0906857252120971,0,0,0
14201,480532.58522365097,2010-09-27 05:17:14,1950.9956902811248,7,42,-1.0997490882873535,3.6118459701538086,42.07004326247261,41.69767513518487,167.55515319891168,152.7436756586942,-6.47544875391759e-05,0.0906857252120971,0,0,0
14202,480562.6005401988,2010-09-27 05:17:44,1981.011006808919,7,42,-1.0997490882873535,3.60860824584961,42.07004326247261,41.70684471501453,167.55515319891168,152.77677880771694,-6.47544875391759e-05,0.0906857252120971,0,0,0
14203,480592.6158257444,2010-09-27 05:18:14,2011.026292354377,7,42,-1.099929690361023,3.60537052154541,42.07004326247261,41.716014289901565,167.55515319891168,152.80985327358,-9.713172767078504e-05,0.0906857252120971,0,0,0
14204,480622.6312941412,2010-09-27 05:18:44,2041.0417617287,7,42,-1.0997490882873535,3.602456569671631,42.07004326247261,41.72518389326354,167.55515319891168,152.84289938741802,-6.47544875391759e-05,0.0906857252120971,0,0,0
14205,480652.646459226,2010-09-27 05:19:14,2071.0569259212416,7,42,-1.0997490882873535,3.5993807315826416,42.07004326247261,41.73435340171698,167.55515319891168,152.87591733674932,-6.47544875391759e-05,0.0906857252120971,0,0,0
14206,480682.6617623402,2010-09-27 05:19:44,2101.072228940317,7,42,-1.0997490882873535,3.5964667797088623,42.07004326247261,41.74352302002776,167.55515319891168,152.9089081406713,-6.47544875391759e-05,0.0906857252120971,0,0,0
14207,480712.6771989428,2010-09-27 05:20:14,2131.0876656380733,7,42,-1.0997490882873535,3.593390941619873,42.07004326247261,41.752692661038985,167.55515319891168,152.94187163291988,-6.47544875391759e-05,0.0906857252120971,0,0,0
14208,480742.6923900826,2010-09-27 05:20:44,2161.102856682642,7,42,-1.099568486213684,3.590477228164673,42.07004326247261,41.76186226793324,167.55515319891168,152.9748082092861,-6.47544875391759e-05,0.0906857252120971,0,0,0
14209,480772.7077974822,2010-09-27 05:21:14,2191.1182640772545,7,42,-1.099929690361023,3.5875632762908936,42.07004326247261,41.7710318452947,167.55515319891168,153.007717900575,-6.47544875391759e-05,0.0906857252120971,0,0,0
14210,480802.7230595792,2010-09-27 05:21:44,2221.1335261791937,7,42,-1.099929690361023,3.5846493244171143,42.07004326247261,41.78020137572838,167.55515319891168,153.04060056251535,-6.47544875391759e-05,0.0906857252120971,0,0,0
14211,480832.7384007333,2010-09-27 05:22:14,2251.1488674537595,7,42,-1.099929690361023,3.581573486328125,42.07004326247261,41.78937089628527,167.55515319891168,153.0734561817821,-6.47544875391759e-05,0.0906857252120971,0,0,0
14212,480862.7536396575,2010-09-27 05:22:44,2281.164106257543,7,42,-1.0997490882873535,3.5786595344543457,42.07004326247261,41.79854047639714,167.55515319891168,153.10628484703844,-9.713172767078504e-05,0.0906857252120971,0,0,0
14213,480892.7691462196,2010-09-27 05:23:14,2311.179612824705,7,42,-1.099929690361023,3.5757455825805664,42.07004326247261,41.80771011563296,167.55515319891168,153.1390864381822,-6.47544875391759e-05,0.0906857252120971,0,0,0
14214,480922.78428963525,2010-09-27 05:23:44,2341.194756245397,7,42,-1.0997490882873535,3.572669744491577,42.07004326247261,41.81687959451104,167.55515319891168,153.17186001050416,-0.0001295089750783,0.0906857252120971,0,0,0
14215,480952.7995950554,2010-09-27 05:24:14,2371.210061665465,7,42,-1.1001102924346924,3.569593906402588,42.07004326247261,41.82604914990022,167.55515319891168,153.20460614440137,-9.713172767078504e-05,0.0906857252120971,0,0,0
14216,480982.814892681,2010-09-27 05:24:44,2401.225359311127,7,42,-1.099929690361023,3.566518068313598,42.07004326247261,41.8352187047844,167.55515319891168,153.23732425945758,-9.713172767078504e-05,0.0906857252120971,0,0,0
14217,481012.83050051593,2010-09-27 05:25:14,2431.2409672062186,7,42,-1.0997490882873535,3.5634422302246094,42.07004326247261,41.84438834383113,167.55515319891168,153.27001409630387,-9.713172767078504e-05,0.0906857252120971,0,0,0
14218,481042.8455284283,2010-09-27 05:25:44,2461.2559951235967,7,42,-1.0997490882873535,3.56036639213562,42.07004326247261,41.85355787264507,167.55515319891168,153.30267514286083,-6.47544875391759e-05,0.0906857252120971,0,0,0
14219,481072.8608390713,2010-09-27 05:26:14,2491.271305666452,7,42,-1.099929690361023,3.556804895401001,42.07004326247261,41.86272737203118,167.55515319891168,153.3353063831022,-0.0001295089750783,0.0906857252120971,0,0,0
14220,481102.87614522834,2010-09-27 05:26:44,2521.286611833384,7,42,-1.099929690361023,3.5535671710968018,42.07004326247261,41.87189695837896,167.55515319891168,153.36790715382094,-9.713172767078504e-05,0.0906857252120971,0,0,0
14221,481132.8914974502,2010-09-27 05:27:14,2551.301964060289,7,42,-1.0997490882873535,3.5501675605773926,42.07004326247261,41.88106656022027,167.55515319891168,153.40047676148671,-9.713172767078504e-05,0.0906857252120971,0,0,0
14222,481162.9069268347,2010-09-27 05:27:44,2581.317393434766,7,42,-1.099929690361023,3.546606063842773,42.07004326247261,41.89023612976222,167.55515319891168,153.43301433971507,-6.47544875391759e-05,0.0906857252120971,0,0,0
14223,481192.9221212528,2010-09-27 05:28:14,2611.332587852756,7,42,-1.099568486213684,3.5432064533233643,42.07004326247261,41.89940567529507,167.55515319891168,153.46551886641143,-6.47544875391759e-05,0.0906857252120971,0,0,0
14224,481222.93739157513,2010-09-27 05:28:45,2641.3478581752142,7,42,-1.0997490882873535,3.5391592979431152,42.07004326247261,41.908575217238365,167.55515319891168,153.49798926390582,-0.0001618862152099,0.0906857252120971,0,0,0
14225,481252.9527159576,2010-09-27 05:29:15,2671.363182562628,7,42,-1.0997490882873535,3.535274028778076,42.07004326247261,41.91774478960557,167.55515319891168,153.53042415329463,-9.713172767078504e-05,0.0906857252120971,0,0,0
14226,481282.9680154227,2010-09-27 05:29:45,2701.378482027831,7,42,-1.099568486213684,3.531226873397827,42.07004326247261,41.926914344285365,167.55515319891168,153.5628221473648,-9.713172767078504e-05,0.0906857252120971,0,0,0
14227,481312.98334353947,2010-09-27 05:30:15,2731.393810239791,7,42,-1.0997490882873535,3.526855945587158,42.07004326247261,41.936083924559874,167.55515319891168,153.59518191714352,-0.0001618862152099,0.0906857252120971,0,0,0
14228,481342.9986711398,2010-09-27 05:30:45,2761.409137830199,7,42,-1.0997490882873535,3.5224850177764893,42.07004326247261,41.94525347691016,167.55515319891168,153.62750149120214,-9.713172767078504e-05,0.0906857252120971,0,0,0
14229,481373.0140985294,2010-09-27 05:31:15,2791.424565134509,7,42,-1.099568486213684,3.5179522037506104,42.07004326247261,41.95442304471718,167.55515319891168,153.65977867298054,-6.47544875391759e-05,0.0906857252120971,0,0,0
14230,481403.02924936864,2010-09-27 05:31:45,2821.439715973719,7,42,-1.099929690361023,3.512448072433472,42.07004326247261,41.96359255880098,167.55515319891168,153.69201049694874,-0.0001618862152099,0.0906857252120971,0,0,0
14231,481433.0445659015,2010-09-27 05:32:15,2851.455032526576,7,42,-1.099929690361023,3.506944179534912,42.07004326247261,41.97276210257134,167.55515319891168,153.7241933119749,-0.0001618862152099,0.0906857252120971,0,0,0
14232,481463.05987313605,2010-09-27 05:32:45,2881.4703397361104,7,42,-1.099929690361023,3.500630617141724,42.07004326247261,41.981931678034655,167.55515319891168,153.7563223903222,-0.0002266406954731,0.0906857252120971,0,0,0
14233,481493.0751942803,2010-09-27 05:33:15,2911.4856608804284,7,42,-1.0997490882873535,3.494155168533325,42.07004326247261,41.99110127636158,167.55515319891168,153.78839261135874,-0.0001618862152099,0.0906857252120971,0,0,0
14234,481523.0905024723,2010-09-27 05:33:45,2941.5009690724155,7,42,-1.099929690361023,3.486222743988037,42.07004326247261,42.0002708410041,167.55515319891168,153.82039699223407,-0.0002590179501567,0.0906857252120971,0,0,0
14235,481553.1058427093,2010-09-27 05:34:15,2971.516309309391,7,42,-1.099929690361023,3.477966547012329,42.07004326247261,42.00944042273136,167.55515319891168,153.85232745887149,-0.0001942634553415,0.0906857252120971,0,0,0
14236,481583.1212365801,2010-09-27 05:34:45,3001.531703195284,7,42,-1.0997490882873535,3.468091487884521,42.07004326247261,42.01860998661572,167.55515319891168,153.88417371372668,-0.0002590179501567,0.0906857252120971,0,0,0
14237,481613.1364328929,2010-09-27 05:35:15,3031.5468994979774,7,42,-1.0997490882873535,3.4565975666046143,42.07004326247261,42.02777946711994,167.55515319891168,153.915922912472,-0.0003237724304199,0.0906857252120971,0,0,0
14238,481643.1517285536,2010-09-27 05:35:45,3061.5621951586845,7,42,-1.099929690361023,3.4426753520965576,42.07004326247261,42.03694901224202,167.55515319891168,153.94755766854567,-0.0004209041653666,0.0906857252120971,0,0,0
14239,481673.1670408709,2010-09-27 05:36:15,3091.5775074709563,7,42,-1.099929690361023,3.425839424133301,42.07004326247261,42.04611853357339,167.55515319891168,153.97905281687176,-0.0005180359003134,0.0906857252120971,0,0,0
14240,481703.1823540002,2010-09-27 05:36:45,3121.592820600268,7,42,-1.0997490882873535,3.403984785079956,42.07004326247261,42.05528809818346,167.55515319891168,154.01037107911324,-0.0006475448608398,0.0906857252120971,0,0,0
14241,481733.1976676358,2010-09-27 05:37:15,3151.608134240855,7,42,-1.099568486213684,3.3741977214813232,42.07004326247261,42.06445763544591,167.55515319891168,154.04145466474623,-0.0009065627818927,0.0906857252120971,0,0,0
14242,481763.2129948452,2010-09-27 05:37:45,3181.623461455325,7,42,-1.0997490882873535,3.3312981128692627,42.07004326247261,42.07362726093714,167.55515319891168,154.0722088317291,-0.0013274669181555,0.0906857252120971,0,0,0
14243,481793.2282764659,2010-09-27 05:38:15,3211.6387430659606,7,42,-1.0997490882873535,3.2699434757232666,42.07004326247261,42.08279676326468,167.55515319891168,154.10249103867991,-0.0018454551463946,0.0906857252120971,0,0,0
14244,481823.2435863722,2010-09-27 05:38:45,3241.654052972227,7,42,-1.0997490882873535,3.1799349784851074,42.07004326247261,42.09196636022073,167.55515319891168,154.13209057623175,-0.0028815269470214,0.0906857252120971,0,0,0
14245,481853.25890482473,2010-09-27 05:39:15,3271.6693714248254,7,42,-1.0997490882873535,3.034885168075561,42.07004326247261,42.10113590246684,167.55515319891168,154.16064772579534,-0.004953718278557,0.0906857252120971,0,0,0
14246,481872.89937880944,2010-09-27 05:39:34,3291.3098454997285,7,42,-1.1001102924346924,2.834794521331787,42.07004326247261,42.107135995061775,167.55515319891168,154.1783412916111,-0.011170101352036,0.0906857252120971,0,0,0
14247,481880.9930036372,2010-09-27 05:39:43,3299.4034703274715,7,42,-1.099929690361023,2.699943780899048,42.07004326247261,42.109608576677886,167.55515319891168,154.18518828823153,-0.0138250347226858,0.0906857252120971,0,0,0
14248,481941.0071486824,2010-09-27 05:40:43,60.01500091034929,8,42,0.0,3.34246826171875,42.07004326247261,42.109608576677886,167.55515319891168,154.18518828823153,0.0014569759368896,0.0906857252120971,0,0,0
14249,481941.21000249335,2010-09-27 05:40:43,0.18743688630466,9,42,-1.9243103452026844e-05,3.34279203414917,42.07004326247261,42.10960857767979,167.55515319891168,154.18518829158072,0.0,0.0884163826704025,0,0,0
14250,481946.0380718873,2010-09-27 05:40:48,5.01550628029196,9,42,0.0003419754502829,3.3513717651367188,42.0700437340151,42.10960857809783,167.55515477749552,154.18518829297955,0.0012626647949218,0.0884163826704025,0,0,0
