Data_Point,Test_Time(s),Date_Time,Step_Time(s),Step_Index,Cycle_Index,Current(A),Voltage(V),Charge_Capacity(Ah),Discharge_Capacity(Ah),Charge_Energy(Wh),Discharge_Energy(Wh),dV/dt(V/s),Internal_Resistance(Ohm),Is_FC_Data,AC_Impedance(Ohm),ACI_Phase_Angle(Deg)
5698,193385.26879105624,2010-09-23 21:30:58,30.01530690878385,1,18,0.0,3.4028515815734863,16.851247944267417,16.869727323216924,67.19555946561727,61.60834632720498,0.0008418083307333,0.0897949114441871,0,0,0
5699,193415.28411126824,2010-09-23 21:31:28,60.03062712578706,1,18,0.0,3.43004846572876,16.851247944267417,16.869727323216924,67.19555946561727,61.60834632720498,0.0006151676061563,0.0897949114441871,0,0,0
5700,193445.29943429225,2010-09-23 21:31:58,90.04595014478448,1,18,0.0,3.450122117996216,16.851247944267417,16.869727323216924,67.19555946561727,61.60834632720498,0.0004856586456298,0.0897949114441871,0,0,0
5701,193475.2678827401,2010-09-23 21:32:28,120.01439859264086,1,18,0.0,3.465986967086792,16.851247944267417,16.869727323216924,67.19555946561727,61.60834632720498,0.0003885269106831,0.0897949114441871,0,0,0
5702,193505.28271977056,2010-09-23 21:32:59,30.015297284760805,2,18,0.5499359965324402,3.60747504234314,16.85583428424349,16.869727323216924,67.2119544054303,61.60834632720498,0.0014893531333655,0.0897949114441871,0,0,0
5703,193535.298181972,2010-09-23 21:33:29,60.03075951124152,2,18,0.5499359965324402,3.651184320449829,16.86042067568416,16.869727323216924,67.2286063037069,61.60834632720498,0.0010036944877356,0.0897949114441871,0,0,0
5704,193565.31336304164,2010-09-23 21:33:59,90.04594056086154,2,18,0.5501165986061096,3.682751893997192,16.86500699983245,16.869727323216924,67.24542753246163,61.60834632720498,0.0007446765666827,0.0897949114441871,0,0,0
5705,193595.328812792,2010-09-23 21:34:29,120.06139032623744,2,18,0.5501165986061096,3.707520484924317,16.869593310611844,16.869727323216924,67.26237660351858,61.60834632720498,0.0006151676061563,0.0897949114441871,0,0,0
5706,193625.34400996185,2010-09-23 21:34:59,150.07658747103346,2,18,0.5501165986061096,3.727594375610352,16.874179622553164,16.869727323216924,67.27942784659905,61.60834632720498,0.0005180359003134,0.0897949114441871,0,0,0
5707,193655.3593587151,2010-09-23 21:35:29,180.0919362242675,2,18,0.5501165986061096,3.743459224700928,16.87876586855135,16.869727323216924,67.29656116620426,61.60834632720498,0.0003885269106831,0.0897949114441871,0,0,0
5708,193685.374653644,2010-09-23 21:35:59,210.10723118322272,2,18,0.5501165986061096,3.755114793777466,16.88335214772825,16.869727323216924,67.31375848554424,61.60834632720498,0.0002266406954731,0.0897949114441871,0,0,0
5709,193715.38998037225,2010-09-23 21:36:29,240.122557881404,2,18,0.5501165986061096,3.762075901031494,16.88793837307906,16.869727323216924,67.3309975253072,61.60834632720498,0.0001942634553415,0.0897949114441871,0,0,0
5710,193745.40530131603,2010-09-23 21:36:59,270.13787882522143,2,18,0.5501165986061096,3.766284942626953,16.892524641034925,16.869727323216924,67.34826133278182,61.60834632720498,0.0001295089750783,0.0897949114441871,0,0,0
5711,193775.4207739685,2010-09-23 21:37:29,300.1533514877521,2,18,0.5501165986061096,3.769846439361572,16.897110936526076,16.869727323216924,67.36554271252074,61.60834632720498,9.713172767078504e-05,0.0897949114441871,0,0,0
5712,193805.4359467876,2010-09-23 21:37:59,330.1685243068274,2,18,0.5501165986061096,3.773084163665772,16.901697196967522,16.869727323216924,67.38283940582953,61.60834632720498,6.47544875391759e-05,0.0897949114441871,0,0,0
5713,193835.45126771132,2010-09-23 21:38:29,360.1838452255824,2,18,0.5501165986061096,3.7764837741851807,16.906283533697678,16.869727323216924,67.40015144695485,61.60834632720498,0.0001295089750783,0.0897949114441871,0,0,0
5714,193865.4666039484,2010-09-23 21:38:59,390.1991814575613,2,18,0.5501165986061096,3.77972149848938,16.910869782752577,16.869727323216924,67.41747805008283,61.60834632720498,9.713172767078504e-05,0.0897949114441871,0,0,0
5715,193895.4819221704,2010-09-23 21:39:29,420.2144996795848,2,18,0.5501165986061096,3.782635450363159,16.91545612859292,16.869727323216924,67.43481976998268,61.60834632720498,6.47544875391759e-05,0.0897949114441871,0,0,0
5716,193925.4972289388,2010-09-23 21:39:59,450.2298064480182,2,18,0.5501165986061096,3.7858731746673584,16.92004243994031,16.869727323216924,67.45217591444316,61.60834632720498,6.47544875391759e-05,0.0897949114441871,0,0,0
5717,193955.5125520932,2010-09-23 21:40:29,480.24512961237866,2,18,0.550297200679779,3.789272785186768,16.924628748978925,16.869727323216924,67.46954645563507,61.60834632720498,9.713172767078504e-05,0.0897949114441871,0,0,0
5718,193985.5278777287,2010-09-23 21:40:59,510.26045524790726,2,18,0.5501165986061096,3.792186737060547,16.929215144367273,16.869727323216924,67.48693157039456,61.60834632720498,6.47544875391759e-05,0.0897949114441871,0,0,0
5719,194015.54342230072,2010-09-23 21:41:29,540.2759998399852,2,18,0.5501165986061096,3.795100688934326,16.933801509212092,16.869727323216924,67.50433055247115,61.60834632720498,6.47544875391759e-05,0.0897949114441871,0,0,0
5720,194045.55853016264,2010-09-23 21:41:59,570.2911076969049,2,18,0.5501165986061096,3.798176527023315,16.938387820103227,16.869727323216924,67.52174317703543,61.60834632720498,9.713172767078504e-05,0.0897949114441871,0,0,0
5721,194075.57381900636,2010-09-23 21:42:29,600.3063966057582,2,18,0.550297200679779,3.801414251327514,16.942975132527,16.869727323216924,67.53917340055389,61.60834632720498,0.0001618862152099,0.0897949114441871,0,0,0
5722,194105.58912421588,2010-09-23 21:42:59,630.3217017250753,2,18,0.550297200679779,3.804166316986084,16.947562386160588,16.869727323216924,67.55661706031471,61.60834632720498,6.47544875391759e-05,0.0897949114441871,0,0,0
5723,194135.60433697465,2010-09-23 21:43:29,660.3369145089088,2,18,0.550297200679779,3.8070802688598633,16.95214952933205,16.869727323216924,67.5740741464094,61.60834632720498,6.47544875391759e-05,0.0897949114441871,0,0,0
5724,194165.61977052456,2010-09-23 21:43:59,690.3523480638208,2,18,0.550297200679779,3.8103179931640634,16.956736879476264,16.869727323216924,67.59154603709213,61.60834632720498,9.713172767078504e-05,0.0897949114441871,0,0,0
5725,194195.6349648924,2010-09-23 21:44:29,720.3675424116352,2,18,0.550297200679779,3.8135557174682617,16.96132420559943,16.869727323216924,67.60903215719152,61.60834632720498,9.713172767078504e-05,0.0897949114441871,0,0,0
5726,194225.65047308363,2010-09-23 21:44:59,750.3830506980886,2,18,0.550297200679779,3.816793441772461,16.965911573324597,16.869727323216924,67.62653341104183,61.60834632720498,0.0001295089750783,0.0897949114441871,0,0,0
5727,194255.6656149304,2010-09-23 21:45:29,780.3981924646522,2,18,0.550297200679779,3.82019305229187,16.970498833386728,16.869727323216924,67.64404930703327,61.60834632720498,9.713172767078504e-05,0.0897949114441871,0,0,0
5728,194285.6809496185,2010-09-23 21:45:59,810.4135271527776,2,18,0.5501165986061096,3.8232688903808594,16.97508616864194,16.869727323216924,67.66158095102118,61.60834632720498,6.47544875391759e-05,0.0897949114441871,0,0,0
5729,194315.69626466764,2010-09-23 21:46:29,840.4288422018809,2,18,0.5501165986061096,3.826992273330689,16.979673447260524,16.869727323216924,67.67912810919847,61.60834632720498,0.0001295089750783,0.0897949114441871,0,0,0
5730,194345.71160098983,2010-09-23 21:46:59,870.4441785290976,2,18,0.550297200679779,3.8303918838500977,16.98426072956989,16.869727323216924,67.6966911180172,61.60834632720498,9.713172767078504e-05,0.0897949114441871,0,0,0
5731,194375.72691683596,2010-09-23 21:47:29,900.4594943701777,2,18,0.5501165986061096,3.833791255950928,16.988848058946743,16.869727323216924,67.71427009107208,61.60834632720498,9.713172767078504e-05,0.0897949114441871,0,0,0
5732,194405.74222749405,2010-09-23 21:47:59,930.4748050132832,2,18,0.5501165986061096,3.837190866470337,16.993435363452754,16.869727323216924,67.73186451296708,61.60834632720498,9.713172767078504e-05,0.0897949114441871,0,0,0
5733,194435.75757550544,2010-09-23 21:48:29,960.4901530246656,2,18,0.550297200679779,3.840428590774536,16.998022628888638,16.869727323216924,67.74947414061117,61.60834632720498,3.237724376958795e-05,0.0897949114441871,0,0,0
5734,194465.77299891505,2010-09-23 21:48:59,990.5055764392656,2,18,0.550297200679779,3.843828201293945,17.0026099059501,16.869727323216924,67.76709878751977,61.60834632720498,0.0001295089750783,0.0897949114441871,0,0,0
5735,194495.7886238276,2010-09-23 21:49:29,1020.5212014621112,2,18,0.5499359965324402,3.8467421531677246,17.00719724132061,16.869727323216924,67.78473834779281,61.60834632720498,6.47544875391759e-05,0.0897949114441871,0,0,0
5736,194525.8036682612,2010-09-23 21:49:59,1050.5362457804288,2,18,0.5501165986061096,3.849979877471924,17.01178450501554,16.869727323216924,67.80239198100054,61.60834632720498,6.47544875391759e-05,0.0897949114441871,0,0,0
5737,194555.81883710035,2010-09-23 21:50:29,1080.5514146396197,2,18,0.5501165986061096,3.852893829345703,17.016371780149804,16.869727323216924,67.82005971525145,61.60834632720498,6.47544875391759e-05,0.0897949114441871,0,0,0
5738,194585.83432152725,2010-09-23 21:50:59,1110.5668990615036,2,18,0.5501165986061096,3.8558077812194815,17.020959115863835,16.869727323216924,67.83774118652342,61.60834632720498,3.237724376958795e-05,0.0897949114441871,0,0,0
5739,194615.8496302255,2010-09-23 21:51:29,1140.5822077597545,2,18,0.5501165986061096,3.858559846878052,17.025546412751485,16.869727323216924,67.85543574104867,61.60834632720498,3.237724376958795e-05,0.0897949114441871,0,0,0
5740,194645.8649231644,2010-09-23 21:51:59,1170.5975007036795,2,18,0.5501165986061096,3.861311912536621,17.030133699764548,16.869727323216924,67.87314284344221,61.60834632720498,6.47544875391759e-05,0.0897949114441871,0,0,0
5741,194675.88013372276,2010-09-23 21:52:29,1200.6127112419076,2,18,0.5501165986061096,3.863902091979981,17.034720990701633,16.869727323216924,67.89086198180036,61.60834632720498,6.47544875391759e-05,0.0897949114441871,0,0,0
5742,194705.89560766844,2010-09-23 21:52:59,1230.6281852076916,2,18,0.550297200679779,3.86633038520813,17.03930823611445,16.869727323216924,67.90859222516455,61.60834632720498,3.237724376958795e-05,0.0897949114441871,0,0,0
5743,194735.9109243566,2010-09-23 21:53:29,1260.643501971074,2,18,0.550297200679779,3.868596792221069,17.043895482801293,16.869727323216924,67.92633326182285,61.60834632720498,6.47544875391759e-05,0.0897949114441871,0,0,0
5744,194765.926114514,2010-09-23 21:53:59,1290.6586920482282,2,18,0.550297200679779,3.870701313018799,17.048482836466267,16.869727323216924,67.94408480066404,61.60834632720498,6.47544875391759e-05,0.0897949114441871,0,0,0
5745,194795.941440751,2010-09-23 21:54:29,1320.674018380496,2,18,0.5501165986061096,3.8726439476013184,17.053070116338017,16.869727323216924,67.96184542036426,61.60834632720498,3.237724376958795e-05,0.0897949114441871,0,0,0
5746,194825.9567393892,2010-09-23 21:54:59,1350.689316913372,2,18,0.550297200679779,3.874586582183838,17.057657436737355,16.869727323216924,67.97961493161753,61.60834632720498,6.47544875391759e-05,0.0897949114441871,0,0,0
5747,194855.9720999318,2010-09-23 21:55:29,1380.704677451022,2,18,0.550297200679779,3.8762054443359375,17.062244763564056,16.869727323216924,67.99739258509881,61.60834632720498,6.47544875391759e-05,0.0897949114441871,0,0,0
5748,194885.987387372,2010-09-23 21:55:59,1410.7199649062466,2,18,0.5501165986061096,3.877824306488037,17.066832034553357,16.869727323216924,68.01517758028108,61.60834632720498,3.237724376958795e-05,0.0897949114441871,0,0,0
5749,194916.00268448133,2010-09-23 21:56:29,1440.7352620055444,2,18,0.5501165986061096,3.879281282424927,17.071419348924476,16.869727323216924,68.03296984576357,61.60834632720498,3.237724376958795e-05,0.0897949114441871,0,0,0
5750,194946.01797984127,2010-09-23 21:56:59,1470.750557375526,2,18,0.5501165986061096,3.880414485931397,17.076005792011795,16.869727323216924,68.05076517532143,61.60834632720498,0.0,0.0897949114441871,0,0,0
5751,194976.0336170896,2010-09-23 21:57:29,1500.766194623888,2,18,0.5499359965324402,3.882033348083496,17.080592282772727,16.869727323216924,68.06856701035626,61.60834632720498,3.237724376958795e-05,0.0897949114441871,0,0,0
5752,195006.0486402451,2010-09-23 21:57:59,1530.781217789405,2,18,0.5499359965324402,3.883328437805176,17.08517885291189,16.869727323216924,68.08637515467488,61.60834632720498,3.237724376958795e-05,0.0897949114441871,0,0,0
5753,195036.06393971032,2010-09-23 21:58:29,1560.7965172445836,2,18,0.5501165986061096,3.8844616413116455,17.089765275587798,16.869727323216924,68.10418850220861,61.60834632720498,0.0,0.0897949114441871,0,0,0
5754,195066.07929369665,2010-09-23 21:58:59,1590.8118712308803,2,18,0.5501165986061096,3.885756731033325,17.09435182185354,16.869727323216924,68.12200779747097,61.60834632720498,3.237724376958795e-05,0.0897949114441871,0,0,0
5755,195096.0947275623,2010-09-23 21:59:29,1620.827305096568,2,18,0.5501165986061096,3.886889934539795,17.098938387397627,16.869727323216924,68.13983268739358,61.60834632720498,3.237724376958795e-05,0.0897949114441871,0,0,0
5756,195126.10994306795,2010-09-23 21:59:59,1650.842520587158,2,18,0.5499359965324402,3.8880231380462646,17.10352539497509,16.869727323216924,68.15766475422335,61.60834632720498,-3.237724376958795e-05,0.0897949114441871,0,0,0
5757,195156.12527393657,2010-09-23 22:00:29,1680.8578515509869,2,18,0.5504778623580933,3.8894801139831534,17.108112718400218,16.869727323216924,68.17550352881884,61.60834632720498,6.47544875391759e-05,0.0897949114441871,0,0,0
5758,195186.14058318612,2010-09-23 22:00:59,1710.8731607204136,2,18,0.5499359965324402,3.890289545059204,17.11270004587904,16.869727323216924,68.19334759074283,61.60834632720498,0.0,0.0897949114441871,0,0,0
5759,195216.15592967373,2010-09-23 22:01:29,1740.8885072079922,2,18,0.5501165986061096,3.891584634780884,17.117287404957754,16.869727323216924,68.21119721356685,61.60834632720498,3.237724376958795e-05,0.0897949114441871,0,0,0
5760,195246.1713487074,2010-09-23 22:01:59,1770.903926231632,2,18,0.550297200679779,3.892879724502564,17.121874827637832,16.869727323216924,68.22905254167962,61.60834632720498,3.237724376958795e-05,0.0897949114441871,0,0,0
5761,195276.1866939168,2010-09-23 22:02:29,1800.919271451045,2,18,0.5501165986061096,3.8938510417938232,17.1264622143514,16.869727323216924,68.24691311537157,61.60834632720498,3.237724376958795e-05,0.0897949114441871,0,0,0
5762,195306.20185976347,2010-09-23 22:02:59,1830.9344373027288,2,18,0.5501165986061096,3.894984245300293,17.131049570529953,16.869727323216924,68.26477881432777,61.60834632720498,0.0,0.0897949114441871,0,0,0
5763,195336.21720103305,2010-09-23 22:03:30,1860.9497785572448,2,18,0.5501165986061096,3.8962793350219727,17.13563692236567,16.869727323216924,68.2826495005767,61.60834632720498,3.237724376958795e-05,0.0897949114441871,0,0,0
5764,195366.23250522,2010-09-23 22:04:00,1890.96508275426,2,18,0.5501165986061096,3.8974125385284415,17.140224321481806,16.869727323216924,68.30052601582007,61.60834632720498,3.237724376958795e-05,0.0897949114441871,0,0,0
5765,195396.2478551913,2010-09-23 22:04:30,1920.9804327104964,2,18,0.5501165986061096,3.898707628250122,17.144811616453588,16.869727323216924,68.31840757110572,61.60834632720498,3.237724376958795e-05,0.0897949114441871,0,0,0
5766,195426.26316870653,2010-09-23 22:05:00,1950.9957462257712,2,18,0.550297200679779,3.9000027179718018,17.14939908256495,16.869727323216924,68.33629540615847,61.60834632720498,6.47544875391759e-05,0.0897949114441871,0,0,0
5767,195456.2785020513,2010-09-23 22:05:30,1981.0110795855808,2,18,0.5501165986061096,3.9009740352630615,17.153986483864344,16.869727323216924,68.35418848883758,61.60834632720498,0.0,0.0897949114441871,0,0,0
5768,195486.2938167897,2010-09-23 22:06:00,2011.0263943239088,2,18,0.5501165986061096,3.902269124984741,17.158573927904,16.869727323216924,68.37208742228366,61.60834632720498,3.237724376958795e-05,0.0897949114441871,0,0,0
5769,195516.3092673921,2010-09-23 22:06:30,2041.0418449163487,2,18,0.5501165986061096,3.903564214706421,17.16316146089288,16.869727323216924,68.3899923562537,61.60834632720498,3.237724376958795e-05,0.0897949114441871,0,0,0
5770,195546.3244806772,2010-09-23 22:07:00,2071.057058196421,2,18,0.550297200679779,3.9048593044281006,17.167748928926773,16.869727323216924,68.40790279060697,61.60834632720498,0.0,0.0897949114441871,0,0,0
5771,195576.33980699943,2010-09-23 22:07:30,2101.072384538714,2,18,0.5501165986061096,3.90583062171936,17.172336461010268,16.869727323216924,68.42581908682206,61.60834632720498,0.0,0.0897949114441871,0,0,0
5772,195606.35511943704,2010-09-23 22:08:00,2131.0876969712863,2,18,0.5501165986061096,3.90728759765625,17.176923954909306,16.869727323216924,68.44374112475916,61.60834632720498,3.237724376958795e-05,0.0897949114441871,0,0,0
5773,195636.37044562897,2010-09-23 22:08:30,2161.1030231632035,2,18,0.5499359965324402,3.9085826873779297,17.1815114634111,16.869727323216924,68.46166910891775,61.60834632720498,3.237724376958795e-05,0.0897949114441871,0,0,0
5774,195666.38578091355,2010-09-23 22:09:00,2191.1183584528303,2,18,0.550297200679779,3.9100396633148193,17.186098912189568,16.869727323216924,68.47960279180155,61.60834632720498,6.47544875391759e-05,0.0897949114441871,0,0,0
5775,195696.40125399712,2010-09-23 22:09:30,2221.1338316116,2,18,0.550297200679779,3.911334753036499,17.190686450208354,16.869727323216924,68.49754276347068,61.60834632720498,3.237724376958795e-05,0.0897949114441871,0,0,0
5776,195726.41643170343,2010-09-23 22:10:00,2251.149009227649,2,18,0.5501165986061096,3.9124679565429688,17.1952738821988,16.869727323216924,68.51548838769965,61.60834632720498,0.0,0.0897949114441871,0,0,0
5777,195756.43177368472,2010-09-23 22:10:30,2281.1643512190044,2,18,0.550297200679779,3.9139246940612793,17.19986134892908,16.869727323216924,68.5334402103477,61.60834632720498,6.470680091297254e-05,0.0897949114441871,0,0,0
5778,195786.4470857113,2010-09-23 22:11:00,2311.179663245563,2,18,0.550297200679779,3.915219783782959,17.20444886931991,16.869727323216924,68.55139846879385,61.60834632720498,3.237724376958795e-05,0.0897949114441871,0,0,0
5779,195816.46255220845,2010-09-23 22:11:30,2341.195129742704,2,18,0.5499359965324402,3.916514873504639,17.209036374884306,16.869727323216924,68.56936268646358,61.60834632720498,0.0,0.0897949114441871,0,0,0
5780,195846.4777600349,2010-09-23 22:12:00,2371.210337554125,2,18,0.550297200679779,3.9178099632263184,17.213623774085377,16.869727323216924,68.58733283525005,61.60834632720498,0.0,0.0897949114441871,0,0,0
5781,195876.49306282343,2010-09-23 22:12:30,2401.2256403426245,2,18,0.5504778623580933,3.919590711593628,17.218211238574053,16.869727323216924,68.60530951177313,61.60834632720498,6.47544875391759e-05,0.0897949114441871,0,0,0
5782,195906.50852422783,2010-09-23 22:13:00,2431.2411017620907,2,18,0.550297200679779,3.9207239151000977,17.22279872583961,16.869727323216924,68.62329271496029,61.60834632720498,3.237724376958795e-05,0.0897949114441871,0,0,0
5783,195936.52372876607,2010-09-23 22:13:30,2461.2563062853046,2,18,0.550297200679779,3.9221808910369873,17.227386186015867,16.869727323216924,68.6412821625453,61.60834632720498,3.237724376958795e-05,0.0897949114441871,0,0,0
5784,195966.5390760356,2010-09-23 22:14:00,2491.271653574885,2,18,0.550297200679779,3.923637866973877,17.231973627899112,16.869727323216924,68.65927804942122,61.60834632720498,6.47544875391759e-05,0.0897949114441871,0,0,0
5785,195996.5543801073,2010-09-23 22:14:30,2521.286957641574,2,18,0.550297200679779,3.925094842910767,17.2365610782181,16.869727323216924,68.67728053836906,61.60834632720498,6.47544875391759e-05,0.0897949114441871,0,0,0
5786,196026.5697122792,2010-09-23 22:15:00,2551.302289798381,2,18,0.550297200679779,3.926551818847656,17.241148565175752,16.869727323216924,68.69528972021124,61.60834632720498,9.713172767078504e-05,0.0897949114441871,0,0,0
5787,196056.58518463097,2010-09-23 22:15:30,2581.3177621501363,2,18,0.5504778623580933,3.927846908569336,17.24573598883719,16.869727323216924,68.71330529127894,61.60834632720498,0.0,0.0897949114441871,0,0,0
5788,196086.60037094867,2010-09-23 22:16:00,2611.3329484879564,2,18,0.5501165986061096,3.9293038845062256,17.250323395426197,16.869727323216924,68.73132747037941,61.60834632720498,0.0,0.0897949114441871,0,0,0
5789,196116.6156943236,2010-09-23 22:16:30,2641.34827185783,2,18,0.550297200679779,3.9307608604431152,17.254910870962153,16.869727323216924,68.7493567486408,61.60834632720498,3.237724376958795e-05,0.0897949114441871,0,0,0
5790,196146.6310213526,2010-09-23 22:17:00,2671.363598886837,2,18,0.5499359965324402,3.932379722595215,17.259498329301373,16.869727323216924,68.76739274928242,61.60834632720498,6.47544875391759e-05,0.0897949114441871,0,0,0
5791,196176.6464020355,2010-09-23 22:17:30,2701.3789795547345,2,18,0.550297200679779,3.9339985847473145,17.264085780228694,16.869727323216924,68.78543565216806,61.60834632720498,6.47544875391759e-05,0.0897949114441871,0,0,0
5792,196206.66182406165,2010-09-23 22:18:00,2731.3944015808693,2,18,0.550297200679779,3.935455560684204,17.268673308035535,16.869727323216924,68.80348581952072,61.60834632720498,6.47544875391759e-05,0.0897949114441871,0,0,0
5793,196236.67714544656,2010-09-23 22:18:30,2761.4097230760626,2,18,0.550297200679779,3.937074422836304,17.273260899541757,16.869727323216924,68.82154318991374,61.60834632720498,9.713172767078504e-05,0.0897949114441871,0,0,0
5794,196266.6923511477,2010-09-23 22:19:00,2791.424928777217,2,18,0.5499359965324402,3.938531398773194,17.27784834102105,16.869727323216924,68.83960709334931,61.60834632720498,9.713172767078504e-05,0.0897949114441871,0,0,0
5795,196296.70768290857,2010-09-23 22:19:30,2821.44026042776,2,18,0.5501165986061096,3.939988374710083,17.282435854097635,16.869727323216924,68.8576784305457,61.60834632720498,0.0,0.0897949114441871,0,0,0
5796,196326.7229935867,2010-09-23 22:20:00,2851.4555711209905,2,18,0.5501165986061096,3.941607236862183,17.287023351638773,16.869727323216924,68.87575693719897,61.60834632720498,3.237724376958795e-05,0.0897949114441871,0,0,0
5797,196356.7383180243,2010-09-23 22:20:30,2881.470895543492,2,18,0.5501165986061096,3.943226099014282,17.291610818744896,16.869727323216924,68.89384255981925,61.60834632720498,3.237724376958795e-05,0.0897949114441871,0,0,0
5798,196386.75368925865,2010-09-23 22:21:00,2911.48626687308,2,18,0.550297200679779,3.945006847381592,17.29619832271919,16.869727323216924,68.91193571109676,61.60834632720498,6.47544875391759e-05,0.0897949114441871,0,0,0
5799,196416.76937052183,2010-09-23 22:21:30,2941.5019481363097,2,18,0.5501165986061096,3.9464638233184814,17.300785924176743,16.869727323216924,68.930036684115,61.60834632720498,3.237724376958795e-05,0.0897949114441871,0,0,0
5800,196446.7844386396,2010-09-23 22:22:00,2971.517016158796,2,18,0.550297200679779,3.948082685470581,17.305373377561867,16.869727323216924,68.94814442718301,61.60834632720498,6.47544875391759e-05,0.0897949114441871,0,0,0
5801,196476.7996311428,2010-09-23 22:22:30,3001.532208677044,2,18,0.5501165986061096,3.9497015476226807,17.30996079434534,16.869727323216924,68.9662596081009,61.60834632720498,3.237724376958795e-05,0.0897949114441871,0,0,0
5802,196506.8149615452,2010-09-23 22:23:00,3031.547539084484,2,18,0.550297200679779,3.9516441822052,17.314548311792038,16.869727323216924,68.98438284453161,61.60834632720498,0.0001295089750783,0.0897949114441871,0,0,0
5803,196536.83030230348,2010-09-23 22:23:30,3061.562879842761,2,18,0.550297200679779,3.95293927192688,17.31913587223488,16.869727323216924,69.00251389717869,61.60834632720498,3.237724376958795e-05,0.0897949114441871,0,0,0
5804,196566.8456252473,2010-09-23 22:24:00,3091.5782027715336,2,18,0.550297200679779,3.9547200202941895,17.323723354242606,16.869727323216924,69.02065240788382,61.60834632720498,3.237724376958795e-05,0.0897949114441871,0,0,0
5805,196596.8609651033,2010-09-23 22:24:30,3121.5935426275587,2,18,0.550297200679779,3.956662654876709,17.32831091885743,16.869727323216924,69.0387990997811,61.60834632720498,9.713172767078504e-05,0.0897949114441871,0,0,0
5806,196626.87640141512,2010-09-23 22:25:00,3151.60897893434,2,18,0.5501165986061096,3.9579577445983887,17.33289845319331,16.869727323216924,69.05695344568683,61.60834632720498,0.0,0.0897949114441871,0,0,0
5807,196656.8918126493,2010-09-23 22:25:30,3181.624390168536,2,18,0.550297200679779,3.959900379180908,17.33748604268366,16.869727323216924,69.07511598353693,61.60834632720498,6.47544875391759e-05,0.0897949114441871,0,0,0
5808,196686.90706705203,2010-09-23 22:26:00,3211.639644591307,2,18,0.550297200679779,3.9616811275482178,17.342073564549203,16.869727323216924,69.09328634532365,61.60834632720498,6.47544875391759e-05,0.0897949114441871,0,0,0
5809,196716.92239012115,2010-09-23 22:26:30,3241.6549676403797,2,18,0.550297200679779,3.9634618759155273,17.346661146210202,16.869727323216924,69.11146506391748,61.60834632720498,6.47544875391759e-05,0.0897949114441871,0,0,0
5810,196746.9375922484,2010-09-23 22:27:00,3271.670169767612,2,18,0.550297200679779,3.965404510498047,17.351248651452952,16.869727323216924,69.12965168506834,61.60834632720498,6.47544875391759e-05,0.0897949114441871,0,0,0
5811,196776.9529380192,2010-09-23 22:27:30,3301.685515538401,2,18,0.550297200679779,3.967185258865357,17.355836251364572,16.869727323216924,69.14784702363016,61.60834632720498,6.47544875391759e-05,0.0897949114441871,0,0,0
5812,196806.96828501305,2010-09-23 22:28:00,3331.7008625372564,2,18,0.550297200679779,3.968966007232666,17.36042378817433,16.869727323216924,69.1660503734077,61.60834632720498,6.47544875391759e-05,0.0897949114441871,0,0,0
5813,196836.98358374136,2010-09-23 22:28:30,3361.7161612756454,2,18,0.5501165986061096,3.970746755599976,17.36501132460815,16.869727323216924,69.18426224272592,61.60834632720498,3.237724376958795e-05,0.0897949114441871,0,0,0
5814,196866.99906738632,2010-09-23 22:29:00,3391.731644905553,2,18,0.5504778623580933,3.972851276397705,17.369598865067385,16.869727323216924,69.2024827206609,61.60834632720498,6.47544875391759e-05,0.0897949114441871,0,0,0
5815,196897.0145515175,2010-09-23 22:29:30,3421.7471290517483,2,18,0.550297200679779,3.974632024765015,17.374186451395392,16.869727323216924,69.2207120062798,61.60834632720498,6.47544875391759e-05,0.0897949114441871,0,0,0
5816,196927.02957954013,2010-09-23 22:30:00,3451.762157064364,2,18,0.5501165986061096,3.976412773132324,17.378773985937713,16.869727323216924,69.23894990327844,61.60834632720498,6.47544875391759e-05,0.0897949114441871,0,0,0
5817,196957.0449198723,2010-09-23 22:30:30,3481.7774973965784,2,18,0.5501165986061096,3.978031635284424,17.383361551627853,16.869727323216924,69.25719644753434,61.60834632720498,3.237724376958795e-05,0.0897949114441871,0,0,0
5818,196987.0602282899,2010-09-23 22:31:00,3511.7928058141283,2,18,0.550297200679779,3.980459928512573,17.38794898488148,16.869727323216924,69.27545183452824,61.60834632720498,6.47544875391759e-05,0.0897949114441871,0,0,0
5819,197017.0755967323,2010-09-23 22:31:30,3541.808174261522,2,18,0.550297200679779,3.9824025630950928,17.392536435209315,16.869727323216924,69.29371643157158,61.60834632720498,6.47544875391759e-05,0.0897949114441871,0,0,0
5820,197047.0758450475,2010-09-23 22:32:00,3571.808422566715,2,18,0.550297200679779,3.9845070838928223,17.397121587451846,16.869727323216924,69.31198099697333,61.60834632720498,6.47544875391759e-05,0.0897949114441871,0,0,0
5821,197077.09072489527,2010-09-23 22:32:30,3601.8233024345386,2,18,0.550297200679779,3.986449718475342,17.401708957504177,16.869727323216924,69.33026372024524,61.60834632720498,3.237724376958795e-05,0.0897949114441871,0,0,0
5822,197107.1059212882,2010-09-23 22:33:00,3631.83849881242,2,18,0.5501165986061096,3.988392353057861,17.406296483368237,16.869727323216924,69.3485564680027,61.60834632720498,3.237724376958795e-05,0.0897949114441871,0,0,0
5823,197137.12125625703,2010-09-23 22:33:30,3661.853833801296,2,18,0.5501165986061096,3.990496873855591,17.41088395207856,16.869727323216924,69.36685841590658,61.60834632720498,3.237724376958795e-05,0.0897949114441871,0,0,0
5824,197167.1366094413,2010-09-23 22:34:00,3691.8691869805775,2,18,0.550297200679779,3.99292516708374,17.415471361683903,16.869727323216924,69.38516965751049,61.60834632720498,9.713172767078504e-05,0.0897949114441871,0,0,0
5825,197197.1519197135,2010-09-23 22:34:30,3721.8844972527577,2,18,0.550297200679779,3.9948675632476807,17.42005882084923,16.869727323216924,69.40349074284556,61.60834632720498,9.713172767078504e-05,0.0897949114441871,0,0,0
5826,197227.16725526372,2010-09-23 22:35:00,3751.899832798023,2,18,0.5501165986061096,3.9968101978302,17.424646269851383,16.869727323216924,69.421821553646,61.60834632720498,0.0,0.0897949114441871,0,0,0
5827,197257.18257579656,2010-09-23 22:35:30,3781.915153330815,2,18,0.550297200679779,3.99907660484314,17.42923368461021,16.869727323216924,69.44016199275376,61.60834632720498,9.713172767078504e-05,0.0897949114441871,0,0,0
5828,197287.1979134972,2010-09-23 22:36:01,3811.930491031459,2,18,0.550297200679779,4.001181125640869,17.433821136678173,16.869727323216924,69.45851244279994,61.60834632720498,6.47544875391759e-05,0.0897949114441871,0,0,0
5829,197317.213235624,2010-09-23 22:36:31,3841.9458131582296,2,18,0.5501165986061096,4.003285884857178,17.438408656488,16.869727323216924,69.47687319379727,61.60834632720498,0.0,0.0897949114441871,0,0,0
5830,197347.22856589608,2010-09-23 22:37:01,3871.961143430331,2,18,0.550297200679779,4.005552291870117,17.442996164415984,16.869727323216924,69.49524389386812,61.60834632720498,3.24249267578125e-05,0.0897949114441871,0,0,0
5831,197377.2439160829,2010-09-23 22:37:31,3901.976493602107,2,18,0.550297200679779,4.007818698883057,17.447583641266498,16.869727323216924,69.5136246044166,61.60834632720498,6.47544875391759e-05,0.0897949114441871,0,0,0
5832,197407.25925870083,2010-09-23 22:38:01,3931.991836315264,2,18,0.550297200679779,4.010085105895996,17.45217113573537,16.869727323216924,69.53201557440926,61.60834632720498,9.71794142969884e-05,0.0897949114441871,0,0,0
5833,197437.2745830481,2010-09-23 22:38:31,3962.0071605673393,2,18,0.550297200679779,4.012351512908936,17.45675866206413,16.869727323216924,69.55041690482197,61.60834632720498,6.47544875391759e-05,0.0897949114441871,0,0,0
5834,197467.29001341507,2010-09-23 22:39:01,3992.022590929281,2,18,0.550297200679779,4.014617919921875,17.461346198902955,16.869727323216924,69.56882863419413,61.60834632720498,6.47544875391759e-05,0.0897949114441871,0,0,0
5835,197497.3052140636,2010-09-23 22:39:31,4022.037791597873,2,18,0.5501165986061096,4.016884326934815,17.465933629732042,16.869727323216924,69.5872503434266,61.60834632720498,6.47544875391759e-05,0.0897949114441871,0,0,0
5836,197527.32057162383,2010-09-23 22:40:01,4052.053149163103,2,18,0.550297200679779,4.019150733947754,17.470521159743033,16.869727323216924,69.60568299401471,61.60834632720498,6.47544875391759e-05,0.0897949114441871,0,0,0
5837,197557.33588219172,2010-09-23 22:40:31,4082.0684597260088,2,18,0.5504778623580933,4.021578788757324,17.475108645524287,16.869727323216924,69.62412592021796,61.60834632720498,9.70840483205393e-05,0.0897949114441871,0,0,0
5838,197587.35124212288,2010-09-23 22:41:01,4112.083819657144,2,18,0.550297200679779,4.023845195770264,17.47969613043681,16.869727323216924,69.64257963223805,61.60834632720498,6.47544875391759e-05,0.0897949114441871,0,0,0
5839,197617.3665376683,2010-09-23 22:41:31,4142.099115202564,2,18,0.5501165986061096,4.026111602783203,17.484283551887152,16.869727323216924,69.66104380298813,61.60834632720498,6.47544875391759e-05,0.0897949114441871,0,0,0
5840,197647.382007584,2010-09-23 22:42:01,4172.114585108212,2,18,0.550297200679779,4.0287017822265625,17.488871117546477,16.869727323216924,69.67951946415208,61.60834632720498,9.70840483205393e-05,0.0897949114441871,0,0,0
5841,197677.3972009644,2010-09-23 22:42:31,4202.129778488612,2,18,0.5501165986061096,4.030968189239502,17.493458583310545,16.869727323216924,69.69800558774466,61.60834632720498,6.47544875391759e-05,0.0897949114441871,0,0,0
5842,197707.41266344648,2010-09-23 22:43:01,4232.145240980755,2,18,0.550297200679779,4.033396720886231,17.49804608400905,16.869727323216924,69.71650291095418,61.60834632720498,6.47544875391759e-05,0.0897949114441871,0,0,0
5843,197737.42787901228,2010-09-23 22:43:31,4262.160456551546,2,18,0.5501165986061096,4.035824775695801,17.502633507021976,16.869727323216924,69.73501109561768,61.60834632720498,6.47544875391759e-05,0.0897949114441871,0,0,0
5844,197767.44323221163,2010-09-23 22:44:01,4292.175809745866,2,18,0.5501165986061096,4.038252830505371,17.507221020404348,16.869727323216924,69.75353095503327,61.60834632720498,9.70840483205393e-05,0.0897949114441871,0,0,0
5845,197797.45854715543,2010-09-23 22:44:31,4322.191124689706,2,18,0.550297200679779,4.0408430099487305,17.51180852714019,16.869727323216924,69.77206210839742,61.60834632720498,9.70840483205393e-05,0.0897949114441871,0,0,0
5846,197827.4738582146,2010-09-23 22:45:01,4352.206435753862,2,18,0.5501165986061096,4.04310941696167,17.51639601551808,16.869727323216924,69.79060464766869,61.60834632720498,3.23295607813634e-05,0.0897949114441871,0,0,0
5847,197857.48931722305,2010-09-23 22:45:31,4382.221894762311,2,18,0.5499359965324402,4.045699596405029,17.52098355529106,16.869727323216924,69.80915897528044,61.60834632720498,3.23295607813634e-05,0.0897949114441871,0,0,0
5848,197887.5047312041,2010-09-23 22:46:01,4412.237308738351,2,18,0.5504778623580933,4.048451900482178,17.525571026567583,16.869727323216924,69.82772473671572,61.60834632720498,6.47544875391759e-05,0.0897949114441871,0,0,0
5849,197917.5198550058,2010-09-23 22:46:31,4442.252432540071,2,18,0.5501165986061096,4.051042079925537,17.53015846246625,16.869727323216924,69.84630215467295,61.60834632720498,0.0001295089750783,0.0897949114441871,0,0,0
5850,197947.5353144303,2010-09-23 22:47:01,4472.267892059796,2,18,0.550297200679779,4.0536322593688965,17.534745991702398,16.869727323216924,69.86489188763677,61.60834632720498,9.71794142969884e-05,0.0897949114441871,0,0,0
5851,197977.55052879307,2010-09-23 22:47:31,4502.283106427583,2,18,0.550297200679779,4.056222438812256,17.539333491705676,16.869727323216924,69.88349352389226,61.60834632720498,6.47544875391759e-05,0.0897949114441871,0,0,0
5852,198007.56600189672,2010-09-23 22:48:01,4532.298579420939,2,18,0.550297200679779,4.058812618255615,17.543921039902013,16.869727323216924,69.90210748307855,61.60834632720498,9.71794142969884e-05,0.0897949114441871,0,0,0
5853,198037.58130638444,2010-09-23 22:48:31,4562.31388390868,2,18,0.550297200679779,4.0615644454956055,17.548508579168132,16.869727323216924,69.92073346515899,61.60834632720498,0.0001295089750783,0.0897949114441871,0,0,0
5854,198067.59650968463,2010-09-23 22:49:01,4592.329087218865,2,18,0.550297200679779,4.064154624938965,17.553096113671334,16.869727323216924,69.93937170000396,61.60834632720498,6.47544875391759e-05,0.0897949114441871,0,0,0
5855,198097.61210558977,2010-09-23 22:49:31,4622.344683108991,2,18,0.550297200679779,4.067068576812744,17.55768369199477,16.869727323216924,69.95802262475596,61.60834632720498,9.70840483205393e-05,0.0897949114441871,0,0,0
5856,198127.62719098065,2010-09-23 22:50:01,4652.359768499832,2,18,0.550297200679779,4.069820880889893,17.5622711270989,16.869727323216924,69.9766855288135,61.60834632720498,9.71794142969884e-05,0.0897949114441871,0,0,0
5857,198157.642529769,2010-09-23 22:50:31,4682.375107288192,2,18,0.5501165986061096,4.072411060333252,17.56685866056758,16.869727323216924,69.99536154524493,61.60834632720498,9.71794142969884e-05,0.0897949114441871,0,0,0
5858,198187.6579827424,2010-09-23 22:51:01,4712.3905602766135,2,18,0.550297200679779,4.075162887573242,17.5714461612192,16.869727323216924,70.01405029770918,61.60834632720498,6.47544875391759e-05,0.0897949114441871,0,0,0
5859,198217.6582753782,2010-09-23 22:51:31,4742.390853007701,2,18,0.550297200679779,4.0780768394470215,17.57603140729239,16.869727323216924,70.03274283543132,61.60834632720498,6.47544875391759e-05,0.0897949114441871,0,0,0
5860,198247.67290551763,2010-09-23 22:52:01,4772.405483147164,2,18,0.5501165986061096,4.080990791320801,17.580618775728468,16.869727323216924,70.0514571175302,61.60834632720498,6.47544875391759e-05,0.0897949114441871,0,0,0
5861,198277.68834647103,2010-09-23 22:52:31,4802.420924105556,2,18,0.5501165986061096,4.083743095397949,17.585206291537517,16.869727323216924,70.07018508330738,61.60834632720498,3.24249267578125e-05,0.0897949114441871,0,0,0
5862,198307.7035603476,2010-09-23 22:53:01,4832.436137881867,2,18,0.550297200679779,4.0866570472717285,17.58979375341812,16.869727323216924,70.08892619994818,61.60834632720498,6.47544875391759e-05,0.0897949114441871,0,0,0
5863,198337.7188982688,2010-09-23 22:53:31,4862.451475903313,2,18,0.5504778623580933,4.089732646942139,17.594381252169743,16.869727323216924,70.10768085989713,61.60834632720498,9.70840483205393e-05,0.0897949114441871,0,0,0
5864,198367.73437522707,2010-09-23 22:54:01,4892.466952746278,2,18,0.550297200679779,4.092484951019287,17.598968819209446,16.869727323216924,70.12644934933279,61.60834632720498,6.47544875391759e-05,0.0897949114441871,0,0,0
5865,198397.75002688132,2010-09-23 22:54:31,4922.482604596088,2,18,0.550297200679779,4.095722675323486,17.60355637828443,16.869727323216924,70.1452315057015,61.60834632720498,9.71794142969884e-05,0.0897949114441871,0,0,0
5866,198427.76487288467,2010-09-23 22:55:01,4952.497450403893,2,18,0.550297200679779,4.0987982749938965,17.608143859597536,16.869727323216924,70.16402721300544,61.60834632720498,9.70840483205393e-05,0.0897949114441871,0,0,0
5867,198457.7803336024,2010-09-23 22:55:31,4982.512911121607,2,18,0.550297200679779,4.101712226867676,17.61273141768459,16.869727323216924,70.18283720419701,61.60834632720498,9.70840483205393e-05,0.0897949114441871,0,0,0
5868,198487.79553553413,2010-09-23 22:56:01,5012.528113058365,2,18,0.550297200679779,4.104626178741455,17.61731891804837,16.869727323216924,70.20166090745252,61.60834632720498,6.47544875391759e-05,0.0897949114441871,0,0,0
5869,198517.8108832197,2010-09-23 22:56:31,5042.543460743934,2,18,0.550297200679779,4.107863903045654,17.621906464275487,16.869727323216924,70.2204990044775,61.60834632720498,9.70840483205393e-05,0.0897949114441871,0,0,0
5870,198547.82634123063,2010-09-23 22:57:01,5072.55891876993,2,18,0.5501165986061096,4.110939979553223,17.62649400971466,16.869727323216924,70.23935134862931,61.60834632720498,6.47544875391759e-05,0.0897949114441871,0,0,0
5871,198577.84155776384,2010-09-23 22:57:31,5102.574135303122,2,18,0.550297200679779,4.114177703857422,17.631081444535955,16.869727323216924,70.2582175793729,61.60834632720498,9.71794142969884e-05,0.0897949114441871,0,0,0
5872,198607.8568698305,2010-09-23 22:58:01,5132.589447349731,2,18,0.550297200679779,4.117577075958252,17.63566886208963,16.869727323216924,70.27709830258033,61.60834632720498,0.0001295089750783,0.0897949114441871,0,0,0
5873,198637.87234515467,2010-09-23 22:58:31,5162.604922774156,2,18,0.5501165986061096,4.120491027832031,17.640256415382698,16.869727323216924,70.29599425882505,61.60834632720498,6.47544875391759e-05,0.0897949114441871,0,0,0
5874,198667.8875394424,2010-09-23 22:59:01,5192.620116976606,2,18,0.5501165986061096,4.123890399932861,17.644843909775265,16.869727323216924,70.31490474376811,61.60834632720498,9.70840483205393e-05,0.0897949114441871,0,0,0
5875,198697.90287240112,2010-09-23 22:59:31,5222.635449935416,2,18,0.5501165986061096,4.12696647644043,17.649431474991477,16.869727323216924,70.33383042158583,61.60834632720498,6.47544875391759e-05,0.0897949114441871,0,0,0
5876,198727.9182281569,2010-09-23 23:00:01,5252.650805676091,2,18,0.550297200679779,4.13036584854126,17.654019061215234,16.869727323216924,70.35277122381264,61.60834632720498,9.70840483205393e-05,0.0897949114441871,0,0,0
5877,198757.93363363168,2010-09-23 23:00:31,5282.666211246149,2,18,0.5501165986061096,4.133765697479248,17.65860659151786,16.869727323216924,70.37172693172579,61.60834632720498,9.71794142969884e-05,0.0897949114441871,0,0,0
5878,198787.9488969567,2010-09-23 23:01:01,5312.681474475903,2,18,0.550297200679779,4.137165069580078,17.66319411188752,16.869727323216924,70.39069789447109,61.60834632720498,0.0001295089750783,0.0897949114441871,0,0,0
5879,198817.96420425645,2010-09-23 23:01:31,5342.696781790701,2,18,0.550297200679779,4.140402793884277,17.667781684079486,16.869727323216924,70.40968447544824,61.60834632720498,9.70840483205393e-05,0.0897949114441871,0,0,0
5880,198847.97955724524,2010-09-23 23:02:01,5372.712134779507,2,18,0.550297200679779,4.143640518188477,17.672369341018673,16.869727323216924,70.42868689874129,61.60834632720498,9.70840483205393e-05,0.0897949114441871,0,0,0
5881,198877.995051622,2010-09-23 23:02:31,5402.727629141202,2,18,0.5501165986061096,4.147202014923096,17.676956886497212,16.869727323216924,70.44770477718649,61.60834632720498,6.47544875391759e-05,0.0897949114441871,0,0,0
5882,198908.010208787,2010-09-23 23:03:01,5432.742786316228,2,18,0.550297200679779,4.150601863861084,17.68154440955278,16.869727323216924,70.46673838845494,61.60834632720498,6.47544875391759e-05,0.0897949114441871,0,0,0
5883,198938.02555739487,2010-09-23 23:03:31,5462.758134919087,2,18,0.5501165986061096,4.154163360595703,17.686131949700687,16.869727323216924,70.48578791820373,61.60834632720498,6.47544875391759e-05,0.0897949114441871,0,0,0
5884,198968.04086969208,2010-09-23 23:04:01,5492.773447216321,2,18,0.5501165986061096,4.157562732696533,17.690719444257308,16.869727323216924,70.50485322640931,61.60834632720498,6.47544875391759e-05,0.0897949114441871,0,0,0
5885,198998.05623151796,2010-09-23 23:04:31,5522.788809057223,2,18,0.550297200679779,4.161286354064941,17.69530693938161,16.869727323216924,70.52393463889521,61.60834632720498,6.47544875391759e-05,0.0897949114441871,0,0,0
5886,199028.07154548937,2010-09-23 23:05:01,5552.804123028637,2,18,0.5501165986061096,4.1648478507995605,17.699894460337454,16.869727323216924,70.54303235834104,61.60834632720498,0.0001295089750783,0.0897949114441871,0,0,0
5887,199058.08686871387,2010-09-23 23:05:31,5582.819446248134,2,18,0.5501165986061096,4.168247222900391,17.704481878246707,16.869727323216924,70.5621459074706,61.60834632720498,9.70840483205393e-05,0.0897949114441871,0,0,0
5888,199088.10220878545,2010-09-23 23:06:01,5612.8347863146855,2,18,0.550297200679779,4.17180871963501,17.709069440108053,16.869727323216924,70.58127659147014,61.60834632720498,9.70840483205393e-05,0.0897949114441871,0,0,0
5889,199118.11757385943,2010-09-23 23:06:31,5642.850151398684,2,18,0.5501165986061096,4.175532341003418,17.713656935223693,16.869727323216924,70.60042359279296,61.60834632720498,0.0001295089750783,0.0897949114441871,0,0,0
5890,199148.13291751992,2010-09-23 23:07:01,5672.865495139406,2,18,0.5501165986061096,4.179093837738037,17.71824444157602,16.869727323216924,70.61958737387295,61.60834632720498,6.47544875391759e-05,0.0897949114441871,0,0,0
5891,199178.1482139225,2010-09-23 23:07:31,5702.880791456752,2,18,0.5501165986061096,4.182816982269287,17.722831918047998,16.869727323216924,70.63876790591304,61.60834632720498,9.70840483205393e-05,0.0897949114441871,0,0,0
5892,199208.16356128725,2010-09-23 23:08:01,5732.896138811495,2,18,0.5501165986061096,4.186540603637695,17.727419397637757,16.869727323216924,70.6579653553457,61.60834632720498,9.71794142969884e-05,0.0897949114441871,0,0,0
5893,199238.17888422604,2010-09-23 23:08:32,5762.9114617653295,2,18,0.5501165986061096,4.190263748168945,17.732006893601227,16.869727323216924,70.67718002992886,61.60834632720498,6.47544875391759e-05,0.0897949114441871,0,0,0
5894,199268.19424928492,2010-09-23 23:09:02,5792.926826819252,2,18,0.550297200679779,4.194311141967773,17.73659433320135,16.869727323216924,70.69641168856006,61.60834632720498,0.0001295089750783,0.0897949114441871,0,0,0
5895,199298.20955049456,2010-09-23 23:09:32,5822.94212802881,2,18,0.550297200679779,4.198034286499023,17.741181827690244,16.869727323216924,70.71566092565963,61.60834632720498,0.0001295089750783,0.0897949114441871,0,0,0
5896,199314.14692311356,2010-09-23 23:09:47,5838.879500632733,2,18,0.550297200679779,4.200138568878174,17.743617651458603,16.869727323216924,70.72588880357677,61.60834632720498,0.0001295089750783,0.0897949114441871,0,0,0
5897,199344.15739063916,2010-09-23 23:10:18,30.015449108736806,3,18,0.0,4.120976448059082,17.743617651458603,16.869727323216924,70.72588880357677,61.60834632720498,-0.0003237724304199,0.0897949114441871,0,0,0
5898,199374.17259481148,2010-09-23 23:10:48,60.03065328107468,3,18,0.0,4.1111016273498535,17.743617651458603,16.869727323216924,70.72588880357677,61.60834632720498,-0.0002266883820993,0.0897949114441871,0,0,0
5899,199404.188058657,2010-09-23 23:11:18,90.04611711155925,3,18,0.0,4.105435848236084,17.743617651458603,16.869727323216924,70.72588880357677,61.60834632720498,-0.0001295089750783,0.0897949114441871,0,0,0
5900,199434.1565212451,2010-09-23 23:11:48,120.01457971976204,3,18,0.0,4.101712226867676,17.743617651458603,16.869727323216924,70.72588880357677,61.60834632720498,-6.47544875391759e-05,0.0897949114441871,0,0,0
5901,199434.1683824799,2010-09-23 23:11:48,0.015774450455175,4,18,0.9953184723854064,4.199814796447754,17.743622012736964,16.869727323216924,70.72590712013816,61.60834632720498,0.0,0.0897949114441871,0,0,0
5902,199435.12133510128,2010-09-23 23:11:49,0.968727051756114,4,18,0.9451091289520264,4.199491024017334,17.743877377869804,16.869727323216924,70.72697956445057,61.60834632720498,-6.47544875391759e-05,0.0897949114441871,0,0,0
5903,199437.1995656996,2010-09-23 23:11:51,3.04695765506977,4,18,0.8948997259140015,4.199653148651123,17.744407378190026,16.869727323216924,70.72920539896576,61.60834632720498,-3.23295607813634e-05,0.0897949114441871,0,0,0
5904,199440.3088100518,2010-09-23 23:11:54,6.156202002305756,4,18,0.8446903228759766,4.199653148651123,17.745157558058583,16.869727323216924,70.73235589586078,61.60834632720498,0.0,0.0897949114441871,0,0,0
5905,199444.5275083518,2010-09-23 23:11:58,10.374900317330567,4,18,0.7946615815162659,4.199491024017334,17.746117077128137,16.869727323216924,70.73638556983933,61.60834632720498,-6.47544875391759e-05,0.0897949114441871,0,0,0
5906,199449.99619220803,2010-09-23 23:12:04,15.843584158534188,4,18,0.7446327805519104,4.199814796447754,17.747284893181032,16.869727323216924,70.74129002361677,61.60834632720498,0.0,0.0897949114441871,0,0,0
5907,199457.0742538689,2010-09-23 23:12:11,22.921645834409738,4,18,0.6944234371185303,4.199653148651123,17.748697606788024,16.869727323216924,70.74722299266455,61.60834632720498,3.24249267578125e-05,0.0897949114441871,0,0,0
5908,199466.41791741052,2010-09-23 23:12:20,32.26530936607146,4,18,0.6442140340805054,4.199491024017334,17.75043194458554,16.869727323216924,70.75450668682862,61.60834632720498,-3.24249267578125e-05,0.0897949114441871,0,0,0
5909,199479.3396785042,2010-09-23 23:12:33,45.18707045972447,4,18,0.5941852927207947,4.199491024017334,17.752649642214283,16.869727323216924,70.76382032843028,61.60834632720498,-3.24249267578125e-05,0.0897949114441871,0,0,0
5910,199498.41760985093,2010-09-23 23:12:52,64.2650018014197,4,18,0.5441564917564392,4.199653148651123,17.755656794395165,16.869727323216924,70.77644947541424,61.60834632720498,0.0,0.0897949114441871,0,0,0
5911,199529.44863131948,2010-09-23 23:13:23,95.29602338028386,4,18,0.4941277503967285,4.199653148651123,17.760114439888554,16.869727323216924,70.79517024812435,61.60834632720498,0.0,0.0897949114441871,0,0,0
5912,199583.8855255524,2010-09-23 23:14:17,149.73291750292074,4,18,0.4440989792346954,4.199491024017334,17.767177124377447,16.869727323216924,70.82483137580257,61.60834632720498,-3.24249267578125e-05,0.0897949114441871,0,0,0
5913,199668.11921801284,2010-09-23 23:15:42,233.9666099783691,4,18,0.3940702080726623,4.199653148651123,17.77695399964699,16.869727323216924,70.86589130060165,61.60834632720498,0.0,0.0897949114441871,0,0,0
5914,199777.28992965457,2010-09-23 23:17:31,343.137321610096,4,18,0.3440414369106293,4.199491024017334,17.78812899051331,16.869727323216924,70.91282289990372,61.60834632720498,0.0,0.0897949114441871,0,0,0
5915,199909.554259009,2010-09-23 23:19:43,475.401650974548,4,18,0.2940126657485962,4.199653148651123,17.799828944419907,16.869727323216924,70.96195911256842,61.60834632720498,0.0,0.0897949114441871,0,0,0
5916,200068.0527586535,2010-09-23 23:22:22,633.9001506040076,4,18,0.2439838945865631,4.199653148651123,17.811647386998096,16.869727323216924,71.01159300455484,61.60834632720498,-3.23295607813634e-05,0.0897949114441871,0,0,0
5917,200267.95707901163,2010-09-23 23:25:42,833.8044709721574,4,18,0.19395512342453,4.199491024017334,17.823765568144587,16.869727323216924,71.06248566692646,61.60834632720498,-3.24249267578125e-05,0.0897949114441871,0,0,0
5918,200533.4232416144,2010-09-23 23:30:07,1099.2706335799746,4,18,0.1437457352876663,4.199491024017334,17.836133098391915,16.869727323216924,71.11442554455654,61.60834632720498,-3.24249267578125e-05,0.0897949114441871,0,0,0
5919,200928.56022324087,2010-09-23 23:36:42,1494.407615186369,4,18,0.0937169715762138,4.199653148651123,17.848975973860956,16.869727323216924,71.16836168487659,61.60834632720498,0.0,0.0897949114441871,0,0,0
5920,201564.21023597496,2010-09-23 23:47:18,2130.057628035751,4,18,0.0498289167881011,4.199653148651123,17.861229820839945,16.869727323216924,71.21982387923475,61.60834632720498,0.0,0.0897949114441871,0,0,0
5921,201594.22666619672,2010-09-23 23:47:48,30.01534926451026,5,18,0.0,4.192368507385254,17.861229820839945,16.869727323216924,71.21982387923475,61.60834632720498,-3.23295607813634e-05,0.0897949114441871,0,0,0
5922,201624.226370905,2010-09-23 23:48:18,60.01505397280134,5,18,0.0,4.191397190093994,17.861229820839945,16.869727323216924,71.21982387923475,61.60834632720498,-3.23295607813634e-05,0.0897949114441871,0,0,0
5923,201624.41532023577,2010-09-23 23:48:18,0.187298425685654,6,18,-1.9243103452026844e-05,4.191235065460205,17.861229820839945,16.86972732421809,71.21982387923475,61.60834633140112,0.0,0.0899572893977165,0,0,0
5924,201629.2432800111,2010-09-23 23:48:23,5.015258271223169,6,18,0.0008838032954372,4.191235065460205,17.861230915644352,16.86972732430106,71.21982846795527,61.60834633174886,-3.24249267578125e-05,0.0899572893977165,0,0,0
5925,201659.2602560001,2010-09-23 23:48:53,30.015306076706857,7,18,-1.0997490882873535,4.027245044708252,17.861230915644352,16.878895567612595,71.21982846795527,61.645456928208255,-0.0009065627818927,0.0899572893977165,0,0,0
5926,201689.2757358656,2010-09-23 23:49:23,60.03078593720479,7,18,-1.0997490882873535,4.002314567565918,17.861230915644352,16.888063931358587,71.21982846795527,61.68225804774142,-0.0005503654247149,0.0899572893977165,0,0,0
5927,201719.2909368049,2010-09-23 23:49:53,90.04598687647243,7,18,-1.099568486213684,3.985154628753662,17.861230915644352,16.897232158807522,71.21982846795527,61.71886982059992,-0.0003885269106831,0.0899572893977165,0,0,0
5928,201749.3062703602,2010-09-23 23:50:23,120.06132043177008,7,18,-1.099568486213684,3.9717180728912354,17.861230915644352,16.90640034113334,71.21982846795527,61.75534283588242,-0.0003561496851034,0.0899572893977165,0,0,0
5929,201779.32165452183,2010-09-23 23:50:53,150.0767045683263,7,18,-1.0993878841400146,3.960386037826538,17.861230915644352,16.915568528007555,71.21982846795527,61.79170308752812,-0.0002913951757363,0.0899572893977165,0,0,0
5930,201809.33699655827,2010-09-23 23:51:23,180.09204662985684,7,18,-1.0993878841400146,3.950187206268311,17.861230915644352,16.924736708750284,71.21982846795527,61.82796458912063,-0.0002590179501567,0.0899572893977165,0,0,0
5931,201839.35230739185,2010-09-23 23:51:53,210.1073574684501,7,18,-1.0997490882873535,3.940635919570923,17.861230915644352,16.933904826887023,71.21982846795527,61.86413569794879,-0.0001942634553415,0.0899572893977165,0,0,0
5932,201869.3676255788,2010-09-23 23:52:23,240.12267566039847,7,18,-1.099568486213684,3.931570291519165,17.861230915644352,16.943072938422286,71.21982846795527,61.90022196842022,-0.0002590179501567,0.0899572893977165,0,0,0
5933,201899.3829753646,2010-09-23 23:52:53,270.13802544119744,7,18,-1.0997490882873535,3.922828435897827,17.861230915644352,16.95224109834911,71.21982846795527,61.936227490215884,-0.0002266406954731,0.0899572893977165,0,0,0
5934,201929.398631846,2010-09-23 23:53:23,300.15368192256824,7,18,-1.0997490882873535,3.914410352706909,17.861230915644352,16.96140940797691,71.21982846795527,61.972155043355954,-0.0002266406954731,0.0899572893977165,0,0,0
5935,201959.41377413884,2010-09-23 23:53:53,330.1688242755956,7,18,-1.099568486213684,3.90615439414978,17.861230915644352,16.970577551516673,71.21982846795527,62.00800526057147,-0.0002266406954731,0.0899572893977165,0,0,0
5936,201989.4291141703,2010-09-23 23:54:23,360.1841642218461,7,18,-1.0997490882873535,3.898060083389282,17.861230915644352,16.979745728396704,71.21982846795527,62.043780767019065,-0.0002266406954731,0.0899572893977165,0,0,0
5937,202019.4443275857,2010-09-23 23:54:53,390.1993776573062,7,18,-1.099568486213684,3.890289545059204,17.861230915644352,16.988913818413252,71.21982846795527,62.079483019024494,-0.0001942634553415,0.0899572893977165,0,0,0
5938,202049.4599055812,2010-09-23 23:55:23,420.21495576303926,7,18,-1.099568486213684,3.882519006729126,17.861230915644352,16.998082068107067,71.21982846795527,62.11511414261904,-0.0001942634553415,0.0899572893977165,0,0,0
5939,202079.47501008472,2010-09-23 23:55:53,450.23006016132587,7,18,-1.0993878841400146,3.874910354614258,17.861230915644352,17.00725016498416,71.21982846795527,62.15067359408754,-0.0001618862152099,0.0899572893977165,0,0,0
5940,202109.4903620259,2010-09-23 23:56:23,480.245412097505,7,18,-1.099568486213684,3.86713981628418,17.861230915644352,17.016418377502173,71.21982846795527,62.18616339581871,-0.0002266406954731,0.0899572893977165,0,0,0
5941,202139.50568999728,2010-09-23 23:56:53,510.26074006886427,7,18,-1.0993878841400146,3.859854936599731,17.861230915644352,17.02558664457987,71.21982846795527,62.2215844067743,-0.0001618862152099,0.0899572893977165,0,0,0
5942,202169.5210395124,2010-09-23 23:57:23,540.276089594025,7,18,-1.099568486213684,3.8522462844848633,17.861230915644352,17.03475487420909,71.21982846795527,62.25693735321002,-0.0002266406954731,0.0899572893977165,0,0,0
5943,202199.5363678046,2010-09-23 23:57:53,570.2914178761602,7,18,-1.0997490882873535,3.845123291015625,17.861230915644352,17.043923099804346,71.21982846795527,62.29222331294715,-0.0001942634553415,0.0899572893977165,0,0,0
5944,202229.55171353527,2010-09-23 23:58:23,600.3067636068494,7,18,-1.099568486213684,3.8378384113311768,17.861230915644352,17.053091359342897,71.21982846795527,62.327442979500034,-0.0002266406954731,0.0899572893977165,0,0,0
5945,202259.56706191256,2010-09-23 23:58:53,630.3221119891575,7,18,-1.099568486213684,3.8307156562805176,17.861230915644352,17.062259665901724,71.21982846795527,62.3625977451369,-0.0002266406954731,0.0899572893977165,0,0,0
5946,202289.58252779816,2010-09-23 23:59:24,660.3375778547219,7,18,-1.099568486213684,3.823916435241699,17.861230915644352,17.071427925973172,71.21982846795527,62.397688486527336,-0.0001942634553415,0.0899572893977165,0,0,0
5947,202319.59772243173,2010-09-23 23:59:54,690.352772483237,7,18,-1.099568486213684,3.817117214202881,17.861230915644352,17.080596084434823,71.21982846795527,62.43271575322067,-0.0001942634553415,0.0899572893977165,0,0,0
5948,202349.61305992183,2010-09-24 00:00:24,720.368109978369,7,18,-1.099568486213684,3.810479879379273,17.861230915644352,17.089764283245405,71.21982846795527,62.46768105588095,-0.0001942634553415,0.0899572893977165,0,0,0
5949,202379.6285282736,2010-09-24 00:00:54,750.383578335152,7,18,-1.0997490882873535,3.803680658340454,17.861230915644352,17.098932502091017,71.21982846795527,62.502585153711216,-0.0001942634553415,0.0899572893977165,0,0,0
5950,202409.6437624308,2010-09-24 00:01:24,780.3988124873241,7,18,-1.099568486213684,3.7973670959472656,17.861230915644352,17.10810065965159,71.21982846795527,62.53742916475957,-0.0001618862152099,0.0899572893977165,0,0,0
5951,202439.6592106723,2010-09-24 00:01:54,810.4142607339088,7,18,-1.099568486213684,3.791053533554077,17.861230915644352,17.117268964566453,71.21982846795527,62.57221492802192,-0.0001618862152099,0.0899572893977165,0,0,0
5952,202469.6744448897,2010-09-24 00:02:24,840.4294949612687,7,18,-1.099568486213684,3.784901857376098,17.861230915644352,17.126437156647732,71.21982846795527,62.60694313196602,-0.0001295089750783,0.0899572893977165,0,0,0
5953,202499.68976866052,2010-09-24 00:02:54,870.4448187321428,7,18,-1.0997490882873535,3.77875018119812,17.861230915644352,17.135605383043576,71.21982846795527,62.64161534884025,-0.0001295089750783,0.0899572893977165,0,0,0
5954,202529.7051277997,2010-09-24 00:03:24,900.4601778713018,7,18,-1.099568486213684,3.7729222774505615,17.861230915644352,17.144773621896363,71.21982846795527,62.676232430490174,-9.713172767078504e-05,0.0899572893977165,0,0,0
5955,202559.7204714402,2010-09-24 00:03:54,930.475521496736,7,18,-1.0997490882873535,3.766932487487793,17.861230915644352,17.15394182534393,71.21982846795527,62.71079525360438,-0.0001942634553415,0.0899572893977165,0,0,0
5956,202589.73578520108,2010-09-24 00:04:24,960.4908352726616,7,18,-1.0997490882873535,3.7611045837402335,17.861230915644352,17.163110102101328,71.21982846795527,62.74530534823223,-0.0002266406954731,0.0899572893977165,0,0,0
5957,202619.7511373177,2010-09-24 00:04:54,990.5061873892912,7,18,-1.099568486213684,3.755600452423096,17.861230915644352,17.1722783240178,71.21982846795527,62.77976326576439,-0.0001618862152099,0.0899572893977165,0,0,0
5958,202649.76669150876,2010-09-24 00:05:24,1020.5217415753168,7,18,-1.099568486213684,3.749934673309326,17.861230915644352,17.18144665872407,71.21982846795527,62.81417046224854,-0.0001942634553415,0.0899572893977165,0,0,0
5959,202679.7818335109,2010-09-24 00:05:54,1050.536883587493,7,18,-1.0993878841400146,3.744754314422608,17.861230915644352,17.190614901068567,71.21982846795527,62.84852697741894,-0.0001295089750783,0.0899572893977165,0,0,0
5960,202709.79714577305,2010-09-24 00:06:24,1080.5521958496402,7,18,-1.099568486213684,3.7392501831054688,17.861230915644352,17.199783195191316,71.21982846795527,62.882834432607225,-0.0001618862152099,0.0899572893977165,0,0,0
5961,202739.8124882957,2010-09-24 00:06:54,1110.5675383673092,7,18,-1.0997490882873535,3.73406982421875,17.861230915644352,17.20895143848738,71.21982846795527,62.917093280929926,-0.0001295089750783,0.0899572893977165,0,0,0
5962,202769.82785511907,2010-09-24 00:07:24,1140.5829051906487,7,18,-1.099568486213684,3.729051351547241,17.861230915644352,17.218119736979606,71.21982846795527,62.95130446846356,-9.713172767078504e-05,0.0899572893977165,0,0,0
5963,202799.84319688487,2010-09-24 00:07:54,1170.5982469614537,7,18,-1.099568486213684,3.7238709926605225,17.861230915644352,17.227287946316867,71.21982846795527,62.98546918780541,-0.0001295089750783,0.0899572893977165,0,0,0
5964,202829.85851092645,2010-09-24 00:08:24,1200.6135609980297,7,18,-1.0993878841400146,3.719014406204224,17.861230915644352,17.236456185389425,71.21982846795527,63.019587898960026,-0.0001295089750783,0.0899572893977165,0,0,0
5965,202859.8739773584,2010-09-24 00:08:54,1230.629027430008,7,18,-1.0997490882873535,3.713834047317505,17.861230915644352,17.245624545148637,71.21982846795527,63.05366176872346,-0.0001618862152099,0.0899572893977165,0,0,0
5966,202889.88940718403,2010-09-24 00:09:24,1260.6444572606235,7,18,-1.0997490882873535,3.709139347076416,17.861230915644352,17.254792878325535,71.21982846795527,63.087690977622366,-0.0001618862152099,0.0899572893977165,0,0,0
5967,202919.9045626348,2010-09-24 00:09:54,1290.6596126963072,7,18,-1.0997490882873535,3.704444646835327,17.861230915644352,17.26396108907564,71.21982846795527,63.12167602704558,-0.0001295089750783,0.0899572893977165,0,0,0
5968,202949.91987614,2010-09-24 00:10:24,1320.6749261865195,7,18,-1.0997490882873535,3.6997499465942383,17.861230915644352,17.273129400672428,71.21982846795527,63.155618092137125,-0.0001295089750783,0.0899572893977165,0,0,0
5969,202979.9352139008,2010-09-24 00:10:54,1350.6902639723771,7,18,-1.0997490882873535,3.695055246353149,17.861230915644352,17.282297657692215,71.21982846795527,63.18951719184554,-0.0001295089750783,0.0899572893977165,0,0,0
5970,203009.95061085932,2010-09-24 00:11:24,1380.7056610261768,7,18,-1.099568486213684,3.6905224323272714,17.861230915644352,17.291465941797913,71.21982846795527,63.22337445999285,-0.0001618862152099,0.0899572893977165,0,0,0
5971,203039.9659034925,2010-09-24 00:11:54,1410.7209535741138,7,18,-1.099568486213684,3.685989618301392,17.861230915644352,17.300634228879805,71.21982846795527,63.25718991978773,-0.0001295089750783,0.0899572893977165,0,0,0
5972,203069.981235118,2010-09-24 00:12:24,1440.7362851995945,7,18,-1.099568486213684,3.681618690490722,17.861230915644352,17.309802502286352,71.21982846795527,63.29096461142965,-9.713172767078504e-05,0.0899572893977165,0,0,0
5973,203099.99673314884,2010-09-24 00:12:54,1470.7517832154108,7,18,-1.0997490882873535,3.677409648895264,17.861230915644352,17.318970873790633,71.21982846795527,63.32469942135746,-0.0001295089750783,0.0899572893977165,0,0,0
5974,203130.0119313312,2010-09-24 00:13:24,1500.7669814028093,7,18,-1.0997490882873535,3.6728768348693848,17.861230915644352,17.328139109376973,71.21982846795527,63.35839430405643,-0.0001618862152099,0.0899572893977165,0,0,0
5975,203160.0273914525,2010-09-24 00:13:54,1530.782441524035,7,18,-1.0997490882873535,3.668991804122925,17.861230915644352,17.337307401003816,71.21982846795527,63.39205058552278,-6.47544875391759e-05,0.0899572893977165,0,0,0
5976,203190.04262276756,2010-09-24 00:14:24,1560.7976728491503,7,18,-1.0997490882873535,3.664782762527466,17.861230915644352,17.346475740809282,71.21982846795527,63.42566901081263,-9.713172767078504e-05,0.0899572893977165,0,0,0
5977,203220.0579683228,2010-09-24 00:14:54,1590.8130184896145,7,18,-1.099568486213684,3.660735607147217,17.861230915644352,17.355644075875837,71.21982846795527,63.45924982624822,-6.47544875391759e-05,0.0899572893977165,0,0,0
5978,203250.07330804848,2010-09-24 00:15:24,1620.8283581200767,7,18,-1.0993878841400146,3.6568503379821777,17.861230915644352,17.364812393665744,71.21982846795527,63.492793459553376,-9.713172767078504e-05,0.0899572893977165,0,0,0
5979,203280.0886367918,2010-09-24 00:15:54,1650.8436868633628,7,18,-1.099568486213684,3.6528031826019287,17.861230915644352,17.373980681250767,71.21982846795527,63.52630105840243,-9.713172767078504e-05,0.0899572893977165,0,0,0
5980,203310.10401827173,2010-09-24 00:16:24,1680.859068423488,7,18,-1.099568486213684,3.6489179134368896,17.861230915644352,17.383149029147066,71.21982846795527,63.55977346624229,-9.713172767078504e-05,0.0899572893977165,0,0,0
5981,203340.1193141981,2010-09-24 00:16:54,1710.8743642796828,7,18,-1.0997490882873535,3.645194530487061,17.861230915644352,17.392317265037807,71.21982846795527,63.593210251318375,-9.713172767078504e-05,0.0899572893977165,0,0,0
5982,203370.13503324063,2010-09-24 00:17:24,1740.890083392391,7,18,-1.099568486213684,3.641471147537232,17.861230915644352,17.401485616866296,71.21982846795527,63.62661329566767,-9.713172767078504e-05,0.0899572893977165,0,0,0
5983,203400.15013810503,2010-09-24 00:17:54,1770.905188176641,7,18,-1.099568486213684,3.6380715370178223,17.861230915644352,17.410653816502286,71.21982846795527,63.65998261196666,-6.47544875391759e-05,0.0899572893977165,0,0,0
5984,203430.16534265835,2010-09-24 00:18:24,1800.9203927349422,7,18,-1.099568486213684,3.634510040283203,17.861230915644352,17.419822103854063,71.21982846795527,63.69331974676562,-3.237724376958795e-05,0.0899572893977165,0,0,0
5985,203460.18068772732,2010-09-24 00:18:54,1830.935737798968,7,18,-1.0997490882873535,3.630786657333374,17.861230915644352,17.428990392479502,71.21982846795527,63.72662526386037,-0.0001618862152099,0.0899572893977165,0,0,0
5986,203490.19603776885,2010-09-24 00:19:24,1860.951087840417,7,18,-1.0997490882873535,3.6277108192443848,17.861230915644352,17.43815864585428,71.21982846795527,63.75989961143965,-6.47544875391759e-05,0.0899572893977165,0,0,0
5987,203520.2114039356,2010-09-24 00:19:54,1890.9664540071176,7,18,-1.0997490882873535,3.624311208724976,17.861230915644352,17.447326919427475,71.21982846795527,63.79314366227307,-9.713172767078504e-05,0.0899572893977165,0,0,0
5988,203550.2267084985,2010-09-24 00:20:24,1920.981758570046,7,18,-1.0997490882873535,3.6212353706359854,17.861230915644352,17.456495168536257,71.21982846795527,63.82635820130787,-9.713172767078504e-05,0.0899572893977165,0,0,0
5989,203580.2420498883,2010-09-24 00:20:54,1950.9970999599,7,18,-1.099568486213684,3.618159532546997,17.861230915644352,17.465663409833443,71.21982846795527,63.85954367667117,-6.47544875391759e-05,0.0899572893977165,0,0,0
5990,203610.25753867108,2010-09-24 00:21:24,1981.012588742669,7,18,-1.0997490882873535,3.614921808242798,17.861230915644352,17.474831717577914,71.21982846795527,63.89270105942192,-9.713172767078504e-05,0.0899572893977165,0,0,0
5991,203640.27282826163,2010-09-24 00:21:54,2011.0278783382369,7,18,-1.0997490882873535,3.6118459701538086,17.861230915644352,17.484000031992462,71.21982846795527,63.92583079604213,-9.713172767078504e-05,0.0899572893977165,0,0,0
5992,203670.2882088694,2010-09-24 00:22:24,2041.043258945984,7,18,-1.0997490882873535,3.608932018280029,17.861230915644352,17.493169198064404,71.21982846795527,63.95893592701161,-6.47544875391759e-05,0.0899572893977165,0,0,0
5993,203700.303403142,2010-09-24 00:22:54,2071.0584532135986,7,18,-1.099568486213684,3.60617995262146,17.861230915644352,17.502338159648296,71.21982846795527,63.99201337495566,-6.47544875391759e-05,0.0899572893977165,0,0,0
5994,203730.3188171732,2010-09-24 00:23:24,2101.0738672447765,7,18,-1.0997490882873535,3.603104114532471,17.861230915644352,17.51150644822794,71.21982846795527,64.0250620833794,-9.713172767078504e-05,0.0899572893977165,0,0,0
5995,203760.3341444779,2010-09-24 00:23:54,2131.089194549472,7,18,-1.099568486213684,3.6003520488739014,17.861230915644352,17.520674742441365,71.21982846795527,64.05808447678875,-0.0001295089750783,0.0899572893977165,0,0,0
5996,203790.3494983088,2010-09-24 00:24:24,2161.104548370355,7,18,-1.099929690361023,3.597438097000122,17.861230915644352,17.529843065325988,71.21982846795527,64.09108084281216,-9.713172767078504e-05,0.0899572893977165,0,0,0
5997,203820.3649854224,2010-09-24 00:24:54,2191.1200354789453,7,18,-1.0997490882873535,3.5946860313415527,17.861230915644352,17.53901137786452,71.21982846795527,64.1240511558212,-9.713172767078504e-05,0.0899572893977165,0,0,0
5998,203850.38040487716,2010-09-24 00:25:24,2221.135454953712,7,18,-1.099568486213684,3.5919342041015625,17.861230915644352,17.548179738671433,71.21982846795527,64.1569956719671,-6.470680091297254e-05,0.0899572893977165,0,0,0
5999,203880.39551801723,2010-09-24 00:25:54,2251.1505680888063,7,18,-1.099568486213684,3.589020252227783,17.861230915644352,17.55734795837795,71.21982846795527,64.18991370016916,-3.237724376958795e-05,0.0899572893977165,0,0,0
6000,203910.4108299636,2010-09-24 00:26:24,2281.16588002514,7,18,-1.0997490882873535,3.586268186569214,17.861230915644352,17.566516120852466,71.21982846795527,64.22280544682074,-6.47544875391759e-05,0.0899572893977165,0,0,0
6001,203940.42619423056,2010-09-24 00:26:54,2311.181244302123,7,18,-1.0993878841400146,3.5833542346954346,17.861230915644352,17.575684349808007,71.21982846795527,64.25567097094674,-6.47544875391759e-05,0.0899572893977165,0,0,0
6002,203970.44157122428,2010-09-24 00:27:24,2341.19662129585,7,18,-1.0997490882873535,3.5804402828216557,17.861230915644352,17.584852708932516,71.21982846795527,64.28851064698732,-9.713172767078504e-05,0.0899572893977165,0,0,0
6003,204000.45688697515,2010-09-24 00:27:54,2371.211937051717,7,18,-1.099568486213684,3.577526330947876,17.861230915644352,17.594021040326286,71.21982846795527,64.32132332981789,-3.237724376958795e-05,0.0899572893977165,0,0,0
6004,204030.47221760312,2010-09-24 00:28:24,2401.2272676646703,7,18,-1.0997490882873535,3.5742886066436768,17.861230915644352,17.603189375328427,71.21982846795527,64.35410879903391,-9.713172767078504e-05,0.0899572893977165,0,0,0
6005,204060.48761120328,2010-09-24 00:28:54,2431.2426612748745,7,18,-1.099568486213684,3.5715365409851074,17.861230915644352,17.612357668462977,71.21982846795527,64.38686665339104,-6.47544875391759e-05,0.0899572893977165,0,0,0
6006,204090.50299757544,2010-09-24 00:29:24,2461.258047837486,7,18,-1.099568486213684,3.568298816680908,17.861230915644352,17.621526021818934,71.21982846795527,64.41959633289108,-9.713172767078504e-05,0.0899572893977165,0,0,0
6007,204120.5183012662,2010-09-24 00:29:54,2491.2733513377625,7,18,-1.099929690361023,3.564899206161499,17.861230915644352,17.63069442116547,71.21982846795527,64.45229738844813,-9.713172767078504e-05,0.0899572893977165,0,0,0
6008,204150.53380233963,2010-09-24 00:30:24,2521.2888523961733,7,18,-1.0997490882873535,3.5616614818573,17.861230915644352,17.639862729632412,71.21982846795527,64.48496849052654,-0.0001295089750783,0.0899572893977165,0,0,0
6009,204180.5489830133,2010-09-24 00:30:54,2551.3040330848926,7,18,-1.099568486213684,3.5584237575531006,17.861230915644352,17.64903100337393,71.21982846795527,64.51760945318502,-9.713172767078504e-05,0.0899572893977165,0,0,0
6010,204210.56433878408,2010-09-24 00:31:25,2581.319388860656,7,18,-1.099568486213684,3.5550241470336914,17.861230915644352,17.658199401742092,71.21982846795527,64.55021926309072,-6.47544875391759e-05,0.0899572893977165,0,0,0
6011,204240.57964244476,2010-09-24 00:31:55,2611.3346925062947,7,18,-1.099929690361023,3.5513007640838623,17.861230915644352,17.667367798410332,71.21982846795527,64.58279625656519,-9.713172767078504e-05,0.0899572893977165,0,0,0
6012,204270.59497860656,2010-09-24 00:32:25,2641.3500286630856,7,18,-1.0997490882873535,3.5474154949188232,17.861230915644352,17.67653621220158,71.21982846795527,64.61533937291583,-0.0001618862152099,0.0899572893977165,0,0,0
6013,204300.610377114,2010-09-24 00:32:55,2671.365427185552,7,18,-1.0997490882873535,3.543692111968994,17.861230915644352,17.685704632077993,71.21982846795527,64.6478476438636,-0.0001295089750783,0.0899572893977165,0,0,0
6014,204330.6257253409,2010-09-24 00:33:25,2701.380775402447,7,18,-1.0997490882873535,3.539644956588745,17.861230915644352,17.69487304515544,71.21982846795527,64.68031954517875,-9.713172767078504e-05,0.0899572893977165,0,0,0
6015,204360.64107875075,2010-09-24 00:33:55,2731.396128827342,7,18,-1.0997490882873535,3.535435914993286,17.861230915644352,17.70404148642222,71.21982846795527,64.71275362848723,-6.47544875391759e-05,0.0899572893977165,0,0,0
6016,204390.65653633565,2010-09-24 00:34:25,2761.411586397199,7,18,-1.0993878841400146,3.531064987182617,17.861230915644352,17.713209908077854,71.21982846795527,64.74514802569394,-0.0001295089750783,0.0899572893977165,0,0,0
6017,204420.6717429992,2010-09-24 00:34:55,2791.426793075793,7,18,-1.099568486213684,3.5265321731567383,17.861230915644352,17.722378260972924,71.21982846795527,64.77750086510251,-9.713172767078504e-05,0.0899572893977165,0,0,0
6018,204450.68722433332,2010-09-24 00:35:25,2821.4422743899195,7,18,-1.099568486213684,3.521513700485229,17.861230915644352,17.73154673658082,71.21982846795527,64.8098103970251,-0.0001295089750783,0.0899572893977165,0,0,0
6019,204480.70243558337,2010-09-24 00:35:55,2851.4574856449367,7,18,-1.0997490882873535,3.5163333415985107,17.861230915644352,17.740715100300854,71.21982846795527,64.84207316440074,-9.713172767078504e-05,0.0899572893977165,0,0,0
6020,204510.71777667748,2010-09-24 00:36:25,2881.4728267490777,7,18,-1.099568486213684,3.510667562484741,17.861230915644352,17.749883495955963,71.21982846795527,64.8742859233033,-0.0001618862152099,0.0899572893977165,0,0,0
6021,204540.7330926188,2010-09-24 00:36:55,2911.488142690408,7,18,-1.0997490882873535,3.5043540000915527,17.861230915644352,17.75905198723646,71.21982846795527,64.90644472630187,-0.0001942634553415,0.0899572893977165,0,0,0
6022,204570.74858022365,2010-09-24 00:37:25,2941.50363030025,7,18,-1.0997490882873535,3.4975547790527344,17.861230915644352,17.768220569978283,71.21982846795527,64.93854426147082,-0.0001942634553415,0.0899572893977165,0,0,0
6023,204600.7639056788,2010-09-24 00:37:55,2971.518955750315,7,18,-1.099568486213684,3.490108013153076,17.861230915644352,17.77738910728634,71.21982846795527,64.9705777579403,-0.0001942634553415,0.0899572893977165,0,0,0
6024,204630.7791670188,2010-09-24 00:38:25,3001.534217095365,7,18,-1.0997490882873535,3.481528043746948,17.861230915644352,17.78655755365059,71.21982846795527,65.00253731666963,-0.0001942634553415,0.0899572893977165,0,0,0
6025,204660.7945079174,2010-09-24 00:38:55,3031.549557978955,7,18,-1.0997490882873535,3.4714910984039307,17.861230915644352,17.795725991919376,71.21982846795527,65.03441150430777,-0.0002590179501567,0.0899572893977165,0,0,0
6026,204690.8098659187,2010-09-24 00:39:25,3061.564915995312,7,18,-1.0997490882873535,3.4596734046936035,17.861230915644352,17.804894455745213,71.21982846795527,65.06618741017262,-0.0003561496851034,0.0899572893977165,0,0,0
6027,204720.82520999527,2010-09-24 00:39:55,3091.580260071872,7,18,-1.099568486213684,3.445589303970337,17.861230915644352,17.8140628988293,71.21982846795527,65.09784500682842,-0.0004209041653666,0.0899572893977165,0,0,0
6028,204750.84063259783,2010-09-24 00:40:25,3121.5956826694323,7,18,-1.099568486213684,3.4272964000701904,17.861230915644352,17.823231409279593,71.21982846795527,65.12935513650781,-0.0005504131549969,0.0899572893977165,0,0,0
6029,204780.85607866905,2010-09-24 00:40:55,3151.611128820787,7,18,-1.099929690361023,3.4023659229278564,17.861230915644352,17.83239994717787,71.21982846795527,65.16067067321735,-0.0008094310760498,0.0899572893977165,0,0,0
6030,204810.87143876555,2010-09-24 00:41:25,3181.6264888421483,7,18,-1.099568486213684,3.367398500442505,17.861230915644352,17.84156843646402,71.21982846795527,65.1917152366561,-0.0011008263099938,0.0899572893977165,0,0,0
6031,204840.8867147271,2010-09-24 00:41:55,3211.641764783633,7,18,-1.099568486213684,3.3164045810699463,17.861230915644352,17.850736922242227,71.21982846795527,65.2223695753604,-0.0015864849556237,0.0899572893977165,0,0,0
6032,204870.9019258267,2010-09-24 00:42:25,3241.6569759033127,7,18,-1.0997490882873535,3.242422819137573,17.861230915644352,17.859905366275242,71.21982846795527,65.25245810394097,-0.0023311614058911,0.0899572893977165,0,0,0
6033,204900.9172597229,2010-09-24 00:42:55,3271.672309794448,7,18,-1.099568486213684,3.1308834552764893,17.861230915644352,17.869073856832177,71.21982846795527,65.28171484490754,-0.0036262511275708,0.0899572893977165,0,0,0
6034,204929.4640046801,2010-09-24 00:43:23,3300.219054736631,7,18,-1.099568486213684,2.930630922317505,17.861230915644352,17.87779377493302,71.21982846795527,65.30827801499285,-0.0085799219086766,0.0899572893977165,0,0,0
6035,204942.229374477,2010-09-24 00:43:36,3312.984424548585,7,18,-1.0997490882873535,2.7303781509399414,17.861230915644352,17.88169305898527,71.21982846795527,65.31934381936941,-0.0143106933683156,0.0899572893977165,0,0,0
6036,204943.91686967967,2010-09-24 00:43:38,3314.671919736188,7,18,-1.099568486213684,2.699943780899048,17.861230915644352,17.882208520601683,71.21982846795527,65.32074344813621,-0.0143754482269287,0.0899572893977165,0,0,0
6037,205003.9343151002,2010-09-24 00:44:38,60.0158152029489,8,18,0.0,3.3434395790100098,17.861230915644352,17.882208520601683,71.21982846795527,65.32074344813621,0.0014893531333655,0.0899572893977165,0,0,0
6038,205004.12330731133,2010-09-24 00:44:38,0.187627341710655,9,18,-1.9243103452026844e-05,3.3437633514404297,17.861230915644352,17.882208521604607,71.21982846795527,65.32074345148975,0.0,0.0859829038381576,0,0,0
6039,205008.9512639639,2010-09-24 00:44:43,5.015583994278025,9,18,0.0008838032954372,3.3525049686431885,17.86123192258937,17.88220852168769,71.219831839853,65.32074345176757,0.0013274193042889,0.0859829038381576,0,0,0
