Data_Point,Test_Time(s),Date_Time,Step_Time(s),Step_Index,Cycle_Index,Current(A),Voltage(V),Charge_Capacity(Ah),Discharge_Capacity(Ah),Charge_Energy(Wh),Discharge_Energy(Wh),dV/dt(V/s),Internal_Resistance(Ohm),Is_FC_Data,AC_Impedance(Ohm),ACI_Phase_Angle(Deg)
10947,420342.02491881966,2011-01-08 07:24:30,30.01513581387458,1,44,0.0,3.581735372543335,32.779232074728064,33.51820070762617,132.41855360784763,120.12602301145778,0.0006799221155233,0.1026456877589225,0,0,0
10948,420372.0400900719,2011-01-08 07:25:00,60.030307071084856,1,44,0.0,3.6032660007476807,32.779232074728064,33.51820070762617,132.41855360784763,120.12602301145778,0.0004856586456298,0.1026456877589225,0,0,0
10949,420402.05747987336,2011-01-08 07:25:30,90.04769693775255,1,44,0.0,3.618645191192627,32.779232074728064,33.51820070762617,132.41855360784763,120.12602301145778,0.0003561496851034,0.1026456877589225,0,0,0
10950,420432.0234738406,2011-01-08 07:26:00,120.01369082983744,1,44,0.0,3.630462884902954,32.779232074728064,33.51820070762617,132.41855360784763,120.12602301145778,0.0002913951757363,0.1026456877589225,0,0,0
10951,420462.0383170178,2011-01-08 07:26:30,30.01528675005398,2,44,0.5499359965324402,3.756733655929565,32.78381782959004,33.51820070762617,132.43568270933392,120.12602301145778,0.0008741378551349,0.1026456877589225,0,0,0
10952,420492.0532528332,2011-01-08 07:27:01,60.03022255544588,2,44,0.5501165986061096,3.782149791717529,32.78840350032484,33.51820070762617,132.4529731070634,120.12602301145778,0.0005827903514727,0.1026456877589225,0,0,0
10953,420522.068457193,2011-01-08 07:27:31,90.04542693520776,2,44,0.5501165986061096,3.7973670959472656,32.79299007649335,33.51820070762617,132.47035762625805,120.12602301145778,0.0003237724304199,0.1026456877589225,0,0,0
10954,420552.0835884203,2011-01-08 07:28:01,120.0605581325766,2,44,0.5499359965324402,3.807727813720703,32.79757670664629,33.51820070762617,132.4877994810233,120.12602301145778,0.0002266406954731,0.1026456877589225,0,0,0
10955,420582.0987378632,2011-01-08 07:28:31,150.0757076004812,2,44,0.5499359965324402,3.815984010696411,32.802163328544765,33.51820070762617,132.5052835980637,120.12602301145778,0.0001618862152099,0.1026456877589225,0,0,0
10956,420612.1138901531,2011-01-08 07:29:01,180.09085986535672,2,44,0.5499359965324402,3.8232688903808594,32.80674992292379,33.51820070762617,132.52280352202055,120.12602301145778,0.0001618862152099,0.1026456877589225,0,0,0
10957,420642.129137134,2011-01-08 07:29:31,210.10610685631883,2,44,0.550297200679779,3.8303918838500977,32.8113364301088,33.51820070762617,132.54035546064523,120.12602301145778,0.0001942634553415,0.1026456877589225,0,0,0
10958,420672.1441482873,2011-01-08 07:30:01,240.1211179994756,2,44,0.5501165986061096,3.836543321609497,32.81592296581077,33.51820070762617,132.5579375576389,120.12602301145778,0.0001295089750783,0.1026456877589225,0,0,0
10959,420702.1594530271,2011-01-08 07:30:31,270.13642276944074,2,44,0.5501165986061096,3.8425331115722656,32.820509505657164,33.51820070762617,132.57554771875698,120.12602301145778,0.0001618862152099,0.1026456877589225,0,0,0
10960,420732.1744420852,2011-01-08 07:31:01,300.15141182254234,2,44,0.5501165986061096,3.848037242889404,32.82509609979809,33.51820070762617,132.5931844638144,120.12602301145778,0.0001295089750783,0.1026456877589225,0,0,0
10961,420762.1896940436,2011-01-08 07:31:31,330.1666637658472,2,44,0.5501165986061096,3.853541374206543,32.829682652695155,33.51820070762617,132.6108462941731,120.12602301145778,0.0001618862152099,0.1026456877589225,0,0,0
10962,420792.20471093606,2011-01-08 07:32:01,360.18168065833305,2,44,0.5501165986061096,3.858559846878052,32.83426913743829,33.51820070762617,132.62853187711187,120.12602301145778,9.713172767078504e-05,0.1026456877589225,0,0,0
10963,420822.2199346089,2011-01-08 07:32:31,390.1969043261667,2,44,0.5501165986061096,3.863578319549561,32.83885572035808,33.51820070762617,132.64624104073067,120.12602301145778,0.0001618862152099,0.1026456877589225,0,0,0
10964,420852.2350144683,2011-01-08 07:33:01,420.2119841956106,2,44,0.5499359965324402,3.8682730197906494,32.84344223441748,33.51820070762617,132.66397222742052,120.12602301145778,9.713172767078504e-05,0.1026456877589225,0,0,0
10965,420882.2501270944,2011-01-08 07:33:31,450.2270968317191,2,44,0.550297200679779,3.8729677200317374,32.84802870291094,33.51820070762617,132.68172499282878,120.12602301145778,0.0001295089750783,0.1026456877589225,0,0,0
10966,420912.2652882615,2011-01-08 07:34:01,480.2422579987815,2,44,0.5501165986061096,3.877500534057617,32.85261523124084,33.51820070762617,132.69949904693152,120.12602301145778,9.713172767078504e-05,0.1026456877589225,0,0,0
10967,420942.2805508362,2011-01-08 07:34:31,510.2575205635584,2,44,0.5499359965324402,3.881871461868286,32.85720166699084,33.51820070762617,132.71729329934143,120.12602301145778,0.0001295089750783,0.1026456877589225,0,0,0
10968,420972.2978577412,2011-01-08 07:35:01,540.2748275887598,2,44,0.5501165986061096,3.886404275894165,32.86178846316732,33.51820070762617,132.73510892294664,120.12602301145778,0.0001618862152099,0.1026456877589225,0,0,0
10969,421002.31067778345,2011-01-08 07:35:31,570.287647500694,2,44,0.5501165986061096,3.890289545059204,32.86637456003652,33.51820070762617,132.75294117978032,120.12602301145778,9.713172767078504e-05,0.1026456877589225,0,0,0
10970,421032.3259515161,2011-01-08 07:36:01,600.302921248342,2,44,0.5501165986061096,3.894336700439453,32.87096113789142,33.51820070762617,132.7707941759988,120.12602301145778,6.47544875391759e-05,0.1026456877589225,0,0,0
10971,421062.34095781215,2011-01-08 07:36:31,630.3179275293809,2,44,0.5501165986061096,3.898221969604492,32.87554826796749,33.51820070762617,132.788667154539,120.12602301145778,9.713172767078504e-05,0.1026456877589225,0,0,0
10972,421092.3561260417,2011-01-08 07:37:01,660.3330957590456,2,44,0.5501165986061096,3.901945352554321,32.88013561800106,33.51820070762617,132.80655850240407,120.12602301145778,9.713172767078504e-05,0.1026456877589225,0,0,0
10973,421122.3712878304,2011-01-08 07:37:31,690.3482575827447,2,44,0.5501165986061096,3.905506849288941,32.88472240047416,33.51820070762617,132.8244642688932,120.12602301145778,6.47544875391759e-05,0.1026456877589225,0,0,0
10974,421152.38641267695,2011-01-08 07:38:01,720.3633824794102,2,44,0.5499359965324402,3.9089064598083496,32.88930889644368,33.51820070762617,132.8423847235013,120.12602301145778,9.713172767078504e-05,0.1026456877589225,0,0,0
10975,421182.4015424257,2011-01-08 07:38:31,750.3785121680187,2,44,0.5501165986061096,3.912144184112549,32.89389539153739,33.51820070762617,132.86032038532596,120.12602301145778,6.47544875391759e-05,0.1026456877589225,0,0,0
10976,421212.4166888811,2011-01-08 07:39:01,780.3936585933403,2,44,0.5501165986061096,3.915219783782959,32.89848192288844,33.51820070762617,132.87827067842656,120.12602301145778,9.713172767078504e-05,0.1026456877589225,0,0,0
10977,421242.4318156674,2011-01-08 07:39:31,810.4087853847282,2,44,0.5499359965324402,3.917971849441528,32.903068439107926,33.51820070762617,132.89623463616047,120.12602301145778,6.47544875391759e-05,0.1026456877589225,0,0,0
10978,421272.446957371,2011-01-08 07:40:01,840.4239270932941,2,44,0.5499359965324402,3.920885801315308,32.907654946995216,33.51820070762617,132.9142117555656,120.12602301145778,6.47544875391759e-05,0.1026456877589225,0,0,0
10979,421302.4620999869,2011-01-08 07:40:31,870.4390697041088,2,44,0.5501165986061096,3.923799753189087,32.91224138244819,33.51820070762617,132.93220118086114,120.12602301145778,9.713172767078504e-05,0.1026456877589225,0,0,0
10980,421332.4772665724,2011-01-08 07:41:01,900.4542362946884,2,44,0.5499359965324402,3.9260661602020255,32.916827956646735,33.51820070762617,132.95020332572906,120.12602301145778,3.237724376958795e-05,0.1026456877589225,0,0,0
10981,421362.4925007765,2011-01-08 07:41:31,930.4694705088066,2,44,0.5501165986061096,3.9286563396453857,32.921414500824234,33.51820070762617,132.9682170530509,120.12602301145778,6.47544875391759e-05,0.1026456877589225,0,0,0
10982,421392.50764280086,2011-01-08 07:42:01,960.4846125281472,2,44,0.550297200679779,3.931246519088745,32.92600102850025,33.51820070762617,132.986242126895,120.12602301145778,6.47544875391759e-05,0.1026456877589225,0,0,0
10983,421422.5226562648,2011-01-08 07:42:31,990.4996259820632,2,44,0.5501165986061096,3.9336748123168954,32.930587557295226,33.51820070762617,133.00427837598374,120.12602301145778,3.237724376958795e-05,0.1026456877589225,0,0,0
10984,421452.5378344392,2011-01-08 07:43:01,1020.5148041715506,2,44,0.5501165986061096,3.936103105545044,32.935174187220795,33.51820070762617,133.0223260606895,120.12602301145778,9.713172767078504e-05,0.1026456877589225,0,0,0
10985,421482.5531959356,2011-01-08 07:43:31,1050.5301656779204,2,44,0.5501165986061096,3.938369512557984,32.93976070391085,33.51820070762617,133.04038393964402,120.12602301145778,9.713172767078504e-05,0.1026456877589225,0,0,0
10986,421512.5680701876,2011-01-08 07:44:01,1080.545039899827,2,44,0.5501165986061096,3.940797805786133,32.94434720372757,33.51820070762617,133.05845249646444,120.12602301145778,0.0001295089750783,0.1026456877589225,0,0,0
10987,421542.58323867794,2011-01-08 07:44:31,1110.560208420217,2,44,0.5499359965324402,3.9429023265838623,32.94893370488854,33.51820070762617,133.0765316011533,120.12602301145778,3.237724376958795e-05,0.1026456877589225,0,0,0
10988,421572.5983619656,2011-01-08 07:45:01,1140.5753316828093,2,44,0.5499359965324402,3.945330619812012,32.95352023541707,33.51820070762617,133.09462127018662,120.12602301145778,9.713172767078504e-05,0.1026456877589225,0,0,0
10989,421602.6137765392,2011-01-08 07:45:31,1170.5907463015517,2,44,0.550297200679779,3.947435140609741,32.95810684761353,33.51820070762617,133.11272158046128,120.12602301145778,6.47544875391759e-05,0.1026456877589225,0,0,0
10990,421632.6286300896,2011-01-08 07:46:01,1200.6055998018137,2,44,0.5501165986061096,3.9497015476226807,32.96269328153727,33.51820070762617,133.13083137727494,120.12602301145778,6.47544875391759e-05,0.1026456877589225,0,0,0
10991,421662.6438588551,2011-01-08 07:46:31,1230.6208285974274,2,44,0.5499359965324402,3.95180606842041,32.967279761500905,33.51820070762617,133.14895159847745,120.12602301145778,3.237724376958795e-05,0.1026456877589225,0,0,0
10992,421692.65890264965,2011-01-08 07:47:01,1260.6358723618866,2,44,0.5501165986061096,3.9540724754333496,32.97186624837309,33.51820070762617,133.1670819080877,120.12602301145778,6.47544875391759e-05,0.1026456877589225,0,0,0
10993,421722.6741938508,2011-01-08 07:47:31,1290.6511635981217,2,44,0.5501165986061096,3.956176996231079,32.97645275314257,33.51820070762617,133.18522237609005,120.12602301145778,3.237724376958795e-05,0.1026456877589225,0,0,0
10994,421752.6893584464,2011-01-08 07:48:01,1320.666328203754,2,44,0.550297200679779,3.9584434032440186,32.98103925020245,33.51820070762617,133.20337269238482,120.12602301145778,6.47544875391759e-05,0.1026456877589225,0,0,0
10995,421782.7043471336,2011-01-08 07:48:31,1350.6813168458311,2,44,0.5501165986061096,3.960547924041748,32.985625676134354,33.51820070762617,133.22153268254843,120.12602301145778,6.47544875391759e-05,0.1026456877589225,0,0,0
10996,421812.7196562443,2011-01-08 07:49:01,1380.69662596664,2,44,0.550297200679779,3.962814331054688,32.99021217353248,33.51820070762617,133.2397028778828,120.12602301145778,6.47544875391759e-05,0.1026456877589225,0,0,0
10997,421842.73465030495,2011-01-08 07:49:31,1410.7116200222092,2,44,0.550297200679779,3.964918851852417,32.99479864635733,33.51820070762617,133.25788279978417,120.12602301145778,6.47544875391759e-05,0.1026456877589225,0,0,0
10998,421872.749773773,2011-01-08 07:50:01,1440.7267434903144,2,44,0.5501165986061096,3.9670233726501465,32.99938521648482,33.51820070762617,133.27607293887667,120.12602301145778,3.237724376958795e-05,0.1026456877589225,0,0,0
10999,421902.76490827865,2011-01-08 07:50:31,1470.7418780009407,2,44,0.550297200679779,3.969289779663086,33.00397172973679,33.51820070762617,133.29427243940887,120.12602301145778,9.713172767078504e-05,0.1026456877589225,0,0,0
11000,421932.78007914487,2011-01-08 07:51:01,1500.7570488671768,2,44,0.5499359965324402,3.9712324142456055,33.00855827375242,33.51820070762617,133.31248180779426,120.12602301145778,9.713172767078504e-05,0.1026456877589225,0,0,0
11001,421962.79520241247,2011-01-08 07:51:31,1530.7721721247572,2,44,0.5501165986061096,3.973336935043335,33.013144867362705,33.51820070762617,133.3307010310022,120.12602301145778,6.47544875391759e-05,0.1026456877589225,0,0,0
11002,421992.8103205775,2011-01-08 07:52:01,1560.7872902946574,2,44,0.5501165986061096,3.9752795696258554,33.017731415274454,33.51820070762617,133.34892971012505,120.12602301145778,3.237724376958795e-05,0.1026456877589225,0,0,0
11003,422022.82547328336,2011-01-08 07:52:31,1590.8024430256946,2,44,0.5499359965324402,3.977384090423584,33.02231796435806,33.51820070762617,133.36716803962156,120.12602301145778,3.237724376958795e-05,0.1026456877589225,0,0,0
11004,422052.8408305692,2011-01-08 07:53:01,1620.8178002965085,2,44,0.5499359965324402,3.9794886112213135,33.02690453930604,33.51820070762617,133.38541569789925,120.12602301145778,6.47544875391759e-05,0.1026456877589225,0,0,0
11005,422082.8557474776,2011-01-08 07:53:31,1650.8327171897654,2,44,0.5501165986061096,3.981755018234253,33.03149096783367,33.51820070762617,133.403672819296,120.12602301145778,3.237724376958795e-05,0.1026456877589225,0,0,0
11006,422112.8708825495,2011-01-08 07:54:01,1680.847852266803,2,44,0.5501165986061096,3.9838595390319824,33.036077481566565,33.51820070762617,133.42193990494388,120.12602301145778,6.47544875391759e-05,0.1026456877589225,0,0,0
11007,422142.886025416,2011-01-08 07:54:31,1710.8629951533053,2,44,0.5501165986061096,3.985964059829712,33.04066392398723,33.51820070762617,133.44021630421662,120.12602301145778,3.237724376958795e-05,0.1026456877589225,0,0,0
11008,422172.9011884577,2011-01-08 07:55:01,1740.8781582000524,2,44,0.5497553944587708,3.9880685806274414,33.045250401939256,33.51820070762617,133.4585025693247,120.12602301145778,6.47544875391759e-05,0.1026456877589225,0,0,0
11009,422202.90294616926,2011-01-08 07:55:31,1770.8799159015548,2,44,0.5499359965324402,3.990173101425171,33.04983479682682,33.51820070762617,133.47679010739537,120.12602301145778,6.47544875391759e-05,0.1026456877589225,0,0,0
11010,422232.91584077233,2011-01-08 07:56:01,1800.8928105146674,2,44,0.5501165986061096,3.992277622222901,33.05442084591276,33.51820070762617,133.4950939584303,120.12602301145778,9.713172767078504e-05,0.1026456877589225,0,0,0
11011,422262.9309617392,2011-01-08 07:56:31,1830.9079314564765,2,44,0.550297200679779,3.994381904602051,33.05900733557978,33.51820070762617,133.51340930870143,120.12602301145778,6.47544875391759e-05,0.1026456877589225,0,0,0
11012,422292.9461021295,2011-01-08 07:57:01,1860.9230718467568,2,44,0.5501165986061096,3.99648642539978,33.063593793775006,33.51820070762617,133.5317342104646,120.12602301145778,3.237724376958795e-05,0.1026456877589225,0,0,0
11013,422322.9612705847,2011-01-08 07:57:31,1890.9382403220336,2,44,0.5499359965324402,3.9985909461975098,33.06818024506724,33.51820070762617,133.55006891050184,120.12602301145778,3.237724376958795e-05,0.1026456877589225,0,0,0
11014,422352.9763766044,2011-01-08 07:58:01,1920.953346316589,2,44,0.5499359965324402,4.000695705413818,33.07276664720393,33.51820070762617,133.56841319325048,120.12602301145778,3.24249267578125e-05,0.1026456877589225,0,0,0
11015,422382.9915190648,2011-01-08 07:58:31,1950.9684888722663,2,44,0.5499359965324402,4.002799987792969,33.07735303458971,33.51820070762617,133.58676738804883,120.12602301145778,3.23295607813634e-05,0.1026456877589225,0,0,0
11016,422413.00665972073,2011-01-08 07:59:01,1980.983629528209,2,44,0.5499359965324402,4.005066394805908,33.08193946102861,33.51820070762617,133.605131673625,120.12602301145778,3.23295607813634e-05,0.1026456877589225,0,0,0
11017,422443.02181573486,2011-01-08 07:59:32,2010.9987854471915,2,44,0.5499359965324402,4.007332801818848,33.08652592471288,33.51820070762617,133.62350613021866,120.12602301145778,9.70840483205393e-05,0.1026456877589225,0,0,0
11018,422473.0370318791,2011-01-08 08:00:02,2041.0140016012983,2,44,0.5501165986061096,4.009599208831787,33.09111229341687,33.51820070762617,133.64189026439786,120.12602301145778,6.47544875391759e-05,0.1026456877589225,0,0,0
11019,422503.0520675984,2011-01-08 08:00:32,2071.02903742597,2,44,0.5501165986061096,4.011703968048096,33.09569855645568,33.51820070762617,133.66028414524357,120.12602301145778,6.47544875391759e-05,0.1026456877589225,0,0,0
11020,422533.0672083045,2011-01-08 08:01:02,2101.044178041812,2,44,0.5501165986061096,4.013808250427246,33.10028498248304,33.51820070762617,133.6786890221774,120.12602301145778,3.23295607813634e-05,0.1026456877589225,0,0,0
11021,422563.08233763726,2011-01-08 08:01:32,2131.059307374533,2,44,0.5501165986061096,4.0163984298706055,33.10487139172858,33.51820070762617,133.6971041205574,120.12602301145778,6.47544875391759e-05,0.1026456877589225,0,0,0
11022,422593.09761745,2011-01-08 08:02:02,2161.0745871672475,2,44,0.5501165986061096,4.018664836883545,33.10945788615466,33.51820070762617,133.71553003981347,120.12602301145778,9.70840483205393e-05,0.1026456877589225,0,0,0
11023,422623.1127285072,2011-01-08 08:02:32,2191.089698219408,2,44,0.550297200679779,4.020931243896484,33.114044381938925,33.51820070762617,133.73396637096448,120.12602301145778,9.70840483205393e-05,0.1026456877589225,0,0,0
11024,422653.12774990086,2011-01-08 08:03:02,2221.1047196181253,2,44,0.5501165986061096,4.023197650909424,33.118630915476174,33.51820070762617,133.75241365222072,120.12602301145778,6.47544875391759e-05,0.1026456877589225,0,0,0
11025,422683.14290689246,2011-01-08 08:03:32,2251.1198766097814,2,44,0.550297200679779,4.025626182556152,33.12321734681465,33.51820070762617,133.77087128499986,120.12602301145778,6.47544875391759e-05,0.1026456877589225,0,0,0
11026,422713.1581573822,2011-01-08 08:04:02,2281.1351271295384,2,44,0.5501165986061096,4.028054237365723,33.127803869157006,33.51820070762617,133.7893402212151,120.12602301145778,3.23295607813634e-05,0.1026456877589225,0,0,0
11027,422743.1731802997,2011-01-08 08:04:32,2311.150150011953,2,44,0.5501165986061096,4.030482769012451,33.13239037824305,33.51820070762617,133.80782007262152,120.12602301145778,6.47544875391759e-05,0.1026456877589225,0,0,0
11028,422773.18831039936,2011-01-08 08:05:02,2341.1652801115856,2,44,0.550297200679779,4.0329108238220215,33.136976853394785,33.51820070762617,133.82631087741623,120.12602301145778,0.0001295089750783,0.1026456877589225,0,0,0
11029,422803.2034619575,2011-01-08 08:05:32,2371.1804316747125,2,44,0.5501165986061096,4.035338878631592,33.14156337006243,33.51820070762617,133.8448131110306,120.12602301145778,6.47544875391759e-05,0.1026456877589225,0,0,0
11030,422833.21870851726,2011-01-08 08:06:02,2401.1956782646757,2,44,0.5501165986061096,4.03776741027832,33.146149865349955,33.51820070762617,133.86332662351208,120.12602301145778,6.47544875391759e-05,0.1026456877589225,0,0,0
11031,422863.2338696143,2011-01-08 08:06:32,2431.210839341513,2,44,0.5499359965324402,4.040195465087891,33.15073639770927,33.51820070762617,133.88185175172632,120.12602301145778,6.47544875391759e-05,0.1026456877589225,0,0,0
11032,422893.2488846019,2011-01-08 08:07:02,2461.2258543142143,2,44,0.5499359965324402,4.04278564453125,33.15532275268792,33.51820070762617,133.90038774475653,120.12602301145778,6.47544875391759e-05,0.1026456877589225,0,0,0
11033,422923.2661664845,2011-01-08 08:07:32,2491.243136307027,2,44,0.550297200679779,4.045375823974609,33.159909521822534,33.51820070762617,133.91893714738342,120.12602301145778,6.47544875391759e-05,0.1026456877589225,0,0,0
11034,422953.2791483301,2011-01-08 08:08:02,2521.256118077362,2,44,0.5499359965324402,4.047966003417969,33.164495660990326,33.51820070762617,133.93749579308792,120.12602301145778,6.47544875391759e-05,0.1026456877589225,0,0,0
11035,422983.2942424149,2011-01-08 08:08:32,2551.27121213216,2,44,0.5501165986061096,4.050718307495117,33.16908218933482,33.51820070762617,133.95606800731073,120.12602301145778,0.0001295089750783,0.1026456877589225,0,0,0
11036,423013.3094544037,2011-01-08 08:09:02,2581.2864241208854,2,44,0.5499359965324402,4.053146362304688,33.17366865307323,33.51820070762617,133.97465207528234,120.12602301145778,3.23295607813634e-05,0.1026456877589225,0,0,0
11037,423043.32481603534,2011-01-08 08:09:32,2611.301785752568,2,44,0.5499359965324402,4.055736541748047,33.1782551623799,33.51820070762617,133.9932485777328,120.12602301145778,0.0,0.1026456877589225,0,0,0
11038,423073.3398539752,2011-01-08 08:10:02,2641.316823712561,2,44,0.5499359965324402,4.058650493621826,33.1828415995224,33.51820070762617,134.01185715707484,120.12602301145778,9.70840483205393e-05,0.1026456877589225,0,0,0
11039,423103.3548703565,2011-01-08 08:10:32,2671.3318400737226,2,44,0.550297200679779,4.061402797698975,33.18742808649016,33.51820070762617,134.0304781817129,120.12602301145778,0.0001295089750783,0.1026456877589225,0,0,0
11040,423133.3700050826,2011-01-08 08:11:02,2701.346974799886,2,44,0.5501165986061096,4.063992977142334,33.192014501791995,33.51820070762617,134.049111301417,120.12602301145778,9.71794142969884e-05,0.1026456877589225,0,0,0
11041,423163.385206901,2011-01-08 08:11:32,2731.3621767285385,2,44,0.5501165986061096,4.066906929016113,33.19660095330003,33.51820070762617,134.06775730033655,120.12602301145778,9.71794142969884e-05,0.1026456877589225,0,0,0
11042,423193.4002832968,2011-01-08 08:12:02,2761.377253044125,2,44,0.5501165986061096,4.069658756256104,33.20118737875856,33.51820070762617,134.08641599667777,120.12602301145778,9.70840483205393e-05,0.1026456877589225,0,0,0
11043,423223.41541875975,2011-01-08 08:12:32,2791.392388502113,2,44,0.5501165986061096,4.072411060333252,33.20577382585243,33.51820070762617,134.1050876648809,120.12602301145778,6.47544875391759e-05,0.1026456877589225,0,0,0
11044,423253.4305654307,2011-01-08 08:13:02,2821.407535147984,2,44,0.5501165986061096,4.075325012207031,33.2103602342425,33.51820070762617,134.1237722643129,120.12602301145778,6.47544875391759e-05,0.1026456877589225,0,0,0
11045,423283.4457071894,2011-01-08 08:13:32,2851.422676906675,2,44,0.5499359965324402,4.0780768394470215,33.21494668440837,33.51820070762617,134.14247029382318,120.12602301145778,6.47544875391759e-05,0.1026456877589225,0,0,0
11046,423313.4609216744,2011-01-08 08:14:02,2881.437891481847,2,44,0.5501165986061096,4.081314563751221,33.21953308134829,33.51820070762617,134.1611815018608,120.12602301145778,6.47544875391759e-05,0.1026456877589225,0,0,0
11047,423343.4759788623,2011-01-08 08:14:32,2911.4529485745243,2,44,0.5501165986061096,4.084228515625,33.22411938912951,33.51820070762617,134.17990569090523,120.12602301145778,6.47544875391759e-05,0.1026456877589225,0,0,0
11048,423373.4911383653,2011-01-08 08:15:02,2941.468108102502,2,44,0.5499359965324402,4.087142467498779,33.22870578300281,33.51820070762617,134.19864391849524,120.12602301145778,9.70840483205393e-05,0.1026456877589225,0,0,0
11049,423403.5062762392,2011-01-08 08:15:32,2971.483245956461,2,44,0.5504778623580933,4.0903801918029785,33.23329220787049,33.51820070762617,134.21739604477105,120.12602301145778,0.0001295089750783,0.1026456877589225,0,0,0
11050,423433.521518744,2011-01-08 08:16:02,3001.4984884662545,2,44,0.5499359965324402,4.092970371246338,33.237878635894745,33.51820070762617,134.23616207467362,120.12602301145778,3.23295607813634e-05,0.1026456877589225,0,0,0
11051,423463.5365342129,2011-01-08 08:16:32,3031.513503925168,2,44,0.550297200679779,4.096531867980957,33.24246500814933,33.51820070762617,134.2549419757935,120.12602301145778,0.0001295089750783,0.1026456877589225,0,0,0
11052,423493.5517100615,2011-01-08 08:17:02,3061.528679808908,2,44,0.5501165986061096,4.0992841720581055,33.24705143449631,33.51820070762617,134.27373616535613,120.12602301145778,6.47544875391759e-05,0.1026456877589225,0,0,0
11053,423523.5668234997,2011-01-08 08:17:32,3091.5437932169407,2,44,0.5501165986061096,4.102198123931885,33.25163786176557,33.51820070762617,134.29254459038611,120.12602301145778,3.24249267578125e-05,0.1026456877589225,0,0,0
11054,423553.582278865,2011-01-08 08:18:02,3121.5592486072983,2,44,0.5501165986061096,4.105597496032715,33.256224292618384,33.51820070762617,134.3113674925068,120.12602301145778,9.70840483205393e-05,0.1026456877589225,0,0,0
11055,423583.5972379785,2011-01-08 08:18:32,3151.5742077358186,2,44,0.5499359965324402,4.108673572540283,33.260810628157955,33.51820070762617,134.33020448673673,120.12602301145778,6.47544875391759e-05,0.1026456877589225,0,0,0
11056,423613.6122715325,2011-01-08 08:19:02,3181.5892412798053,2,44,0.550297200679779,4.111911296844482,33.26539699976602,33.51820070762617,134.34905622135892,120.12602301145778,6.47544875391759e-05,0.1026456877589225,0,0,0
11057,423643.6273909655,2011-01-08 08:19:32,3211.6043606827784,2,44,0.5501165986061096,4.1153106689453125,33.26998340948241,33.51820070762617,134.367922734835,120.12602301145778,0.0001295089750783,0.1026456877589225,0,0,0
11058,423673.6427739003,2011-01-08 08:20:02,3241.6197437478795,2,44,0.5501165986061096,4.118386268615723,33.27456987988539,33.51820070762617,134.38680450026322,120.12602301145778,6.47544875391759e-05,0.1026456877589225,0,0,0
11059,423703.6576972246,2011-01-08 08:20:32,3271.63466694184,2,44,0.5501165986061096,4.121786117553711,33.27915626431185,33.51820070762617,134.40570100965152,120.12602301145778,9.71794142969884e-05,0.1026456877589225,0,0,0
11060,423733.6727954097,2011-01-08 08:21:02,3301.6497651219192,2,44,0.5501165986061096,4.12502384185791,33.2837427581191,33.51820070762617,134.42461309074014,120.12602301145778,6.47544875391759e-05,0.1026456877589225,0,0,0
11061,423763.6879411683,2011-01-08 08:21:32,3331.6649108906045,2,44,0.5501165986061096,4.128585338592529,33.28832919393008,33.51820070762617,134.4435401878253,120.12602301145778,0.0001619339018361,0.1026456877589225,0,0,0
11062,423793.70308342826,2011-01-08 08:22:02,3361.6800531705944,2,44,0.5501165986061096,4.1318230628967285,33.29291562163127,33.51820070762617,134.46248270547477,120.12602301145778,9.71794142969884e-05,0.1026456877589225,0,0,0
11063,423823.7182082196,2011-01-08 08:22:32,3391.695177936935,2,44,0.550297200679779,4.135384559631348,33.29750203936926,33.51820070762617,134.48144077795598,120.12602301145778,0.0001295089750783,0.1026456877589225,0,0,0
11064,423853.73336568754,2011-01-08 08:23:02,3421.710335409791,2,44,0.5501165986061096,4.138622283935547,33.30208846879281,33.51820070762617,134.50041456346963,120.12602301145778,9.71794142969884e-05,0.1026456877589225,0,0,0
11065,423883.74863097904,2011-01-08 08:23:32,3451.725600716401,2,44,0.5501165986061096,4.142183780670166,33.30667490310653,33.51820070762617,134.51940418350796,120.12602301145778,0.0001295089750783,0.1026456877589225,0,0,0
11066,423913.7636243479,2011-01-08 08:24:02,3481.7405940652084,2,44,0.5499359965324402,4.145583152770996,33.31126131491334,33.51820070762617,134.53840970446336,120.12602301145778,9.70840483205393e-05,0.1026456877589225,0,0,0
11067,423943.77889382496,2011-01-08 08:24:32,3511.7558635572504,2,44,0.5501165986061096,4.149306774139404,33.31584771209651,33.51820070762617,134.55743151679158,120.12602301145778,0.0001295089750783,0.1026456877589225,0,0,0
11068,423973.7940396037,2011-01-08 08:25:02,3541.7710093409733,2,44,0.5501165986061096,4.152868270874023,33.32043410198337,33.51820070762617,134.57646954950675,120.12602301145778,0.0001619339018361,0.1026456877589225,0,0,0
11069,424003.8092810558,2011-01-08 08:25:32,3571.786250778093,2,44,0.5499359965324402,4.156429767608643,33.325020529240575,33.51820070762617,134.595524102597,120.12602301145778,0.0001295089750783,0.1026456877589225,0,0,0
11070,424033.8241986208,2011-01-08 08:26:02,3601.8011683680866,2,44,0.5499359965324402,4.159991264343262,33.3296068943338,33.51820070762617,134.61459487677064,120.12602301145778,0.0001295089750783,0.1026456877589225,0,0,0
11071,424063.83932347735,2011-01-08 08:26:32,3631.8162931945776,2,44,0.5501165986061096,4.163552761077881,33.33419329311508,33.51820070762617,134.63368236298336,120.12602301145778,6.47544875391759e-05,0.1026456877589225,0,0,0
11072,424093.85447777726,2011-01-08 08:27:02,3661.831447494525,2,44,0.5501165986061096,4.167275905609131,33.33877969005142,33.51820070762617,134.65278641134637,120.12602301145778,9.70840483205393e-05,0.1026456877589225,0,0,0
11073,424123.8696189696,2011-01-08 08:27:32,3691.846588686804,2,44,0.5501165986061096,4.17083740234375,33.34336605057603,33.51820070762617,134.67190716777054,120.12602301145778,9.70840483205393e-05,0.1026456877589225,0,0,0
11074,424153.8848081514,2011-01-08 08:28:02,3721.8617779789633,2,44,0.5501165986061096,4.174561023712158,33.347952416202034,33.51820070762617,134.69104489788336,120.12602301145778,9.71794142969884e-05,0.1026456877589225,0,0,0
11075,424183.8998831487,2011-01-08 08:28:32,3751.8768528710016,2,44,0.5501165986061096,4.178284168243408,33.35253876792275,33.51820070762617,134.71019954776116,120.12602301145778,9.70840483205393e-05,0.1026456877589225,0,0,0
11076,424213.9150620199,2011-01-08 08:29:02,3781.8920317622383,2,44,0.5501165986061096,4.182007789611816,33.35712516600868,33.51820070762617,134.7293716331816,120.12602301145778,9.71794142969884e-05,0.1026456877589225,0,0,0
11077,424243.9301764455,2011-01-08 08:29:32,3811.907146167756,2,44,0.5501165986061096,4.185893058776856,33.361711596905145,33.51820070762617,134.74856107785828,120.12602301145778,0.0001295089750783,0.1026456877589225,0,0,0
11078,424273.9454303236,2011-01-08 08:30:02,3841.922400085984,2,44,0.5501165986061096,4.1896162033081055,33.36629750226309,33.51820070762617,134.76776573900804,120.12602301145778,9.70840483205393e-05,0.1026456877589225,0,0,0
11079,424303.9604377675,2011-01-08 08:30:32,3871.937407489821,2,44,0.5499359965324402,4.193339824676514,33.37088308309406,33.51820070762617,134.78698659743893,120.12602301145778,6.47544875391759e-05,0.1026456877589225,0,0,0
11080,424333.9757318157,2011-01-08 08:31:02,3901.952701568139,2,44,0.5501165986061096,4.197386741638184,33.37546913538609,33.51820070762617,134.80622717208507,120.12602301145778,9.71794142969884e-05,0.1026456877589225,0,0,0
11081,424353.6784254106,2011-01-08 08:31:22,3921.6553951378814,2,44,0.5501165986061096,4.200138568878174,33.378479763919806,33.51820070762617,134.8188678705272,120.12602301145778,0.0001618385285837,0.1026456877589225,0,0,0
11082,424383.69413717097,2011-01-08 08:31:52,30.015276198756904,3,44,0.0,4.101874351501465,33.378479763919806,33.51820070762617,134.8188678705272,120.12602301145778,-0.0004856109735555,0.1026456877589225,0,0,0
11083,424413.70915294567,2011-01-08 08:32:22,60.03029195340695,3,44,0.0,4.089570999145508,33.378479763919806,33.51820070762617,134.8188678705272,120.12602301145778,-0.0002590179501567,0.1026456877589225,0,0,0
11084,424443.7243067344,2011-01-08 08:32:52,90.04544576714272,3,44,0.0,4.0819621086120605,33.378479763919806,33.51820070762617,134.8188678705272,120.12602301145778,-9.71794142969884e-05,0.1026456877589225,0,0,0
11085,424473.6924984892,2011-01-08 08:33:22,120.01363752197786,3,44,0.0,4.076620101928711,33.378479763919806,33.51820070762617,134.8188678705272,120.12602301145778,-6.47544875391759e-05,0.1026456877589225,0,0,0
11086,424473.6949375141,2011-01-08 08:33:22,0.0156314734415,4,44,1.0206037759780884,4.199814796447754,33.37848423663736,33.51820070762617,134.81888665511258,120.12602301145778,0.0,0.1026456877589225,0,0,0
11087,424474.49185874703,2011-01-08 08:33:23,0.812552706360468,4,44,0.9698525667190552,4.199491024017334,33.378703171486265,33.51820070762617,134.81980612498322,120.12602301145778,-6.47544875391759e-05,0.1026456877589225,0,0,0
11088,424476.3824715308,2011-01-08 08:33:25,2.703165465082205,4,44,0.9198238253593444,4.199814796447754,33.379198293340195,33.51820070762617,134.82188552453684,120.12602301145778,0.0,0.1026456877589225,0,0,0
11089,424479.2262857709,2011-01-08 08:33:28,5.546979730250778,4,44,0.8692532181739807,4.199814796447754,33.37990385675074,33.51820070762617,134.82484874265378,120.12602301145778,0.0,0.1026456877589225,0,0,0
11090,424483.1636020896,2011-01-08 08:33:32,9.484296028949071,4,44,0.8192244172096252,4.199814796447754,33.38082588878283,33.51820070762617,134.82872108883117,120.12602301145778,3.23295607813634e-05,0.1026456877589225,0,0,0
11091,424488.2887839799,2011-01-08 08:33:37,14.609477929223605,4,44,0.7690150737762451,4.199653148651123,33.381954794408,33.51820070762617,134.83346225915236,120.12602301145778,-6.47544875391759e-05,0.1026456877589225,0,0,0
11092,424494.8977936906,2011-01-08 08:33:44,21.218487629939236,4,44,0.7189862728118896,4.199976921081543,33.38331879893584,33.51820070762617,134.8391907948627,120.12602301145778,6.47544875391759e-05,0.1026456877589225,0,0,0
11093,424503.6788882602,2011-01-08 08:33:52,29.999582194469298,4,44,0.6687769293785095,4.199814796447754,33.385008495909545,33.51820070762617,134.8462872067487,120.12602301145778,0.0,0.1026456877589225,0,0,0
11094,424515.6476028446,2011-01-08 08:34:04,41.96829688415744,4,44,0.618748128414154,4.199653148651123,33.387144234404346,33.51820070762617,134.85525690924828,120.12602301145778,-3.23295607813634e-05,0.1026456877589225,0,0,0
11095,424533.6002763008,2011-01-08 08:34:22,59.92097025509731,4,44,0.5687193870544434,4.199814796447754,33.390095700282004,33.51820070762617,134.86765252257874,120.12602301145778,3.23295607813634e-05,0.1026456877589225,0,0,0
11096,424563.80290745065,2011-01-08 08:34:53,90.12360138499028,4,44,0.5186905860900879,4.199653148651123,33.394636671713286,33.51820070762617,134.88672377151312,120.12602301145778,-3.23295607813634e-05,0.1026456877589225,0,0,0
11097,424622.1145736199,2011-01-08 08:35:51,148.43526757418493,4,44,0.4686618447303772,4.199653148651123,33.40259024151365,33.51820070762617,134.92012727754323,120.12602301145778,-3.23295607813634e-05,0.1026456877589225,0,0,0
11098,424720.55052845227,2011-01-08 08:37:29,246.8712224116259,4,44,0.4186330735683441,4.199814796447754,33.414681983339065,33.51820070762617,134.97091035328194,120.12602301145778,0.0,0.1026456877589225,0,0,0
11099,424849.00145998696,2011-01-08 08:39:38,375.3221539213116,4,44,0.3684236705303192,4.199814796447754,33.42870967971857,33.51820070762617,135.02982416389133,120.12602301145778,3.23295607813634e-05,0.1026456877589225,0,0,0
11100,425004.7489391874,2011-01-08 08:42:14,531.069633126793,4,44,0.3183948993682861,4.199653148651123,33.44355010488617,33.51820070762617,135.09215130022773,120.12602301145778,-3.23295607813634e-05,0.1026456877589225,0,0,0
11101,425191.8397867961,2011-01-08 08:45:21,718.1604807605107,4,44,0.268366128206253,4.199653148651123,33.45876849081484,33.51820070762617,135.15606579473248,120.12602301145778,-3.23295607813634e-05,0.1026456877589225,0,0,0
11102,425420.648644031,2011-01-08 08:49:09,946.9693379904533,4,44,0.2183373719453811,4.199814796447754,33.474199234174655,33.51820070762617,135.2208720548802,120.12602301145778,-3.24249267578125e-05,0.1026456877589225,0,0,0
11103,425723.42484393815,2011-01-08 08:54:12,1249.7455379075543,4,44,0.168308600783348,4.199814796447754,33.490383301051075,33.51820070762617,135.28884210227233,120.12602301145778,0.0,0.1026456877589225,0,0,0
11104,426158.94903488446,2011-01-08 09:01:28,1685.2697288438108,4,44,0.118279829621315,4.199814796447754,33.50752470188865,33.51820070762617,135.36083284145542,120.12602301145778,0.0,0.1026456877589225,0,0,0
11105,426929.73342983605,2011-01-08 09:14:19,2456.0541237703974,4,44,0.0682510659098625,4.199653148651123,33.52692985862946,33.51820070762617,135.44233105131673,120.12602301145778,0.0,0.1026456877589225,0,0,0
11106,427424.2724034893,2011-01-08 09:22:33,2950.593097428592,4,44,0.0498289167881011,4.199653148651123,33.53502435068803,33.51820070762617,135.4763266096976,120.12602301145778,-3.23295607813634e-05,0.1026456877589225,0,0,0
11107,427454.2906388868,2011-01-08 09:23:03,30.015103824146337,5,44,0.0,4.190749645233154,33.53502435068803,33.51820070762617,135.4763266096976,120.12602301145778,0.0,0.1026456877589225,0,0,0
11108,427484.29025151714,2011-01-08 09:23:33,60.014716464496125,5,44,0.0,4.1892924308776855,33.53502435068803,33.51820070762617,135.4763266096976,120.12602301145778,-6.47544875391759e-05,0.1026456877589225,0,0,0
11109,427484.466093305,2011-01-08 09:23:34,0.187350003855764,6,44,-1.9243103452026844e-05,4.1892924308776855,33.53502435068803,33.51820070862761,135.4763266096976,120.12602301565312,0.0,0.1037345305085182,0,0,0
11110,427489.2953652216,2011-01-08 09:23:38,5.016622000601499,6,44,0.0007031940040178,4.189130783081055,33.53502520161832,33.518200708711575,135.47633017453992,120.12602301600486,-3.23295607813634e-05,0.1037345305085182,0,0,0
11111,427517.1421174952,2011-01-08 09:24:06,27.85929630849193,7,44,-1.0997490882873535,3.989039897918701,33.53502520161832,33.52671061381535,135.47633017453992,120.16018597662026,-0.0012626647949218,0.1037345305085182,0,0,0
11112,427547.1570025341,2011-01-08 09:24:36,57.87418134234554,7,44,-1.099568486213684,3.95099663734436,33.53502520161832,33.535878887888124,135.47633017453992,120.19657518379984,-0.0008418083307333,0.1037345305085182,0,0,0
11113,427577.17201981245,2011-01-08 09:25:06,87.8891985907184,7,44,-1.099568486213684,3.923799753189087,33.53502520161832,33.54504719743852,135.47633017453992,120.23266821584694,-0.0006475448608398,0.1037345305085182,0,0,0
11114,427607.1871717516,2011-01-08 09:25:36,117.90435052978192,7,44,-1.099568486213684,3.902754783630371,33.53502520161832,33.55421549737205,135.47633017453992,120.26854294073664,-0.0004856586456298,0.1037345305085182,0,0,0
11115,427637.20288061874,2011-01-08 09:26:06,147.92005940690646,7,44,-1.099568486213684,3.885109186172485,33.53502520161832,33.5633839990179,135.47633017453992,120.30424299254727,-0.0004532813909463,0.1037345305085182,0,0,0
11116,427667.20426130056,2011-01-08 09:26:36,177.92144015893456,7,44,-1.0997490882873535,3.869406223297119,33.53502520161832,33.5725481268663,135.47633017453992,120.33977367924432,-0.0003885269106831,0.1037345305085182,0,0,0
11117,427697.2169563513,2011-01-08 09:27:06,207.93413512947657,7,44,-1.0997490882873535,3.8549983501434326,33.53502520161832,33.58171572290018,135.47633017453992,120.37518016289822,-0.0003885269106831,0.1037345305085182,0,0,0
11118,427727.2322215426,2011-01-08 09:27:36,237.949400335837,7,44,-1.0997490882873535,3.841723680496216,33.53502520161832,33.59088405295267,135.47633017453992,120.41046287576133,-0.0003561496851034,0.1037345305085182,0,0,0
11119,427757.2472314827,2011-01-08 09:28:06,267.964410301058,7,44,-1.0997490882873535,3.829096794128418,33.53502520161832,33.60005231232962,135.47633017453992,120.44562657442138,-0.0003561496851034,0.1037345305085182,0,0,0
11120,427787.2623849808,2011-01-08 09:28:36,297.9795637488818,7,44,-1.0997490882873535,3.816955327987671,33.53502520161832,33.609220684079375,135.47633017453992,120.48067729901072,-0.0003237724304199,0.1037345305085182,0,0,0
11121,427817.2775105992,2011-01-08 09:29:06,327.99468938739625,7,44,-1.099568486213684,3.8052995204925537,33.53502520161832,33.61838897273926,135.47633017453992,120.5156187195424,-0.0002913951757363,0.1037345305085182,0,0,0
11122,427847.2926503529,2011-01-08 09:29:36,358.0098291461026,7,44,-1.099568486213684,3.794291257858277,33.53502520161832,33.627557229447824,135.47633017453992,120.5504554191353,-0.0002590179501567,0.1037345305085182,0,0,0
11123,427877.30781780055,2011-01-08 09:30:06,388.024996578781,7,44,-1.0993878841400146,3.783606767654419,33.53502520161832,33.636725574243705,135.47633017453992,120.5851919454106,-0.0002266406954731,0.1037345305085182,0,0,0
11124,427907.3229508375,2011-01-08 09:30:37,418.0401296057096,7,44,-1.0997490882873535,3.7729222774505615,33.53502520161832,33.64589392861117,135.47633017453992,120.61983136828604,-0.0002913951757363,0.1037345305085182,0,0,0
11125,427937.33807457634,2011-01-08 09:31:07,448.0552533545143,7,44,-1.0997490882873535,3.762723445892334,33.53502520161832,33.65506225217818,135.47633017453992,120.6543766586684,-0.0002913951757363,0.1037345305085182,0,0,0
11126,427967.353223528,2011-01-08 09:31:37,478.07040230111966,7,44,-1.0997490882873535,3.753334045410156,33.53502520161832,33.664230578014454,135.47633017453992,120.68883146665353,-0.0002590179501567,0.1037345305085182,0,0,0
11127,427997.3685967886,2011-01-08 09:32:07,508.08577568709705,7,44,-1.0997490882873535,3.743782997131348,33.53502520161832,33.67339904673154,135.47633017453992,120.72319952060646,-0.0002266406954731,0.1037345305085182,0,0,0
11128,428027.3835023186,2011-01-08 09:32:37,538.1006810867084,7,44,-1.0997490882873535,3.73455548286438,33.53502520161832,33.68256733031799,135.47633017453992,120.7574815765352,-0.0002590179501567,0.1037345305085182,0,0,0
11129,428057.3987556253,2011-01-08 09:33:07,568.1159344084488,7,44,-1.0993878841400146,3.725975513458252,33.53502520161832,33.69173572495641,135.47633017453992,120.79168133523044,-0.0001942634553415,0.1037345305085182,0,0,0
11130,428087.41378245247,2011-01-08 09:33:37,598.1309612457202,7,44,-1.099568486213684,3.717071771621704,33.53502520161832,33.70090404206331,135.47633017453992,120.82580039810615,-0.0002266406954731,0.1037345305085182,0,0,0
11131,428117.4289093742,2011-01-08 09:34:07,628.1460881423702,7,44,-1.099568486213684,3.708653688430786,33.53502520161832,33.71007244394262,135.47633017453992,120.85984079352124,-0.0002266406954731,0.1037345305085182,0,0,0
11132,428147.44418298645,2011-01-08 09:34:37,658.1613617697184,7,44,-1.0997490882873535,3.700397491455078,33.53502520161832,33.71924087807167,135.47633017453992,120.89380501464709,-0.0002266406954731,0.1037345305085182,0,0,0
11133,428177.4593364845,2011-01-08 09:35:07,688.1765152827046,7,44,-1.0997490882873535,3.69214129447937,33.53502520161832,33.728409267286146,135.47633017453992,120.92769444626444,-0.0002590179501567,0.1037345305085182,0,0,0
11134,428207.4743320989,2011-01-08 09:35:37,718.1915108670842,7,44,-1.0997490882873535,3.684370756149292,33.53502520161832,33.73757759026344,135.47633017453992,120.96150994864855,-0.0001942634553415,0.1037345305085182,0,0,0
11135,428237.4894883087,2011-01-08 09:36:07,748.2066670767914,7,44,-1.099568486213684,3.676762104034424,33.53502520161832,33.74674592931199,135.47633017453992,120.99525367437948,-0.0001618862152099,0.1037345305085182,0,0,0
11136,428267.5046424682,2011-01-08 09:36:37,778.2218212363891,7,44,-1.0997490882873535,3.668991804122925,33.53502520161832,33.75591432486926,135.47633017453992,121.02892738650142,-0.0001618862152099,0.1037345305085182,0,0,0
11137,428297.51977589616,2011-01-08 09:37:07,808.2369546893797,7,44,-1.099568486213684,3.6613831520080566,33.53502520161832,33.76508267361858,135.47633017453992,121.06253190541528,-0.0002266406954731,0.1037345305085182,0,0,0
11138,428327.5349062464,2011-01-08 09:37:37,838.2520850145748,7,44,-1.0997490882873535,3.6542601585388175,33.53502520161832,33.77425101155378,135.47633017453992,121.0960687651916,-0.0001618862152099,0.1037345305085182,0,0,0
11139,428357.5500502808,2011-01-08 09:38:07,868.2672291391623,7,44,-1.099568486213684,3.64697527885437,33.53502520161832,33.78341937564916,135.47633017453992,121.12953921169026,-0.0001942634553415,0.1037345305085182,0,0,0
11140,428387.5674045738,2011-01-08 09:38:37,898.2845834622443,7,44,-1.099568486213684,3.640014171600342,33.53502520161832,33.79258832940511,135.47633017453992,121.16294583809044,-0.0001618862152099,0.1037345305085182,0,0,0
11141,428417.5803680736,2011-01-08 09:39:07,928.297546841744,7,44,-1.0997490882873535,3.6330530643463135,33.53502520161832,33.801756008821734,135.47633017453992,121.19628376402248,-0.0001618862152099,0.1037345305085182,0,0,0
11142,428447.5955895309,2011-01-08 09:39:37,958.312768314106,7,44,-1.099568486213684,3.626253843307495,33.53502520161832,33.81092440657266,135.47633017453992,121.22956169152572,-0.0001618862152099,0.1037345305085182,0,0,0
11143,428477.61060116027,2011-01-08 09:40:07,988.3277799284372,7,44,-1.0997490882873535,3.6197783946990967,33.53502520161832,33.82009264233834,135.47633017453992,121.26277795092172,-0.0001295089750783,0.1037345305085182,0,0,0
11144,428507.6259791378,2011-01-08 09:40:37,1018.3431579459576,7,44,-1.099568486213684,3.613302946090698,33.53502520161832,33.829261054660634,135.47633017453992,121.29593537688034,-0.0001618862152099,0.1037345305085182,0,0,0
11145,428537.64100362407,2011-01-08 09:41:07,1048.3581824123198,7,44,-1.099568486213684,3.60715126991272,33.53502520161832,33.838429347300526,135.47633017453992,121.3290337630212,-9.713172767078504e-05,0.1037345305085182,0,0,0
11146,428567.6560028175,2011-01-08 09:41:37,1078.3731815906567,7,44,-1.0997490882873535,3.6006758213043213,33.53502520161832,33.84759767579097,135.47633017453992,121.36207500701852,-0.0001942634553415,0.1037345305085182,0,0,0
11147,428597.6712738533,2011-01-08 09:42:07,1108.388452646596,7,44,-1.099568486213684,3.5945241451263428,33.53502520161832,33.85676610032211,135.47633017453992,121.39505957142,-0.0001942634553415,0.1037345305085182,0,0,0
11148,428627.68630302144,2011-01-08 09:42:37,1138.403481789614,7,44,-1.099568486213684,3.5885345935821533,33.53502520161832,33.8659344413377,135.47633017453992,121.42798849231396,-0.0001618862152099,0.1037345305085182,0,0,0
11149,428657.7014355421,2011-01-08 09:43:07,1168.418614320306,7,44,-1.0997490882873535,3.5827066898345947,33.53502520161832,33.875102768470065,135.47633017453992,121.4608637826541,-0.0002266406954731,0.1037345305085182,0,0,0
11150,428687.71668961074,2011-01-08 09:43:37,1198.4338684239951,7,44,-1.0997490882873535,3.577202558517456,33.53502520161832,33.88427114851319,135.47633017453992,121.4936870928042,-0.0001618862152099,0.1037345305085182,0,0,0
11151,428717.7317215808,2011-01-08 09:44:07,1228.448900374009,7,44,-1.099568486213684,3.571860313415528,33.53502520161832,33.89343948177847,135.47633017453992,121.52645922727343,-9.713172767078504e-05,0.1037345305085182,0,0,0
11152,428747.7468647431,2011-01-08 09:44:37,1258.464043516148,7,44,-1.099568486213684,3.566518068313598,33.53502520161832,33.90260784125517,135.47633017453992,121.5591823414666,-0.0001618862152099,0.1037345305085182,0,0,0
11153,428777.76213808457,2011-01-08 09:45:07,1288.4793169630464,7,44,-1.099568486213684,3.56133770942688,33.53502520161832,33.91177623979858,135.47633017453992,121.59185764925492,-0.0001295089750783,0.1037345305085182,0,0,0
11154,428807.7771202055,2011-01-08 09:45:37,1318.4942989836206,7,44,-1.0997490882873535,3.556319236755371,33.53502520161832,33.92094450364612,135.47633017453992,121.62448611842876,-0.0001295089750783,0.1037345305085182,0,0,0
11155,428837.7922689114,2011-01-08 09:46:07,1348.5094476796014,7,44,-1.099568486213684,3.5514626502990723,33.53502520161832,33.93011287936065,135.47633017453992,121.65706933760733,-0.0001295089750783,0.1037345305085182,0,0,0
11156,428867.8075124188,2011-01-08 09:46:37,1378.5246911918937,7,44,-1.099568486213684,3.546606063842773,33.53502520161832,33.93928128410322,135.47633017453992,121.68960828194888,-0.0001618862152099,0.1037345305085182,0,0,0
11157,428897.8226741773,2011-01-08 09:47:07,1408.5398529504305,7,44,-1.0997490882873535,3.541911363601685,33.53502520161832,33.948449678565765,135.47633017453992,121.722104082845,-0.0001295089750783,0.1037345305085182,0,0,0
11158,428927.8377023228,2011-01-08 09:47:37,1438.5548811160122,7,44,-1.0997490882873535,3.5373785495758057,33.53502520161832,33.95761803931747,135.47633017453992,121.75455737105152,-0.0001618862152099,0.1037345305085182,0,0,0
11159,428957.8528413447,2011-01-08 09:48:07,1468.5700201228449,7,44,-1.099568486213684,3.5330076217651367,33.53502520161832,33.96678644573712,135.47633017453992,121.78696898571636,-6.47544875391759e-05,0.1037345305085182,0,0,0
11160,428987.8679500711,2011-01-08 09:48:37,1498.585128839184,7,44,-1.0997490882873535,3.528312921524048,33.53502520161832,33.975955353108915,135.47633017453992,121.81934077019922,-0.0001295089750783,0.1037345305085182,0,0,0
11161,429017.8834530951,2011-01-08 09:49:07,1528.6006318983466,7,44,-1.0997490882873535,3.523780107498169,33.53502520161832,33.985124596918695,135.47633017453992,121.85167278170438,-9.713172767078504e-05,0.1037345305085182,0,0,0
11162,429047.8982147314,2011-01-08 09:49:37,1558.6153935296431,7,44,-1.099568486213684,3.5194091796875,33.53502520161832,33.99429340019424,135.47633017453992,121.88396285918446,-0.0001295089750783,0.1037345305085182,0,0,0
11163,429077.9135281178,2011-01-08 09:50:07,1588.6307069160832,7,44,-1.0997490882873535,3.515200138092041,33.53502520161832,34.003462572777565,135.47633017453992,121.9162144410742,-0.0001295089750783,0.1037345305085182,0,0,0
11164,429107.9286381525,2011-01-08 09:50:37,1618.6458169456953,7,44,-1.0997490882873535,3.510991334915161,33.53502520161832,34.012631664818166,135.47633017453992,121.94842636718737,-9.713172767078504e-05,0.1037345305085182,0,0,0
11165,429137.9437951692,2011-01-08 09:51:07,1648.660973972439,7,44,-1.0997490882873535,3.506944179534912,33.53502520161832,34.02180081610742,135.47633017453992,121.98059949839627,-6.47544875391759e-05,0.1037345305085182,0,0,0
11166,429167.9587864027,2011-01-08 09:51:37,1678.6759651909374,7,44,-1.0997490882873535,3.502411365509033,33.53502520161832,34.03096941909737,135.47633017453992,122.01273214854636,-0.0001295089750783,0.1037345305085182,0,0,0
11167,429197.97393720393,2011-01-08 09:52:07,1708.6911159821402,7,44,-1.099568486213684,3.498364210128784,33.53502520161832,34.04013778280455,135.47633017453992,122.04482444463488,-6.47544875391759e-05,0.1037345305085182,0,0,0
11168,429227.9890733837,2011-01-08 09:52:37,1738.7062521769642,7,44,-1.0993878841400146,3.4938313961029053,33.53502520161832,34.04930612273477,135.47633017453992,122.07687658877342,-9.713172767078504e-05,0.1037345305085182,0,0,0
11169,429258.0043256278,2011-01-08 09:53:07,1768.7215044009686,7,44,-1.099568486213684,3.4891366958618164,33.53502520161832,34.058474532033614,135.47633017453992,122.10888719765478,-0.0001295089750783,0.1037345305085182,0,0,0
11170,429288.0193421444,2011-01-08 09:53:37,1798.7365209175175,7,44,-1.0997490882873535,3.4842801094055176,33.53502520161832,34.06764281979018,135.47633017453992,122.14085493892168,-0.0001618862152099,0.1037345305085182,0,0,0
11171,429318.0346067693,2011-01-08 09:54:07,1828.7517855624787,7,44,-1.0997490882873535,3.4794235229492188,33.53502520161832,34.076811203225695,135.47633017453992,122.17277933693882,-0.0001618862152099,0.1037345305085182,0,0,0
11172,429348.0496368998,2011-01-08 09:54:37,1858.7668156929576,7,44,-1.099568486213684,3.47456693649292,33.53502520161832,34.08597943284328,135.47633017453992,122.20465789113956,-0.0001295089750783,0.1037345305085182,0,0,0
11173,429378.064889209,2011-01-08 09:55:07,1888.7820680021744,7,44,-1.099568486213684,3.469062805175781,33.53502520161832,34.095147866458746,135.47633017453992,122.23648990011712,-0.0001942634553415,0.1037345305085182,0,0,0
11174,429408.0799175901,2011-01-08 09:55:37,1918.7970963732687,7,44,-1.099568486213684,3.4637205600738525,33.53502520161832,34.10431620397677,135.47633017453992,122.2682717628123,-0.0001295089750783,0.1037345305085182,0,0,0
11175,429438.095181809,2011-01-08 09:56:07,1948.8123606021927,7,44,-1.0997490882873535,3.457892656326294,33.53502520161832,34.11348460691488,135.47633017453992,122.30000197888523,-0.0001295089750783,0.1037345305085182,0,0,0
11176,429468.1103214023,2011-01-08 09:56:37,1978.8275002806995,7,44,-1.099568486213684,3.451579093933105,33.53502520161832,34.12265299561653,135.47633017453992,122.33167707508008,-0.0001942634553415,0.1037345305085182,0,0,0
11177,429498.1254707399,2011-01-08 09:57:07,2008.8426495380795,7,44,-1.0997490882873535,3.444779872894287,33.53502520161832,34.13182133646949,135.47633017453992,122.36329241797048,-0.0001942634553415,0.1037345305085182,0,0,0
11178,429528.1404649508,2011-01-08 09:57:37,2038.8576437139488,7,44,-1.099568486213684,3.437333106994629,33.53502520161832,34.14098961379131,135.47633017453992,122.39484178973792,-0.0002590179501567,0.1037345305085182,0,0,0
11179,429558.155626549,2011-01-08 09:58:07,2068.872805327123,7,44,-1.0997490882873535,3.4290771484375,33.53502520161832,34.15015794062512,135.47633017453992,122.42631965199824,-0.0002590179501567,0.1037345305085182,0,0,0
11180,429588.1707513604,2011-01-08 09:58:37,2098.887930128551,7,44,-1.099568486213684,3.420011520385742,33.53502520161832,34.15932628833588,135.47633017453992,122.45771846052816,-0.0002266406954731,0.1037345305085182,0,0,0
11181,429618.18597764976,2011-01-08 09:59:07,2128.9031564429806,7,44,-1.099568486213684,3.409003257751465,33.53502520161832,34.16849465827821,135.47633017453992,122.48902589837864,-0.0003237724304199,0.1037345305085182,0,0,0
11182,429648.2010368076,2011-01-08 09:59:37,2158.9182155757426,7,44,-1.0993878841400146,3.397023677825928,33.53502520161832,34.17766299804221,135.47633017453992,122.52022676920234,-0.0002913951757363,0.1037345305085182,0,0,0
11183,429678.2161677644,2011-01-08 10:00:07,2188.933346527499,7,44,-1.0997490882873535,3.3818063735961914,33.53502520161832,34.18683141855752,135.47633017453992,122.55130290216484,-0.0004532813909463,0.1037345305085182,0,0,0
11184,429708.231318345,2011-01-08 10:00:37,2218.9484971182023,7,44,-1.0997490882873535,3.3638370037078857,33.53502520161832,34.19599984494054,135.47633017453992,122.58222825721036,-0.0004856586456298,0.1037345305085182,0,0,0
11185,429738.2466493053,2011-01-08 10:01:07,2248.963828198742,7,44,-1.0997490882873535,3.3416588306427,33.53502520161832,34.20516826376685,135.47633017453992,122.6129712821843,-0.0006799221155233,0.1037345305085182,0,0,0
11186,429768.2615979828,2011-01-08 10:01:37,2278.97877676594,7,44,-1.0997490882873535,3.313976287841797,33.53502520161832,34.21433660171544,135.47633017453992,122.64348736633006,-0.0008418083307333,0.1037345305085182,0,0,0
11187,429798.27685329446,2011-01-08 10:02:07,2308.994032082652,7,44,-1.0997490882873535,3.2785232067108154,33.53502520161832,34.223504927740734,135.47633017453992,122.6737150370062,-0.0010360718006268,0.1037345305085182,0,0,0
11188,429828.2918715403,2011-01-08 10:02:38,2339.009050308461,7,44,-1.0997490882873535,3.2322239875793457,33.53502520161832,34.23267322687416,135.47633017453992,122.70357197794551,-0.0013922214275225,0.1037345305085182,0,0,0
11189,429858.307079519,2011-01-08 10:03:08,2369.024258377417,7,44,-1.099568486213684,3.1700599193573,33.53502520161832,34.24184156055385,135.47633017453992,122.7329374695414,-0.0019102573860436,0.1037345305085182,0,0,0
11190,429888.3222739741,2011-01-08 10:03:38,2399.039452767281,7,44,-1.0997490882873535,3.08247971534729,33.53502520161832,34.25100999187932,135.47633017453992,122.76162482499228,-0.0027520656585693,0.1037345305085182,0,0,0
11191,429918.3372860847,2011-01-08 10:04:08,2429.0544648577998,7,44,-1.099568486213684,2.949409484863281,33.53502520161832,34.26017830045464,135.47633017453992,122.78932442016648,-0.0042737959884107,0.1037345305085182,0,0,0
11192,429947.99317921017,2011-01-08 10:04:37,2458.7103580034086,7,44,-1.099568486213684,2.749318838119507,33.53502520161832,34.269236952760366,135.47633017453992,122.81518843039392,-0.0061516761779785,0.1037345305085182,0,0,0
11193,429954.43058199866,2011-01-08 10:04:44,2465.147760771847,7,44,-1.0997490882873535,2.699620008468628,33.53502520161832,34.27120328052098,135.47633017453992,122.8205459176673,-0.0062163830734789,0.1037345305085182,0,0,0
11194,430014.4558502975,2011-01-08 10:05:44,60.01245998565656,8,44,0.0,3.540292501449585,33.53502520161832,34.27120328052098,135.47633017453992,122.8205459176673,0.0013274669181555,0.1037345305085182,0,0,0
11195,430014.6571668136,2011-01-08 10:05:44,0.187411276566211,9,44,-1.9243103452026844e-05,3.540778160095215,33.53502520161832,34.27120328152275,135.47633017453992,122.82054592121436,0.0,0.1003114357590675,0,0,0
11196,430019.48535769584,2011-01-08 10:05:49,5.015602188916994,9,44,0.0003419754502829,3.548548698425293,33.53502607204526,34.27120328160769,135.47633326032812,122.82054592151512,0.0011655807029455,0.1003114357590675,0,0,0
