Data_Point,Test_Time(s),Date_Time,Step_Time(s),Step_Index,Cycle_Index,Current(A),Voltage(V),Charge_Capacity(Ah),Discharge_Capacity(Ah),Charge_Energy(Wh),Discharge_Energy(Wh),dV/dt(V/s),Internal_Resistance(Ohm),Is_FC_Data,AC_Impedance(Ohm),ACI_Phase_Angle(Deg)
9453,362005.9889322233,2011-01-07 15:12:07,30.01523313643234,1,38,0.0,3.586106300354004,28.2609541376053,28.998255551672727,114.13066182353788,103.9605518943244,0.0007446765666827,0.1019293591380119,0,0,0
9454,362036.0040814807,2011-01-07 15:12:37,60.030382368749805,1,38,0.0,3.6068274974823,28.2609541376053,28.998255551672727,114.13066182353788,103.9605518943244,0.0004532813909463,0.1019293591380119,0,0,0
9455,362066.0190753358,2011-01-07 15:13:07,90.04537621379438,1,38,0.0,3.622044801712036,28.2609541376053,28.998255551672727,114.13066182353788,103.9605518943244,0.0003561496851034,0.1019293591380119,0,0,0
9456,362095.987463871,2011-01-07 15:13:37,120.0137647590919,1,38,0.0,3.633538722991944,28.2609541376053,28.998255551672727,114.13066182353788,103.9605518943244,0.0002590179501567,0.1019293591380119,0,0,0
9457,362125.98967754695,2011-01-07 15:14:07,30.01513224999229,2,38,0.5499359965324402,3.7596476078033447,28.26554063215289,28.998255551672727,114.14780889742975,103.9605518943244,0.0008741855854168,0.1019293591380119,0,0,0
9458,362156.0050093543,2011-01-07 15:14:37,60.030464062355406,2,38,0.5501165986061096,3.784578084945679,28.270127262647968,28.998255551672727,114.16511586972402,103.9605518943244,0.0005180359003134,0.1019293591380119,0,0,0
9459,362186.0199343679,2011-01-07 15:15:07,90.0453890758506,2,38,0.5499359965324402,3.799471616744995,28.27471380402247,28.998255551672727,114.1825111773304,103.9605518943244,0.0002913951757363,0.1019293591380119,0,0,0
9460,362216.03509794094,2011-01-07 15:15:37,120.0605526438971,2,38,0.550297200679779,3.8098323345184326,28.279300305200863,28.998255551672727,114.19996270770794,103.9605518943244,0.0002590179501567,0.1019293591380119,0,0,0
9461,362246.0501910032,2011-01-07 15:16:07,150.0756456811592,2,38,0.5501165986061096,3.818412303924561,28.283886841426543,28.998255551672727,114.21745692243164,103.9605518943244,0.0002266406954731,0.1019293591380119,0,0,0
9462,362276.0654570566,2011-01-07 15:16:37,180.09091174465593,2,38,0.550297200679779,3.825697183609009,28.288473347296883,28.998255551672727,114.2349871359479,103.9605518943244,0.0001942634553415,0.1019293591380119,0,0,0
9463,362306.08049181366,2011-01-07 15:17:07,210.1059464966532,2,38,0.5501165986061096,3.832658290863037,28.293059778903448,28.998255551672727,114.25254981209956,103.9605518943244,0.0001618862152099,0.1019293591380119,0,0,0
9464,362336.0956225699,2011-01-07 15:17:37,240.12107727297263,2,38,0.5499359965324402,3.8389716148376474,28.29764625164833,28.998255551672727,114.27014297198876,103.9605518943244,0.0001618862152099,0.1019293591380119,0,0,0
9465,362366.1107664239,2011-01-07 15:18:07,270.13622119204786,2,38,0.5499359965324402,3.844961404800415,28.302232687379167,28.998255551672727,114.28776442962037,103.9605518943244,0.0001295089750783,0.1019293591380119,0,0,0
9466,362396.1258626842,2011-01-07 15:18:37,300.1513173871804,2,38,0.5501165986061096,3.8507893085479736,28.306819153822666,28.998255551672727,114.30541272236168,103.9605518943244,0.0001942634553415,0.1019293591380119,0,0,0
9467,362426.1409970795,2011-01-07 15:19:07,330.1664517825195,2,38,0.5497553944587708,3.855969667434693,28.31140558153762,28.998255551672727,114.32308611332004,103.9605518943244,0.0001295089750783,0.1019293591380119,0,0,0
9468,362456.1561453344,2011-01-07 15:19:37,360.1816000424134,2,38,0.5501165986061096,3.861311912536621,28.31599196087919,28.998255551672727,114.34078348448756,103.9605518943244,0.0001295089750783,0.1019293591380119,0,0,0
9469,362486.1712716696,2011-01-07 15:20:07,390.1967263475893,2,38,0.5499359965324402,3.86616849899292,28.32057842370106,28.998255551672727,114.35850428312008,103.9605518943244,0.0001295089750783,0.1019293591380119,0,0,0
9470,362516.1864013081,2011-01-07 15:20:37,420.211855986073,2,38,0.5499359965324402,3.870863199234009,28.32516482838904,28.998255551672727,114.37624726063088,103.9605518943244,9.713172767078504e-05,0.1019293591380119,0,0,0
9471,362546.2016181339,2011-01-07 15:21:07,450.2270728319041,2,38,0.5501165986061096,3.875719785690308,28.32975130731899,28.998255551672727,114.39401219111949,103.9605518943244,0.0001295089750783,0.1019293591380119,0,0,0
9472,362576.2169025431,2011-01-07 15:21:37,480.2423572361115,2,38,0.550297200679779,3.8802525997161865,28.33433785386737,28.998255551672727,114.41179863174128,103.9605518943244,0.0001295089750783,0.1019293591380119,0,0,0
9473,362606.2318697618,2011-01-07 15:22:07,510.2573245400074,2,38,0.5501165986061096,3.884623527526856,28.33892453573904,28.998255551672727,114.42960629610116,103.9605518943244,9.713172767078504e-05,0.1019293591380119,0,0,0
9474,362636.2469527791,2011-01-07 15:22:37,540.2724074620593,2,38,0.5501165986061096,3.888994455337525,28.343511869338062,28.998255551672727,114.44743664935892,103.9605518943244,0.0001295089750783,0.1019293591380119,0,0,0
9475,362666.2620975704,2011-01-07 15:23:07,570.2875522533083,2,38,0.5501165986061096,3.893203496932984,28.34809894763356,28.998255551672727,114.46528556086872,103.9605518943244,9.713172767078504e-05,0.1019293591380119,0,0,0
9476,362696.2794294876,2011-01-07 15:23:37,600.3048841705481,2,38,0.5501165986061096,3.897250652313232,28.352685779862817,28.998255551672727,114.4831521706699,103.9605518943244,0.0001295089750783,0.1019293591380119,0,0,0
9477,362726.2940618366,2011-01-07 15:24:07,630.3195165296586,2,38,0.550297200679779,3.901135921478272,28.35727221518255,28.998255551672727,114.5010353259752,103.9605518943244,9.713172767078504e-05,0.1019293591380119,0,0,0
9478,362756.30753632,2011-01-07 15:24:37,660.3329910330361,2,38,0.5499359965324402,3.9048593044281006,28.361858433223983,28.998255551672727,114.51893507636716,103.9605518943244,0.0001295089750783,0.1019293591380119,0,0,0
9479,362786.3226358986,2011-01-07 15:25:07,690.3480906065887,2,38,0.5499359965324402,3.9080970287323,28.366444869338835,28.998255551672727,114.53685221096345,103.9605518943244,3.237724376958795e-05,0.1019293591380119,0,0,0
9480,362816.3378121282,2011-01-07 15:25:37,720.3632669113791,2,38,0.5501165986061096,3.911658525466919,28.371031275404395,28.998255551672727,114.55478508130274,103.9605518943244,9.713172767078504e-05,0.1019293591380119,0,0,0
9481,362846.3530322721,2011-01-07 15:26:07,750.3784869702181,2,38,0.550297200679779,3.915057897567749,28.37561774130971,28.998255551672727,114.57273343003152,103.9605518943244,9.713172767078504e-05,0.1019293591380119,0,0,0
9482,362876.3680417613,2011-01-07 15:26:37,780.3934964843148,2,38,0.5501165986061096,3.917971849441528,28.380204181136616,28.998255551672727,114.59069602372844,103.9605518943244,6.47544875391759e-05,0.1019293591380119,0,0,0
9483,362906.3831797104,2011-01-07 15:27:07,810.4086343984237,2,38,0.5499359965324402,3.920885801315308,28.38479063581632,28.998255551672727,114.60867244482291,103.9605518943244,6.47544875391759e-05,0.1019293591380119,0,0,0
9484,362936.398326657,2011-01-07 15:27:37,840.4237813550697,2,38,0.5501165986061096,3.923799753189087,28.38937708726216,28.998255551672727,114.62666202620234,103.9605518943244,0.0001295089750783,0.1019293591380119,0,0,0
9485,362966.41347870143,2011-01-07 15:28:08,870.4389334094204,2,38,0.5499359965324402,3.926228046417236,28.39396364236248,28.998255551672727,114.64466463678126,103.9605518943244,3.237724376958795e-05,0.1019293591380119,0,0,0
9486,362996.42870783794,2011-01-07 15:28:38,900.4541625258336,2,38,0.5501165986061096,3.9289801120758057,28.39855014169295,28.998255551672727,114.66267909134083,103.9605518943244,6.47544875391759e-05,0.1019293591380119,0,0,0
9487,363026.4437132618,2011-01-07 15:29:08,930.4691679397112,2,38,0.5501165986061096,3.931570291519165,28.403136600933763,28.998255551672727,114.68070513979234,103.9605518943244,9.713172767078504e-05,0.1019293591380119,0,0,0
9488,363056.4588674815,2011-01-07 15:29:38,960.4843221945464,2,38,0.5501165986061096,3.9339985847473145,28.40772315579049,28.998255551672727,114.69874300231966,103.9605518943244,6.47544875391759e-05,0.1019293591380119,0,0,0
9489,363086.4741153246,2011-01-07 15:30:08,990.4995700276072,2,38,0.5501165986061096,3.936264991760254,28.41230969765791,28.998255551672727,114.71679195475284,103.9605518943244,6.47544875391759e-05,0.1019293591380119,0,0,0
9490,363116.4891214452,2011-01-07 15:30:38,1020.5145761332088,2,38,0.5501165986061096,3.938855171203613,28.416896202306976,28.998255551672727,114.73485164812068,103.9605518943244,9.713172767078504e-05,0.1019293591380119,0,0,0
9491,363146.50425372034,2011-01-07 15:31:08,1050.5297083982389,2,38,0.5499359965324402,3.940959692001343,28.421482654190505,28.998255551672727,114.75292200491916,103.9605518943244,3.237724376958795e-05,0.1019293591380119,0,0,0
9492,363176.5194202257,2011-01-07 15:31:38,1080.5448749286684,2,38,0.5501165986061096,3.943387985229492,28.42606914095124,28.998255551672727,114.77100317714212,103.9605518943244,3.237724376958795e-05,0.1019293591380119,0,0,0
9493,363206.5346623595,2011-01-07 15:32:08,1110.5601170474874,2,38,0.5501165986061096,3.945654392242432,28.430655626308784,28.998255551672727,114.78909494997352,103.9605518943244,6.47544875391759e-05,0.1019293591380119,0,0,0
9494,363236.54991111485,2011-01-07 15:32:38,1140.5753658128722,2,38,0.5499359965324402,3.947758913040161,28.43524214247049,28.998255551672727,114.8071972645136,103.9605518943244,3.237724376958795e-05,0.1019293591380119,0,0,0
9495,363266.5647933768,2011-01-07 15:33:08,1170.59024805978,2,38,0.5501165986061096,3.950187206268311,28.43982859304683,28.998255551672727,114.82530969413448,103.9605518943244,3.237724376958795e-05,0.1019293591380119,0,0,0
9496,363296.5800943624,2011-01-07 15:33:38,1200.6055490503256,2,38,0.5501165986061096,3.95245361328125,28.44441511039988,28.998255551672727,114.8434326302735,103.9605518943244,9.713172767078504e-05,0.1019293591380119,0,0,0
9497,363326.5950762275,2011-01-07 15:34:08,1230.6205309054874,2,38,0.5499359965324402,3.9543962478637695,28.449001641226435,28.998255551672727,114.86156571615555,103.9605518943244,0.0,0.1019293591380119,0,0,0
9498,363356.6101975854,2011-01-07 15:34:38,1260.6356522633332,2,38,0.5499359965324402,3.956500768661499,28.453588172276863,28.998255551672727,114.8797088018129,103.9605518943244,-3.237724376958795e-05,0.1019293591380119,0,0,0
9499,363386.6253813838,2011-01-07 15:35:08,1290.6508360618002,2,38,0.5501165986061096,3.958929061889648,28.458174743017285,28.998255551672727,114.8978618532382,103.9605518943244,3.237724376958795e-05,0.1019293591380119,0,0,0
9500,363416.64048641606,2011-01-07 15:35:38,1320.6659410989696,2,38,0.5501165986061096,3.961033582687378,28.46276122703643,28.998255551672727,114.91602451948624,103.9605518943244,3.237724376958795e-05,0.1019293591380119,0,0,0
9501,363446.6577621583,2011-01-07 15:36:08,1350.683216941454,2,38,0.5499359965324402,3.9631381034851074,28.467348085556058,28.998255551672727,114.9341985207591,103.9605518943244,3.237724376958795e-05,0.1019293591380119,0,0,0
9502,363476.6707656878,2011-01-07 15:36:38,1380.69622037077,2,38,0.5501165986061096,3.965404510498047,28.47193425852139,28.998255551672727,114.95237960592978,103.9605518943244,9.713172767078504e-05,0.1019293591380119,0,0,0
9503,363506.686006704,2011-01-07 15:37:08,1410.711461406891,2,38,0.550297200679779,3.9676709175109854,28.47652077901333,28.998255551672727,114.97057188421994,103.9605518943244,9.713172767078504e-05,0.1019293591380119,0,0,0
9504,363536.7012629379,2011-01-07 15:37:38,1440.7267176258522,2,38,0.5501165986061096,3.969613552093506,28.481107333678548,28.998255551672727,114.98877410993406,103.9605518943244,6.47544875391759e-05,0.1019293591380119,0,0,0
9505,363566.7161598764,2011-01-07 15:38:08,1470.7416145593634,2,38,0.5501165986061096,3.971879959106445,28.48569382508833,28.998255551672727,115.00698590670748,103.9605518943244,6.47544875391759e-05,0.1019293591380119,0,0,0
9506,363596.73133037175,2011-01-07 15:38:38,1500.7567850596872,2,38,0.5499359965324402,3.973822593688965,28.49027981193217,28.998255551672727,115.02520541889946,103.9605518943244,3.237724376958795e-05,0.1019293591380119,0,0,0
9507,363626.7464264716,2011-01-07 15:39:08,1530.7718811846448,2,38,0.5499359965324402,3.976089000701904,28.494865546392187,28.998255551672727,115.04343371624672,103.9605518943244,3.237724376958795e-05,0.1019293591380119,0,0,0
9508,363656.7616126511,2011-01-07 15:39:38,1560.7870673289583,2,38,0.5501165986061096,3.977869749069214,28.49945184506947,28.998255551672727,115.0616739115703,103.9605518943244,3.237724376958795e-05,0.1019293591380119,0,0,0
9509,363686.77671527216,2011-01-07 15:40:08,1590.802169955119,2,38,0.5501165986061096,3.9802980422973633,28.504038338232096,28.998255551672727,115.07992462887084,103.9605518943244,6.47544875391759e-05,0.1019293591380119,0,0,0
9510,363716.79185444943,2011-01-07 15:40:38,1620.817309132376,2,38,0.5499359965324402,3.9824025630950928,28.508624737422608,28.998255551672727,115.09818482202932,103.9605518943244,3.237724376958795e-05,0.1019293591380119,0,0,0
9511,363746.8069876217,2011-01-07 15:41:08,1650.8324422996543,2,38,0.5501165986061096,3.9845070838928223,28.513211144274283,28.998255551672727,115.11645466950657,103.9605518943244,6.47544875391759e-05,0.1019293591380119,0,0,0
9512,363776.82226086815,2011-01-07 15:41:38,1680.847715566103,2,38,0.5501165986061096,3.986449718475342,28.51779758729536,28.998255551672727,115.13473437056172,103.9605518943244,3.237724376958795e-05,0.1019293591380119,0,0,0
9513,363806.83740862174,2011-01-07 15:42:08,1710.862863314723,2,38,0.550297200679779,3.988716125488281,28.522384052066197,28.998255551672727,115.15302378461658,103.9605518943244,3.237724376958795e-05,0.1019293591380119,0,0,0
9514,363836.85242359946,2011-01-07 15:42:38,1740.877878367624,2,38,0.550297200679779,3.9909825325012207,28.52697037552672,28.998255551672727,115.17132234278915,103.9605518943244,6.47544875391759e-05,0.1019293591380119,0,0,0
9515,363866.8675306416,2011-01-07 15:43:08,1770.8929853195657,2,38,0.550297200679779,3.99308705329895,28.53155683452144,28.998255551672727,115.18963124980772,103.9605518943244,6.47544875391759e-05,0.1019293591380119,0,0,0
9516,363896.8826771672,2011-01-07 15:43:38,1800.9081318451372,2,38,0.5501165986061096,3.9951913356781006,28.536143324861087,28.998255551672727,115.20794996280418,103.9605518943244,6.47544875391759e-05,0.1019293591380119,0,0,0
9517,363926.8978087705,2011-01-07 15:44:08,1830.9232634535304,2,38,0.550297200679779,3.99745774269104,28.54072969839436,28.998255551672727,115.22627805239888,103.9605518943244,9.713172767078504e-05,0.1019293591380119,0,0,0
9518,363956.9130773103,2011-01-07 15:44:38,1860.9385319982107,2,38,0.5501165986061096,3.99940037727356,28.545316190030967,28.998255551672727,115.24461650343736,103.9605518943244,9.713172767078504e-05,0.1019293591380119,0,0,0
9519,363986.92807106,2011-01-07 15:45:08,1890.9535257430057,2,38,0.550297200679779,4.001667022705078,28.5499025564428,28.998255551672727,115.26296438309863,103.9605518943244,6.47544875391759e-05,0.1019293591380119,0,0,0
9520,364016.9432399364,2011-01-07 15:45:38,1920.968694619282,2,38,0.5501165986061096,4.003609657287598,28.55448889136308,28.998255551672727,115.28132209380333,103.9605518943244,3.24249267578125e-05,0.1019293591380119,0,0,0
9521,364046.95834159007,2011-01-07 15:46:08,1950.9837962730187,2,38,0.5499359965324402,4.005876064300537,28.559075296515672,28.998255551672727,115.29969003816734,103.9605518943244,3.24249267578125e-05,0.1019293591380119,0,0,0
9522,364076.9737498379,2011-01-07 15:46:38,1980.9992045359204,2,38,0.5501165986061096,4.008142471313477,28.563661753267088,28.998255551672727,115.31806817526056,103.9605518943244,6.47544875391759e-05,0.1019293591380119,0,0,0
9523,364106.988622526,2011-01-07 15:47:08,2011.0140772039545,2,38,0.5501165986061096,4.010246753692627,28.568248147453797,28.998255551672727,115.3364560563267,103.9605518943244,6.47544875391759e-05,0.1019293591380119,0,0,0
9524,364137.0045842784,2011-01-07 15:47:38,2041.030038966347,2,38,0.5499359965324402,4.012513160705566,28.572834724690384,28.998255551672727,115.35485477597209,103.9605518943244,3.23295607813634e-05,0.1019293591380119,0,0,0
9525,364167.0188977076,2011-01-07 15:48:08,2071.0443523905733,2,38,0.5501165986061096,4.014779567718506,28.577421078960622,28.998255551672727,115.37326277307535,103.9605518943244,6.47544875391759e-05,0.1019293591380119,0,0,0
9526,364197.0342779757,2011-01-07 15:48:38,2101.059732663716,2,38,0.5501165986061096,4.017208099365234,28.5820075695644,28.998255551672727,115.39168165561766,103.9605518943244,0.0001295089750783,0.1019293591380119,0,0,0
9527,364227.0491901372,2011-01-07 15:49:08,2131.0746448452296,2,38,0.5501165986061096,4.019150733947754,28.5865940501008,28.998255551672727,115.41011096456376,103.9605518943244,0.0,0.1019293591380119,0,0,0
9528,364257.0643836499,2011-01-07 15:49:38,2161.0898385183077,2,38,0.5501165986061096,4.021740913391113,28.591180462567348,28.998255551672727,115.42855038853428,103.9605518943244,9.71794142969884e-05,0.1019293591380119,0,0,0
9529,364287.0795971574,2011-01-07 15:50:08,2191.105051875443,2,38,0.5501165986061096,4.024007320404053,28.595766928654232,28.998255551672727,115.44700077554532,103.9605518943244,3.24249267578125e-05,0.1019293591380119,0,0,0
9530,364317.09458205017,2011-01-07 15:50:38,2221.1200367330885,2,38,0.5501165986061096,4.026435375213623,28.600353420553603,28.998255551672727,115.46546209538006,103.9605518943244,9.70840483205393e-05,0.1019293591380119,0,0,0
9531,364347.1097036235,2011-01-07 15:51:08,2251.135158306472,2,38,0.5499359965324402,4.0287017822265625,28.60493980628115,28.998255551672727,115.48393400639252,103.9605518943244,6.47544875391759e-05,0.1019293591380119,0,0,0
9532,364377.12486366776,2011-01-07 15:51:38,2281.150318350736,2,38,0.5501165986061096,4.031291961669922,28.609526190493867,28.998255551672727,115.50241686336514,103.9605518943244,9.70840483205393e-05,0.1019293591380119,0,0,0
9533,364407.13997888536,2011-01-07 15:52:08,2311.165433568278,2,38,0.5499359965324402,4.033396720886231,28.614112544402666,28.998255551672727,115.52091073010097,103.9605518943244,0.0,0.1019293591380119,0,0,0
9534,364437.1552722719,2011-01-07 15:52:38,2341.180726994972,2,38,0.550297200679779,4.035986423492432,28.618698962745555,28.998255551672727,115.53941614159127,103.9605518943244,3.23295607813634e-05,0.1019293591380119,0,0,0
9535,364467.1702879765,2011-01-07 15:53:08,2371.1957426593976,2,38,0.5501165986061096,4.03873872756958,28.62328535213115,28.998255551672727,115.55793273432228,103.9605518943244,0.0001295089750783,0.1019293591380119,0,0,0
9536,364497.1856127563,2011-01-07 15:53:38,2401.211067464296,2,38,0.5497553944587708,4.0408430099487305,28.62787175723952,28.998255551672727,115.57646067764766,103.9605518943244,3.23295607813634e-05,0.1019293591380119,0,0,0
9537,364527.2005328174,2011-01-07 15:54:08,2431.2259875053983,2,38,0.5501165986061096,4.04343318939209,28.63245811542325,28.998255551672727,115.59500010764836,103.9605518943244,3.23295607813634e-05,0.1019293591380119,0,0,0
9538,364557.2156572529,2011-01-07 15:54:38,2461.2411119359017,2,38,0.5501165986061096,4.046185493469238,28.637044526965266,28.998255551672727,115.61355152336242,103.9605518943244,6.47544875391759e-05,0.1019293591380119,0,0,0
9539,364587.2307977585,2011-01-07 15:55:08,2491.256252466532,2,38,0.5501165986061096,4.0489373207092285,28.641630957669484,28.998255551672727,115.63211490423342,103.9605518943244,9.70840483205393e-05,0.1019293591380119,0,0,0
9540,364617.2459716824,2011-01-07 15:55:38,2521.271426375351,2,38,0.5501165986061096,4.051365852355957,28.64621746166723,28.998255551672727,115.6506905610813,103.9605518943244,6.47544875391759e-05,0.1019293591380119,0,0,0
9541,364647.24770827126,2011-01-07 15:56:08,2551.273163054459,2,38,0.550297200679779,4.054117679595947,28.65080189071889,28.998255551672727,115.66926987080907,103.9605518943244,9.70840483205393e-05,0.1019293591380119,0,0,0
9542,364677.263130935,2011-01-07 15:56:38,2581.2885857383017,2,38,0.550297200679779,4.056707859039307,28.65538835298405,28.998255551672727,115.68786957263934,103.9605518943244,3.23295607813634e-05,0.1019293591380119,0,0,0
9543,364707.275736603,2011-01-07 15:57:08,2611.3011912859743,2,38,0.550297200679779,4.059460163116455,28.659974423946025,28.998255551672727,115.70647992022298,103.9605518943244,6.47544875391759e-05,0.1019293591380119,0,0,0
9544,364737.2908574596,2011-01-07 15:57:38,2641.316312167633,2,38,0.5499359965324402,4.061888217926025,28.66456084034352,28.998255551672727,115.72510378015951,103.9605518943244,3.23295607813634e-05,0.1019293591380119,0,0,0
9545,364767.3060144111,2011-01-07 15:58:08,2671.331469094127,2,38,0.5501165986061096,4.064640522003174,28.66914723270772,28.998255551672727,115.74373995053844,103.9605518943244,3.24249267578125e-05,0.1019293591380119,0,0,0
9546,364797.32115111226,2011-01-07 15:58:38,2701.34660589045,2,38,0.550297200679779,4.067554473876953,28.673733629720488,28.998255551672727,115.76238875014802,103.9605518943244,9.71794142969884e-05,0.1019293591380119,0,0,0
9547,364827.33639140654,2011-01-07 15:59:08,2731.361846104522,2,38,0.5501165986061096,4.070306301116943,28.678320092063476,28.998255551672727,115.78105043319904,103.9605518943244,9.70840483205393e-05,0.1019293591380119,0,0,0
9548,364857.3514094018,2011-01-07 15:59:38,2761.376864084719,2,38,0.550297200679779,4.073058605194092,28.68290649594831,28.998255551672727,115.79972459769006,103.9605518943244,6.47544875391759e-05,0.1019293591380119,0,0,0
9549,364887.3665494061,2011-01-07 16:00:08,2791.392004089037,2,38,0.5501165986061096,4.075972557067871,28.68749296706452,28.998255551672727,115.81841211375672,103.9605518943244,9.71794142969884e-05,0.1019293591380119,0,0,0
9550,364917.3816550298,2011-01-07 16:00:39,2821.407109717681,2,38,0.5501165986061096,4.078724384307861,28.692079333372337,28.998255551672727,115.83711232897043,103.9605518943244,6.47544875391759e-05,0.1019293591380119,0,0,0
9551,364947.3967996254,2011-01-07 16:01:09,2851.422254318455,2,38,0.5499359965324402,4.081638336181641,28.696665810592087,28.998255551672727,115.8558263616438,103.9605518943244,6.47544875391759e-05,0.1019293591380119,0,0,0
9552,364977.41192322894,2011-01-07 16:01:39,2881.437377916885,2,38,0.5501165986061096,4.08455228805542,28.7012521884706,28.998255551672727,115.8745533726924,103.9605518943244,6.47544875391759e-05,0.1019293591380119,0,0,0
9553,365007.427249327,2011-01-07 16:02:09,2911.4527040450816,2,38,0.5501165986061096,4.087628364562988,28.705838667269436,28.998255551672727,115.89329431479544,103.9605518943244,6.47544875391759e-05,0.1019293591380119,0,0,0
9554,365037.4422004205,2011-01-07 16:02:39,2941.467655103489,2,38,0.5501165986061096,4.0903801918029785,28.710425053483725,28.998255551672727,115.91204841686782,103.9605518943244,6.47544875391759e-05,0.1019293591380119,0,0,0
9555,365067.45733858034,2011-01-07 16:03:09,2971.4827932682224,2,38,0.5501165986061096,4.093617916107178,28.715011478240186,28.998255551672727,115.9308163851299,103.9605518943244,9.70840483205393e-05,0.1019293591380119,0,0,0
9556,365097.4726053856,2011-01-07 16:03:39,3001.4980600886056,2,38,0.5501165986061096,4.096693992614746,28.71959792599118,28.998255551672727,115.94959837445596,103.9605518943244,9.71794142969884e-05,0.1019293591380119,0,0,0
9557,365127.4876359021,2011-01-07 16:04:09,3031.513090590009,2,38,0.5501165986061096,4.099607944488525,28.724184362920617,28.998255551672727,115.96839436393758,103.9605518943244,6.47544875391759e-05,0.1019293591380119,0,0,0
9558,365157.502756513,2011-01-07 16:04:39,3061.5282111959805,2,38,0.550297200679779,4.102845668792725,28.72877087535896,28.998255551672727,115.98720491964508,103.9605518943244,0.0001295089750783,0.1019293591380119,0,0,0
9559,365187.5180243459,2011-01-07 16:05:09,3091.5434790639747,2,38,0.550297200679779,4.106083393096924,28.733357324552355,28.998255551672727,116.00602963601564,103.9605518943244,9.71794142969884e-05,0.1019293591380119,0,0,0
9560,365217.53309631074,2011-01-07 16:05:39,3121.55855101368,2,38,0.5501165986061096,4.109158992767334,28.73794373699831,28.998255551672727,116.02486883624806,103.9605518943244,6.47544875391759e-05,0.1019293591380119,0,0,0
9561,365247.5481891675,2011-01-07 16:06:09,3151.5736438504423,2,38,0.5501165986061096,4.112396717071533,28.742530197131185,28.998255551672727,116.0437229453134,103.9605518943244,6.47544875391759e-05,0.1019293591380119,0,0,0
9562,365277.56342926127,2011-01-07 16:06:39,3181.588883984314,2,38,0.5501165986061096,4.115634441375732,28.747116604366084,28.998255551672727,116.06259152860986,103.9605518943244,9.71794142969884e-05,0.1019293591380119,0,0,0
9563,365307.57864206703,2011-01-07 16:07:09,3211.604096795089,2,38,0.5499359965324402,4.118872165679932,28.75170294195764,28.998255551672727,116.0814748456392,103.9605518943244,9.71794142969884e-05,0.1019293591380119,0,0,0
9564,365337.5935780779,2011-01-07 16:07:39,3241.619032785943,2,38,0.5501165986061096,4.122109889984131,28.75628924624089,28.998255551672727,116.10037313553332,103.9605518943244,6.47544875391759e-05,0.1019293591380119,0,0,0
9565,365367.6088762263,2011-01-07 16:08:09,3271.634331029644,2,38,0.5499359965324402,4.125509262084961,28.76087563868468,28.998255551672727,116.11928687939694,103.9605518943244,9.70840483205393e-05,0.1019293591380119,0,0,0
9566,365397.6260294333,2011-01-07 16:08:39,3301.651484206407,2,38,0.5501165986061096,4.128909111022949,28.76546234944605,28.998255551672727,116.13821721174688,103.9605518943244,6.47544875391759e-05,0.1019293591380119,0,0,0
9567,365427.63903235627,2011-01-07 16:09:09,3331.664487139486,2,38,0.5501165986061096,4.132146835327148,28.770048494715056,28.998255551672727,116.15716059628517,103.9605518943244,9.71794142969884e-05,0.1019293591380119,0,0,0
9568,365457.65411902766,2011-01-07 16:09:39,3361.67957370562,2,38,0.5501165986061096,4.1355462074279785,28.77463496811939,28.998255551672727,116.17612068953004,103.9605518943244,9.70840483205393e-05,0.1019293591380119,0,0,0
9569,365487.66951026814,2011-01-07 16:10:09,3391.694964971159,2,38,0.5501165986061096,4.138946056365967,28.779221478182787,28.998255551672727,116.19509661718494,103.9605518943244,6.47544875391759e-05,0.1019293591380119,0,0,0
9570,365517.6844044348,2011-01-07 16:10:39,3421.709859122737,2,38,0.5501165986061096,4.142669200897217,28.783807961902504,28.998255551672727,116.21408831218652,103.9605518943244,0.0001295089750783,0.1019293591380119,0,0,0
9571,365547.699527547,2011-01-07 16:11:09,3451.7249822249296,2,38,0.5501165986061096,4.146069049835205,28.788394426414957,28.998255551672727,116.23309613349026,103.9605518943244,9.71794142969884e-05,0.1019293591380119,0,0,0
9572,365577.7146768144,2011-01-07 16:11:39,3481.7401315023594,2,38,0.5501165986061096,4.149468421936035,28.792980836589017,28.998255551672727,116.25212002502936,103.9605518943244,3.23295607813634e-05,0.1019293591380119,0,0,0
9573,365607.7298288438,2011-01-07 16:12:09,3511.7552835316483,2,38,0.5499359965324402,4.153192043304443,28.797567283910578,28.998255551672727,116.27116024225796,103.9605518943244,6.47544875391759e-05,0.1019293591380119,0,0,0
9574,365637.7449630636,2011-01-07 16:12:39,3541.770417766588,2,38,0.5499359965324402,4.156915187835693,28.80215366931609,28.998255551672727,116.290216521405,103.9605518943244,9.70840483205393e-05,0.1019293591380119,0,0,0
9575,365667.76008268713,2011-01-07 16:13:09,3571.7855373800858,2,38,0.550297200679779,4.1604766845703125,28.80674004319353,28.998255551672727,116.30928925303132,103.9605518943244,0.0001295089750783,0.1019293591380119,0,0,0
9576,365697.77519127313,2011-01-07 16:13:39,3601.800645976125,2,38,0.5501165986061096,4.164038181304932,28.81132649782982,28.998255551672727,116.32837895256829,103.9605518943244,9.70840483205393e-05,0.1019293591380119,0,0,0
9577,365727.7904882136,2011-01-07 16:14:09,3631.815942901539,2,38,0.5501165986061096,4.16776180267334,28.81591294635852,28.998255551672727,116.34748527162536,103.9605518943244,0.0001295089750783,0.1019293591380119,0,0,0
9578,365757.805523527,2011-01-07 16:14:39,3661.830978209923,2,38,0.5499359965324402,4.171323299407959,28.82049924842543,28.998255551672727,116.3666078385705,103.9605518943244,9.71794142969884e-05,0.1019293591380119,0,0,0
9579,365787.8206547544,2011-01-07 16:15:09,3691.846109437367,2,38,0.5501165986061096,4.175046443939209,28.825085584990568,28.998255551672727,116.385747519804,103.9605518943244,0.0001295089750783,0.1019293591380119,0,0,0
9580,365817.835805295,2011-01-07 16:15:39,3721.86125998797,2,38,0.550297200679779,4.178931713104248,28.82967195270325,28.998255551672727,116.40490443082656,103.9605518943244,9.70840483205393e-05,0.1019293591380119,0,0,0
9581,365847.85112297215,2011-01-07 16:16:09,3751.8765776901664,2,38,0.550297200679779,4.182816982269287,28.83425834457407,28.998255551672727,116.42407879335896,103.9605518943244,0.0001295089750783,0.1019293591380119,0,0,0
9582,365877.8660595093,2011-01-07 16:16:39,3781.8915141872826,2,38,0.5501165986061096,4.186540603637695,28.8388447508439,28.998255551672727,116.44327059941445,103.9605518943244,9.71794142969884e-05,0.1019293591380119,0,0,0
9583,365907.8813315829,2011-01-07 16:17:09,3811.906786275795,2,38,0.5501165986061096,4.1901021003723145,28.843431091009315,28.998255551672727,116.4624797116229,103.9605518943244,6.47544875391759e-05,0.1019293591380119,0,0,0
9584,365937.8963860339,2011-01-07 16:17:39,3841.9218407268886,2,38,0.5501165986061096,4.194149017333984,28.84801745914436,28.998255551672727,116.48170649859442,103.9605518943244,9.70840483205393e-05,0.1019293591380119,0,0,0
9585,365967.91152578266,2011-01-07 16:18:09,3871.936980470557,2,38,0.5501165986061096,4.197872161865234,28.85260383089135,28.998255551672727,116.50095101376871,103.9605518943244,9.70840483205393e-05,0.1019293591380119,0,0,0
9586,365982.9580960003,2011-01-07 16:18:24,3886.983550718329,2,38,0.550297200679779,4.200138568878174,28.85490298178776,28.998255551672727,116.5106050067033,103.9605518943244,0.0001618385285837,0.1019293591380119,0,0,0
9587,366012.9612231896,2011-01-07 16:18:54,30.015116154878317,3,38,0.0,4.100903034210205,28.85490298178776,28.998255551672727,116.5106050067033,103.9605518943244,-0.0005180359003134,0.1019293591380119,0,0,0
9588,366042.97638290806,2011-01-07 16:19:24,60.03027589338042,3,38,0.0,4.088275909423828,28.85490298178776,28.998255551672727,116.5106050067033,103.9605518943244,-0.0002590179501567,0.1019293591380119,0,0,0
9589,366072.9915369574,2011-01-07 16:19:54,90.04542992766588,3,38,0.0,4.080667018890381,28.85490298178776,28.998255551672727,116.5106050067033,103.9605518943244,-0.0001619339018361,0.1019293591380119,0,0,0
9590,366102.95981804485,2011-01-07 16:20:24,120.0137110452204,3,38,0.0,4.075486660003662,28.85490298178776,28.998255551672727,116.5106050067033,103.9605518943244,-0.0001295089750783,0.1019293591380119,0,0,0
9591,366102.96378494776,2011-01-07 16:20:24,0.014041901739721,4,38,1.0171722173690796,4.199653148651123,28.85490697536697,28.998255551672727,116.51062177899652,103.9605518943244,-6.47544875391759e-05,0.1019293591380119,0,0,0
9592,366103.83874862647,2011-01-07 16:20:25,0.889005580446652,4,38,0.9667822122573853,4.199814796447754,28.855146678284378,28.998255551672727,116.51162847815608,103.9605518943244,-3.24249267578125e-05,0.1019293591380119,0,0,0
9593,366105.7762109087,2011-01-07 16:20:27,2.826467857583516,4,38,0.9163922071456908,4.199976921081543,28.855652338771705,28.998255551672727,116.5137521423657,103.9605518943244,0.0,0.1019293591380119,0,0,0
9594,366108.6979090243,2011-01-07 16:20:30,5.748165963246862,4,38,0.8661828637123108,4.199653148651123,28.85637469562284,28.998255551672727,116.51678590021422,103.9605518943244,-3.23295607813634e-05,0.1019293591380119,0,0,0
9595,366112.69784722605,2011-01-07 16:20:34,9.748104164995835,4,38,0.8159734606742859,4.199814796447754,28.857308013277077,28.998255551672727,116.52070563616807,103.9605518943244,3.23295607813634e-05,0.1019293591380119,0,0,0
9596,366117.91650917736,2011-01-07 16:20:39,14.966766116320676,4,38,0.7657641172409058,4.199814796447754,28.858453263977903,28.998255551672727,116.5255154859084,103.9605518943244,0.0,0.1019293591380119,0,0,0
9597,366124.7289063523,2011-01-07 16:20:46,21.7791632861902,4,38,0.7157353162765503,4.199814796447754,28.8598532701628,28.998255551672727,116.5313952614636,103.9605518943244,0.0,0.1019293591380119,0,0,0
9598,366133.5882621079,2011-01-07 16:20:55,30.638519046701006,4,38,0.6657065749168396,4.199814796447754,28.861550800019693,28.998255551672727,116.5385245743643,103.9605518943244,0.0,0.1019293591380119,0,0,0
9599,366145.9785565138,2011-01-07 16:21:07,43.028813447746685,4,38,0.6156777739524841,4.199653148651123,28.86375195388872,28.998255551672727,116.54776899937724,103.9605518943244,-3.23295607813634e-05,0.1019293591380119,0,0,0
9600,366164.5720082366,2011-01-07 16:21:26,61.62226517551436,4,38,0.5656490325927734,4.199814796447754,28.8667931998169,28.998255551672727,116.56054165326678,103.9605518943244,0.0,0.1019293591380119,0,0,0
9601,366196.508996463,2011-01-07 16:21:58,93.55925343702766,4,38,0.515620231628418,4.199814796447754,28.871568460434183,28.998255551672727,116.58059689068612,103.9605518943244,0.0,0.1019293591380119,0,0,0
9602,366258.3517249861,2011-01-07 16:23:00,155.40198192495143,4,38,0.4654108583927154,4.199653148651123,28.879953326818857,28.998255551672727,116.6158118481485,103.9605518943244,-3.23295607813634e-05,0.1019293591380119,0,0,0
9603,366361.1469306829,2011-01-07 16:24:43,258.19718761682964,4,38,0.4153820872306824,4.199814796447754,28.89249316566534,28.998255551672727,116.66847692730347,103.9605518943244,0.0,0.1019293591380119,0,0,0
9604,366493.7231376233,2011-01-07 16:26:55,390.7733945722416,4,38,0.3653533160686493,4.199653148651123,28.906850171131502,28.998255551672727,116.72877379053136,103.9605518943244,3.24249267578125e-05,0.1019293591380119,0,0,0
9605,366653.2049457755,2011-01-07 16:29:35,550.255202729495,4,38,0.3153245449066162,4.199976921081543,28.921906742389865,28.998255551672727,116.79200869939233,103.9605518943244,6.47544875391759e-05,0.1019293591380119,0,0,0
9606,366844.9828264026,2011-01-07 16:32:46,742.0330833415588,4,38,0.2652957737445831,4.199814796447754,28.93734023150639,28.998255551672727,116.85682662028424,103.9605518943244,-3.24249267578125e-05,0.1019293591380119,0,0,0
9607,367084.1195353268,2011-01-07 16:36:46,981.1697922707364,4,38,0.2150864005088806,4.199814796447754,28.953252136576424,28.998255551672727,116.92365374690098,103.9605518943244,3.23295607813634e-05,0.1019293591380119,0,0,0
9608,367398.3175927973,2011-01-07 16:42:00,1295.3678497312533,4,38,0.1648770272731781,4.199653148651123,28.969761976563984,28.998255551672727,116.9929921498634,103.9605518943244,0.0,0.1019293591380119,0,0,0
9609,367860.73189919017,2011-01-07 16:49:42,1757.782156129122,4,38,0.114848256111145,4.199653148651123,28.987530376391486,28.998255551672727,117.06761620489183,103.9605518943244,-6.47544875391759e-05,0.1019293591380119,0,0,0
9610,368701.8275397852,2011-01-07 17:03:43,2598.8777967241435,4,38,0.0648194849491119,4.199653148651123,29.007876703450076,28.998255551672727,117.15306686483548,103.9605518943244,-6.47544875391759e-05,0.1019293591380119,0,0,0
9611,369123.1333623626,2011-01-07 17:10:45,3020.18361930658,4,38,0.0498289167881011,4.199653148651123,29.014600913868605,28.998255551672727,117.18130749297224,103.9605518943244,-3.23295607813634e-05,0.1019293591380119,0,0,0
9612,369153.14060351386,2011-01-07 17:11:15,30.015151888938583,5,38,0.0,4.190587520599365,29.014600913868605,28.998255551672727,117.18130749297224,103.9605518943244,-6.47544875391759e-05,0.1019293591380119,0,0,0
9613,369183.1402213922,2011-01-07 17:11:45,60.014769767343225,5,38,0.0,4.188968658447266,29.014600913868605,28.998255551672727,117.18130749297224,103.9605518943244,-6.47544875391759e-05,0.1019293591380119,0,0,0
9614,369183.32075747394,2011-01-07 17:11:45,0.187473456537833,6,38,-1.9243103452026844e-05,4.189130783081055,29.014600913868605,28.99825555267483,117.18130749297224,103.96055189852234,0.0,0.1021136790513992,0,0,0
9615,369188.1487924125,2011-01-07 17:11:50,5.015508375104106,6,38,0.0008838032954372,4.189130783081055,29.01460183713261,28.99825555276021,117.18131136078668,103.96055189888,-3.23295607813634e-05,0.1021136790513992,0,0,0
9616,369215.4228810051,2011-01-07 17:12:17,27.28081535596409,7,38,-1.0997490882873535,3.989039897918701,29.01460183713261,29.00658861920562,117.18131136078668,103.99400322145772,-0.0012626647949218,0.1021136790513992,0,0,0
9617,369245.43803346046,2011-01-07 17:12:47,57.29596783136432,7,38,-1.0993878841400146,3.9508347511291504,29.01460183713261,29.015756783798217,117.18131136078668,104.0303908628715,-0.0008741855854168,0.1021136790513992,0,0,0
9618,369275.4531439663,2011-01-07 17:13:17,87.31107831711343,7,38,-1.0997490882873535,3.923152208328247,29.01460183713261,29.02492490306147,117.18131136078668,104.0664793481916,-0.0006475448608398,0.1021136790513992,0,0,0
9619,369305.4682867574,2011-01-07 17:13:47,117.3262211083778,7,38,-1.0997490882873535,3.9021072387695312,29.01460183713261,29.03409299236828,117.18131136078668,104.10234734143094,-0.0004856586456298,0.1021136790513992,0,0,0
9620,369335.4836379031,2011-01-07 17:14:17,147.34157225392516,7,38,-1.099929690361023,3.884299755096436,29.01460183713261,29.043261140628164,117.18131136078668,104.13803963569087,-0.0004856586456298,0.1021136790513992,0,0,0
9621,369365.49868793815,2011-01-07 17:14:47,177.3566223090626,7,38,-1.099568486213684,3.868920564651489,29.01460183713261,29.05242913700755,117.18131136078668,104.17358034271504,-0.0003885269106831,0.1021136790513992,0,0,0
9622,369395.51373281033,2011-01-07 17:15:17,207.3716671512076,7,38,-1.099568486213684,3.8546745777130127,29.01460183713261,29.06159722653324,117.18131136078668,104.20898504318242,-0.0004209041653666,0.1021136790513992,0,0,0
9623,369425.5288523286,2011-01-07 17:15:47,237.3867866895185,7,38,-1.099568486213684,3.841238021850586,29.01460183713261,29.07076534103233,117.18131136078668,104.24426338111084,-0.0003561496851034,0.1021136790513992,0,0,0
9624,369455.5464043093,2011-01-07 17:16:17,267.4043386652117,7,38,-1.0997490882873535,3.828773021697998,29.01460183713261,29.079934182612075,117.18131136078668,104.27942534760314,-0.0002913951757363,0.1021136790513992,0,0,0
9625,369485.5592737797,2011-01-07 17:16:47,297.4172081807736,7,38,-1.099568486213684,3.816631555557251,29.01460183713261,29.089101665387,117.18131136078668,104.31446932958744,-0.0003237724304199,0.1021136790513992,0,0,0
9626,369515.57424773526,2011-01-07 17:17:17,327.43218211118483,7,38,-1.0997490882873535,3.804975748062134,29.01460183713261,29.098269742543824,117.18131136078668,104.34940689473132,-0.0002913951757363,0.1021136790513992,0,0,0
9627,369545.5893842859,2011-01-07 17:17:47,357.44731862680834,7,38,-1.099568486213684,3.793967485427856,29.01460183713261,29.10743788215684,117.18131136078668,104.3842401775432,-0.0002590179501567,0.1021136790513992,0,0,0
9628,369575.6045351273,2011-01-07 17:18:17,387.4624694731485,7,38,-1.099568486213684,3.783121109008789,29.01460183713261,29.1166060368366,117.18131136078668,104.41897269246812,-0.0002590179501567,0.1021136790513992,0,0,0
9629,369605.6196618335,2011-01-07 17:18:47,417.47759618433633,7,38,-1.099568486213684,3.772760391235352,29.01460183713261,29.12577414914724,117.18131136078668,104.45360829679132,-0.0002266406954731,0.1021136790513992,0,0,0
9630,369635.6349247842,2011-01-07 17:19:17,447.49285914510006,7,38,-1.0997490882873535,3.762561559677124,29.01460183713261,29.13494236676525,117.18131136078668,104.48815053094832,-0.0002913951757363,0.1021136790513992,0,0,0
9631,369665.6499618169,2011-01-07 17:19:47,477.5078961627441,7,38,-1.099568486213684,3.7528486251831055,29.01460183713261,29.144110507476096,117.18131136078668,104.5226019310911,-0.0002589702489785,0.1021136790513992,0,0,0
9632,369695.66508340026,2011-01-07 17:20:18,507.5230177511645,7,38,-1.099568486213684,3.743459224700928,29.01460183713261,29.153278663907997,117.18131136078668,104.55696569685072,-0.0002590179501567,0.1021136790513992,0,0,0
9633,369725.680230763,2011-01-07 17:20:48,537.5381651138221,7,38,-1.099929690361023,3.73423171043396,29.01460183713261,29.16244686826245,117.18131136078668,104.59124472245824,-0.0002913951757363,0.1021136790513992,0,0,0
9634,369755.69534003065,2011-01-07 17:21:18,567.5532743815355,7,38,-1.099568486213684,3.725651741027832,29.01460183713261,29.171614997430822,117.18131136078668,104.62544098686725,-0.0001618862152099,0.1021136790513992,0,0,0
9635,369785.710499729,2011-01-07 17:21:48,597.5684340749251,7,38,-1.099929690361023,3.716747999191284,29.01460183713261,29.18078316612345,117.18131136078668,104.65955777452004,-0.0002266406954731,0.1021136790513992,0,0,0
9636,369815.725635964,2011-01-07 17:22:18,627.5835703198741,7,38,-1.0997490882873535,3.708491802215576,29.01460183713261,29.189951345778827,117.18131136078668,104.6935967755242,-0.0002266406954731,0.1021136790513992,0,0,0
9637,369845.7407555474,2011-01-07 17:22:48,657.5986899032974,7,38,-1.099568486213684,3.700559377670288,29.01460183713261,29.199119554494253,117.18131136078668,104.72756029266972,-0.0001618862152099,0.1021136790513992,0,0,0
9638,369875.75593668426,2011-01-07 17:23:18,687.6138710451432,7,38,-1.099568486213684,3.69246506690979,29.01460183713261,29.20828774503456,117.18131136078668,104.76144986651468,-0.0002266406954731,0.1021136790513992,0,0,0
9639,369905.771163535,2011-01-07 17:23:48,717.6290979009223,7,38,-1.099568486213684,3.684856414794922,29.01460183713261,29.21745598410151,117.18131136078668,104.79526747838314,-0.0001618862152099,0.1021136790513992,0,0,0
9640,369935.7861874901,2011-01-07 17:24:18,747.644121850998,7,38,-1.099568486213684,3.6772477626800537,29.01460183713261,29.22662410012401,117.18131136078668,104.82901467298603,-0.0001942634553415,0.1021136790513992,0,0,0
9641,369965.801439273,2011-01-07 17:24:48,777.659373633903,7,38,-1.0993878841400146,3.6696393489837646,29.01460183713261,29.235792347035677,117.18131136078668,104.8626935955484,-0.0001942634553415,0.1021136790513992,0,0,0
9642,369995.8164436944,2011-01-07 17:25:18,807.6743780553071,7,38,-1.0997490882873535,3.6621925830841056,29.01460183713261,29.244960513390783,117.18131136078668,104.89630335462998,-0.0001942634553415,0.1021136790513992,0,0,0
9643,370025.8317073268,2011-01-07 17:25:48,837.6896416827324,7,38,-1.099568486213684,3.654907703399658,29.01460183713261,29.254128715930765,117.18131136078668,104.92984618347732,-0.0001942634553415,0.1021136790513992,0,0,0
9644,370055.8467344798,2011-01-07 17:26:18,867.7046688357907,7,38,-1.0997490882873535,3.64794659614563,29.01460183713261,29.263296851101007,117.18131136078668,104.96332255885989,-0.0001295089750783,0.1021136790513992,0,0,0
9645,370085.8618710407,2011-01-07 17:26:48,897.7198053915142,7,38,-1.099568486213684,3.6406617164611816,29.01460183713261,29.27246490205008,117.18131136078668,104.99673306296856,-0.0001942634553415,0.1021136790513992,0,0,0
9646,370115.87702259375,2011-01-07 17:27:18,927.7349569496284,7,38,-1.099568486213684,3.6338624954223633,29.01460183713261,29.28163309144473,117.18131136078668,105.03008022454348,-0.0001618862152099,0.1021136790513992,0,0,0
9647,370145.8921285432,2011-01-07 17:27:48,957.750062904084,7,38,-1.0993878841400146,3.627225160598755,29.01460183713261,29.290801244146785,117.18131136078668,105.06336494740106,-0.0001295089750783,0.1021136790513992,0,0,0
9648,370175.9094347463,2011-01-07 17:28:18,987.767369192449,7,38,-1.099568486213684,3.6205878257751465,29.01460183713261,29.299970072246065,117.18131136078668,105.09659132055144,-0.0001618862152099,0.1021136790513992,0,0,0
9649,370205.9224071884,2011-01-07 17:28:48,1017.7803415443104,7,38,-1.099568486213684,3.613950490951538,29.01460183713261,29.3091375385312,117.18131136078668,105.1297531612413,-0.0001942634553415,0.1021136790513992,0,0,0
9650,370235.9375557039,2011-01-07 17:29:18,1047.7954900798914,7,38,-1.099568486213684,3.6076369285583496,29.01460183713261,29.3183056826136,117.18131136078668,105.16285844233924,-0.0001942634553415,0.1021136790513992,0,0,0
9651,370265.9528049856,2011-01-07 17:29:48,1077.8107393465252,7,38,-1.099568486213684,3.601323366165161,29.01460183713261,29.32747382436754,117.18131136078668,105.1959054900157,-0.0001618862152099,0.1021136790513992,0,0,0
9652,370295.968042097,2011-01-07 17:30:18,1107.8259764729016,7,38,-1.0993878841400146,3.5953335762023926,29.01460183713261,29.336642005391504,117.18131136078668,105.22889583608774,-0.0001618862152099,0.1021136790513992,0,0,0
9653,370325.9829584939,2011-01-07 17:30:48,1137.8408928498718,7,38,-1.0997490882873535,3.589344024658203,29.01460183713261,29.345810138868163,117.18131136078668,105.26183113104511,-0.0001618862152099,0.1021136790513992,0,0,0
9654,370355.9980383384,2011-01-07 17:31:18,1167.8559727092909,7,38,-1.099568486213684,3.5836780071258545,29.01460183713261,29.35497828169972,117.18131136078668,105.29471223645034,-9.713172767078504e-05,0.1021136790513992,0,0,0
9655,370386.0132251594,2011-01-07 17:31:48,1197.8711595252785,7,38,-1.099568486213684,3.577850103378296,29.01460183713261,29.364146434639142,117.18131136078668,105.32754104697818,-0.0001618862152099,0.1021136790513992,0,0,0
9656,370416.02836074267,2011-01-07 17:32:18,1227.886295098553,7,38,-1.099568486213684,3.572507858276367,29.01460183713261,29.37331456795875,117.18131136078668,105.36031880259712,-0.0001618862152099,0.1021136790513992,0,0,0
9657,370446.0435323608,2011-01-07 17:32:48,1257.9014667016256,7,38,-1.099568486213684,3.5671656131744385,29.01460183713261,29.382482779133145,117.18131136078668,105.39304686182628,-0.0001295089750783,0.1021136790513992,0,0,0
9658,370476.058663909,2011-01-07 17:33:18,1287.9165982699187,7,38,-1.099568486213684,3.56198525428772,29.01460183713261,29.39165094178376,117.18131136078668,105.42572617126316,-9.713172767078504e-05,0.1021136790513992,0,0,0
9659,370506.0738217428,2011-01-07 17:33:48,1317.9317560986613,7,38,-1.099568486213684,3.556804895401001,29.01460183713261,29.400819133374945,117.18131136078668,105.4583590928928,-0.0001618862152099,0.1021136790513992,0,0,0
9660,370536.08894841385,2011-01-07 17:34:18,1347.9468827697492,7,38,-1.099568486213684,3.551948308944702,29.01460183713261,29.40998730887864,117.18131136078668,105.49094633040292,-0.0001295089750783,0.1021136790513992,0,0,0
9661,370566.1040741726,2011-01-07 17:34:48,1377.9620085285635,7,38,-1.0997490882873535,3.5470917224884038,29.01460183713261,29.419155489578355,117.18131136078668,105.5234891187394,-0.0001295089750783,0.1021136790513992,0,0,0
9662,370596.1192265528,2011-01-07 17:35:18,1407.9771609087263,7,38,-1.0997490882873535,3.5423970222473145,29.01460183713261,29.42832364713389,117.18131136078668,105.55598805643729,-6.47544875391759e-05,0.1021136790513992,0,0,0
9663,370626.1343677802,2011-01-07 17:35:48,1437.9923021310806,7,38,-1.0997490882873535,3.5378642082214355,29.01460183713261,29.43749182618968,117.18131136078668,105.58844459959764,-0.0001295089750783,0.1021136790513992,0,0,0
9664,370656.14950339857,2011-01-07 17:36:18,1468.007437779543,7,38,-1.0997490882873535,3.5333313941955566,29.01460183713261,29.44666001387898,117.18131136078668,105.6208596254353,-0.0001295089750783,0.1021136790513992,0,0,0
9665,370686.1647512968,2011-01-07 17:36:48,1498.0226856527038,7,38,-1.0997490882873535,3.5287985801696777,29.01460183713261,29.455828271862885,117.18131136078668,105.6532339155421,-0.0001295089750783,0.1021136790513992,0,0,0
9666,370716.1798008207,2011-01-07 17:37:18,1528.0377351915542,7,38,-1.099568486213684,3.524427652359009,29.01460183713261,29.46499641347679,117.18131136078668,105.68556706180864,-0.0001295089750783,0.1021136790513992,0,0,0
9667,370746.19491380255,2011-01-07 17:37:48,1558.0528481484623,7,38,-1.099568486213684,3.52005672454834,29.01460183713261,29.47416463916789,117.18131136078668,105.71785996337094,-0.0001295089750783,0.1021136790513992,0,0,0
9668,370776.2100449599,2011-01-07 17:38:18,1588.0679793057311,7,38,-1.0997490882873535,3.515685796737671,29.01460183713261,29.48333279674407,117.18131136078668,105.75011243975202,-9.713172767078504e-05,0.1021136790513992,0,0,0
9669,370806.225449308,2011-01-07 17:38:48,1618.0833836639008,7,38,-1.099568486213684,3.511315107345581,29.01460183713261,29.492501130682285,117.18131136078668,105.78232530575332,-6.47544875391759e-05,0.1021136790513992,0,0,0
9670,370836.24043609545,2011-01-07 17:39:18,1648.0983704513555,7,38,-1.099568486213684,3.506944179534912,29.01460183713261,29.501669328400983,117.18131136078668,105.81449759626764,-9.713172767078504e-05,0.1021136790513992,0,0,0
9671,370866.2555678292,2011-01-07 17:39:48,1678.113502295336,7,38,-1.0997490882873535,3.502411365509033,29.01460183713261,29.51083753695893,117.18131136078668,105.84662933373396,-0.0001618862152099,0.1021136790513992,0,0,0
9672,370896.2707280739,2011-01-07 17:40:18,1708.1286624348377,7,38,-1.099568486213684,3.4980404376983643,29.01460183713261,29.520005717078103,117.18131136078668,105.87872049653812,-9.713172767078504e-05,0.1021136790513992,0,0,0
9673,370926.2858624091,2011-01-07 17:40:48,1738.1437967700267,7,38,-1.0993878841400146,3.4935076236724854,29.01460183713261,29.529173950527888,117.18131136078668,105.91077068022264,-0.0001295089750783,0.1021136790513992,0,0,0
9674,370956.3009836116,2011-01-07 17:41:18,1768.1589179724854,7,38,-1.0997490882873535,3.4889748096466064,29.01460183713261,29.538342121739216,117.18131136078668,105.94277871188324,-9.713172767078504e-05,0.1021136790513992,0,0,0
9675,370986.3159964289,2011-01-07 17:41:48,1798.1739307848022,7,38,-1.099568486213684,3.484118223190308,29.01460183713261,29.547510258468385,117.18131136078668,105.97474356326624,-0.0001295089750783,0.1021136790513992,0,0,0
9676,371016.3313019959,2011-01-07 17:42:18,1828.1892363617785,7,38,-1.0997490882873535,3.478937864303589,29.01460183713261,29.55667844553224,117.18131136078668,106.00666302081444,-0.0001618862152099,0.1021136790513992,0,0,0
9677,371046.3462639264,2011-01-07 17:42:48,1858.2041982722324,7,38,-1.0997490882873535,3.47391939163208,29.01460183713261,29.56584649123268,117.18131136078668,106.0385359286536,-0.0001295089750783,0.1021136790513992,0,0,0
9678,371076.36140770005,2011-01-07 17:43:18,1888.2193420459453,7,38,-1.0993878841400146,3.4689009189605717,29.01460183713261,29.575014630220306,117.18131136078668,106.07036178814732,-0.0001295089750783,0.1021136790513992,0,0,0
9679,371106.3765397997,2011-01-07 17:43:48,1918.2344741505751,7,38,-1.0997490882873535,3.4632349014282227,29.01460183713261,29.58418277055598,117.18131136078668,106.10213847861982,-0.0001618862152099,0.1021136790513992,0,0,0
9680,371136.39183059486,2011-01-07 17:44:18,1948.2497649607485,7,38,-1.0993878841400146,3.457406997680664,29.01460183713261,29.59335091383691,117.18131136078668,106.13386353817808,-0.0001618862152099,0.1021136790513992,0,0,0
9681,371166.4068131818,2011-01-07 17:44:48,1978.264747522672,7,38,-1.099929690361023,3.451255321502685,29.01460183713261,29.602519003139022,117.18131136078668,106.16553389296296,-0.0001942634553415,0.1021136790513992,0,0,0
9682,371196.42195391294,2011-01-07 17:45:18,2008.2798882588145,7,38,-1.099568486213684,3.444779872894287,29.01460183713261,29.61168706677565,117.18131136078668,106.19714671724698,-0.0001942634553415,0.1021136790513992,0,0,0
9683,371226.4372043375,2011-01-07 17:45:48,2038.2951387234336,7,38,-1.099568486213684,3.437818765640259,29.01460183713261,29.62085526593856,117.18131136078668,106.22869795629414,-0.0001942634553415,0.1021136790513992,0,0,0
9684,371256.4524175644,2011-01-07 17:46:18,2068.310351935208,7,38,-1.0993878841400146,3.43004846572876,29.01460183713261,29.6300234124036,117.18131136078668,106.26018145240486,-0.0002266406954731,0.1021136790513992,0,0,0
9685,371286.467369966,2011-01-07 17:46:48,2098.325304316913,7,38,-1.099568486213684,3.421306610107422,29.01460183713261,29.63919158132791,117.18131136078668,106.2915889360394,-0.0002590179501567,0.1021136790513992,0,0,0
9686,371316.4824989529,2011-01-07 17:47:18,2128.3404333037724,7,38,-1.099568486213684,3.4112696647644043,29.01460183713261,29.648359755255264,117.18131136078668,106.32291074799346,-0.0002590179501567,0.1021136790513992,0,0,0
9687,371346.4976632778,2011-01-07 17:47:48,2158.355597648755,7,38,-1.099568486213684,3.399613857269287,29.01460183713261,29.65752789077981,117.18131136078668,106.35413267376768,-0.0003237724304199,0.1021136790513992,0,0,0
9688,371376.513366917,2011-01-07 17:48:18,2188.3713013680253,7,38,-1.099568486213684,3.3856916427612305,29.01460183713261,29.666696166432253,117.18131136078668,106.38523901005976,-0.0003885269106831,0.1021136790513992,0,0,0
9689,371406.5280968242,2011-01-07 17:48:48,2218.386031210093,7,38,-1.099568486213684,3.3688554763793945,29.01460183713261,29.67586422724265,117.18131136078668,106.41620459906476,-0.0004856586456298,0.1021136790513992,0,0,0
9690,371436.54305024346,2011-01-07 17:49:18,2248.400984599309,7,38,-1.0997490882873535,3.348134279251098,29.01460183713261,29.68503229319801,117.18131136078668,106.44699938745002,-0.0006474971887655,0.1021136790513992,0,0,0
9691,371466.55818845326,2011-01-07 17:49:48,2278.4161227991303,7,38,-1.099568486213684,3.322394371032715,29.01460183713261,29.694200461775125,117.18131136078668,106.47758285406542,-0.0007446765666827,0.1021136790513992,0,0,0
9692,371496.57333610166,2011-01-07 17:50:18,2308.431270457525,7,38,-1.0993878841400146,3.289369583129883,29.01460183713261,29.703368622146076,117.18131136078668,106.5078981091972,-0.0009713172912597,0.1021136790513992,0,0,0
9693,371526.58845009614,2011-01-07 17:50:48,2338.446384472069,7,38,-1.099568486213684,3.246955633163452,29.01460183713261,29.71253678228872,117.18131136078668,106.5378706059178,-0.0012950897216796,0.1021136790513992,0,0,0
9694,371556.60373928223,2011-01-07 17:51:18,2368.4616736431567,7,38,-1.099568486213684,3.189971923828125,29.01460183713261,29.72170494358453,117.18131136078668,106.56739070511703,-0.0017483234405517,0.1021136790513992,0,0,0
9695,371586.6187421148,2011-01-07 17:51:48,2398.476676470588,7,38,-1.099568486213684,3.111133337020874,29.01460183713261,29.730873054266112,117.18131136078668,106.59629634512468,-0.0023959160316735,0.1021136790513992,0,0,0
9696,371616.6338935776,2011-01-07 17:52:19,2428.491827933465,7,38,-1.0997490882873535,2.9952232837677,29.01460183713261,29.740041234330267,117.18131136078668,106.62432787509948,-0.0037557601463049,0.1021136790513992,0,0,0
9697,371646.6491264534,2011-01-07 17:52:49,2458.5070608192723,7,38,-1.099568486213684,2.8158538341522217,29.01460183713261,29.749209415416157,117.18131136078668,106.65102494430435,-0.0056660175323486,0.1021136790513992,0,0,0
9698,371662.13314631017,2011-01-07 17:53:04,2473.991080661032,7,38,-1.0997490882873535,2.699943780899048,29.01460183713261,29.75393902061991,117.18131136078668,106.6640723978974,-0.0061192512512207,0.1021136790513992,0,0,0
9699,371722.1345198116,2011-01-07 17:54:04,60.01480342121904,8,38,0.0,3.540940046310425,29.01460183713261,29.75393902061991,117.18131136078668,106.6640723978974,0.0013274669181555,0.1021136790513992,0,0,0
9700,371722.32495449216,2011-01-07 17:54:04,0.187394885715167,9,38,0.0001613661734154,3.541911363601685,29.014601845532383,29.75393902061991,117.18131139053791,106.6640723978974,0.0,0.1004928275942802,0,0,0
9701,371727.15298114513,2011-01-07 17:54:09,5.015421503593571,9,38,0.0003419754502829,3.549034357070923,29.014602720710965,29.75393902061991,117.18131449359768,106.6640723978974,0.0011332035064697,0.1004928275942802,0,0,0
