Data_Point,Test_Time(s),Date_Time,Step_Time(s),Step_Index,Cycle_Index,Current(A),Voltage(V),Charge_Capacity(Ah),Discharge_Capacity(Ah),Charge_Energy(Wh),Discharge_Energy(Wh),dV/dt(V/s),Internal_Resistance(Ohm),Is_FC_Data,AC_Impedance(Ohm),ACI_Phase_Angle(Deg)
9207,352248.4963118804,2011-01-07 12:29:28,30.015155633270613,1,37,0.0,3.5987331867218018,27.51467581636125,28.24584398352756,111.105256927229,101.2713293339038,0.0006799221155233,0.1020214408636093,0,0,0
9208,352278.5113881308,2011-01-07 12:29:58,60.03023187366976,1,37,0.0,3.618483304977417,27.51467581636125,28.24584398352756,111.105256927229,101.2713293339038,0.0004856586456298,0.1020214408636093,0,0,0
9209,352308.5265130074,2011-01-07 12:30:28,90.0453567603103,1,37,0.0,3.6327292919158936,27.51467581636125,28.24584398352756,111.105256927229,101.2713293339038,0.0003885269106831,0.1020214408636093,0,0,0
9210,352338.49478676665,2011-01-07 12:30:58,120.0136305145131,1,37,0.0,3.643413782119751,27.51467581636125,28.24584398352756,111.105256927229,101.2713293339038,0.0002590179501567,0.1020214408636093,0,0,0
9211,352368.5067237485,2011-01-07 12:31:28,30.015115162404765,2,37,0.5499359965324402,3.767256259918213,27.51926215136964,28.24584398352756,111.12244254202612,101.2713293339038,0.0008418083307333,0.1020214408636093,0,0,0
9212,352398.5240359566,2011-01-07 12:31:58,60.0324275459607,2,37,0.550297200679779,3.790729761123657,27.523848819082573,28.24584398352756,111.1397806738386,101.2713293339038,0.0004532813909463,0.1020214408636093,0,0,0
9213,352428.53695769736,2011-01-07 12:32:28,90.04534909119651,2,37,0.5501165986061096,3.805137634277344,27.528434833544253,28.24584398352756,111.15719981220134,101.2713293339038,0.0003561496851034,0.1020214408636093,0,0,0
9214,352458.55222313927,2011-01-07 12:32:58,120.06061454818162,2,37,0.5501165986061096,3.8153364658355713,27.5330211803312,28.24584398352756,111.174675071474,101.2713293339038,0.0002590179501567,0.1020214408636093,0,0,0
9215,352488.5671748343,2011-01-07 12:33:28,150.07556622312532,2,37,0.5501165986061096,3.823754549026489,27.537607408515512,28.24584398352756,111.1921923721835,101.2713293339038,0.0002590179501567,0.1020214408636093,0,0,0
9216,352518.5823122823,2011-01-07 12:33:58,180.09070368109752,2,37,0.5501165986061096,3.831201314926148,27.54219366160333,28.24584398352756,111.20974629816526,101.2713293339038,0.0002266406954731,0.1020214408636093,0,0,0
9217,352548.5974533592,2011-01-07 12:34:28,210.10584477312688,2,37,0.5499359965324402,3.838324069976807,27.54677993702074,28.24584398352756,111.22733353098954,101.2713293339038,0.0002266406954731,0.1020214408636093,0,0,0
9218,352578.6125184719,2011-01-07 12:34:58,240.12090986072985,2,37,0.5497553944587708,3.844637632369995,27.55136619583625,28.24584398352756,111.24495172087217,101.2713293339038,0.0001295089750783,0.1020214408636093,0,0,0
9219,352608.6276389576,2011-01-07 12:35:28,270.13603037647675,2,37,0.5501165986061096,3.8507893085479736,27.55595249981774,28.24584398352756,111.26259906363263,101.2713293339038,0.0001295089750783,0.1020214408636093,0,0,0
9220,352638.6427694983,2011-01-07 12:35:58,300.1511608921466,2,37,0.5499359965324402,3.856779098510742,27.56053878848245,28.24584398352756,111.28027394438472,101.2713293339038,0.0001295089750783,0.1020214408636093,0,0,0
9221,352668.6578757435,2011-01-07 12:36:29,330.1662671323144,2,37,0.5501165986061096,3.862445116043091,27.565125042526983,28.24584398352756,111.29797499013524,101.2713293339038,0.0001618862152099,0.1020214408636093,0,0,0
9222,352698.6729951766,2011-01-07 12:36:59,360.18138657538793,2,37,0.5501165986061096,3.86778736114502,27.56971131110524,28.24584398352756,111.31570120329346,101.2713293339038,0.0001295089750783,0.1020214408636093,0,0,0
9223,352728.68810723623,2011-01-07 12:37:29,390.1964986300472,2,37,0.5501165986061096,3.8729677200317374,27.574297627517662,28.24584398352756,111.33345169927829,101.2713293339038,0.0001295089750783,0.1020214408636093,0,0,0
9224,352758.7033893898,2011-01-07 12:37:59,420.2117807886579,2,37,0.5499359965324402,3.877824306488037,27.578884031335363,28.24584398352756,111.35122578847825,101.2713293339038,9.713172767078504e-05,0.1020214408636093,0,0,0
9225,352788.7183434457,2011-01-07 12:38:29,450.2267348395232,2,37,0.5501165986061096,3.882842779159546,27.583470307716645,28.24584398352756,111.36902203074824,101.2713293339038,0.0001942634553415,0.1020214408636093,0,0,0
9226,352818.73346005165,2011-01-07 12:38:59,480.24185144552575,2,37,0.5501165986061096,3.887375593185425,27.58805662182571,28.24584398352756,111.3868403947966,101.2713293339038,9.713172767078504e-05,0.1020214408636093,0,0,0
9227,352848.7486076249,2011-01-07 12:39:29,510.2569990387582,2,37,0.5499359965324402,3.891908407211304,27.59264295663119,28.24584398352756,111.40468006226313,101.2713293339038,6.47544875391759e-05,0.1020214408636093,0,0,0
9228,352878.7637163763,2011-01-07 12:39:59,540.2721077701348,2,37,0.5499359965324402,3.8961174488067623,27.597229274778684,28.24584398352756,111.42253994986508,101.2713293339038,6.47544875391759e-05,0.1020214408636093,0,0,0
9229,352908.77881022054,2011-01-07 12:40:29,570.2872016093957,2,37,0.5501165986061096,3.9006502628326416,27.60181560913377,28.24584398352756,111.44041958005404,101.2713293339038,0.0001295089750783,0.1020214408636093,0,0,0
9230,352938.7940542792,2011-01-07 12:40:59,600.3024456931121,2,37,0.5501165986061096,3.90469741821289,27.606401857030747,28.24584398352756,111.45831799010774,101.2713293339038,9.713172767078504e-05,0.1020214408636093,0,0,0
9231,352968.8090699336,2011-01-07 12:41:29,630.3174613475123,2,37,0.5501165986061096,3.9085826873779297,27.6109881245869,28.24584398352756,111.47623480228307,101.2713293339038,9.713172767078504e-05,0.1020214408636093,0,0,0
9232,352998.82417748705,2011-01-07 12:41:59,660.3325688909282,2,37,0.5499359965324402,3.912306070327759,27.61557441545488,28.24584398352756,111.49416936635588,101.2713293339038,9.713172767078504e-05,0.1020214408636093,0,0,0
9233,353028.8394006837,2011-01-07 12:42:29,690.3477920926,2,37,0.5501165986061096,3.916029214859009,27.620160722181605,28.24584398352756,111.51212093889848,101.2713293339038,9.713172767078504e-05,0.1020214408636093,0,0,0
9234,353058.85447562585,2011-01-07 12:42:59,720.362867150051,2,37,0.5501165986061096,3.919266939163208,27.624746981884925,28.24584398352756,111.53008843065852,101.2713293339038,3.237724376958795e-05,0.1020214408636093,0,0,0
9235,353088.8695437811,2011-01-07 12:43:29,750.3779351749744,2,37,0.5501165986061096,3.922666549682617,27.629333345682195,28.24584398352756,111.54807171149264,101.2713293339038,9.713172767078504e-05,0.1020214408636093,0,0,0
9236,353118.8846493195,2011-01-07 12:43:59,780.3930407083809,2,37,0.5501165986061096,3.9257423877716064,27.63391967247767,28.24584398352756,111.56606953443092,101.2713293339038,6.47544875391759e-05,0.1020214408636093,0,0,0
9237,353148.90194727713,2011-01-07 12:44:29,810.4103386810204,2,37,0.5495747923851013,3.9286563396453857,27.638506318301104,28.24584398352756,111.5840825348776,101.2713293339038,3.237724376958795e-05,0.1020214408636093,0,0,0
9238,353178.91489839106,2011-01-07 12:44:59,840.4232897799129,2,37,0.5501165986061096,3.931732177734375,27.643092251546783,28.24584398352756,111.6021062111034,101.2713293339038,9.713172767078504e-05,0.1020214408636093,0,0,0
9239,353208.92999471654,2011-01-07 12:45:29,870.4383861103829,2,37,0.5501165986061096,3.9343223571777344,27.64767851636784,28.24584398352756,111.62014419760374,101.2713293339038,6.47544875391759e-05,0.1020214408636093,0,0,0
9240,353238.9453202633,2011-01-07 12:45:59,900.453711687205,2,37,0.5499359965324402,3.937074422836304,27.652264869879023,28.24584398352756,111.6381949675718,101.2713293339038,6.47544875391759e-05,0.1020214408636093,0,0,0
9241,353268.9602213321,2011-01-07 12:46:29,930.4686127209352,2,37,0.5501165986061096,3.939664602279663,27.656851189055477,28.24584398352756,111.65625785379686,101.2713293339038,6.47544875391759e-05,0.1020214408636093,0,0,0
9242,353298.9753336825,2011-01-07 12:46:59,960.4837251014064,2,37,0.550297200679779,3.942416667938232,27.661437442995304,28.24584398352756,111.67433237004992,101.2713293339038,9.713172767078504e-05,0.1020214408636093,0,0,0
9243,353328.9904579576,2011-01-07 12:47:29,990.4988493514604,2,37,0.5499359965324402,3.944844961166382,27.666023724517053,28.24584398352756,111.69241857511972,101.2713293339038,6.47544875391759e-05,0.1020214408636093,0,0,0
9244,353359.0055830999,2011-01-07 12:47:59,1020.5139745188008,2,37,0.550297200679779,3.9472732543945312,27.670610012225566,28.24584398352756,111.7105162727622,101.2713293339038,9.713172767078504e-05,0.1020214408636093,0,0,0
9245,353389.0207099414,2011-01-07 12:48:29,1050.529101335251,2,37,0.5501165986061096,3.94986343383789,27.67519625815667,28.24584398352756,111.728625058369,101.2713293339038,9.713172767078504e-05,0.1020214408636093,0,0,0
9246,353419.0358141014,2011-01-07 12:48:59,1080.5442054952343,2,37,0.5501165986061096,3.95212984085083,27.679782582793493,28.24584398352756,111.74674527872006,101.2713293339038,6.47544875391759e-05,0.1020214408636093,0,0,0
9247,353449.050953013,2011-01-07 12:49:29,1110.5593444168542,2,37,0.550297200679779,3.95455813407898,27.68436893404607,28.24584398352756,111.76487653445965,101.2713293339038,6.47544875391759e-05,0.1020214408636093,0,0,0
9248,353479.06606373936,2011-01-07 12:49:59,1140.574455133178,2,37,0.5497553944587708,3.956824541091919,27.688955293218324,28.24584398352756,111.78301868453676,101.2713293339038,6.47544875391759e-05,0.1020214408636093,0,0,0
9249,353509.0811646512,2011-01-07 12:50:29,1170.589556075141,2,37,0.5501165986061096,3.959252834320069,27.693541626734287,28.24584398352756,111.80117146258895,101.2713293339038,6.47544875391759e-05,0.1020214408636093,0,0,0
9250,353539.0962971418,2011-01-07 12:50:59,1200.6046885406706,2,37,0.5501165986061096,3.961519241333008,27.69812793094464,28.24584398352756,111.81933487058537,101.2713293339038,6.47544875391759e-05,0.1020214408636093,0,0,0
9251,353569.11136404896,2011-01-07 12:51:29,1230.6197554377834,2,37,0.5501165986061096,3.963947534561157,27.702714246491464,28.24584398352756,111.83750900278746,101.2713293339038,6.47544875391759e-05,0.1020214408636093,0,0,0
9252,353599.1265314666,2011-01-07 12:51:59,1260.6349228604367,2,37,0.5501165986061096,3.966375827789306,27.707300581008116,28.24584398352756,111.85569382520956,101.2713293339038,0.0001295089750783,0.1020214408636093,0,0,0
9253,353629.1416208497,2011-01-07 12:52:29,1290.6500122536168,2,37,0.5501165986061096,3.968480348587036,27.71188688007014,28.24584398352756,111.87388903825835,101.2713293339038,6.47544875391759e-05,0.1020214408636093,0,0,0
9254,353659.156862352,2011-01-07 12:52:59,1320.665253750887,2,37,0.5501165986061096,3.970746755599976,27.716473199942264,28.24584398352756,111.89209476955082,101.2713293339038,9.713172767078504e-05,0.1020214408636093,0,0,0
9255,353689.1718127538,2011-01-07 12:53:29,1350.6802041426324,2,37,0.5499359965324402,3.972851276397705,27.72105944671398,28.24584398352756,111.91031064374214,101.2713293339038,3.237724376958795e-05,0.1020214408636093,0,0,0
9256,353719.1870145572,2011-01-07 12:53:59,1380.6954059509856,2,37,0.5501165986061096,3.975117683410645,27.72564580140375,28.24584398352756,111.9285372797982,101.2713293339038,3.237724376958795e-05,0.1020214408636093,0,0,0
9257,353749.2020947825,2011-01-07 12:54:29,1410.7104861813289,2,37,0.5501165986061096,3.977545976638794,27.73023220170496,28.24584398352756,111.94677437905028,101.2713293339038,9.713172767078504e-05,0.1020214408636093,0,0,0
9258,353779.2175226091,2011-01-07 12:54:59,1440.7259140380645,2,37,0.5501165986061096,3.979812383651733,27.73481855260376,28.24584398352756,111.96502097910904,101.2713293339038,9.713172767078504e-05,0.1020214408636093,0,0,0
9259,353809.2324768956,2011-01-07 12:55:29,1470.7408683044666,2,37,0.5499359965324402,3.981916904449463,27.73940474371673,28.24584398352756,111.98327742487426,101.2713293339038,9.713172767078504e-05,0.1020214408636093,0,0,0
9260,353839.2474598736,2011-01-07 12:55:59,1500.7558512623773,2,37,0.5501165986061096,3.984021425247192,27.74399106240245,28.24584398352756,112.0015444316836,101.2713293339038,6.47544875391759e-05,0.1020214408636093,0,0,0
9261,353869.26268782705,2011-01-07 12:56:29,1530.7710792610044,2,37,0.5501165986061096,3.986287832260132,27.748577292271463,28.24584398352756,112.01982111156886,101.2713293339038,6.47544875391759e-05,0.1020214408636093,0,0,0
9262,353899.2779183219,2011-01-07 12:56:59,1560.7863097358031,2,37,0.5499359965324402,3.9882304668426514,27.753163536195025,28.24584398352756,112.03810785520672,101.2713293339038,3.237724376958795e-05,0.1020214408636093,0,0,0
9263,353929.29282562126,2011-01-07 12:57:29,1590.8012170401616,2,37,0.5501165986061096,3.990496873855591,27.757749778631432,28.24584398352756,112.05640437284636,101.2713293339038,6.47544875391759e-05,0.1020214408636093,0,0,0
9264,353959.3080085375,2011-01-07 12:57:59,1620.816399926355,2,37,0.5501165986061096,3.9927632808685294,27.762336066425487,28.24584398352756,112.07471093810511,101.2713293339038,9.713172767078504e-05,0.1020214408636093,0,0,0
9265,353989.3230344274,2011-01-07 12:58:29,1650.83142582629,2,37,0.5501165986061096,3.9948675632476807,27.76692235182967,28.24584398352756,112.09302738364728,101.2713293339038,6.47544875391759e-05,0.1020214408636093,0,0,0
9266,354019.33817958465,2011-01-07 12:58:59,1680.8465710035011,2,37,0.5501165986061096,3.99697208404541,27.77150852987313,28.24584398352756,112.11135329455644,101.2713293339038,6.47544875391759e-05,0.1020214408636093,0,0,0
9267,354049.3532298603,2011-01-07 12:59:29,1710.8616212842005,2,37,0.5501165986061096,3.9992384910583496,27.77609489165725,28.24584398352756,112.12968974536491,101.2713293339038,6.47544875391759e-05,0.1020214408636093,0,0,0
9268,354079.3683618797,2011-01-07 12:59:59,1740.8767532735433,2,37,0.550297200679779,4.001181125640869,27.78068198291835,28.24584398352756,112.14803911801025,101.2713293339038,3.23295607813634e-05,0.1020214408636093,0,0,0
9269,354109.38344581926,2011-01-07 13:00:29,1770.8918372381938,2,37,0.550297200679779,4.003447532653809,27.785268848653683,28.24584398352756,112.16639750354403,101.2713293339038,3.23295607813634e-05,0.1020214408636093,0,0,0
9270,354139.39862293605,2011-01-07 13:00:59,1800.907014334958,2,37,0.550297200679779,4.005552291870117,27.789855905867217,28.24584398352756,112.18476656686092,101.2713293339038,3.24249267578125e-05,0.1020214408636093,0,0,0
9271,354169.4137264094,2011-01-07 13:01:29,1830.922117803217,2,37,0.5501165986061096,4.007656574249268,27.794443028570864,28.24584398352756,112.20314588772156,101.2713293339038,0.0,0.1020214408636093,0,0,0
9272,354199.42908148974,2011-01-07 13:01:59,1860.9374729086337,2,37,0.5501165986061096,4.009922981262207,27.79903021497013,28.24584398352756,112.2215353984582,101.2713293339038,3.23295607813634e-05,0.1020214408636093,0,0,0
9273,354229.44394467416,2011-01-07 13:02:29,1890.9523360980445,2,37,0.550297200679779,4.012027740478516,27.803617189381832,28.24584398352756,112.23993399232224,101.2713293339038,3.24249267578125e-05,0.1020214408636093,0,0,0
9274,354259.4590549293,2011-01-07 13:02:59,1920.9674463431936,2,37,0.5501165986061096,4.014455795288086,27.808203567065977,28.24584398352756,112.2583402055469,101.2713293339038,9.70840483205393e-05,0.1020214408636093,0,0,0
9275,354289.47417777084,2011-01-07 13:03:29,1950.9825691847373,2,37,0.5501165986061096,4.0165605545043945,27.812789963047404,28.24584398352756,112.27675661176733,101.2713293339038,6.47544875391759e-05,0.1020214408636093,0,0,0
9276,354319.4915134775,2011-01-07 13:03:59,1980.999904956584,2,37,0.5499359965324402,4.018664836883545,27.81737671168436,28.24584398352756,112.29518463642502,101.2713293339038,3.23295607813634e-05,0.1020214408636093,0,0,0
9277,354349.5061550045,2011-01-07 13:04:29,2011.0145464033435,2,37,0.5501165986061096,4.021093368530273,27.821962995356817,28.24584398352756,112.31362095019946,101.2713293339038,9.71794142969884e-05,0.1020214408636093,0,0,0
9278,354379.5195920896,2011-01-07 13:04:59,2041.027983488464,2,37,0.5499359965324402,4.023197650909424,27.82654897507559,28.24584398352756,112.33206643663956,101.2713293339038,3.23295607813634e-05,0.1020214408636093,0,0,0
9279,354409.534703222,2011-01-07 13:05:29,2071.0430946107995,2,37,0.5501165986061096,4.025464057922363,27.83113532907946,28.24584398352756,112.35052384778726,101.2713293339038,3.23295607813634e-05,0.1020214408636093,0,0,0
9280,354439.549859161,2011-01-07 13:05:59,2101.0582505748944,2,37,0.5501165986061096,4.027892589569092,27.83572169413502,28.24584398352756,112.36899180528444,101.2713293339038,9.71794142969884e-05,0.1020214408636093,0,0,0
9281,354469.56493533123,2011-01-07 13:06:29,2131.073326720056,2,37,0.5501165986061096,4.030158996582031,27.840308069951995,28.24584398352756,112.38747035979462,101.2713293339038,6.47544875391759e-05,0.1020214408636093,0,0,0
9282,354499.5800515713,2011-01-07 13:06:59,2161.088442960147,2,37,0.5501165986061096,4.032425403594971,27.84489436686156,28.24584398352756,112.40595917892308,101.2713293339038,6.47544875391759e-05,0.1020214408636093,0,0,0
9283,354529.59535173484,2011-01-07 13:07:29,2191.103743153706,2,37,0.5501165986061096,4.034853458404541,27.84948075249207,28.24584398352756,112.42445914835466,101.2713293339038,6.47544875391759e-05,0.1020214408636093,0,0,0
9284,354559.6103123019,2011-01-07 13:07:59,2221.118703705775,2,37,0.5501165986061096,4.037281513214111,27.85406708171857,28.24584398352756,112.44296974992916,101.2713293339038,9.70840483205393e-05,0.1020214408636093,0,0,0
9285,354589.6254146023,2011-01-07 13:08:30,2251.133805996098,2,37,0.5499359965324402,4.039547920227051,27.85865345932282,28.24584398352756,112.46149147478458,101.2713293339038,3.23295607813634e-05,0.1020214408636093,0,0,0
9286,354619.64053249144,2011-01-07 13:09:00,2281.1489238903114,2,37,0.5501165986061096,4.041976451873779,27.86323983605696,28.24584398352756,112.48002414192422,101.2713293339038,3.24249267578125e-05,0.1020214408636093,0,0,0
9287,354649.6556706411,2011-01-07 13:09:30,2311.1640620600574,2,37,0.5499359965324402,4.04440450668335,27.86782618399191,28.24584398352756,112.49856789013084,101.2713293339038,6.47544875391759e-05,0.1020214408636093,0,0,0
9288,354679.670786781,2011-01-07 13:10:00,2341.179178169823,2,37,0.5501165986061096,4.046833038330078,27.87241256343208,28.24584398352756,112.5171229839542,101.2713293339038,6.47544875391759e-05,0.1020214408636093,0,0,0
9289,354709.68588731694,2011-01-07 13:10:30,2371.1942787158,2,37,0.5501165986061096,4.049584865570068,27.876998900447564,28.24584398352756,112.53568928200905,101.2713293339038,9.70840483205393e-05,0.1020214408636093,0,0,0
9290,354739.70101242914,2011-01-07 13:11:00,2401.2094038229898,2,37,0.5499359965324402,4.051851272583008,27.88158527879928,28.24584398352756,112.55426713459612,101.2713293339038,6.47544875391759e-05,0.1020214408636093,0,0,0
9291,354769.716251771,2011-01-07 13:11:30,2431.224643194963,2,37,0.5501165986061096,4.054441452026367,27.886171656354723,28.24584398352756,112.57285659747548,101.2713293339038,6.47544875391759e-05,0.1020214408636093,0,0,0
9292,354799.7313660964,2011-01-07 13:12:00,2461.239757580431,2,37,0.5499359965324402,4.057031631469727,27.89075801683005,28.24584398352756,112.5914576749186,101.2713293339038,6.47544875391759e-05,0.1020214408636093,0,0,0
9293,354829.746375836,2011-01-07 13:12:30,2491.254767229865,2,37,0.5501165986061096,4.059621810913086,27.895344384530556,28.24584398352756,112.6100707342809,101.2713293339038,6.47544875391759e-05,0.1020214408636093,0,0,0
9294,354859.76163780433,2011-01-07 13:13:00,2521.2700292282307,2,37,0.5501165986061096,4.062211990356445,27.89993086179416,28.24584398352756,112.62869586807346,101.2713293339038,9.70840483205393e-05,0.1020214408636093,0,0,0
9295,354889.77663467685,2011-01-07 13:13:30,2551.28502616097,2,37,0.5497553944587708,4.064802169799805,27.90451714304596,28.24584398352756,112.64733224878876,101.2713293339038,6.47544875391759e-05,0.1020214408636093,0,0,0
9296,354919.7917556338,2011-01-07 13:14:00,2581.300147027592,2,37,0.5501165986061096,4.067554473876953,27.9091034793568,28.24584398352756,112.66598110310818,101.2713293339038,9.71794142969884e-05,0.1020214408636093,0,0,0
9297,354949.80699720123,2011-01-07 13:14:30,2611.3153886100745,2,37,0.5501165986061096,4.070306301116943,27.91368987763081,28.24584398352756,112.68464257666967,101.2713293339038,9.70840483205393e-05,0.1020214408636093,0,0,0
9298,354979.82199286576,2011-01-07 13:15:00,2641.3303842596165,2,37,0.5501165986061096,4.072896480560303,27.918276191975668,28.24584398352756,112.70331611582696,101.2713293339038,6.47544875391759e-05,0.1020214408636093,0,0,0
9299,355009.83725690923,2011-01-07 13:15:30,2671.3456483281407,2,37,0.5501165986061096,4.075810432434082,27.92286251149051,28.24584398352756,112.72200235095885,101.2713293339038,9.70840483205393e-05,0.1020214408636093,0,0,0
9300,355039.8522507944,2011-01-07 13:16:00,2701.36064218321,2,37,0.5501165986061096,4.078562736511231,27.92744879971833,28.24584398352756,112.74070120449458,101.2713293339038,6.47544875391759e-05,0.1020214408636093,0,0,0
9301,355069.86955963407,2011-01-07 13:16:30,2731.377951032959,2,37,0.5497553944587708,4.081314563751221,27.93203550960575,28.24584398352756,112.75941466474735,101.2713293339038,6.47544875391759e-05,0.1020214408636093,0,0,0
9302,355099.8824911542,2011-01-07 13:17:00,2761.390882558068,2,37,0.5499359965324402,4.084066867828369,27.936621488296133,28.24584398352756,112.77813804151629,101.2713293339038,3.24249267578125e-05,0.1020214408636093,0,0,0
9303,355129.8975768582,2011-01-07 13:17:30,2791.4059682670654,2,37,0.5499359965324402,4.087142467498779,27.941207819982672,28.24584398352756,112.79687605849875,101.2713293339038,0.0001295089750783,0.1020214408636093,0,0,0
9304,355159.9127225366,2011-01-07 13:18:00,2821.4211139304884,2,37,0.5501165986061096,4.089894771575928,27.94579412676512,28.24584398352756,112.8156272207778,101.2713293339038,3.24249267578125e-05,0.1020214408636093,0,0,0
9305,355189.92798934696,2011-01-07 13:18:30,2851.436380765909,2,37,0.5501165986061096,4.092808723449707,27.950380436614985,28.24584398352756,112.83439168219562,101.2713293339038,3.24249267578125e-05,0.1020214408636093,0,0,0
9306,355219.9429874076,2011-01-07 13:19:00,2881.451378801398,2,37,0.5501165986061096,4.095884323120117,27.954966676218547,28.24584398352756,112.853169185921,101.2713293339038,9.70840483205393e-05,0.1020214408636093,0,0,0
9307,355249.9581241337,2011-01-07 13:19:30,2911.466515532558,2,37,0.5501165986061096,4.0987982749938965,27.959553013323298,28.24584398352756,112.87196070408844,101.2713293339038,9.70840483205393e-05,0.1020214408636093,0,0,0
9308,355279.97326654906,2011-01-07 13:20:00,2941.4816579679355,2,37,0.5497553944587708,4.101712226867676,27.96413936142301,28.24584398352756,112.89076601033004,101.2713293339038,9.70840483205393e-05,0.1020214408636093,0,0,0
9309,355309.9883479172,2011-01-07 13:20:30,2971.496739316065,2,37,0.5501165986061096,4.104788303375244,27.96872568253468,28.24584398352756,112.9095849698568,101.2713293339038,9.71794142969884e-05,0.1020214408636093,0,0,0
9310,355340.00359984045,2011-01-07 13:21:00,3001.5119912593696,2,37,0.5499359965324402,4.107702255249023,27.973312013446417,28.24584398352756,112.9284179884486,101.2713293339038,6.47544875391759e-05,0.1020214408636093,0,0,0
9311,355370.0185952744,2011-01-07 13:21:30,3031.526986673324,2,37,0.5499359965324402,4.110939979553223,27.977898317932347,28.24584398352756,112.94726503027763,101.2713293339038,9.71794142969884e-05,0.1020214408636093,0,0,0
9312,355400.03374493285,2011-01-07 13:22:00,3061.542136326691,2,37,0.5501165986061096,4.114177703857422,27.98248468855512,28.24584398352756,112.96612664121643,101.2713293339038,9.71794142969884e-05,0.1020214408636093,0,0,0
9313,355430.0489745756,2011-01-07 13:22:30,3091.557366079691,2,37,0.5499359965324402,4.117091178894043,27.98707103617003,28.24584398352756,112.98500258041832,101.2713293339038,3.23295607813634e-05,0.1020214408636093,0,0,0
9314,355460.0639655535,2011-01-07 13:23:00,3121.5723569523275,2,37,0.5501165986061096,4.120491027832031,27.991657384008604,28.24584398352756,113.00389300689848,101.2713293339038,9.71794142969884e-05,0.1020214408636093,0,0,0
9315,355490.0791058836,2011-01-07 13:23:30,3151.587497302508,2,37,0.5499359965324402,4.123566627502441,27.996243754910875,28.24584398352756,113.02279812506592,101.2713293339038,9.70840483205393e-05,0.1020214408636093,0,0,0
9316,355520.0944047238,2011-01-07 13:24:00,3181.6027961276563,2,37,0.5499359965324402,4.126804351806641,28.000830102808543,28.24584398352756,113.04171788100976,101.2713293339038,9.70840483205393e-05,0.1020214408636093,0,0,0
9317,355550.1093342435,2011-01-07 13:24:30,3211.6177256373576,2,37,0.5501165986061096,4.130204200744629,28.00541642679554,28.24584398352756,113.06065241657508,101.2713293339038,0.0001295089750783,0.1020214408636093,0,0,0
9318,355580.124703419,2011-01-07 13:25:00,3241.6330948278787,2,37,0.5501165986061096,4.133279800415039,28.010002819788166,28.24584398352756,113.07960220984612,101.2713293339038,6.47544875391759e-05,0.1020214408636093,0,0,0
9319,355610.13958010706,2011-01-07 13:25:30,3271.6479715059068,2,37,0.5501165986061096,4.136679649353027,28.01458911247664,28.24584398352756,113.09856669646904,101.2713293339038,9.71794142969884e-05,0.1020214408636093,0,0,0
9320,355640.1547268532,2011-01-07 13:26:00,3301.663118242003,2,37,0.5501165986061096,4.139917373657227,28.01917557041597,28.24584398352756,113.11754720902098,101.2713293339038,6.47544875391759e-05,0.1020214408636093,0,0,0
9321,355670.1698300157,2011-01-07 13:26:30,3331.678221414525,2,37,0.5499359965324402,4.143478870391846,28.02376197024781,28.24584398352756,113.13654299894188,101.2713293339038,6.47544875391759e-05,0.1020214408636093,0,0,0
9322,355700.18540329987,2011-01-07 13:27:00,3361.693794723773,2,37,0.5499359965324402,4.146878242492676,28.02834844588593,28.24584398352756,113.15555485167864,101.2713293339038,6.47544875391759e-05,0.1020214408636093,0,0,0
9323,355730.2000700296,2011-01-07 13:27:30,3391.7084614234705,2,37,0.5501165986061096,4.150439739227295,28.03293470805157,28.24584398352756,113.1745816217908,101.2713293339038,0.0001295089750783,0.1020214408636093,0,0,0
9324,355760.2152090014,2011-01-07 13:28:00,3421.723600400228,2,37,0.550297200679779,4.153839588165283,28.03752109063985,28.24584398352756,113.19362474939616,101.2713293339038,9.71794142969884e-05,0.1020214408636093,0,0,0
9325,355790.2303116325,2011-01-07 13:28:30,3451.738703026389,2,37,0.5501165986061096,4.157401084899902,28.042107434158577,28.24584398352756,113.21268362962648,101.2713293339038,9.71794142969884e-05,0.1020214408636093,0,0,0
9326,355820.245563636,2011-01-07 13:29:00,3481.753955074956,2,37,0.5499359965324402,4.160800457000732,28.046693773897047,28.24584398352756,113.23175866851156,101.2713293339038,9.70840483205393e-05,0.1020214408636093,0,0,0
9327,355850.2605610599,2011-01-07 13:29:30,3511.768952453808,2,37,0.5499359965324402,4.164200305938721,28.051280113789957,28.24584398352756,113.250849977791,101.2713293339038,3.24249267578125e-05,0.1020214408636093,0,0,0
9328,355880.27569152054,2011-01-07 13:30:00,3541.78408291434,2,37,0.5501165986061096,4.167923450469971,28.05586642624577,28.24584398352756,113.2699574959648,101.2713293339038,6.47544875391759e-05,0.1020214408636093,0,0,0
9329,355910.29085863737,2011-01-07 13:30:30,3571.799250131481,2,37,0.5501165986061096,4.171647071838379,28.06045274959062,28.24584398352756,113.2890815574784,101.2713293339038,6.47544875391759e-05,0.1020214408636093,0,0,0
9330,355940.30605212,2011-01-07 13:31:00,3601.814443528872,2,37,0.5501165986061096,4.175208568572998,28.06503906974505,28.24584398352756,113.30822217035686,101.2713293339038,0.0001295089750783,0.1020214408636093,0,0,0
9331,355970.3210564812,2011-01-07 13:31:30,3631.8294478801017,2,37,0.5499359965324402,4.178770065307617,28.06962537304653,28.24584398352756,113.32737941039052,101.2713293339038,6.47544875391759e-05,0.1020214408636093,0,0,0
9332,356000.3363278179,2011-01-07 13:32:00,3661.844719211728,2,37,0.5501165986061096,4.182816982269287,28.074211702085705,28.24584398352756,113.34655366477617,101.2713293339038,0.0001295089750783,0.1020214408636093,0,0,0
9333,356030.3513125903,2011-01-07 13:32:30,3691.8597039841607,2,37,0.5501165986061096,4.186378479003906,28.078798034333172,28.24584398352756,113.36574500445818,101.2713293339038,0.0001295089750783,0.1020214408636093,0,0,0
9334,356060.3664287101,2011-01-07 13:33:00,3721.874820103951,2,37,0.5499359965324402,4.1901021003723145,28.083384426879785,28.24584398352756,113.38495391338138,101.2713293339038,0.0001295089750783,0.1020214408636093,0,0,0
9335,356090.38155998767,2011-01-07 13:33:30,3751.88995138152,2,37,0.5501165986061096,4.1939873695373535,28.08797080057564,28.24584398352756,113.40418009827474,101.2713293339038,0.0001295089750783,0.1020214408636093,0,0,0
9336,356120.39689224114,2011-01-07 13:34:00,3781.905283660045,2,37,0.5501165986061096,4.197710514068604,28.09255723613248,28.24584398352756,113.4234239574366,101.2713293339038,9.71794142969884e-05,0.1020214408636093,0,0,0
9337,356137.5370161989,2011-01-07 13:34:17,3799.0454075977823,2,37,0.5501165986061096,4.200138568878174,28.095176270711143,28.24584398352756,113.43442081805124,101.2713293339038,0.0001295089750783,0.1020214408636093,0,0,0
9338,356167.5661547893,2011-01-07 13:34:48,30.015215763132733,3,37,0.0,4.0989603996276855,28.095176270711143,28.24584398352756,113.43442081805124,101.2713293339038,-0.0004208564641885,0.1020214408636093,0,0,0
9339,356197.58110762713,2011-01-07 13:35:18,60.030168580924766,3,37,0.0,4.086009502410889,28.095176270711143,28.24584398352756,113.43442081805124,101.2713293339038,-0.0001942634553415,0.1020214408636093,0,0,0
9340,356227.59637362044,2011-01-07 13:35:48,90.04543458928407,3,37,0.0,4.077753067016602,28.095176270711143,28.24584398352756,113.43442081805124,101.2713293339038,-0.0001619339018361,0.1020214408636093,0,0,0
9341,356257.5646889834,2011-01-07 13:36:18,120.01374995720104,3,37,0.0,4.072248935699463,28.095176270711143,28.24584398352756,113.43442081805124,101.2713293339038,-0.0001619339018361,0.1020214408636093,0,0,0
9342,356257.5804543704,2011-01-07 13:36:18,2.882183288e-06,4,37,1.0252996683120728,4.199814796447754,28.095176271532004,28.24584398352756,113.43442082149872,101.2713293339038,0.0,0.1020214408636093,0,0,0
9343,356258.28362183005,2011-01-07 13:36:18,0.703170361901971,4,37,0.9747290015220642,4.199976921081543,28.09537018596464,28.24584398352756,113.43523521264562,101.2713293339038,3.24249267578125e-05,0.1020214408636093,0,0,0
9344,356260.1115567864,2011-01-07 13:36:20,2.531105303217249,4,37,0.924519658088684,4.199814796447754,28.09585137573548,28.24584398352756,113.43725609845988,101.2713293339038,0.0,0.1020214408636093,0,0,0
9345,356262.9244287138,2011-01-07 13:36:23,5.34397723055924,4,37,0.8744908571243286,4.199653148651123,28.09655334970357,28.24584398352756,113.44020423363146,101.2713293339038,-3.23295607813634e-05,0.1020214408636093,0,0,0
9346,356266.8304183969,2011-01-07 13:36:27,9.249966933742558,4,37,0.8242815136909485,4.199814796447754,28.09747377088622,28.24584398352756,113.44406978995796,101.2713293339038,3.23295607813634e-05,0.1020214408636093,0,0,0
9347,356271.9555208692,2011-01-07 13:36:32,14.37506939603319,4,37,0.774252712726593,4.199814796447754,28.098610093971605,28.24584398352756,113.44884209991818,101.2713293339038,3.23295607813634e-05,0.1020214408636093,0,0,0
9348,356278.58001663093,2011-01-07 13:36:39,20.99956516279034,4,37,0.7240433692932129,4.199814796447754,28.09998674473592,28.24584398352756,113.45462373923134,101.2713293339038,0.0,0.1020214408636093,0,0,0
9349,356287.37675434304,2011-01-07 13:36:48,29.79630285480737,4,37,0.6736533641815186,4.199653148651123,28.101691733671345,28.24584398352756,113.46178433533406,101.2713293339038,-3.23295607813634e-05,0.1020214408636093,0,0,0
9350,356299.4078224366,2011-01-07 13:37:00,41.8273709533761,4,37,0.6236245632171631,4.199653148651123,28.103854795969355,28.24584398352756,113.4708687564592,101.2713293339038,-3.23295607813634e-05,0.1020214408636093,0,0,0
9351,356317.0794994231,2011-01-07 13:37:17,59.499047944878,4,37,0.5735958218574524,4.199653148651123,28.106785072799426,28.24584398352756,113.48317530936411,101.2713293339038,-3.23295607813634e-05,0.1020214408636093,0,0,0
9352,356347.2819828498,2011-01-07 13:37:47,89.70153136162435,4,37,0.5235670208930969,4.199814796447754,28.111368519804508,28.24584398352756,113.50242483831862,101.2713293339038,0.0,0.1020214408636093,0,0,0
9353,356406.3591297074,2011-01-07 13:38:47,148.77867821416453,4,37,0.4735382795333862,4.199814796447754,28.119509630291333,28.24584398352756,113.53661624759378,101.2713293339038,0.0,0.1020214408636093,0,0,0
9354,356509.0761914505,2011-01-07 13:40:29,251.4957399823406,4,37,0.4235095083713531,4.199814796447754,28.13226666941923,28.24584398352756,113.59019393018514,101.2713293339038,3.23295607813634e-05,0.1020214408636093,0,0,0
9355,356642.6676993232,2011-01-07 13:42:43,385.0872478349888,4,37,0.3733001351356506,4.199653148651123,28.147033923977823,28.24584398352756,113.65221421960048,101.2713293339038,-3.23295607813634e-05,0.1020214408636093,0,0,0
9356,356804.3681308125,2011-01-07 13:45:25,546.7876793242389,4,37,0.3232713639736175,4.199814796447754,28.16266470282607,28.24584398352756,113.71786121704828,101.2713293339038,-3.24249267578125e-05,0.1020214408636093,0,0,0
9357,356998.0992884569,2011-01-07 13:48:38,740.5188369586509,4,37,0.273061990737915,4.199814796447754,28.17868876633872,28.24584398352756,113.78515985353978,101.2713293339038,3.23295607813634e-05,0.1020214408636093,0,0,0
9358,357237.0796730477,2011-01-07 13:52:37,979.4992215595022,4,37,0.2230332195758819,4.199814796447754,28.195120138222837,28.24584398352756,113.85416918615611,101.2713293339038,0.0,0.1020214408636093,0,0,0
9359,357544.7308651404,2011-01-07 13:57:45,1287.150413672152,4,37,0.1730044484138488,4.199653148651123,28.21197688577734,28.24584398352756,113.92496511853147,101.2713293339038,-3.23295607813634e-05,0.1020214408636093,0,0,0
9360,357983.87981946726,2011-01-07 14:05:04,1726.2993679740275,4,37,0.1229756772518158,4.199814796447754,28.2298933187066,28.24584398352756,114.00021152145256,101.2713293339038,-3.24249267578125e-05,0.1020214408636093,0,0,0
9361,358748.07033891225,2011-01-07 14:17:48,2490.489887419029,4,37,0.0727662965655326,4.199814796447754,28.25020999241404,28.24584398352756,114.08553851529402,101.2713293339038,0.0,0.1020214408636093,0,0,0
9362,359382.60677144915,2011-01-07 14:28:23,3125.026319965915,4,37,0.0498289167881011,4.199653148651123,28.260952376584807,28.24584398352756,114.13065498590596,101.2713293339038,-3.23295607813634e-05,0.1020214408636093,0,0,0
9363,359412.6270931291,2011-01-07 14:28:53,30.01515424481014,5,37,0.0,4.190587520599365,28.260952376584807,28.24584398352756,114.13065498590596,101.2713293339038,-6.47544875391759e-05,0.1020214408636093,0,0,0
9364,359442.626716431,2011-01-07 14:29:23,60.01477753670687,5,37,0.0,4.188968658447266,28.260952376584807,28.24584398352756,114.13065498590596,101.2713293339038,0.0,0.1020214408636093,0,0,0
9365,359442.80459752417,2011-01-07 14:29:23,0.187487441392393,6,37,-1.9243103452026844e-05,4.188968658447266,28.260952376584807,28.24584398452973,114.13065498590596,101.27132933810188,0.0,0.1039224565029144,0,0,0
9366,359447.63290741807,2011-01-07 14:29:28,5.015797345306765,6,37,0.0007031940040178,4.188968658447266,28.260953293424823,28.24584398469676,114.13065882666176,101.27132933880154,-6.47544875391759e-05,0.1039224565029144,0,0,0
9367,359472.52909069165,2011-01-07 14:29:53,24.90583670339924,7,37,-1.099568486213684,3.988878011703491,28.260953293424823,28.25345142918456,114.13065882666176,101.301858671133,-0.0013274193042889,0.1039224565029144,0,0,0
9368,359502.54450558603,2011-01-07 14:30:23,54.92125161286591,7,37,-1.099568486213684,3.948244571685791,28.260953293424823,28.26261946672041,114.13065882666176,101.33823382082606,-0.0009713172912597,0.1039224565029144,0,0,0
9369,359532.55937786814,2011-01-07 14:30:53,84.93612387990068,7,37,-1.099568486213684,3.919590711593628,28.260953293424823,28.2717872938672,114.13065882666176,101.37429293172592,-0.0006475448608398,0.1039224565029144,0,0,0
9370,359562.57462648314,2011-01-07 14:31:23,114.95137260017272,7,37,-1.099568486213684,3.8974125385284415,28.260953293424823,28.28095524929703,114.13065882666176,101.41012151178406,-0.0005504131549969,0.1039224565029144,0,0,0
9371,359592.58962056873,2011-01-07 14:31:53,144.9663665805546,7,37,-1.0993878841400146,3.8794431686401367,28.260953293424823,28.290123094403658,114.13065882666176,101.44576708349706,-0.0004532813909463,0.1039224565029144,0,0,0
9372,359622.6048935195,2011-01-07 14:32:23,174.9816395763287,7,37,-1.0997490882873535,3.863416433334351,28.260953293424823,28.299291149016703,114.13065882666176,101.48125833027804,-0.0004209041653666,0.1039224565029144,0,0,0
9373,359652.6198768583,2011-01-07 14:32:53,204.99662289012616,7,37,-1.0997490882873535,3.848846673965454,28.260953293424823,28.30845977859257,114.13065882666176,101.51661297884807,-0.0003885269106831,0.1039224565029144,0,0,0
9374,359682.63502309314,2011-01-07 14:33:23,235.01176909991057,7,37,-1.0997490882873535,3.8352482318878174,28.260953293424823,28.31762847311903,114.13065882666176,101.55184019185666,-0.0004209041653666,0.1039224565029144,0,0,0
9375,359712.65015834564,2011-01-07 14:33:53,265.02690436241096,7,37,-1.0997490882873535,3.82262134552002,28.260953293424823,28.32679713007242,114.13065882666176,101.58694720341904,-0.0003561496851034,0.1039224565029144,0,0,0
9376,359742.66527564335,2011-01-07 14:34:23,295.04202166515006,7,37,-1.0997490882873535,3.810479879379273,28.260953293424823,28.335965604679885,114.13065882666176,101.62193986870446,-0.0002913951757363,0.1039224565029144,0,0,0
9377,359772.6804082893,2011-01-07 14:34:53,325.0571542960918,7,37,-1.099568486213684,3.7988240718841553,28.260953293424823,28.345133461915733,114.13065882666176,101.65682090805608,-0.0003561496851034,0.1039224565029144,0,0,0
9378,359802.69555240887,2011-01-07 14:35:23,355.0722984457417,7,37,-1.0997490882873535,3.787815809249878,28.260953293424823,28.35430139366152,114.13065882666176,101.69159793198207,-0.0002590179501567,0.1039224565029144,0,0,0
9379,359832.7106876564,2011-01-07 14:35:53,385.0874336932046,7,37,-1.099568486213684,3.7769694328308105,28.260953293424823,28.36346932535028,114.13065882666176,101.72627473654669,-0.0002913951757363,0.1039224565029144,0,0,0
9380,359862.72580085887,2011-01-07 14:36:23,415.1025468706623,7,37,-1.099568486213684,3.766770601272583,28.260953293424823,28.37263731053428,114.13065882666176,101.76085516545524,-0.0002913951757363,0.1039224565029144,0,0,0
9381,359892.74093358003,2011-01-07 14:36:53,445.1176796118788,7,37,-1.099568486213684,3.756895542144776,28.260953293424823,28.3818052543063,114.13065882666176,101.79534389354478,-0.0002266406954731,0.1039224565029144,0,0,0
9382,359922.7562859687,2011-01-07 14:37:23,475.1330319754619,7,37,-1.0997490882873535,3.747344493865967,28.260953293424823,28.390973330221048,114.13065882666176,101.82974387248576,-0.0002266406954731,0.1039224565029144,0,0,0
9383,359952.77120163385,2011-01-07 14:37:53,505.14794764065823,7,37,-1.0997490882873535,3.738116979598999,28.260953293424823,28.40014125721317,114.13065882666176,101.86405683263946,-0.0002590179501567,0.1039224565029144,0,0,0
9384,359982.7863476782,2011-01-07 14:38:23,535.1630937902927,7,37,-1.099568486213684,3.729051351547241,28.260953293424823,28.409309282632623,114.13065882666176,101.89828604291458,-0.0002590179501567,0.1039224565029144,0,0,0
9385,360012.8014712867,2011-01-07 14:38:53,565.1782173085228,7,37,-1.0997490882873535,3.7203094959259033,28.260953293424823,28.41847719564683,114.13065882666176,101.93243426712093,-0.0002266406954731,0.1039224565029144,0,0,0
9386,360042.818830898,2011-01-07 14:39:23,595.1955769448472,7,37,-1.099568486213684,3.711729526519776,28.260953293424823,28.42764591929621,114.13065882666176,101.966506252243,-0.0002913951757363,0.1039224565029144,0,0,0
9387,360072.8334275832,2011-01-07 14:39:53,625.2101736099972,7,37,-1.0993878841400146,3.7037971019744873,28.260953293424823,28.436813742973527,114.13065882666176,102.0004977920928,-0.0001618862152099,0.1039224565029144,0,0,0
9388,360102.8468760667,2011-01-07 14:40:23,655.2236220885129,7,37,-1.099568486213684,3.6955409049987793,28.260953293424823,28.445981200886013,114.13065882666176,102.03441353132654,-0.0001942634553415,0.1039224565029144,0,0,0
9389,360132.86200462753,2011-01-07 14:40:53,685.2387506342732,7,37,-1.0993878841400146,3.687608480453491,28.260953293424823,28.455149189486825,114.13065882666176,102.06825801886816,-0.0001942634553415,0.1039224565029144,0,0,0
9390,360162.87715583475,2011-01-07 14:41:23,715.2539018715876,7,37,-1.0993878841400146,3.679837942123413,28.260953293424823,28.464317182332536,114.13065882666176,102.10202996759378,-0.0001942634553415,0.1039224565029144,0,0,0
9391,360192.8922840196,2011-01-07 14:41:53,745.2690300363984,7,37,-1.099568486213684,3.672229528427124,28.260953293424823,28.473485187756825,114.13065882666176,102.13573118856073,-0.0001942157687153,0.1039224565029144,0,0,0
9392,360222.9073960592,2011-01-07 14:42:23,775.2841420710076,7,37,-1.099568486213684,3.664620876312256,28.260953293424823,28.482653141964057,114.13065882666176,102.16936278749613,-0.0001618862152099,0.1039224565029144,0,0,0
9393,360252.92268017266,2011-01-07 14:42:53,805.2994262145656,7,37,-1.099568486213684,3.657335996627808,28.260953293424823,28.49182118219389,114.13065882666176,102.20292681901414,-0.0001942634553415,0.1039224565029144,0,0,0
9394,360282.93767277466,2011-01-07 14:43:23,835.3144187914495,7,37,-1.099568486213684,3.65005111694336,28.260953293424823,28.50098914913925,114.13065882666176,102.2364235109288,-0.0002266406954731,0.1039224565029144,0,0,0
9395,360312.9529202669,2011-01-07 14:43:54,865.3296663187483,7,37,-1.099568486213684,3.643090009689331,28.260953293424823,28.510157197495875,114.13065882666176,102.26985480109524,-0.0001942634553415,0.1039224565029144,0,0,0
9396,360342.9679321268,2011-01-07 14:44:24,895.3446781335792,7,37,-1.099568486213684,3.6362907886505127,28.260953293424823,28.51932511610781,114.13065882666176,102.30322244020016,-0.0001295089750783,0.1039224565029144,0,0,0
9397,360372.9830618255,2011-01-07 14:44:54,925.3598078322124,7,37,-1.0997490882873535,3.6294915676116943,28.260953293424823,28.528493072444306,114.13065882666176,102.33652835884097,-0.0001942634553415,0.1039224565029144,0,0,0
9398,360402.9982039752,2011-01-07 14:45:24,955.3749500821278,7,37,-1.099568486213684,3.622854232788086,28.260953293424823,28.53766109939973,114.13065882666176,102.36977321895787,-0.0001942634553415,0.1039224565029144,0,0,0
9399,360433.01331076666,2011-01-07 14:45:54,985.3900567784324,7,37,-1.099568486213684,3.616378784179688,28.260953293424823,28.54682914745343,114.13065882666176,102.40295844848492,-0.0002266406954731,0.1039224565029144,0,0,0
9400,360463.02845033485,2011-01-07 14:46:24,1015.405196346664,7,37,-1.099568486213684,3.610065221786499,28.260953293424823,28.555997189725844,114.13065882666176,102.436084928503,-0.0001942634553415,0.1039224565029144,0,0,0
9401,360493.04361636913,2011-01-07 14:46:54,1045.4203624159445,7,37,-1.0993878841400146,3.603751659393311,28.260953293424823,28.5651651582889,114.13065882666176,102.469152868617,-0.0001618862152099,0.1039224565029144,0,0,0
9402,360523.0587596666,2011-01-07 14:47:24,1075.4355056884078,7,37,-1.0997490882873535,3.597438097000122,28.260953293424823,28.574333140767955,114.13065882666176,102.50216367767425,-0.0002266406954731,0.1039224565029144,0,0,0
9403,360553.0738429646,2011-01-07 14:47:54,1105.4505889813845,7,37,-1.0997490882873535,3.5917723178863525,28.260953293424823,28.583501202969984,114.13065882666176,102.53511900065294,-0.0001294612884521,0.1039224565029144,0,0,0
9404,360583.08916714793,2011-01-07 14:48:24,1135.465913169746,7,37,-1.099568486213684,3.585782527923584,28.260953293424823,28.592669243985007,114.13065882666176,102.56802013101552,-0.0001618862152099,0.1039224565029144,0,0,0
9405,360613.10410983046,2011-01-07 14:48:54,1165.4808558673155,7,37,-1.099568486213684,3.5802783966064453,28.260953293424823,28.601837179150184,114.13065882666176,102.60086940393334,-0.0001618862152099,0.1039224565029144,0,0,0
9406,360643.1192600452,2011-01-07 14:49:24,1195.496006097119,7,37,-1.0993878841400146,3.5749361515045166,28.260953293424823,28.611005252419144,114.13065882666176,102.63366869921018,-0.0001295089750783,0.1039224565029144,0,0,0
9407,360673.1344002801,2011-01-07 14:49:54,1225.5111464071997,7,37,-1.099568486213684,3.569593906402588,28.260953293424823,28.62017330920236,114.13065882666176,102.66641873836429,-0.0001618862152099,0.1039224565029144,0,0,0
9408,360703.1495037534,2011-01-07 14:50:24,1255.526249785234,7,37,-1.099568486213684,3.564089775085449,28.260953293424823,28.62934131887907,114.13065882666176,102.69912087395898,-0.0001942634553415,0.1039224565029144,0,0,0
9409,360733.16468348674,2011-01-07 14:50:54,1285.5414295085443,7,37,-1.099568486213684,3.5592331886291504,28.260953293424823,28.63850938365441,114.13065882666176,102.73177588012692,-0.0001618862152099,0.1039224565029144,0,0,0
9410,360763.1797646645,2011-01-07 14:51:24,1315.5565107012865,7,37,-1.0997490882873535,3.5542147159576416,28.260953293424823,28.647677424127497,114.13065882666176,102.76438423831866,-0.0001295089750783,0.1039224565029144,0,0,0
9411,360793.19705606566,2011-01-07 14:51:54,1345.5738022779851,7,37,-1.099568486213684,3.549196243286133,28.260953293424823,28.656846084529825,114.13065882666176,102.79694881281884,-0.0001295089750783,0.1039224565029144,0,0,0
9412,360823.2101527725,2011-01-07 14:52:24,1375.586898794303,7,37,-1.099568486213684,3.544501543045044,28.260953293424823,28.66601351545601,114.13065882666176,102.82946420338584,-0.0001295089750783,0.1039224565029144,0,0,0
9413,360853.22514856746,2011-01-07 14:52:54,1405.6018945741696,7,37,-1.099568486213684,3.539968729019165,28.260953293424823,28.67518155211165,114.13065882666176,102.86193921214344,-9.713172767078504e-05,0.1039224565029144,0,0,0
9414,360883.2403465663,2011-01-07 14:53:24,1435.617092573028,7,37,-1.099568486213684,3.535435914993286,28.260953293424823,28.684349670152425,114.13065882666176,102.89437268804524,-9.713172767078504e-05,0.1039224565029144,0,0,0
9415,360913.2554327314,2011-01-07 14:53:54,1465.6321787381628,7,37,-1.0993878841400146,3.5309031009674072,28.260953293424823,28.693517751977065,114.13065882666176,102.92676393944312,-0.0001295089750783,0.1039224565029144,0,0,0
9416,360943.2705525854,2011-01-07 14:54:24,1495.6472985922608,7,37,-1.099568486213684,3.5265321731567383,28.260953293424823,28.70268587500288,114.13065882666176,102.95911497469103,-9.713172767078504e-05,0.1039224565029144,0,0,0
9417,360973.28581205255,2011-01-07 14:54:54,1525.662558089392,7,37,-1.099568486213684,3.52199935913086,28.260953293424823,28.711853991624075,114.13065882666176,102.99142577169536,-0.0001618862152099,0.1039224565029144,0,0,0
9418,361003.3008326794,2011-01-07 14:55:24,1555.67757868611,7,37,-1.099568486213684,3.5176284313201904,28.260953293424823,28.7210220095382,114.13065882666176,103.02369540408998,-6.47544875391759e-05,0.1039224565029144,0,0,0
9419,361033.315970413,2011-01-07 14:55:54,1585.6927164448318,7,37,-1.099568486213684,3.513257503509521,28.260953293424823,28.73019009049001,114.13065882666176,103.05592492123591,-9.713172767078504e-05,0.1039224565029144,0,0,0
9420,361063.33121214586,2011-01-07 14:56:24,1615.7079581827015,7,37,-1.099568486213684,3.5087249279022217,28.260953293424823,28.73935816382999,114.13065882666176,103.08811393462788,-0.0001295089750783,0.1039224565029144,0,0,0
9421,361093.34623208095,2011-01-07 14:56:54,1645.7229781177705,7,37,-1.0997490882873535,3.5046777725219727,28.260953293424823,28.74852620407477,114.13065882666176,103.12026373164342,-6.47544875391759e-05,0.1039224565029144,0,0,0
9422,361123.3614938237,2011-01-07 14:57:24,1675.7382398504735,7,37,-1.099568486213684,3.500306844711304,28.260953293424823,28.757694340649728,114.13065882666176,103.15237450801752,-9.713172767078504e-05,0.1039224565029144,0,0,0
9423,361153.3764843956,2011-01-07 14:57:54,1705.7532304273727,7,37,-1.099568486213684,3.495774030685425,28.260953293424823,28.7668623624217,114.13065882666176,103.18444463378086,-0.0001295089750783,0.1039224565029144,0,0,0
9424,361183.3916332369,2011-01-07 14:58:24,1735.7683792436535,7,37,-1.099568486213684,3.491241216659546,28.260953293424823,28.7760304842894,114.13065882666176,103.2164741990574,-0.0001295089750783,0.1039224565029144,0,0,0
9425,361213.4067605646,2011-01-07 14:58:54,1765.7835066014527,7,37,-1.099568486213684,3.486384630203247,28.260953293424823,28.78519859952416,114.13065882666176,103.24846057303613,-0.0001618862152099,0.1039224565029144,0,0,0
9426,361243.4219023885,2011-01-07 14:59:24,1795.798648395231,7,37,-1.099568486213684,3.481689929962158,28.260953293424823,28.794366696344543,114.13065882666176,103.2804027084465,-9.713172767078504e-05,0.1039224565029144,0,0,0
9427,361273.43714186567,2011-01-07 14:59:54,1825.813887902542,7,37,-1.099568486213684,3.47683334350586,28.260953293424823,28.803534781554845,114.13065882666176,103.31229969394607,-9.713172767078504e-05,0.1039224565029144,0,0,0
9428,361303.4523112031,2011-01-07 15:00:24,1855.82905724498,7,37,-1.099568486213684,3.4716529846191406,28.260953293424823,28.81270284917088,114.13065882666176,103.34415056561409,-0.0001618862152099,0.1039224565029144,0,0,0
9429,361333.46735668194,2011-01-07 15:00:54,1885.8441027988988,7,37,-1.0993878841400146,3.466310739517212,28.260953293424823,28.821870925995423,114.13065882666176,103.37595426429672,-0.0001295089750783,0.1039224565029144,0,0,0
9430,361363.48257998377,2011-01-07 15:01:24,1915.859326015608,7,37,-1.099929690361023,3.4606447219848637,28.260953293424823,28.83103913346442,114.13065882666176,103.4077089483168,-0.0001618862152099,0.1039224565029144,0,0,0
9431,361393.49756452057,2011-01-07 15:01:54,1945.8743105424287,7,37,-1.0997490882873535,3.4548168182373047,28.260953293424823,28.840207150687345,114.13065882666176,103.43941037573406,-0.0001618862152099,0.1039224565029144,0,0,0
9432,361423.5129675003,2011-01-07 15:02:24,1975.8897135271752,7,37,-1.0997490882873535,3.4483413696289062,28.260953293424823,28.84937531781513,114.13065882666176,103.47105533736276,-0.0001942634553415,0.1039224565029144,0,0,0
9433,361453.5278065847,2011-01-07 15:02:54,2005.9045525914587,7,37,-1.0997490882873535,3.441704034805298,28.260953293424823,28.85854330652097,114.13065882666176,103.50263996760523,-0.0001618862152099,0.1039224565029144,0,0,0
9434,361483.543052924,2011-01-07 15:03:24,2035.9197989608715,7,37,-1.099568486213684,3.43425726890564,28.260953293424823,28.867711456994467,114.13065882666176,103.53416039860365,-0.0002266406954731,0.1039224565029144,0,0,0
9435,361513.5581538409,2011-01-07 15:03:54,2065.934899887797,7,37,-1.0993878841400146,3.4260013103485107,28.260953293424823,28.87687959264625,114.13065882666176,103.56560945753498,-0.0002590179501567,0.1039224565029144,0,0,0
9436,361543.57333123847,2011-01-07 15:04:24,2095.9500772702736,7,37,-1.0997490882873535,3.416935682296753,28.260953293424823,28.88604772194594,114.13065882666176,103.59697887534874,-0.0002266406954731,0.1039224565029144,0,0,0
9437,361573.58834994544,2011-01-07 15:04:54,2125.9650959622445,7,37,-1.099568486213684,3.406413078308105,28.260953293424823,28.89521585795514,114.13065882666176,103.6282586691718,-0.0002590179501567,0.1039224565029144,0,0,0
9438,361603.6034881352,2011-01-07 15:05:24,2155.980234142016,7,37,-1.0997490882873535,3.3941097259521484,28.260953293424823,28.90438393987713,114.13065882666176,103.65943420913662,-0.0003885269106831,0.1039224565029144,0,0,0
9439,361633.6186595478,2011-01-07 15:05:54,2185.995405699975,7,37,-1.099568486213684,3.379216194152832,28.260953293424823,28.91355206548137,114.13065882666176,103.69048607330132,-0.0004532813909463,0.1039224565029144,0,0,0
9440,361663.6337449912,2011-01-07 15:06:24,2216.0104909979486,7,37,-1.0997490882873535,3.3612468242645264,28.260953293424823,28.9227201556455,114.13065882666176,103.72138787126784,-0.0005180359003134,0.1039224565029144,0,0,0
9441,361693.6488837975,2011-01-07 15:06:54,2246.025629809294,7,37,-1.0997490882873535,3.339068651199341,28.260953293424823,28.93188826647076,114.13065882666176,103.75210585579588,-0.0006151676061563,0.1039224565029144,0,0,0
9442,361723.6640298419,2011-01-07 15:07:24,2276.0407758787283,7,37,-1.099568486213684,3.3115479946136475,28.260953293424823,28.94105639768724,114.13065882666176,103.78259743360636,-0.0008094310760498,0.1039224565029144,0,0,0
9443,361753.67927399074,2011-01-07 15:07:54,2306.0560200376326,7,37,-1.099568486213684,3.276418685913086,28.260953293424823,28.950224477531968,114.13065882666176,103.8128033258119,-0.0010684489971026,0.1039224565029144,0,0,0
9444,361783.69427343976,2011-01-07 15:08:24,2336.071019466594,7,37,-1.099568486213684,3.230605125427246,28.260953293424823,28.959392467245703,114.13065882666176,103.84264041132944,-0.0013274669181555,0.1039224565029144,0,0,0
9445,361813.7094220906,2011-01-07 15:08:54,2366.0861681325,7,37,-1.099568486213684,3.16876482963562,28.260953293424823,28.968560574700376,114.13065882666176,103.8719887786564,-0.0018455028766766,0.1039224565029144,0,0,0
9446,361843.7247649706,2011-01-07 15:09:24,2396.101510977359,7,37,-1.099568486213684,3.08215594291687,28.260953293424823,28.977728761744025,114.13065882666176,103.90066752747936,-0.0026549338363111,0.1039224565029144,0,0,0
9447,361873.7397188009,2011-01-07 15:09:54,2426.116464927974,7,37,-1.0997490882873535,2.9516758918762207,28.260953293424823,28.986896837224258,114.13065882666176,103.92837064979123,-0.0041766641661524,0.1039224565029144,0,0,0
9448,361903.7548144848,2011-01-07 15:10:24,2456.1315604915326,7,37,-1.099568486213684,2.7546610832214355,28.260953293424823,28.99606493969807,114.13065882666176,103.95457743337693,-0.005957412533462,0.1039224565029144,0,0,0
9449,361910.9265844522,2011-01-07 15:10:32,2463.303330484053,7,37,-1.0997490882873535,2.699781894683838,28.260953293424823,28.998255550503597,114.13065882666176,103.96055189017946,-0.0061516286805272,0.1039224565029144,0,0,0
9450,361970.9566955552,2011-01-07 15:11:32,60.01470103604368,8,37,0.0,3.5453109741210938,28.260953293424823,28.998255550503597,114.13065882666176,103.96055189017946,0.0012950897216796,0.1039224565029144,0,0,0
9451,361971.1291804752,2011-01-07 15:11:32,0.187458213547611,9,37,-1.9243103452026844e-05,3.5453109741210938,28.260953293424823,28.99825555150561,114.13065882666176,103.96055189373192,0.0,0.1019293591380119,0,0,0
9452,361975.9572645311,2011-01-07 15:11:37,5.015542304667017,9,37,0.0001613661734154,3.553081512451172,28.2609541376053,28.998255551672727,114.13066182353788,103.9605518943244,0.0010684489971026,0.1019293591380119,0,0,0
