Data_Point,Test_Time(s),Date_Time,Step_Time(s),Step_Index,Cycle_Index,Current(A),Voltage(V),Charge_Capacity(Ah),Discharge_Capacity(Ah),Charge_Energy(Wh),Discharge_Energy(Wh),dV/dt(V/s),Internal_Resistance(Ohm),Is_FC_Data,AC_Impedance(Ohm),ACI_Phase_Angle(Deg)
4198,154605.34258643264,2011-01-05 05:35:00,30.01515703175607,1,17,0.0,3.5386736392974854,12.258759277923836,13.036231999461132,49.34081296837165,46.9935449369208,0.0007770538213662,0.1004020571708679,0,0,0
4199,154635.35771486812,2011-01-05 05:35:30,60.03028547225393,1,17,0.0,3.56263279914856,12.258759277923836,13.036231999461132,49.34081296837165,46.9935449369208,0.0005504131549969,0.1004020571708679,0,0,0
4200,154665.37311499575,2011-01-05 05:36:00,90.04568560489218,1,17,0.0,3.580116510391236,12.258759277923836,13.036231999461132,49.34081296837165,46.9935449369208,0.0004532813909463,0.1004020571708679,0,0,0
4201,154695.34123992402,2011-01-05 05:36:30,120.01381057828742,1,17,0.0,3.593876600265503,12.258759277923836,13.036231999461132,49.34081296837165,46.9935449369208,0.0003561019839253,0.1004020571708679,0,0,0
4202,154725.3578100221,2011-01-05 05:37:00,30.015121723757677,2,17,0.5501165986061096,3.728241920471192,12.263345771230613,13.036231999461132,49.357800119877965,46.9935449369208,0.0010360718006268,0.1004020571708679,0,0,0
4203,154755.3729443423,2011-01-05 05:37:30,60.03025604390944,2,17,0.5501165986061096,3.758514404296875,12.267932348263328,13.036231999461132,49.374974638248425,46.9935449369208,0.0006799221155233,0.1004020571708679,0,0,0
4204,154785.38820461137,2011-01-05 05:38:00,90.04551631797712,2,17,0.5499359965324402,3.7779407501220703,12.272518823521404,13.036231999461132,49.39226094913699,46.9935449369208,0.0003885269106831,0.1004020571708679,0,0,0
4205,154815.4032269073,2011-01-05 05:38:30,120.0605386189426,2,17,0.5501165986061096,3.7905678749084473,12.277105250657725,13.036231999461132,49.40961896181397,46.9935449369208,0.0003237724304199,0.1004020571708679,0,0,0
4206,154845.41836689156,2011-01-05 05:39:00,150.07567861824856,2,17,0.5501165986061096,3.798985958099365,12.281691731598364,13.036231999461132,49.42702407419314,46.9935449369208,0.0002266406954731,0.1004020571708679,0,0,0
4207,154875.43349184838,2011-01-05 05:39:30,180.0908035600265,2,17,0.5501165986061096,3.806108951568604,12.286278191856352,13.036231999461132,49.444464718488014,46.9935449369208,0.0001618862152099,0.1004020571708679,0,0,0
4208,154905.44862744672,2011-01-05 05:40:00,210.10593914332645,2,17,0.550297200679779,3.812746286392212,12.290864660753652,13.036231999461132,49.46193630894139,46.9935449369208,0.0001942634553415,0.1004020571708679,0,0,0
4209,154935.465966607,2011-01-05 05:40:30,240.12327839885563,2,17,0.5499359965324402,3.8185741901397705,12.295450561669016,13.036231999461132,49.47943426284096,46.9935449369208,0.0001618862152099,0.1004020571708679,0,0,0
4210,154965.47903227145,2011-01-05 05:41:00,270.13634399310587,2,17,0.5501165986061096,3.824240207672119,12.300035760578496,13.036231999461132,49.4969561913843,46.9935449369208,0.0001618862152099,0.1004020571708679,0,0,0
4211,154995.49410020112,2011-01-05 05:41:30,300.1514119428422,2,17,0.5501165986061096,3.829744338989258,12.304621300931297,13.036231999461132,49.51450472378443,46.9935449369208,0.0001942634553415,0.1004020571708679,0,0,0
4212,155025.50916256697,2011-01-05 05:42:00,330.16647427858663,2,17,0.5499359965324402,3.8349244594573975,12.309206853336995,13.036231999461132,49.532077540068165,46.9935449369208,0.0001618862152099,0.1004020571708679,0,0,0
4213,155055.52614926882,2011-01-05 05:42:30,360.1834609954811,2,17,0.5501165986061096,3.839781045913696,12.313793519448762,13.036231999461132,49.54967798760806,46.9935449369208,0.0001295089750783,0.1004020571708679,0,0,0
4214,155085.53955767243,2011-01-05 05:43:00,390.19686938909285,2,17,0.5499359965324402,3.844475746154785,12.318379698487448,13.036231999461132,49.56729894016466,46.9935449369208,9.713172767078504e-05,0.1004020571708679,0,0,0
4215,155115.55456964267,2011-01-05 05:43:30,420.2118813693359,2,17,0.5499359965324402,3.849170446395874,12.322966085548408,13.036231999461132,49.58494253755713,46.9935449369208,0.0001295089750783,0.1004020571708679,0,0,0
4216,155145.56969751173,2011-01-05 05:44:00,450.2270092133471,2,17,0.5499359965324402,3.853865146636963,12.327552454584913,13.036231999461132,49.60260738581906,46.9935449369208,0.0001295089750783,0.1004020571708679,0,0,0
4217,155175.5848558016,2011-01-05 05:44:30,480.24216752830125,2,17,0.5501165986061096,3.858397960662842,12.332138781440111,13.036231999461132,49.62029301819044,46.9935449369208,9.713172767078504e-05,0.1004020571708679,0,0,0
4218,155205.60009039167,2011-01-05 05:45:00,510.2574021283815,2,17,0.5501165986061096,3.8629307746887207,12.336725186143653,13.036231999461132,49.63799953332144,46.9935449369208,9.713172767078504e-05,0.1004020571708679,0,0,0
4219,155235.61513736917,2011-01-05 05:45:30,540.2724490807859,2,17,0.5501165986061096,3.8673017024993896,12.341311491059493,13.036231999461132,49.65572587722061,46.9935449369208,0.0001295089750783,0.1004020571708679,0,0,0
4220,155265.6302696492,2011-01-05 05:46:00,570.2875813558406,2,17,0.5499359965324402,3.8715107440948486,12.345897895214373,13.036231999461132,49.67347266052364,46.9935449369208,9.713172767078504e-05,0.1004020571708679,0,0,0
4221,155295.64540248568,2011-01-05 05:46:31,600.3027141872822,2,17,0.5501165986061096,3.8758816719055176,12.350484316358616,13.036231999461132,49.69123911759102,46.9935449369208,0.0001295089750783,0.1004020571708679,0,0,0
4222,155325.66050544265,2011-01-05 05:47:01,630.3178171442672,2,17,0.550297200679779,3.880090713500977,12.355070740393344,13.036231999461132,49.70902495531438,46.9935449369208,0.0001295089750783,0.1004020571708679,0,0,0
4223,155355.67559039977,2011-01-05 05:47:31,660.3329021064036,2,17,0.550297200679779,3.883975982666016,12.35965717929924,13.036231999461132,49.72682980291163,46.9935449369208,3.237724376958795e-05,0.1004020571708679,0,0,0
4224,155385.6907911104,2011-01-05 05:48:01,690.3481028069958,2,17,0.5501165986061096,3.8880231380462646,12.364243633264728,13.036231999461132,49.7446529741141,46.9935449369208,9.713172767078504e-05,0.1004020571708679,0,0,0
4225,155415.70591153592,2011-01-05 05:48:31,720.363223232518,2,17,0.550297200679779,3.891908407211304,12.368830088975802,13.036231999461132,49.76249396638955,46.9935449369208,9.713172767078504e-05,0.1004020571708679,0,0,0
4226,155445.7211588928,2011-01-05 05:49:01,750.3784706194668,2,17,0.550297200679779,3.895308017730713,12.37341663259733,13.036231999461132,49.78035220866566,46.9935449369208,9.713172767078504e-05,0.1004020571708679,0,0,0
4227,155475.73614040713,2011-01-05 05:49:31,780.3934521187421,2,17,0.5501165986061096,3.898869514465332,12.378002978687624,13.036231999461132,49.79822568772258,46.9935449369208,9.713172767078504e-05,0.1004020571708679,0,0,0
4228,155505.75130167944,2011-01-05 05:50:01,810.4086133810421,2,17,0.5501165986061096,3.902269124984741,12.382589370289152,13.036231999461132,49.81611488479528,46.9935449369208,9.713172767078504e-05,0.1004020571708679,0,0,0
4229,155535.76666859927,2011-01-05 05:50:31,840.4239803109288,2,17,0.5501165986061096,3.9053449630737305,12.387175801535848,13.036231999461132,49.83401910114644,46.9935449369208,9.713172767078504e-05,0.1004020571708679,0,0,0
4230,155565.7818176261,2011-01-05 05:51:01,870.4391293277091,2,17,0.5499359965324402,3.9082589149475098,12.391762247258953,13.036231999461132,49.85193735684318,46.9935449369208,9.713172767078504e-05,0.1004020571708679,0,0,0
4231,155595.79670324142,2011-01-05 05:51:31,900.4540149480243,2,17,0.5501165986061096,3.911172866821289,12.396348679053787,13.036231999461132,49.86986895255039,46.9935449369208,9.713172767078504e-05,0.1004020571708679,0,0,0
4232,155625.81183940615,2011-01-05 05:52:01,930.4691511077608,2,17,0.5501165986061096,3.913762807846069,12.40093531983241,13.036231999461132,49.88781409637966,46.9935449369208,6.470680091297254e-05,0.1004020571708679,0,0,0
4233,155655.82698089417,2011-01-05 05:52:31,960.4842926007896,2,17,0.5501165986061096,3.9163529872894287,12.40552256185044,13.036231999461132,49.9057737401107,46.9935449369208,6.47544875391759e-05,0.1004020571708679,0,0,0
4234,155685.8422533987,2011-01-05 05:53:01,990.4995651153644,2,17,0.5501165986061096,3.918781280517578,12.410109690035029,13.036231999461132,49.9237445329717,46.9935449369208,3.237724376958795e-05,0.1004020571708679,0,0,0
4235,155715.85724510843,2011-01-05 05:53:31,1020.5145568100496,2,17,0.5501165986061096,3.921209573745728,12.414696715841712,13.036231999461132,49.94172607608735,46.9935449369208,6.47544875391759e-05,0.1004020571708679,0,0,0
4236,155745.8723742908,2011-01-05 05:54:01,1050.5296860124463,2,17,0.5501165986061096,3.923637866973877,12.419283579914506,13.036231999461132,49.9597178288001,46.9935449369208,6.47544875391759e-05,0.1004020571708679,0,0,0
4237,155775.8896586946,2011-01-05 05:54:31,1080.5469704262932,2,17,0.5501165986061096,3.925904273986816,12.423870328237989,13.036231999461132,49.97771973568318,46.9935449369208,6.47544875391759e-05,0.1004020571708679,0,0,0
4238,155805.9026414524,2011-01-05 05:55:01,1110.5599531540147,2,17,0.5501165986061096,3.928008794784546,12.42845638633248,13.036231999461132,49.99572918017162,46.9935449369208,3.237724376958795e-05,0.1004020571708679,0,0,0
4239,155835.9177762688,2011-01-05 05:55:31,1140.5750879704033,2,17,0.5501165986061096,3.9304370880126953,12.433042856999046,13.036231999461132,50.013750539844736,46.9935449369208,9.713172767078504e-05,0.1004020571708679,0,0,0
4240,155865.9330373248,2011-01-05 05:56:01,1170.5903490464696,2,17,0.5501165986061096,3.932541608810425,12.43762928070946,13.036231999461132,50.03178188598578,46.9935449369208,3.237724376958795e-05,0.1004020571708679,0,0,0
4241,155895.94806668835,2011-01-05 05:56:31,1200.6053784150497,2,17,0.5501165986061096,3.934969902038574,12.442215723871197,13.036231999461132,50.04982339566755,46.9935449369208,0.0001295089750783,0.1004020571708679,0,0,0
4242,155925.96344493647,2011-01-05 05:57:01,1230.620756643095,2,17,0.5501165986061096,3.936750650405884,12.446802188737909,13.036231999461132,50.06787492391436,46.9935449369208,6.47544875391759e-05,0.1004020571708679,0,0,0
4243,155955.97829423123,2011-01-05 05:57:31,1260.635605937876,2,17,0.5499359965324402,3.9390170574188232,12.451388499127662,13.036231999461132,50.08593577945186,46.9935449369208,3.237724376958795e-05,0.1004020571708679,0,0,0
4244,155985.99342524316,2011-01-05 05:58:01,1290.6507369698325,2,17,0.5501165986061096,3.9412834644317623,12.455974880714864,13.036231999461132,50.10400686994367,46.9935449369208,6.47544875391759e-05,0.1004020571708679,0,0,0
4245,156016.00857036022,2011-01-05 05:58:31,1320.6658820618309,2,17,0.5499359965324402,3.943387985229492,12.460561222000402,13.036231999461132,50.12208763086871,46.9935449369208,6.47544875391759e-05,0.1004020571708679,0,0,0
4246,156046.02370412397,2011-01-05 05:59:01,1350.6810158506585,2,17,0.550297200679779,3.945654392242432,12.465147524286982,13.036231999461132,50.14017800275946,46.9935449369208,0.0001295089750783,0.1004020571708679,0,0,0
4247,156076.03882584273,2011-01-05 05:59:31,1380.6961375643914,2,17,0.5499359965324402,3.947597026824951,12.46973392017752,13.036231999461132,50.15827845599141,46.9935449369208,3.237724376958795e-05,0.1004020571708679,0,0,0
4248,156106.05394744116,2011-01-05 06:00:01,1410.7112591628368,2,17,0.5501165986061096,3.949539661407471,12.474320326442417,13.036231999461132,50.17638858546636,46.9935449369208,3.237724376958795e-05,0.1004020571708679,0,0,0
4249,156136.06907777136,2011-01-05 06:00:31,1440.7263894880316,2,17,0.550297200679779,3.95180606842041,12.478906723755252,13.036231999461132,50.19450832519178,46.9935449369208,6.47544875391759e-05,0.1004020571708679,0,0,0
4250,156166.08423982566,2011-01-05 06:01:01,1470.7415515222551,2,17,0.5501165986061096,3.9537487030029297,12.483493070003236,13.036231999461132,50.2126374121538,46.9935449369208,0.0,0.1004020571708679,0,0,0
4251,156196.09937326863,2011-01-05 06:01:31,1500.756684995296,2,17,0.5501165986061096,3.956015110015869,12.488079444257844,13.036231999461132,50.230776223072326,46.9935449369208,6.47544875391759e-05,0.1004020571708679,0,0,0
4252,156226.11452287185,2011-01-05 06:02:01,1530.7718346035504,2,17,0.5501165986061096,3.958119630813599,12.492665942931898,13.036231999461132,50.2489250570619,46.9935449369208,6.47544875391759e-05,0.1004020571708679,0,0,0
4253,156256.1296344453,2011-01-05 06:02:31,1560.786946141923,2,17,0.550297200679779,3.960224151611328,12.497252340386233,13.036231999461132,50.26708303698174,46.9935449369208,9.713172767078504e-05,0.1004020571708679,0,0,0
4254,156286.14487616817,2011-01-05 06:03:01,1590.8021878948302,2,17,0.550297200679779,3.962166786193848,12.501838729624708,13.036231999461132,50.28525051896927,46.9935449369208,3.237724376958795e-05,0.1004020571708679,0,0,0
4255,156316.16002213734,2011-01-05 06:03:31,1620.8173338790525,2,17,0.5501165986061096,3.964271306991577,12.506425175135597,13.036231999461132,50.30342766063305,46.9935449369208,6.47544875391759e-05,0.1004020571708679,0,0,0
4256,156346.17502797226,2011-01-05 06:04:01,1650.832339698942,2,17,0.5501165986061096,3.9662139415740967,12.511011532679287,13.036231999461132,50.32161390162703,46.9935449369208,6.47544875391759e-05,0.1004020571708679,0,0,0
4257,156376.19031233134,2011-01-05 06:04:31,1680.8476240530244,2,17,0.5499359965324402,3.968480348587036,12.515598038917938,13.036231999461132,50.33981012876933,46.9935449369208,6.47544875391759e-05,0.1004020571708679,0,0,0
4258,156406.20554814447,2011-01-05 06:05:01,1710.8628598661278,2,17,0.5501165986061096,3.9705848693847656,12.520184509928113,13.036231999461132,50.35801559291039,46.9935449369208,9.713172767078504e-05,0.1004020571708679,0,0,0
4259,156436.2205372477,2011-01-05 06:05:31,1740.8778489693543,2,17,0.550297200679779,3.972527503967285,12.524770917471916,13.036231999461132,50.37623022495541,46.9935449369208,6.47544875391759e-05,0.1004020571708679,0,0,0
4260,156466.23554176433,2011-01-05 06:06:01,1770.8928534910085,2,17,0.5499359965324402,3.9743082523345943,12.529357373246537,13.036231999461132,50.39445439698768,46.9935449369208,0.0,0.1004020571708679,0,0,0
4261,156496.25088733598,2011-01-05 06:06:31,1800.908199062664,2,17,0.5501165986061096,3.976412773132324,12.533943850033962,13.036231999461132,50.41268805206937,46.9935449369208,3.237724376958795e-05,0.1004020571708679,0,0,0
4262,156526.26595051883,2011-01-05 06:07:01,1830.9232622405077,2,17,0.5501165986061096,3.9785172939300537,12.53853032068475,13.036231999461132,50.43093069486347,46.9935449369208,0.0001295089750783,0.1004020571708679,0,0,0
4263,156556.28098378715,2011-01-05 06:07:31,1860.9382954937687,2,17,0.5501165986061096,3.980783700942993,12.543116588177403,13.036231999461132,50.44918229281086,46.9935449369208,9.713172767078504e-05,0.1004020571708679,0,0,0
4264,156586.2960615764,2011-01-05 06:08:01,1890.9533733030785,2,17,0.5504778623580933,3.982888221740722,12.547702976930353,13.036231999461132,50.46744380205262,46.9935449369208,6.47544875391759e-05,0.1004020571708679,0,0,0
4265,156616.31120544035,2011-01-05 06:08:31,1920.9685171469664,2,17,0.5499359965324402,3.984668970108032,12.552289314497498,13.036231999461132,50.485714411491344,46.9935449369208,3.237724376958795e-05,0.1004020571708679,0,0,0
4266,156646.3263225125,2011-01-05 06:09:01,1950.9836342141184,2,17,0.5501165986061096,3.9867734909057617,12.556875628101642,13.036231999461132,50.50399436281087,46.9935449369208,3.237724376958795e-05,0.1004020571708679,0,0,0
4267,156676.34144919363,2011-01-05 06:09:31,1980.9987608952315,2,17,0.5501165986061096,3.988878011703491,12.561462030785004,13.036231999461132,50.52228409420878,46.9935449369208,6.47544875391759e-05,0.1004020571708679,0,0,0
4268,156706.35671124712,2011-01-05 06:10:01,2011.014022968784,2,17,0.5501165986061096,3.9908206462860103,12.566048312834235,13.036231999461132,50.54058274674114,46.9935449369208,3.237724376958795e-05,0.1004020571708679,0,0,0
4269,156736.37179052507,2011-01-05 06:10:31,2041.0291023369784,2,17,0.5501165986061096,3.99308705329895,12.57063456189371,13.036231999461132,50.55889077459722,46.9935449369208,6.47544875391759e-05,0.1004020571708679,0,0,0
4270,156766.38684369298,2011-01-05 06:11:01,2071.0441554246736,2,17,0.5497553944587708,3.9948675632476807,12.575220909827603,13.036231999461132,50.57720873249729,46.9935449369208,3.237724376958795e-05,0.1004020571708679,0,0,0
4271,156796.4019729806,2011-01-05 06:11:31,2101.059284722308,2,17,0.5499359965324402,3.99713397026062,12.579807226705956,13.036231999461132,50.59553614789559,46.9935449369208,6.47544875391759e-05,0.1004020571708679,0,0,0
4272,156826.41710681954,2011-01-05 06:12:01,2131.074418551236,2,17,0.5501165986061096,3.99907660484314,12.584393579957586,13.036231999461132,50.61387331634953,46.9935449369208,3.237724376958795e-05,0.1004020571708679,0,0,0
4273,156856.43441854647,2011-01-05 06:12:31,2161.091730378405,2,17,0.5501165986061096,4.001343250274658,12.588980160765932,13.036231999461132,50.63222113071393,46.9935449369208,3.24249267578125e-05,0.1004020571708679,0,0,0
4274,156886.44738275302,2011-01-05 06:13:01,2191.1046944596533,2,17,0.5499359965324402,4.003447532653809,12.593566172828382,13.036231999461132,50.65057650246516,46.9935449369208,3.23295607813634e-05,0.1004020571708679,0,0,0
4275,156916.46250252693,2011-01-05 06:13:31,2221.1198142485887,2,17,0.5499359965324402,4.005552291870117,12.598152535584433,13.036231999461132,50.66894302272382,46.9935449369208,3.24249267578125e-05,0.1004020571708679,0,0,0
4276,156946.4777871116,2011-01-05 06:14:01,2251.135098833246,2,17,0.5501165986061096,4.007818698883057,12.602738806423549,13.036231999461132,50.68731908394136,46.9935449369208,6.47544875391759e-05,0.1004020571708679,0,0,0
4277,156976.4945199357,2011-01-05 06:14:31,2281.151831652349,2,17,0.5501165986061096,4.010085105895996,12.607325411485736,13.036231999461132,50.70570642369884,46.9935449369208,6.47544875391759e-05,0.1004020571708679,0,0,0
4278,157006.5080185191,2011-01-05 06:15:01,2311.165330245766,2,17,0.5499359965324402,4.0121893882751465,12.611911483345612,13.036231999461132,50.724101716699366,46.9935449369208,6.47544875391759e-05,0.1004020571708679,0,0,0
4279,157036.5230303289,2011-01-05 06:15:31,2341.180342040547,2,17,0.5499359965324402,4.014455795288086,12.61649770024885,13.036231999461132,50.74250769216172,46.9935449369208,9.70840483205393e-05,0.1004020571708679,0,0,0
4280,157066.5382777359,2011-01-05 06:16:01,2371.195589477621,2,17,0.5501165986061096,4.016722202301025,12.62108397819284,13.036231999461132,50.76092410734625,46.9935449369208,6.47544875391759e-05,0.1004020571708679,0,0,0
4281,157096.55329178632,2011-01-05 06:16:31,2401.210603482911,2,17,0.5501165986061096,4.019150733947754,12.62567027245646,13.036231999461132,50.779350988426366,46.9935449369208,9.71794142969884e-05,0.1004020571708679,0,0,0
4282,157126.5684099763,2011-01-05 06:17:01,2431.2257216778744,2,17,0.5499359965324402,4.021255016326904,12.630256537722206,13.036231999461132,50.7977879862266,46.9935449369208,6.47544875391759e-05,0.1004020571708679,0,0,0
4283,157156.58355913337,2011-01-05 06:17:31,2461.2408708400167,2,17,0.5501165986061096,4.023521423339844,12.63484283779428,13.036231999461132,50.81623579853351,46.9935449369208,6.47544875391759e-05,0.1004020571708679,0,0,0
4284,157186.5987017893,2011-01-05 06:18:01,2491.2560134959435,2,17,0.550297200679779,4.026111602783203,12.639429129561558,13.036231999461132,50.83469422664471,46.9935449369208,0.0001295089750783,0.1004020571708679,0,0,0
4285,157216.61380918737,2011-01-05 06:18:32,2521.271120888985,2,17,0.5501165986061096,4.028216361999512,12.644015430766414,13.036231999461132,50.85316349771016,46.9935449369208,6.47544875391759e-05,0.1004020571708679,0,0,0
4286,157246.62894469546,2011-01-05 06:19:02,2551.286256412135,2,17,0.5501165986061096,4.030644416809082,12.648601730145815,13.036231999461132,50.871643683157565,46.9935449369208,6.47544875391759e-05,0.1004020571708679,0,0,0
4287,157276.64408788274,2011-01-05 06:19:32,2581.3013995943734,2,17,0.5501165986061096,4.0330729484558105,12.653188005921916,13.036231999461132,50.89013477748187,46.9935449369208,9.71794142969884e-05,0.1004020571708679,0,0,0
4288,157306.6592084135,2011-01-05 06:20:02,2611.316520110121,2,17,0.5499359965324402,4.035501003265381,12.657774328218062,13.036231999461132,50.90863721054793,46.9935449369208,6.47544875391759e-05,0.1004020571708679,0,0,0
4289,157336.6743596358,2011-01-05 06:20:32,2641.331671342423,2,17,0.5501165986061096,4.037929058074951,12.662360628838687,13.036231999461132,50.92715083431343,46.9935449369208,6.47544875391759e-05,0.1004020571708679,0,0,0
4290,157366.68951339938,2011-01-05 06:21:02,2671.346825136108,2,17,0.550297200679779,4.040519237518311,12.666946968357566,13.036231999461132,50.94567593367662,46.9935449369208,9.70840483205393e-05,0.1004020571708679,0,0,0
4291,157396.7045791737,2011-01-05 06:21:32,2701.361890915435,2,17,0.550297200679779,4.042947769165039,12.671533264485326,13.036231999461132,50.964212352976624,46.9935449369208,6.47544875391759e-05,0.1004020571708679,0,0,0
4292,157426.71984017963,2011-01-05 06:22:02,2731.377151911302,2,17,0.5499359965324402,4.045537948608398,12.676119597090151,13.036231999461132,50.98276058308646,46.9935449369208,6.47544875391759e-05,0.1004020571708679,0,0,0
4293,157456.73504955182,2011-01-05 06:22:32,2761.392361248419,2,17,0.5499359965324402,4.047966003417969,12.680705900101692,13.036231999461132,51.00132050014015,46.9935449369208,3.23295607813634e-05,0.1004020571708679,0,0,0
4294,157486.7501064089,2011-01-05 06:23:02,2791.40741810551,2,17,0.550297200679779,4.050718307495117,12.685292223432947,13.036231999461132,51.01989245979223,46.9935449369208,6.47544875391759e-05,0.1004020571708679,0,0,0
4295,157516.76509928654,2011-01-05 06:23:32,2821.422410993168,2,17,0.5499359965324402,4.053308486938477,12.689878462482184,13.036231999461132,51.03847600983041,46.9935449369208,6.47544875391759e-05,0.1004020571708679,0,0,0
4296,157546.78024174698,2011-01-05 06:24:02,2851.437553468645,2,17,0.5501165986061096,4.056060314178467,12.694464803817104,13.036231999461132,51.05707216686934,46.9935449369208,6.47544875391759e-05,0.1004020571708679,0,0,0
4297,157576.79538489413,2011-01-05 06:24:32,2881.452696620809,2,17,0.5501165986061096,4.058650493621826,12.699051111046032,13.036231999461132,51.0756804110933,46.9935449369208,6.47544875391759e-05,0.1004020571708679,0,0,0
4298,157606.8104916957,2011-01-05 06:25:02,2911.467803402325,2,17,0.5499359965324402,4.061079025268555,12.703637441686343,13.036231999461132,51.09430091918529,46.9935449369208,3.24249267578125e-05,0.1004020571708679,0,0,0
4299,157636.82576577918,2011-01-05 06:25:32,2941.483077485811,2,17,0.5501165986061096,4.064154624938965,12.708223727363666,13.036231999461132,51.11293346231318,46.9935449369208,6.47544875391759e-05,0.1004020571708679,0,0,0
4300,157666.8407513085,2011-01-05 06:26:02,2971.498063005105,2,17,0.5499359965324402,4.066744804382324,12.712809919452996,13.036231999461132,51.131578223932806,46.9935449369208,6.47544875391759e-05,0.1004020571708679,0,0,0
4301,157696.85818795173,2011-01-05 06:26:32,3001.5154998538665,2,17,0.5501165986061096,4.069658756256104,12.717396447598636,13.036231999461132,51.150237065392815,46.9935449369208,6.47544875391759e-05,0.1004020571708679,0,0,0
4302,157726.8710161042,2011-01-05 06:27:02,3031.528327815864,2,17,0.5501165986061096,4.072411060333252,12.72198234067402,13.036231999461132,51.16890622237037,46.9935449369208,9.71794142969884e-05,0.1004020571708679,0,0,0
4303,157756.88614911612,2011-01-05 06:27:32,3061.5434608377805,2,17,0.5501165986061096,4.075325012207031,12.726568639314085,13.036231999461132,51.18759015646575,46.9935449369208,9.71794142969884e-05,0.1004020571708679,0,0,0
4304,157786.90129186728,2011-01-05 06:28:02,3091.558603573907,2,17,0.5501165986061096,4.0782389640808105,12.731154945264883,13.036231999461132,51.20628726466282,46.9935449369208,9.71794142969884e-05,0.1004020571708679,0,0,0
4305,157816.91638824288,2011-01-05 06:28:32,3121.57369996954,2,17,0.5499359965324402,4.080990791320801,12.735741197387831,13.036231999461132,51.224997381003845,46.9935449369208,6.47544875391759e-05,0.1004020571708679,0,0,0
4306,157846.93161503848,2011-01-05 06:29:02,3151.588926760156,2,17,0.5499359965324402,4.08390474319458,12.740327439651107,13.036231999461132,51.24372069536892,46.9935449369208,9.70840483205393e-05,0.1004020571708679,0,0,0
4307,157876.9466356352,2011-01-05 06:29:32,3181.6039473418364,2,17,0.5499359965324402,4.086980819702148,12.744913765093315,13.036231999461132,51.2624579951098,46.9935449369208,9.71794142969884e-05,0.1004020571708679,0,0,0
4308,157906.96181038613,2011-01-05 06:30:02,3211.619122092754,2,17,0.5501165986061096,4.089894771575928,12.749500078833796,13.036231999461132,51.28120891713355,46.9935449369208,6.47544875391759e-05,0.1004020571708679,0,0,0
4309,157936.97707537195,2011-01-05 06:30:32,3241.6343870936025,2,17,0.5501165986061096,4.092970371246338,12.754086392369793,13.036231999461132,51.29997362032584,46.9935449369208,6.47544875391759e-05,0.1004020571708679,0,0,0
4310,157966.99206487616,2011-01-05 06:31:02,3271.649376607854,2,17,0.5499359965324402,4.096046447753906,12.75867266306722,13.036231999461132,51.31875203657431,46.9935449369208,9.71794142969884e-05,0.1004020571708679,0,0,0
4311,157997.00720775765,2011-01-05 06:31:32,3301.66451948433,2,17,0.5501165986061096,4.0992841720581055,12.763258981966166,13.036231999461132,51.33754469724151,46.9935449369208,0.0001295089750783,0.1004020571708679,0,0,0
4312,158027.0223455314,2011-01-05 06:32:02,3331.6796572380395,2,17,0.5501165986061096,4.102035999298096,12.767845325898232,13.036231999461132,51.35635163805144,46.9935449369208,6.47544875391759e-05,0.1004020571708679,0,0,0
4313,158057.0374935507,2011-01-05 06:32:32,3361.694805257333,2,17,0.5501165986061096,4.105435848236084,12.77243165969688,13.036231999461132,51.37517273155365,46.9935449369208,9.71794142969884e-05,0.1004020571708679,0,0,0
4314,158087.05261360027,2011-01-05 06:33:02,3391.709926169068,2,17,0.5501165986061096,4.108511447906494,12.777017989062289,13.036231999461132,51.39400827216236,46.9935449369208,9.70840483205393e-05,0.1004020571708679,0,0,0
4315,158117.06770884807,2011-01-05 06:33:32,3421.72502055469,2,17,0.5501165986061096,4.111587524414063,12.781604178342835,13.036231999461132,51.41285777380302,46.9935449369208,9.71794142969884e-05,0.1004020571708679,0,0,0
4316,158147.0828427171,2011-01-05 06:34:02,3451.740154418705,2,17,0.5501165986061096,4.114824771881104,12.786190516356916,13.036231999461132,51.43172256546174,46.9935449369208,6.46591215627268e-05,0.1004020571708679,0,0,0
4317,158177.09798442066,2011-01-05 06:34:32,3481.755296127271,2,17,0.5501165986061096,4.118062496185303,12.790776822576063,13.036231999461132,51.45060198820336,46.9935449369208,9.70840483205393e-05,0.1004020571708679,0,0,0
4318,158207.11323792784,2011-01-05 06:35:02,3511.770549634474,2,17,0.5501165986061096,4.121462345123291,12.795363134402391,13.036231999461132,51.46949631661179,46.9935449369208,9.71794142969884e-05,0.1004020571708679,0,0,0
4319,158237.12823090574,2011-01-05 06:35:32,3541.785542612357,2,17,0.5499359965324402,4.124537944793701,12.79994942052347,13.036231999461132,51.48840559438455,46.9935449369208,6.47544875391759e-05,0.1004020571708679,0,0,0
4320,158267.1433722183,2011-01-05 06:36:02,3571.8006839449854,2,17,0.5501165986061096,4.1279377937316895,12.804535734948288,13.036231999461132,51.50733023962593,46.9935449369208,9.71794142969884e-05,0.1004020571708679,0,0,0
4321,158297.1584962027,2011-01-05 06:36:32,3601.8158079343903,2,17,0.5501165986061096,4.13133716583252,12.809122075801604,13.036231999461132,51.52627032996955,46.9935449369208,9.70840483205393e-05,0.1004020571708679,0,0,0
4322,158327.1738834382,2011-01-05 06:37:02,3631.83119515986,2,17,0.5501165986061096,4.134574890136719,12.813708429879664,13.036231999461132,51.545225937138746,46.9935449369208,6.47544875391759e-05,0.1004020571708679,0,0,0
4323,158357.18879716858,2011-01-05 06:37:32,3661.8461089754464,2,17,0.5501165986061096,4.138136386871338,12.818294671276124,13.036231999461132,51.56419667181022,46.9935449369208,9.70840483205393e-05,0.1004020571708679,0,0,0
4324,158387.20387732875,2011-01-05 06:38:02,3691.86118902534,2,17,0.5501165986061096,4.141697883605957,12.822881019103065,13.036231999461132,51.583183602967,46.9935449369208,0.0001295089750783,0.1004020571708679,0,0,0
4325,158417.21923155698,2011-01-05 06:38:32,3721.8765432786327,2,17,0.5501165986061096,4.145097732543945,12.827467413490751,13.036231999461132,51.60218664205787,46.9935449369208,6.47544875391759e-05,0.1004020571708679,0,0,0
4326,158447.2342611511,2011-01-05 06:39:02,3751.891572867763,2,17,0.5499359965324402,4.1486592292785645,12.832053759120472,13.036231999461132,51.621205800092845,46.9935449369208,6.47544875391759e-05,0.1004020571708679,0,0,0
4327,158477.24926052493,2011-01-05 06:39:32,3781.9065722265486,2,17,0.5501165986061096,4.152220726013184,12.836640064141124,13.036231999461132,51.64024091079818,46.9935449369208,9.71794142969884e-05,0.1004020571708679,0,0,0
4328,158507.264402033,2011-01-05 06:40:02,3811.921713854916,2,17,0.5501165986061096,4.155782222747803,12.841226370570928,13.036231999461132,51.659292254132495,46.9935449369208,9.71794142969884e-05,0.1004020571708679,0,0,0
4329,158537.27953043842,2011-01-05 06:40:32,3841.936842165088,2,17,0.5501165986061096,4.159343719482422,12.845812673332876,13.036231999461132,51.67835998201122,46.9935449369208,9.71794142969884e-05,0.1004020571708679,0,0,0
4330,158567.29464221236,2011-01-05 06:41:02,3871.951953908973,2,17,0.5501165986061096,4.162905216217041,12.850399032706,13.036231999461132,51.69744456784789,46.9935449369208,9.71794142969884e-05,0.1004020571708679,0,0,0
4331,158597.30977252754,2011-01-05 06:41:32,3901.967084224143,2,17,0.5499359965324402,4.16646671295166,12.854985290571507,13.036231999461132,51.71654525219383,46.9935449369208,9.71794142969884e-05,0.1004020571708679,0,0,0
4332,158627.32493097783,2011-01-05 06:42:02,3931.9822426944847,2,17,0.550297200679779,4.170351982116699,12.85957162167104,13.036231999461132,51.73566302136426,46.9935449369208,0.0001295089750783,0.1004020571708679,0,0,0
4333,158657.3399815994,2011-01-05 06:42:32,3961.9972933009967,2,17,0.5499359965324402,4.174075126647949,12.864157842931087,13.036231999461132,51.75479726154028,46.9935449369208,0.0001295089750783,0.1004020571708679,0,0,0
4334,158687.35515646057,2011-01-05 06:43:02,3992.012468187251,2,17,0.5499359965324402,4.1774749755859375,12.868743297226128,13.036231999461132,51.77394517539589,46.9935449369208,6.47544875391759e-05,0.1004020571708679,0,0,0
4335,158717.37023842527,2011-01-05 06:43:32,4022.027550146905,2,17,0.5499359965324402,4.181360244750977,12.873328736963527,13.036231999461132,51.79311020261127,46.9935449369208,9.71794142969884e-05,0.1004020571708679,0,0,0
4336,158747.385437592,2011-01-05 06:44:02,4052.042749298637,2,17,0.5501165986061096,4.185245513916016,12.877915055165072,13.036231999461132,51.81229628056703,46.9935449369208,9.71794142969884e-05,0.1004020571708679,0,0,0
4337,158777.4028002258,2011-01-05 06:44:32,4082.0601120326814,2,17,0.550297200679779,4.1892924308776855,12.882501670579476,13.036231999461132,51.83150101497253,46.9935449369208,0.0001618385285837,0.1004020571708679,0,0,0
4338,158807.4158146124,2011-01-05 06:45:02,4112.073126414294,2,17,0.5499359965324402,4.192853927612305,12.887087626263789,13.036231999461132,51.85072056866952,46.9935449369208,9.70840483205393e-05,0.1004020571708679,0,0,0
4339,158837.430862447,2011-01-05 06:45:32,4142.088174258923,2,17,0.550297200679779,4.196739196777344,12.89167384424962,13.036231999461132,51.869958818723326,46.9935449369208,9.71794142969884e-05,0.1004020571708679,0,0,0
4340,158862.47731411117,2011-01-05 06:45:57,4167.134625832845,2,17,0.550297200679779,4.200138568878174,12.895500960290708,13.036231999461132,51.88602639300609,46.9935449369208,0.0001295089750783,0.1004020571708679,0,0,0
4341,158892.500014676,2011-01-05 06:46:28,30.015117944338197,3,17,0.0,4.101550579071045,12.895500960290708,13.036231999461132,51.88602639300609,46.9935449369208,-0.0004856109735555,0.1004020571708679,0,0,0
4342,158922.51512223948,2011-01-05 06:46:58,60.03022551782906,3,17,0.0,4.088923454284668,12.895500960290708,13.036231999461132,51.88602639300609,46.9935449369208,-0.0002590179501567,0.1004020571708679,0,0,0
4343,158952.53029968208,2011-01-05 06:47:28,90.04540296546779,3,17,0.0,4.08115291595459,12.895500960290708,13.036231999461132,51.88602639300609,46.9935449369208,-0.0001295089750783,0.1004020571708679,0,0,0
4344,158982.49856568198,2011-01-05 06:47:58,120.01366898038188,3,17,0.0,4.076134204864502,12.895500960290708,13.036231999461132,51.88602639300609,46.9935449369208,-9.71794142969884e-05,0.1004020571708679,0,0,0
4345,158982.50817008835,2011-01-05 06:47:58,0.015669778910515,4,17,1.0169916152954102,4.199814796447754,12.895505433356632,13.036231999461132,51.88604517905454,46.9935449369208,0.0,0.1004020571708679,0,0,0
4346,158983.33623574275,2011-01-05 06:47:59,0.843735398223264,4,17,0.9664210081100464,4.199814796447754,12.895732078375742,13.036231999461132,51.886997049724,46.9935449369208,0.0,0.1004020571708679,0,0,0
4347,158985.32000006884,2011-01-05 06:48:01,2.827499428575835,4,17,0.9156697988510132,4.199976921081543,12.896249533521104,13.036231999461132,51.8891702689558,46.9935449369208,3.24249267578125e-05,0.1004020571708679,0,0,0
4348,158988.25804404344,2011-01-05 06:48:03,5.765543718961103,4,17,0.8654603958129883,4.199814796447754,12.896975270843738,13.036231999461132,51.892218252243424,46.9935449369208,-3.24249267578125e-05,0.1004020571708679,0,0,0
4349,158992.289293708,2011-01-05 06:48:07,9.796793548921928,4,17,0.8152510523796082,4.199814796447754,12.897914998718594,13.036231999461132,51.8961649638061,46.9935449369208,-3.24249267578125e-05,0.1004020571708679,0,0,0
4350,158997.53925670113,2011-01-05 06:48:13,15.046756471899194,4,17,0.7652222514152527,4.199976921081543,12.899065839148893,13.036231999461132,51.90099831946367,46.9935449369208,3.24249267578125e-05,0.1004020571708679,0,0,0
4351,159004.3515161979,2011-01-05 06:48:20,21.8590158533576,4,17,0.7148322463035583,4.199814796447754,12.90046442406214,13.036231999461132,51.90687218360094,46.9935449369208,-3.24249267578125e-05,0.1004020571708679,0,0,0
4352,159013.3513629101,2011-01-05 06:48:29,30.85886256053549,4,17,0.6648035049438477,4.199814796447754,12.902186626862903,13.036231999461132,51.91410522139631,46.9935449369208,-3.24249267578125e-05,0.1004020571708679,0,0,0
4353,159025.74178049815,2011-01-05 06:48:41,43.249280153613626,4,17,0.614774763584137,4.199814796447754,12.90438409833139,13.036231999461132,51.923334294499874,46.9935449369208,3.23295607813634e-05,0.1004020571708679,0,0,0
4354,159044.28837014618,2011-01-05 06:48:59,61.79586980667201,4,17,0.5645653605461121,4.199653148651123,12.907413278613658,13.036231999461132,51.93605643519701,46.9935449369208,-6.47544875391759e-05,0.1004020571708679,0,0,0
4355,159076.19583684087,2011-01-05 06:49:31,93.7033365214072,4,17,0.5141753554344177,4.199814796447754,12.91217535564471,13.036231999461132,51.9560565165193,46.9935449369208,3.23295607813634e-05,0.1004020571708679,0,0,0
4356,159138.69304626668,2011-01-05 06:50:34,156.20054594720688,4,17,0.4641465842723846,4.199976921081543,12.9206254205728,13.036231999461132,51.99154556748473,46.9935449369208,3.24249267578125e-05,0.1004020571708679,0,0,0
4357,159241.925720585,2011-01-05 06:52:17,259.43322025548287,4,17,0.4141178429126739,4.199814796447754,12.933184093658902,13.036231999461132,52.04429025883593,46.9935449369208,0.0,0.1004020571708679,0,0,0
4358,159375.4233429561,2011-01-05 06:54:31,392.9308426015608,4,17,0.3640890717506408,4.199814796447754,12.947599413865104,13.036231999461132,52.10483287243321,46.9935449369208,-3.24249267578125e-05,0.1004020571708679,0,0,0
4359,159536.65523244452,2011-01-05 06:57:12,554.1627320949906,4,17,0.3140603005886078,4.199814796447754,12.96276334687028,13.036231999461132,52.16851928074314,46.9935449369208,0.0,0.1004020571708679,0,0,0
4360,159731.7301202981,2011-01-05 07:00:27,749.2376199736266,4,17,0.2640315294265747,4.199814796447754,12.978395180239469,13.036231999461132,52.23417077178021,46.9935449369208,3.23295607813634e-05,0.1004020571708679,0,0,0
4361,159973.7417396687,2011-01-05 07:04:29,991.2492393191492,4,17,0.2140027433633804,4.199814796447754,12.994420224478336,13.036231999461132,52.30147380872794,46.9935449369208,0.0,0.1004020571708679,0,0,0
4362,160290.03333658873,2011-01-05 07:09:45,1307.540836244178,4,17,0.1639739871025085,4.199814796447754,13.010948459762366,13.036231999461132,52.37089023037189,46.9935449369208,0.0,0.1004020571708679,0,0,0
4363,160747.11958728736,2011-01-05 07:17:22,1764.6270869578796,4,17,0.1139452084898948,4.199653148651123,13.028418291657726,13.036231999461132,52.44426113904779,46.9935449369208,-3.23295607813634e-05,0.1004020571708679,0,0,0
4364,161559.9496617595,2011-01-05 07:30:55,2577.4571614099755,4,17,0.0639164373278617,4.199653148651123,13.047936425213846,13.036231999461132,52.52623464990252,46.9935449369208,-3.23295607813634e-05,0.1004020571708679,0,0,0
4365,161954.77120292364,2011-01-05 07:37:30,2972.2787025791204,4,17,0.0498289167881011,4.199653148651123,13.054186078356976,13.036231999461132,52.5524823269332,46.9935449369208,-3.23295607813634e-05,0.1004020571708679,0,0,0
4366,161984.78280795284,2011-01-05 07:38:00,30.015108480752023,5,17,0.0,4.190587520599365,13.054186078356976,13.036231999461132,52.5524823269332,46.9935449369208,-6.47544875391759e-05,0.1004020571708679,0,0,0
4367,162014.78242168087,2011-01-05 07:38:30,60.01472221382522,5,17,0.0,4.189130783081055,13.054186078356976,13.036231999461132,52.5524823269332,46.9935449369208,-3.23295607813634e-05,0.1004020571708679,0,0,0
4368,162014.96725725918,2011-01-05 07:38:30,0.187423827847867,6,17,-1.9243103452026844e-05,4.188968658447266,13.054186082056662,13.036231999461132,52.55248234243166,46.9935449369208,-6.47544875391759e-05,0.1052602156996727,0,0,0
4369,162019.79530718518,2011-01-05 07:38:35,5.015473753817206,6,17,0.0007031940040178,4.188968658447266,13.054186879897054,13.036231999628088,52.55248568468047,46.99354493762016,-3.24249267578125e-05,0.1052602156996727,0,0,0
4370,162044.37073703067,2011-01-05 07:39:00,24.577831298004256,7,17,-1.099568486213684,3.988878011703491,13.054186879897054,13.043739254251276,52.55248568468047,47.02366839124386,-0.0012950419913977,0.1052602156996727,0,0,0
4371,162074.38575430916,2011-01-05 07:39:30,54.592848551389615,7,17,-1.099568486213684,3.9493777751922607,13.054186879897054,13.052907180309964,52.55248568468047,47.06004724538648,-0.0009065627818927,0.1052602156996727,0,0,0
4372,162104.40085544158,2011-01-05 07:40:00,84.60794968382739,7,17,-1.0993878841400146,3.920885801315308,13.054186879897054,13.062075102592102,52.55248568468047,47.09611624813506,-0.0006475448608398,0.1052602156996727,0,0,0
4373,162134.41597939088,2011-01-05 07:40:30,114.6230736331318,7,17,-1.099568486213684,3.899355173110962,13.054186879897054,13.071243058377153,52.55248568468047,47.13195992332029,-0.0005180359003134,0.1052602156996727,0,0,0
4374,162164.43113313444,2011-01-05 07:41:00,144.63822737669267,7,17,-1.0997490882873535,3.881709575653076,13.054186879897054,13.080411001752523,52.55248568468047,47.16762618668856,-0.0004532813909463,0.1052602156996727,0,0,0
4375,162194.44624331946,2011-01-05 07:41:30,174.65333756670472,7,17,-1.0997490882873535,3.86633038520813,13.054186879897054,13.089578953626273,52.55248568468047,47.203142747699424,-0.0004209041653666,0.1052602156996727,0,0,0
4376,162224.46149674142,2011-01-05 07:42:00,204.66859100874487,7,17,-1.099568486213684,3.852731943130493,13.054186879897054,13.098746910123936,52.55248568468047,47.238526337312926,-0.0003237724304199,0.1052602156996727,0,0,0
4377,162254.4764774337,2011-01-05 07:42:30,234.6835716809587,7,17,-1.0993878841400146,3.839942932128906,13.054186879897054,13.107914841400572,52.55248568468047,47.27378830293199,-0.0003237724304199,0.1052602156996727,0,0,0
4378,162284.49161055085,2011-01-05 07:43:00,264.6987047930997,7,17,-1.099568486213684,3.8278017044067374,13.054186879897054,13.117082807453633,52.55248568468047,47.308936934825645,-0.0003561496851034,0.1052602156996727,0,0,0
4379,162314.50673750765,2011-01-05 07:43:30,294.7138317498998,7,17,-1.099568486213684,3.816307783126831,13.054186879897054,13.12625069988498,52.55248568468047,47.34397713490037,-0.0002913951757363,0.1052602156996727,0,0,0
4380,162344.522115866,2011-01-05 07:44:00,324.7292101233073,7,17,-1.0997490882873535,3.805137634277344,13.054186879897054,13.135418711451813,52.55248568468047,47.37891366177174,-0.0002913951757363,0.1052602156996727,0,0,0
4381,162374.53697027857,2011-01-05 07:44:30,354.7440645458681,7,17,-1.099568486213684,3.794615030288696,13.054186879897054,13.144586534871433,52.55248568468047,47.413750579997135,-0.0002913951757363,0.1052602156996727,0,0,0
4382,162404.55209680428,2011-01-05 07:45:00,384.7591910415189,7,17,-1.0997490882873535,3.784254312515259,13.054186879897054,13.153754483745765,52.55248568468047,47.44849271131596,-0.0003237724304199,0.1052602156996727,0,0,0
4383,162434.56727061787,2011-01-05 07:45:30,414.7743648601129,7,17,-1.0997490882873535,3.774541139602661,13.054186879897054,13.1629223567425,52.55248568468047,47.48314298257221,-0.0002590179501567,0.1052602156996727,0,0,0
4384,162464.58253371395,2011-01-05 07:46:00,444.7896280564638,7,17,-1.0993878841400146,3.7649898529052734,13.054186879897054,13.172090262404511,52.55248568468047,47.51770447925442,-0.0002590179501567,0.1052602156996727,0,0,0
4385,162494.59743624643,2011-01-05 07:46:30,474.8045305137419,7,17,-1.099568486213684,3.755924224853516,13.054186879897054,13.18125811798376,52.55248568468047,47.55217906493666,-0.0001942634553415,0.1052602156996727,0,0,0
4386,162524.6125618248,2011-01-05 07:47:00,504.8196560720565,7,17,-1.099568486213684,3.746535062789917,13.054186879897054,13.190426026661536,52.55248568468047,47.586569607616376,-0.0002590179501567,0.1052602156996727,0,0,0
4387,162554.62769818504,2011-01-05 07:47:30,534.8347924272804,7,17,-1.099568486213684,3.737955093383789,13.054186879897054,13.199593924479974,52.55248568468047,47.620878594162136,-0.0002266406954731,0.1052602156996727,0,0,0
4388,162584.64277829006,2011-01-05 07:48:00,564.8498725373238,7,17,-1.099568486213684,3.729537010192871,13.054186879897054,13.20876182267499,52.55248568468047,47.65510861866353,-0.0001942634553415,0.1052602156996727,0,0,0
4389,162614.6579408506,2011-01-05 07:48:30,594.8650350928468,7,17,-1.099568486213684,3.721280813217163,13.054186879897054,13.21792972611272,52.55248568468047,47.68926237625042,-0.0001942634553415,0.1052602156996727,0,0,0
4390,162644.67309185734,2011-01-05 07:49:00,624.8801861246492,7,17,-1.099568486213684,3.713186502456665,13.054186879897054,13.227097644639771,52.55248568468047,47.72334144714184,-0.0001942634553415,0.1052602156996727,0,0,0
4391,162674.68820649845,2011-01-05 07:49:30,654.8953007457047,7,17,-1.099568486213684,3.705415964126587,13.054186879897054,13.236265570624964,52.55248568468047,47.75734728056983,-0.0001942634553415,0.1052602156996727,0,0,0
4392,162704.70331766587,2011-01-05 07:50:00,684.9104119131528,7,17,-1.099568486213684,3.697483539581299,13.054186879897054,13.245433486740533,52.55248568468047,47.79128159141916,-0.0002266406954731,0.1052602156996727,0,0,0
4393,162734.71843561024,2011-01-05 07:50:30,714.9255298524786,7,17,-1.099568486213684,3.689874887466431,13.054186879897054,13.25460150639686,52.55248568468047,47.82514591406788,-0.0002266406954731,0.1052602156996727,0,0,0
4394,162764.73365404,2011-01-05 07:51:00,744.9407483724823,7,17,-1.099568486213684,3.6825900077819824,13.054186879897054,13.263769501811908,52.55248568468047,47.858941585022166,-0.0001618862152099,0.1052602156996727,0,0,0
4395,162794.7509042937,2011-01-05 07:51:30,774.957998551004,7,17,-1.099568486213684,3.675305128097534,13.054186879897054,13.272938110463125,52.55248568468047,47.89267249755419,-0.0001942634553415,0.1052602156996727,0,0,0
4396,162824.7638295081,2011-01-05 07:52:00,804.9709237503471,7,17,-1.099568486213684,3.668344259262085,13.054186879897054,13.282105413844809,52.55248568468047,47.92633298227815,-0.0001618862152099,0.1052602156996727,0,0,0
4397,162854.77896921168,2011-01-05 07:52:30,834.9860634589284,7,17,-1.099568486213684,3.6613831520080566,13.054186879897054,13.291273311399234,52.55248568468047,47.95993119012117,-0.0001618862152099,0.1052602156996727,0,0,0
4398,162884.79406014367,2011-01-05 07:53:00,865.001154385931,7,17,-1.099568486213684,3.654422044754028,13.054186879897054,13.30044127256768,52.55248568468047,47.99346539332947,-0.0001618862152099,0.1052602156996727,0,0,0
4399,162914.81093442035,2011-01-05 07:53:30,895.0180286926648,7,17,-1.0997490882873535,3.64762282371521,13.054186879897054,13.309609811019,52.55248568468047,48.02693910565527,-0.0001618862152099,0.1052602156996727,0,0,0
4400,162944.82448140936,2011-01-05 07:54:00,925.0315756666614,7,17,-1.099568486213684,3.6409854888916016,13.054186879897054,13.318777238034098,52.55248568468047,48.06034719455095,-0.0001618862152099,0.1052602156996727,0,0,0
4401,162974.83942429742,2011-01-05 07:54:30,955.046518539668,7,17,-1.0993878841400146,3.634510040283203,13.054186879897054,13.327945087259392,52.55248568468047,48.09369682810819,-0.0001618862152099,0.1052602156996727,0,0,0
4402,163004.85455455745,2011-01-05 07:55:00,985.0616487997008,7,17,-1.099929690361023,3.6278727054595943,13.054186879897054,13.337113006542848,52.55248568468047,48.12698724488232,-0.0001942634553415,0.1052602156996727,0,0,0
4403,163034.86969648156,2011-01-05 07:55:30,1015.0767907187916,7,17,-1.099929690361023,3.621721029281616,13.054186879897054,13.346280927493977,52.55248568468047,48.16021930327424,-0.0001618862152099,0.1052602156996727,0,0,0
4404,163064.88482505237,2011-01-05 07:56:00,1045.0919193196887,7,17,-1.099568486213684,3.6155693531036377,13.054186879897054,13.35544887524293,52.55248568468047,48.19339465271041,-0.0001618862152099,0.1052602156996727,0,0,0
4405,163094.89991681647,2011-01-05 07:56:30,1075.1070110587157,7,17,-1.0993878841400146,3.609741449356079,13.054186879897054,13.364616770747103,52.55248568468047,48.22651410146949,-0.0001295089750783,0.1052602156996727,0,0,0
4406,163124.91502057543,2011-01-05 07:57:00,1105.1221148377497,7,17,-1.099568486213684,3.603913545608521,13.054186879897054,13.373784660559355,52.55248568468047,48.25957870379419,-0.0001295089750783,0.1052602156996727,0,0,0
4407,163154.9301790558,2011-01-05 07:57:31,1135.1372733231285,7,17,-1.0997490882873535,3.597923755645752,13.054186879897054,13.3829525337035,52.55248568468047,48.292590174578656,-0.0001618862152099,0.1052602156996727,0,0,0
4408,163184.9453152807,2011-01-05 07:58:01,1165.1524095229647,7,17,-1.0997490882873535,3.5920960903167725,13.054186879897054,13.392120501661593,52.55248568468047,48.32554970196052,-0.0001942157687153,0.1052602156996727,0,0,0
4409,163214.96043379145,2011-01-05 07:58:31,1195.1675280337147,7,17,-1.099568486213684,3.5869157314300537,13.054186879897054,13.401288578634484,52.55248568468047,48.35845834245745,-6.47544875391759e-05,0.1052602156996727,0,0,0
4410,163244.97556964544,2011-01-05 07:59:01,1225.1826638876894,7,17,-1.0993878841400146,3.581249713897705,13.054186879897054,13.410456586530596,52.55248568468047,48.39131680929715,-0.0001618862152099,0.1052602156996727,0,0,0
4411,163274.99070957457,2011-01-05 07:59:31,1255.197803841883,7,17,-1.099568486213684,3.5762312412261963,13.054186879897054,13.419624635194356,52.55248568468047,48.42412665378352,-9.713172767078504e-05,0.1052602156996727,0,0,0
4412,163305.00581228593,2011-01-05 08:00:01,1285.212906523181,7,17,-1.0997490882873535,3.571050882339477,13.054186879897054,13.428792661587098,52.55248568468047,48.45688924547286,-0.0001295089750783,0.1052602156996727,0,0,0
4413,163335.02093142824,2011-01-05 08:00:31,1315.2280256705171,7,17,-1.099568486213684,3.5661942958831787,13.054186879897054,13.437960743978197,52.55248568468047,48.48960673301073,-0.0001295089750783,0.1052602156996727,0,0,0
4414,163365.03606173844,2011-01-05 08:01:01,1345.2431559856873,7,17,-1.0993878841400146,3.56149959564209,13.054186879897054,13.447128815123316,52.55248568468047,48.52228003460487,-9.713172767078504e-05,0.1052602156996727,0,0,0
4415,163395.05140525496,2011-01-05 08:01:31,1375.2584995222708,7,17,-1.099568486213684,3.556804895401001,13.054186879897054,13.456296938811592,52.55248568468047,48.55490990499732,-9.713172767078504e-05,0.1052602156996727,0,0,0
4416,163425.0665523018,2011-01-05 08:02:01,1405.273646554104,7,17,-1.0997490882873535,3.551948308944702,13.054186879897054,13.465464993527783,52.55248568468047,48.587496797175056,-0.0001618862152099,0.1052602156996727,0,0,0
4417,163455.0814302831,2011-01-05 08:02:31,1435.2885245353805,7,17,-1.0993878841400146,3.547577381134033,13.054186879897054,13.474632974178531,52.55248568468047,48.62004116927798,-9.713172767078504e-05,0.1052602156996727,0,0,0
4418,163485.09669973003,2011-01-05 08:03:01,1465.3037939923347,7,17,-1.099568486213684,3.5430445671081543,13.054186879897054,13.483801087069924,52.55248568468047,48.65254424673337,-0.0001295089750783,0.1052602156996727,0,0,0
4419,163515.11168532452,2011-01-05 08:03:31,1495.3187795717788,7,17,-1.0997490882873535,3.5386736392974854,13.054186879897054,13.492969095617084,52.55248568468047,48.685007294143055,-0.0001295089750783,0.1052602156996727,0,0,0
4420,163545.12692202986,2011-01-05 08:04:01,1525.334016282119,7,17,-1.099568486213684,3.5344645977020264,13.054186879897054,13.502137224013945,52.55248568468047,48.71743154795963,-0.0001295089750783,0.1052602156996727,0,0,0
4421,163575.14192708282,2011-01-05 08:04:31,1555.349021350134,7,17,-1.0993878841400146,3.5304174423217773,13.054186879897054,13.511305313886846,52.55248568468047,48.74981702031352,-9.713172767078504e-05,0.1052602156996727,0,0,0
4422,163605.15717543717,2011-01-05 08:05:01,1585.3642696794318,7,17,-1.0997490882873535,3.5262084007263184,13.054186879897054,13.520473446226616,52.55248568468047,48.782164531493,-0.0001295089750783,0.1052602156996727,0,0,0
4423,163635.17427872962,2011-01-05 08:05:31,1615.3813729869055,7,17,-1.099568486213684,3.52199935913086,13.054186879897054,13.52964274796192,52.55248568468047,48.81447772275907,-0.0001295089750783,0.1052602156996727,0,0,0
4424,163665.187263723,2011-01-05 08:06:01,1645.394357960224,7,17,-1.0997490882873535,3.5179522037506104,13.054186879897054,13.538810892031576,52.55248568468047,48.846749224731234,-0.0001295089750783,0.1052602156996727,0,0,0
4425,163695.2024266344,2011-01-05 08:06:31,1675.4095208766464,7,17,-1.099929690361023,3.513743162155152,13.054186879897054,13.547979479186482,52.55248568468047,48.87898438148582,-9.713172767078504e-05,0.1052602156996727,0,0,0
4426,163725.21751971677,2011-01-05 08:07:01,1705.4246139590207,7,17,-1.0997490882873535,3.5095343589782715,13.054186879897054,13.557148217244327,52.55248568468047,48.91118201201719,-0.0001942634553415,0.1052602156996727,0,0,0
4427,163755.23265870858,2011-01-05 08:07:31,1735.439752950816,7,17,-1.099929690361023,3.5054872035980225,13.054186879897054,13.566316976771432,52.55248568468047,48.94334204970047,-0.0001295089750783,0.1052602156996727,0,0,0
4428,163785.24776980584,2011-01-05 08:08:01,1765.4548640681392,7,17,-1.099568486213684,3.501440048217773,13.054186879897054,13.575485769458652,52.55248568468047,48.97546433956142,-9.713172767078504e-05,0.1052602156996727,0,0,0
4429,163815.2629026022,2011-01-05 08:08:31,1795.4699968444431,7,17,-1.0997490882873535,3.4972310066223145,13.054186879897054,13.584653984639235,52.55248568468047,49.0075467691011,-0.0001295089750783,0.1052602156996727,0,0,0
4430,163845.2780205365,2011-01-05 08:09:01,1825.4851147837687,7,17,-1.0997490882873535,3.492860078811645,13.054186879897054,13.593821933586376,52.55248568468047,49.0395897932393,-0.0001295089750783,0.1052602156996727,0,0,0
4431,163875.2931753427,2011-01-05 08:09:31,1855.5002695799533,7,17,-1.099568486213684,3.4886510372161865,13.054186879897054,13.602989887464874,52.55248568468047,49.07159346062944,-9.713172767078504e-05,0.1052602156996727,0,0,0
4432,163905.3082764952,2011-01-05 08:10:01,1885.5153707374536,7,17,-1.0997490882873535,3.484118223190308,13.054186879897054,13.612157800936885,52.55248568468047,49.10355655590618,-0.0001295089750783,0.1052602156996727,0,0,0
4433,163935.32338071533,2011-01-05 08:10:31,1915.5304749575864,7,17,-1.0997490882873535,3.4795854091644287,13.054186879897054,13.621325741301844,52.55248568468047,49.13547803610545,-0.0001295089750783,0.1052602156996727,0,0,0
4434,163965.3385131558,2011-01-05 08:11:01,1945.5456073980536,7,17,-1.099568486213684,3.47472882270813,13.054186879897054,13.630493666964304,52.55248568468047,49.16735617390832,-0.0001295089750783,0.1052602156996727,0,0,0
4435,163995.35363829805,2011-01-05 08:11:31,1975.560732545344,7,17,-1.099568486213684,3.469872236251831,13.054186879897054,13.639661568502342,52.55248568468047,49.19918992422343,-0.0001295089750783,0.1052602156996727,0,0,0
4436,164025.36878457802,2011-01-05 08:12:01,2005.575878830316,7,17,-1.0997490882873535,3.4646918773651123,13.054186879897054,13.648829485499206,52.55248568468047,49.23097773176178,-0.0001942634553415,0.1052602156996727,0,0,0
4437,164055.38388409643,2011-01-05 08:12:31,2035.5909783687805,7,17,-1.099568486213684,3.459349632263184,13.054186879897054,13.657997410998211,52.55248568468047,49.26271766497708,-0.0001295089750783,0.1052602156996727,0,0,0
4438,164085.399007745,2011-01-05 08:13:01,2065.6061019872604,7,17,-1.0997490882873535,3.453683614730835,13.054186879897054,13.667165344335457,52.55248568468047,49.2944069937418,-0.0001295089750783,0.1052602156996727,0,0,0
4439,164115.41415048615,2011-01-05 08:13:31,2095.621244753462,7,17,-1.099568486213684,3.4473700523376465,13.054186879897054,13.67633327065119,52.55248568468047,49.32604143306245,-0.0001942634553415,0.1052602156996727,0,0,0
4440,164145.42940019388,2011-01-05 08:14:01,2125.636494446158,7,17,-1.099568486213684,3.440408945083618,13.054186879897054,13.685501271131496,52.55248568468047,49.357615657585846,-0.0001942634553415,0.1052602156996727,0,0,0
4441,164175.44437189374,2011-01-05 08:14:31,2155.6514661409974,7,17,-1.0997490882873535,3.43312406539917,13.054186879897054,13.69466911216196,52.55248568468047,49.38912407677764,-0.0001618862152099,0.1052602156996727,0,0,0
4442,164205.4595101487,2011-01-05 08:15:01,2185.666604390944,7,17,-1.099568486213684,3.424382448196411,13.054186879897054,13.703837001090813,52.55248568468047,49.420559254012616,-0.0002590179501567,0.1052602156996727,0,0,0
4443,164235.4746266795,2011-01-05 08:15:31,2215.681720951833,7,17,-1.099568486213684,3.414669275283813,13.054186879897054,13.713004884857938,52.55248568468047,49.45191101875437,-0.0002913951757363,0.1052602156996727,0,0,0
4444,164265.49001156914,2011-01-05 08:16:01,2245.6971058264444,7,17,-1.099568486213684,3.4030134677886963,13.054186879897054,13.722172874946777,52.55248568468047,49.48316497666311,-0.0003237724304199,0.1052602156996727,0,0,0
4445,164295.5048651446,2011-01-05 08:16:31,2275.7119593868565,7,17,-1.099568486213684,3.38941502571106,13.054186879897054,13.731340703746197,52.55248568468047,49.514303246703925,-0.0003885269106831,0.1052602156996727,0,0,0
4446,164325.52000771533,2011-01-05 08:17:01,2305.727101982633,7,17,-1.099568486213684,3.373064517974853,13.054186879897054,13.74050867009759,52.55248568468047,49.5453046020493,-0.0004532813909463,0.1052602156996727,0,0,0
4447,164355.53533192872,2011-01-05 08:17:31,2335.7424261960577,7,17,-1.099568486213684,3.3528287410736084,13.054186879897054,13.749676697790912,52.55248568468047,49.576139139089086,-0.0005827903514727,0.1052602156996727,0,0,0
4448,164385.5503680291,2011-01-05 08:18:01,2365.757462286391,7,17,-1.0997490882873535,3.327736616134644,13.054186879897054,13.758844699817285,52.55248568468047,49.606768014585214,-0.0007446765666827,0.1052602156996727,0,0,0
4449,164415.56535426018,2011-01-05 08:18:31,2395.7724485074336,7,17,-1.099568486213684,3.295845031738281,13.054186879897054,13.768012500824089,52.55248568468047,49.63713569990498,-0.0009389400365762,0.1052602156996727,0,0,0
4450,164445.58060373232,2011-01-05 08:19:01,2425.7876979845923,7,17,-1.099568486213684,3.2540786266326904,13.054186879897054,13.777180517822218,52.55248568468047,49.66716831942361,-0.0012303352123126,0.1052602156996727,0,0,0
4451,164475.5956110359,2011-01-05 08:19:31,2455.802705283167,7,17,-1.099568486213684,3.198713541030884,13.054186879897054,13.786348383478316,52.55248568468047,49.69675971315502,-0.0016512393485754,0.1052602156996727,0,0,0
4452,164505.61084622244,2011-01-05 08:20:01,2485.817940479734,7,17,-1.099568486213684,3.1223034858703613,13.054186879897054,13.795516382792156,52.55248568468047,49.72575372767642,-0.0022987842094153,0.1052602156996727,0,0,0
4453,164535.62586204725,2011-01-05 08:20:31,2515.832956289521,7,17,-1.0993878841400146,3.012059450149536,13.054186879897054,13.804684316425355,52.55248568468047,49.75390664378338,-0.0034643649123609,0.1052602156996727,0,0,0
4454,164565.64097010196,2011-01-05 08:21:01,2545.848064339199,7,17,-1.0997490882873535,2.8409461975097656,13.054186879897054,13.81385222195398,52.55248568468047,49.78079322211726,-0.0054069994948804,0.1052602156996727,0,0,0
4455,164584.1875651334,2011-01-05 08:21:20,2564.3946593957244,7,17,-1.099568486213684,2.699781894683838,13.054186879897054,13.819517190232776,52.55248568468047,49.79649645258465,-0.0063458918593823,0.1052602156996727,0,0,0
4456,164644.19587168377,2011-01-05 08:22:20,60.01472985286406,8,17,0.0,3.523294448852539,13.054186879897054,13.819517190232776,52.55248568468047,49.79649645258465,0.0013274669181555,0.1052602156996727,0,0,0
4457,164644.37776498805,2011-01-05 08:22:20,0.187426689981184,9,17,-1.9243103452026844e-05,3.523456335067749,13.054186879897054,13.819517191234628,52.55248568468047,49.79649645611463,0.0,0.1012117490172386,0,0,0
4458,164649.20578889918,2011-01-05 08:22:25,5.01545061113853,9,17,0.0007031940040178,3.531388759613037,13.054187682397313,13.819517191401756,52.55248851597011,49.79649645670349,0.0011655807029455,0.1012117490172386,0,0,0
