Data_Point,Test_Time(s),Date_Time,Step_Time(s),Step_Index,Cycle_Index,Current(A),Voltage(V),Charge_Capacity(Ah),Discharge_Capacity(Ah),Charge_Energy(Wh),Discharge_Energy(Wh),dV/dt(V/s),Internal_Resistance(Ohm),Is_FC_Data,AC_Impedance(Ohm),ACI_Phase_Angle(Deg)
7995,303455.03481545066,2011-01-06 22:56:08,30.015296318902497,1,32,0.0,3.5998663902282715,23.809254760544057,24.54092009708507,96.0739209988288,88.09572179062503,0.0006475448608398,0.10283113270998,0,0,0
7996,303485.04755464644,2011-01-06 22:56:38,60.02803552469232,1,32,0.0,3.6194546222686768,23.809254760544057,24.54092009708507,96.0739209988288,88.09572179062503,0.0004209041653666,0.10283113270998,0,0,0
7997,303515.06266611966,2011-01-06 22:57:08,90.04314700291496,1,32,0.0,3.633376836776733,23.809254760544057,24.54092009708507,96.0739209988288,88.09572179062503,0.0002913951757363,0.10283113270998,0,0,0
7998,303545.0316108211,2011-01-06 22:57:38,120.01209168427464,1,32,0.0,3.6443850994110103,23.809254760544057,24.54092009708507,96.0739209988288,88.09572179062503,0.0003237724304199,0.10283113270998,0,0,0
7999,303575.04312615737,2011-01-06 22:58:09,30.015257061059877,2,32,0.5499359965324402,3.7683894634246826,23.813841125656342,24.54092009708507,96.09111216677476,88.09572179062503,0.0008418083307333,0.10283113270998,0,0,0
8000,303605.05811631324,2011-01-06 22:58:39,60.030247206884845,2,32,0.5499359965324402,3.791862964630127,23.81842743090974,24.54092009708507,96.10845378198326,88.09572179062503,0.0005180359003134,0.10283113270998,0,0,0
8001,303635.0732154557,2011-01-06 22:59:09,90.04534634936303,2,32,0.5499359965324402,3.8056232929229736,23.823013762409197,24.54092009708507,96.1258781729815,88.09572179062503,0.0002913951757363,0.10283113270998,0,0,0
8002,303665.088343811,2011-01-06 22:59:39,120.06047471968598,2,32,0.5499359965324402,3.815984010696411,23.827600089352213,24.54092009708507,96.1433570616095,88.09572179062503,0.0002590179501567,0.10283113270998,0,0,0
8003,303695.103445159,2011-01-06 23:00:09,150.07557604761095,2,32,0.5501165986061096,3.824563980102539,23.832186373251155,24.54092009708507,96.16087839323173,88.09572179062503,0.0002266406954731,0.10283113270998,0,0,0
8004,303725.11857117846,2011-01-06 23:00:39,180.09070206206238,2,32,0.5501165986061096,3.8321726322174072,23.83677261126403,24.54092009708507,96.17843638784872,88.09572179062503,0.0001942634553415,0.10283113270998,0,0,0
8005,303755.1336725866,2011-01-06 23:01:09,210.1058035002622,2,32,0.5501165986061096,3.8392953872680655,23.841358942058477,24.54092009708507,96.19602824783676,88.09572179062503,0.0002266406954731,0.10283113270998,0,0,0
8006,303785.1489353619,2011-01-06 23:01:39,240.12106625551377,2,32,0.5499359965324402,3.845770835876465,23.84594532359844,24.54092009708507,96.21365135460915,88.09572179062503,0.0001618862152099,0.10283113270998,0,0,0
8007,303815.1639623796,2011-01-06 23:02:09,270.1360933734847,2,32,0.5499359965324402,3.8519225120544434,23.85053166258193,24.54092009708507,96.23130354400088,88.09572179062503,0.0001942634553415,0.10283113270998,0,0,0
8008,303845.1790514269,2011-01-06 23:02:39,300.15118232556523,2,32,0.550297200679779,3.858074188232422,23.855117949760675,24.54092009708507,96.24898332806552,88.09572179062503,0.0001942634553415,0.10283113270998,0,0,0
8009,303875.1942843979,2011-01-06 23:03:09,330.16641530159785,2,32,0.5499359965324402,3.863578319549561,23.859705058020843,24.54092009708507,96.2666928083537,88.09572179062503,0.0001618862152099,0.10283113270998,0,0,0
8010,303905.20927118533,2011-01-06 23:03:39,360.1814020690028,2,32,0.550297200679779,3.868920564651489,23.86429211958291,24.54092009708507,96.28442726874292,88.09572179062503,0.0001618862152099,0.10283113270998,0,0,0
8011,303935.22453451704,2011-01-06 23:04:09,390.1966654257533,2,32,0.5499359965324402,3.874100923538208,23.868878366738905,24.54092009708507,96.30218276944876,88.09572179062503,0.0001942634553415,0.10283113270998,0,0,0
8012,303965.2395324573,2011-01-06 23:04:39,420.21166334595455,2,32,0.5501165986061096,3.879119396209717,23.87346458930203,24.54092009708507,96.31996149677732,88.09572179062503,0.0001618862152099,0.10283113270998,0,0,0
8013,303995.25680103665,2011-01-06 23:05:09,450.2289319453869,2,32,0.5501165986061096,3.883975982666016,23.878051189204395,24.54092009708507,96.33776455235224,88.09572179062503,6.47544875391759e-05,0.10283113270998,0,0,0
8014,304025.2697508022,2011-01-06 23:05:39,480.241881715969,2,32,0.5501165986061096,3.888670682907105,23.8826371393596,24.54092009708507,96.35558713987692,88.09572179062503,0.0001295089750783,0.10283113270998,0,0,0
8015,304055.2848532429,2011-01-06 23:06:09,510.2569841316049,2,32,0.5501165986061096,3.893203496932984,23.88722345389953,24.54092009708507,96.37343251544353,88.09572179062503,0.0001295089750783,0.10283113270998,0,0,0
8016,304085.30022503994,2011-01-06 23:06:39,540.2723559586971,2,32,0.5499359965324402,3.8974125385284415,23.89180978468975,24.54092009708507,96.39129843104614,88.09572179062503,6.47544875391759e-05,0.10283113270998,0,0,0
8017,304115.3152089904,2011-01-06 23:07:09,570.2873398990562,2,32,0.5499359965324402,3.9017834663391113,23.8963960295814,24.54092009708507,96.40918399080698,88.09572179062503,9.713172767078504e-05,0.10283113270998,0,0,0
8018,304145.33019896573,2011-01-06 23:07:39,600.3023298493939,2,32,0.5501165986061096,3.90615439414978,23.900982332004546,24.54092009708507,96.42708926372664,88.09572179062503,0.0001295089750783,0.10283113270998,0,0,0
8019,304175.34531139134,2011-01-06 23:08:09,630.3174422799901,2,32,0.550297200679779,3.910201549530029,23.90556855284144,24.54092009708507,96.44501278419293,88.09572179062503,0.0001295089750783,0.10283113270998,0,0,0
8020,304205.36044287944,2011-01-06 23:08:39,660.3325737680835,2,32,0.550297200679779,3.9139246940612793,23.91015479534653,24.54092009708507,96.46295416388742,88.09572179062503,9.70840483205393e-05,0.10283113270998,0,0,0
8021,304235.375675269,2011-01-06 23:09:09,690.3478061977545,2,32,0.5501165986061096,3.9174861907958975,23.91474109560117,24.54092009708507,96.48091280196232,88.09572179062503,6.47544875391759e-05,0.10283113270998,0,0,0
8022,304265.39065777574,2011-01-06 23:09:39,720.3627886694532,2,32,0.5501165986061096,3.921209573745728,23.919327361829627,24.54092009708507,96.49888759446232,88.09572179062503,0.0001618862152099,0.10283113270998,0,0,0
8023,304295.40579721367,2011-01-06 23:10:09,750.3779281023474,2,32,0.5499359965324402,3.924285411834717,23.92391361534744,24.54092009708507,96.5168779522652,88.09572179062503,0.0001295089750783,0.10283113270998,0,0,0
8024,304325.42092775943,2011-01-06 23:10:39,780.3930586581171,2,32,0.5501165986061096,3.927361249923706,23.928499918682636,24.54092009708507,96.53488328744056,88.09572179062503,6.47544875391759e-05,0.10283113270998,0,0,0
8025,304355.43600934814,2011-01-06 23:11:09,810.408140246846,2,32,0.550297200679779,3.930598974227905,23.933086202028463,24.54092009708507,96.5529026908039,88.09572179062503,9.713172767078504e-05,0.10283113270998,0,0,0
8026,304385.4511239943,2011-01-06 23:11:39,840.4232548779265,2,32,0.550297200679779,3.933512926101685,23.937672491293483,24.54092009708507,96.57093558569896,88.09572179062503,0.0001295089750783,0.10283113270998,0,0,0
8027,304415.4662621741,2011-01-06 23:12:09,870.4383930777477,2,32,0.550297200679779,3.936103105545044,23.942258876600217,24.54092009708507,96.58898188444184,88.09572179062503,3.237724376958795e-05,0.10283113270998,0,0,0
8028,304445.4813645797,2011-01-06 23:12:39,900.4534954933836,2,32,0.5501165986061096,3.938855171203613,23.946845228672835,24.54092009708507,96.60704060332095,88.09572179062503,6.47544875391759e-05,0.10283113270998,0,0,0
8029,304475.49646726594,2011-01-06 23:13:09,930.468598179694,2,32,0.5501165986061096,3.941607236862183,23.951431533346145,24.54092009708507,96.62511156542377,88.09572179062503,6.47544875391759e-05,0.10283113270998,0,0,0
8030,304505.51172471297,2011-01-06 23:13:39,960.4838556317284,2,32,0.5501165986061096,3.944035530090332,23.956017862338697,24.54092009708507,96.64319466917117,88.09572179062503,3.237724376958795e-05,0.10283113270998,0,0,0
8031,304535.5266987086,2011-01-06 23:14:09,990.4988296022392,2,32,0.5499359965324402,3.9464638233184814,23.96060413495124,24.54092009708507,96.6612892954768,88.09572179062503,3.237724376958795e-05,0.10283113270998,0,0,0
8032,304565.54185382056,2011-01-06 23:14:39,1020.5139847091984,2,32,0.5499359965324402,3.949054002761841,23.96519042410828,24.54092009708507,96.67939541291916,88.09572179062503,6.47544875391759e-05,0.10283113270998,0,0,0
8033,304595.55692756973,2011-01-06 23:15:09,1050.5290584834513,2,32,0.5499359965324402,3.9514822959899902,23.96977679381761,24.54092009708507,96.69751334564518,88.09572179062503,3.237724376958795e-05,0.10283113270998,0,0,0
8034,304625.5726167578,2011-01-06 23:15:39,1080.5447477617292,2,32,0.5501165986061096,3.9540724754333496,23.97436315855379,24.54092009708507,96.71564256623031,88.09572179062503,9.713172767078504e-05,0.10283113270998,0,0,0
8035,304655.58716505737,2011-01-06 23:16:09,1110.5592959410376,2,32,0.5501165986061096,3.956500768661499,23.97894943249191,24.54092009708507,96.73378266602464,88.09572179062503,3.237724376958795e-05,0.10283113270998,0,0,0
8036,304685.6023245854,2011-01-06 23:16:39,1140.5744554740277,2,32,0.5499359965324402,3.958929061889648,23.983535726932303,24.54092009708507,96.75193381440764,88.09572179062503,9.713172767078504e-05,0.10283113270998,0,0,0
8037,304715.6174101089,2011-01-06 23:17:09,1170.589541017613,2,32,0.5501165986061096,3.961357355117798,23.98812196635426,24.54092009708507,96.77009578712118,88.09572179062503,3.237724376958795e-05,0.10283113270998,0,0,0
8038,304745.6326371752,2011-01-06 23:17:39,1200.6047680738918,2,32,0.5501165986061096,3.963623762130737,23.99270832023272,24.54092009708507,96.78826915167788,88.09572179062503,6.47544875391759e-05,0.10283113270998,0,0,0
8039,304775.64763030846,2011-01-06 23:18:09,1230.6197611971374,2,32,0.5501165986061096,3.966052055358887,23.997294615650333,24.54092009708507,96.80645316924364,88.09572179062503,6.47544875391759e-05,0.10283113270998,0,0,0
8040,304805.66275754094,2011-01-06 23:18:39,1260.6348884296244,2,32,0.5499359965324402,3.968318462371826,24.001880994887493,24.54092009708507,96.8246483772303,88.09572179062503,6.47544875391759e-05,0.10283113270998,0,0,0
8041,304835.6778550845,2011-01-06 23:19:09,1290.6499859731175,2,32,0.5501165986061096,3.970746755599976,24.00646731351789,24.54092009708507,96.84285405445796,88.09572179062503,6.47544875391759e-05,0.10283113270998,0,0,0
8042,304865.6929709185,2011-01-06 23:19:39,1320.6651018071964,2,32,0.5499359965324402,3.973013162612915,24.01105355378588,24.54092009708507,96.8610700728936,88.09572179062503,3.237724376958795e-05,0.10283113270998,0,0,0
8043,304895.70821383933,2011-01-06 23:20:09,1350.6803447380394,2,32,0.5501165986061096,3.9752795696258554,24.015639840738515,24.54092009708507,96.87929688136737,88.09572179062503,6.47544875391759e-05,0.10283113270998,0,0,0
8044,304925.72335205425,2011-01-06 23:20:39,1380.6954829629228,2,32,0.5501165986061096,3.977707862854004,24.020226188066427,24.54092009708507,96.89753447059825,88.09572179062503,6.47544875391759e-05,0.10283113270998,0,0,0
8045,304955.73831004987,2011-01-06 23:21:09,1410.7104409385702,2,32,0.5501165986061096,3.979812383651733,24.02481243765873,24.54092009708507,96.91578172858353,88.09572179062503,9.713172767078504e-05,0.10283113270998,0,0,0
8046,304985.7535528354,2011-01-06 23:21:39,1440.7256837390885,2,32,0.5499359965324402,3.982078790664673,24.02939857767313,24.54092009708507,96.93403926555628,88.09572179062503,6.47544875391759e-05,0.10283113270998,0,0,0
8047,305015.76856106124,2011-01-06 23:22:09,1470.7406919800117,2,32,0.5499359965324402,3.984345197677612,24.03398473051682,24.54092009708507,96.95230714463064,88.09572179062503,3.237724376958795e-05,0.10283113270998,0,0,0
8048,305045.7840336795,2011-01-06 23:22:39,1500.7561645832693,2,32,0.5499359965324402,3.986449718475342,24.03857094126877,24.54092009708507,96.97058548735448,88.09572179062503,3.237724376958795e-05,0.10283113270998,0,0,0
8049,305075.7989098563,2011-01-06 23:23:09,1530.7710407600482,2,32,0.5501165986061096,3.988878011703491,24.04315714267227,24.54092009708507,96.98887399003527,88.09572179062503,9.713172767078504e-05,0.10283113270998,0,0,0
8050,305105.8138874308,2011-01-06 23:23:39,1560.7860183144917,2,32,0.5499359965324402,3.9908206462860103,24.047743300000565,24.54092009708507,97.00717244374762,88.09572179062503,0.0,0.10283113270998,0,0,0
8051,305135.82915737905,2011-01-06 23:24:09,1590.8012882877324,2,32,0.5499359965324402,3.99324893951416,24.052329493381823,24.54092009708507,97.02548117741983,88.09572179062503,6.47544875391759e-05,0.10283113270998,0,0,0
8052,305165.84631739784,2011-01-06 23:24:39,1620.8184484168237,2,32,0.5501165986061096,3.995515108108521,24.056915995757635,24.54092009708507,97.04380125300118,88.09572179062503,9.713172767078504e-05,0.10283113270998,0,0,0
8053,305195.8609210003,2011-01-06 23:25:09,1650.8330519190135,2,32,0.5499359965324402,3.99761962890625,24.06150207429286,24.54092009708507,97.06212972440449,88.09572179062503,3.237724376958795e-05,0.10283113270998,0,0,0
8054,305225.874354321,2011-01-06 23:25:39,1680.8464852347388,2,32,0.5501165986061096,3.99972414970398,24.0660879146454,24.54092009708507,97.08046729813118,88.09572179062503,6.47544875391759e-05,0.10283113270998,0,0,0
8055,305255.8894447969,2011-01-06 23:26:09,1710.8615757056043,2,32,0.5501165986061096,4.001990795135498,24.07067405570828,24.54092009708507,97.09881625626085,88.09572179062503,3.24249267578125e-05,0.10283113270998,0,0,0
8056,305285.90461918694,2011-01-06 23:26:39,1740.876750105648,2,32,0.5501165986061096,4.0042572021484375,24.07526014236367,24.54092009708507,97.11717510368314,88.09572179062503,6.47544875391759e-05,0.10283113270998,0,0,0
8057,305315.91968694614,2011-01-06 23:27:09,1770.8918178348345,2,32,0.5501165986061096,4.006685256958008,24.079846136801685,24.54092009708507,97.13554366670414,88.09572179062503,9.70840483205393e-05,0.10283113270998,0,0,0
8058,305345.93482273,2011-01-06 23:27:39,1800.9069536436966,2,32,0.5501165986061096,4.008790016174316,24.084432368933985,24.54092009708507,97.15392334853378,88.09572179062503,9.71794142969884e-05,0.10283113270998,0,0,0
8059,305375.9499143888,2011-01-06 23:28:09,1830.9220452774607,2,32,0.5497553944587708,4.010732650756836,24.08901857223824,24.54092009708507,97.17231296536916,88.09572179062503,0.0,0.10283113270998,0,0,0
8060,305405.96504961123,2011-01-06 23:28:39,1860.9371804998607,2,32,0.5501165986061096,4.012999057769775,24.09360479394273,24.54092009708507,97.19071286943613,88.09572179062503,3.24249267578125e-05,0.10283113270998,0,0,0
8061,305435.9801394204,2011-01-06 23:29:10,1890.952270329128,2,32,0.5501165986061096,4.015265464782715,24.09819102008331,24.54092009708507,97.20912298111624,88.09572179062503,3.24249267578125e-05,0.10283113270998,0,0,0
8062,305465.99525922444,2011-01-06 23:29:40,1920.9673901331007,2,32,0.5501165986061096,4.017531871795654,24.102777257797616,24.54092009708507,97.22754340658796,88.09572179062503,3.24249267578125e-05,0.10283113270998,0,0,0
8063,305496.0103725121,2011-01-06 23:30:10,1950.982503395771,2,32,0.5501165986061096,4.019959926605225,24.10736345556431,24.54092009708507,97.2459738630082,88.09572179062503,9.70840483205393e-05,0.10283113270998,0,0,0
8064,305526.0255037145,2011-01-06 23:30:40,1980.9976346282272,2,32,0.5501165986061096,4.022064685821533,24.11194960515161,24.54092009708507,97.26441456335976,88.09572179062503,6.47544875391759e-05,0.10283113270998,0,0,0
8065,305556.0406455985,2011-01-06 23:31:10,2011.0127765122304,2,32,0.5501165986061096,4.024492740631104,24.116535812392986,24.54092009708507,97.28286597042336,88.09572179062503,9.70840483205393e-05,0.10283113270998,0,0,0
8066,305586.0557191322,2011-01-06 23:31:40,2041.0278500208208,2,32,0.5501165986061096,4.026597499847412,24.121122029124493,24.54092009708507,97.30132782191087,88.09572179062503,6.47544875391759e-05,0.10283113270998,0,0,0
8067,305616.07083985343,2011-01-06 23:32:10,2071.0429707420803,2,32,0.5499359965324402,4.028863906860352,24.125708312113964,24.54092009708507,97.3198004826272,88.09572179062503,3.24249267578125e-05,0.10283113270998,0,0,0
8068,305646.0859629757,2011-01-06 23:32:40,2101.0580938643234,2,32,0.5501165986061096,4.031291961669922,24.130294573012584,24.54092009708507,97.33828359264638,88.09572179062503,9.70840483205393e-05,0.10283113270998,0,0,0
8069,305676.1010820177,2011-01-06 23:33:10,2131.073212906397,2,32,0.550297200679779,4.03372049331665,24.13488083784276,24.54092009708507,97.35677752688676,88.09572179062503,9.71794142969884e-05,0.10283113270998,0,0,0
8070,305706.11632445734,2011-01-06 23:33:40,2161.0884553560413,2,32,0.5501165986061096,4.036148548126221,24.13946708020133,24.54092009708507,97.37528224769838,88.09572179062503,9.71794142969884e-05,0.10283113270998,0,0,0
8071,305736.1313062574,2011-01-06 23:34:10,2191.1034371510536,2,32,0.5499359965324402,4.03841495513916,24.14405328483884,24.54092009708507,97.39379782467743,88.09572179062503,9.71794142969884e-05,0.10283113270998,0,0,0
8072,305766.1464481063,2011-01-06 23:34:40,2221.118578994957,2,32,0.5499359965324402,4.0408430099487305,24.148639550667856,24.54092009708507,97.41232463900072,88.09572179062503,6.47544875391759e-05,0.10283113270998,0,0,0
8073,305796.1615538001,2011-01-06 23:35:10,2251.133684778988,2,32,0.5499359965324402,4.04343318939209,24.153225838222603,24.54092009708507,97.43086267449912,88.09572179062503,6.47544875391759e-05,0.10283113270998,0,0,0
8074,305826.17665319826,2011-01-06 23:35:40,2281.1487840818654,2,32,0.5501165986061096,4.045699596405029,24.15781214765613,24.54092009708507,97.44941202352392,88.09572179062503,9.70840483205393e-05,0.10283113270998,0,0,0
8075,305856.19178238057,2011-01-06 23:36:10,2311.163913274237,2,32,0.5501165986061096,4.048128128051758,24.162398396290406,24.54092009708507,97.4679724327964,88.09572179062503,3.24249267578125e-05,0.10283113270998,0,0,0
8076,305886.20704470976,2011-01-06 23:36:40,2341.179175618465,2,32,0.5499359965324402,4.050718307495117,24.16698476464017,24.54092009708507,97.48654480103473,88.09572179062503,6.47544875391759e-05,0.10283113270998,0,0,0
8077,305916.22416041314,2011-01-06 23:37:10,2371.1962913218326,2,32,0.5501165986061096,4.053308486938477,24.171571305564864,24.54092009708507,97.50512946740746,88.09572179062503,9.71794142969884e-05,0.10283113270998,0,0,0
8078,305946.23727182654,2011-01-06 23:37:40,2401.2094027252538,2,32,0.5501165986061096,4.055898666381836,24.176157303932147,24.54092009708507,97.52372361585452,88.09572179062503,0.0001295089750783,0.10283113270998,0,0,0
8079,305976.2522932604,2011-01-06 23:38:10,2431.2244241740955,2,32,0.5501165986061096,4.058650493621826,24.18074361596807,24.54092009708507,97.54233082797536,88.09572179062503,0.0001295089750783,0.10283113270998,0,0,0
8080,306006.26755283773,2011-01-06 23:38:40,2461.2396837313768,2,32,0.5501165986061096,4.060755252838135,24.18532996410917,24.54092009708507,97.5609500460672,88.09572179062503,3.24249267578125e-05,0.10283113270998,0,0,0
8081,306036.282486613,2011-01-06 23:39:10,2491.254617506709,2,32,0.5501165986061096,4.063507080078125,24.189916215049383,24.54092009708507,97.57958057523416,88.09572179062503,6.47544875391759e-05,0.10283113270998,0,0,0
8082,306066.2975710338,2011-01-06 23:39:40,2521.269701922484,2,32,0.5501165986061096,4.066259384155273,24.19450238625456,24.54092009708507,97.5982230991106,88.09572179062503,6.47544875391759e-05,0.10283113270998,0,0,0
8083,306096.3128110925,2011-01-06 23:40:10,2551.2849419962063,2,32,0.5501165986061096,4.069011211395264,24.19908862441088,24.54092009708507,97.61687823256378,88.09572179062503,9.70840483205393e-05,0.10283113270998,0,0,0
8084,306126.3278159851,2011-01-06 23:40:40,2581.2999468687344,2,32,0.5499359965324402,4.071763515472412,24.203674865390976,24.54092009708507,97.63554586253572,88.09572179062503,9.71794142969884e-05,0.10283113270998,0,0,0
8085,306156.3429184659,2011-01-06 23:41:10,2611.3150493545454,2,32,0.5499359965324402,4.074191570281982,24.20826103311668,24.54092009708507,97.65422568129836,88.09572179062503,6.47544875391759e-05,0.10283113270998,0,0,0
8086,306186.3580485405,2011-01-06 23:41:40,2641.330179454178,2,32,0.5501165986061096,4.077267646789551,24.21284723871643,24.54092009708507,97.67291837296644,88.09572179062503,6.47544875391759e-05,0.10283113270998,0,0,0
8087,306216.37314606895,2011-01-06 23:42:10,2671.345276982634,2,32,0.5501165986061096,4.08018159866333,24.21743351406785,24.54092009708507,97.69162423046528,88.09572179062503,6.47544875391759e-05,0.10283113270998,0,0,0
8088,306246.3882695822,2011-01-06 23:42:40,2701.3604004707886,2,32,0.5501165986061096,4.0827717781066895,24.2220197439702,24.54092009708507,97.7103427655084,88.09572179062503,3.24249267578125e-05,0.10283113270998,0,0,0
8089,306276.4034998314,2011-01-06 23:43:10,2731.375630725038,2,32,0.550297200679779,4.0858473777771,24.22660600912413,24.54092009708507,97.7290744757802,88.09572179062503,9.70840483205393e-05,0.10283113270998,0,0,0
8090,306306.4185091851,2011-01-06 23:43:40,2761.390640083747,2,32,0.5499359965324402,4.088599681854248,24.23119221000746,24.54092009708507,97.7478191330282,88.09572179062503,9.71794142969884e-05,0.10283113270998,0,0,0
8091,306336.4337404769,2011-01-06 23:44:10,2791.405871375582,2,32,0.5501165986061096,4.091675281524658,24.23577846822535,24.54092009708507,97.7665773836566,88.09572179062503,9.70840483205393e-05,0.10283113270998,0,0,0
8092,306366.44878744934,2011-01-06 23:44:40,2821.4209183430244,2,32,0.5501165986061096,4.0945892333984375,24.24036463323111,24.54092009708507,97.78534863074152,88.09572179062503,9.70840483205393e-05,0.10283113270998,0,0,0
8093,306396.4638747774,2011-01-06 23:45:10,2851.4360056660444,2,32,0.5499359965324402,4.097503185272217,24.244950852520475,24.54092009708507,97.80413371917112,88.09572179062503,9.70840483205393e-05,0.10283113270998,0,0,0
8094,306426.47907897667,2011-01-06 23:45:40,2881.451209870369,2,32,0.5499359965324402,4.100417137145996,24.24953709239115,24.54092009708507,97.82293263038922,88.09572179062503,6.47544875391759e-05,0.10283113270998,0,0,0
8095,306456.4940849169,2011-01-06 23:46:10,2911.466215810559,2,32,0.5501165986061096,4.103654861450195,24.254123369697385,24.54092009708507,97.84174549754172,88.09572179062503,0.0001295089750783,0.10283113270998,0,0,0
8096,306486.5092109464,2011-01-06 23:46:40,2941.481341835035,2,32,0.550297200679779,4.106568813323975,24.258709578304337,24.54092009708507,97.86057209394588,88.09572179062503,6.47544875391759e-05,0.10283113270998,0,0,0
8097,306516.5243178281,2011-01-06 23:47:10,2971.496448716802,2,32,0.5499359965324402,4.109644889831543,24.263295785173227,24.54092009708507,97.87941276421309,88.09572179062503,6.47544875391759e-05,0.10283113270998,0,0,0
8098,306546.5398105666,2011-01-06 23:47:40,3001.511941485317,2,32,0.5501165986061096,4.112558841705322,24.26788211230752,24.54092009708507,97.89826812278407,88.09572179062503,3.24249267578125e-05,0.10283113270998,0,0,0
8099,306576.5545438222,2011-01-06 23:48:10,3031.52667471583,2,32,0.5501165986061096,4.115958213806152,24.27246829682826,24.54092009708507,97.9171371422875,88.09572179062503,9.71794142969884e-05,0.10283113270998,0,0,0
8100,306606.56968191674,2011-01-06 23:48:40,3061.541812830438,2,32,0.5501165986061096,4.119195938110352,24.277054523455885,24.54092009708507,97.93602086361471,88.09572179062503,0.0001295089750783,0.10283113270998,0,0,0
8101,306636.5847644127,2011-01-06 23:49:10,3091.5568953013667,2,32,0.5501165986061096,4.122271537780762,24.28164070947155,24.54092009708507,97.95491907935498,88.09572179062503,6.47544875391759e-05,0.10283113270998,0,0,0
8102,306666.6000056894,2011-01-06 23:49:40,3121.5721366031494,2,32,0.550297200679779,4.12534761428833,24.28622700787752,24.54092009708507,97.97383243186044,88.09572179062503,3.24249267578125e-05,0.10283113270998,0,0,0
8103,306696.6149994091,2011-01-06 23:50:10,3151.5871302928067,2,32,0.5499359965324402,4.12874698638916,24.29081328415364,24.54092009708507,97.99276060042124,88.09572179062503,9.70840483205393e-05,0.10283113270998,0,0,0
8104,306726.6301248121,2011-01-06 23:50:40,3181.6022557007464,2,32,0.550297200679779,4.132146835327148,24.295399575371,24.54092009708507,98.0117038808183,88.09572179062503,9.71794142969884e-05,0.10283113270998,0,0,0
8105,306756.6452351173,2011-01-06 23:51:10,3211.617366001033,2,32,0.5499359965324402,4.135222434997559,24.299985905068446,24.54092009708507,98.03066242429078,88.09572179062503,6.47544875391759e-05,0.10283113270998,0,0,0
8106,306786.6603533775,2011-01-06 23:51:40,3241.6324842611584,2,32,0.550297200679779,4.138783931732178,24.30457215411941,24.54092009708507,98.0496359205596,88.09572179062503,9.70840483205393e-05,0.10283113270998,0,0,0
8107,306816.6754742141,2011-01-06 23:52:10,3271.647605097705,2,32,0.5501165986061096,4.142021656036377,24.309158448036417,24.54092009708507,98.06862512729168,88.09572179062503,6.47544875391759e-05,0.10283113270998,0,0,0
8108,306846.69058906566,2011-01-06 23:52:40,3301.6627199493355,2,32,0.550297200679779,4.145583152770996,24.31374476292952,24.54092009708507,98.08763015028656,88.09572179062503,9.70840483205393e-05,0.10283113270998,0,0,0
8109,306876.7057108847,2011-01-06 23:53:10,3331.6778417683304,2,32,0.5501165986061096,4.148983001708984,24.3183309473089,24.54092009708507,98.10665059379862,88.09572179062503,9.71794142969884e-05,0.10283113270998,0,0,0
8110,306906.7208107389,2011-01-06 23:53:40,3361.692941622582,2,32,0.5499359965324402,4.152544498443604,24.32291719210691,24.54092009708507,98.12568721446549,88.09572179062503,3.24249267578125e-05,0.10283113270998,0,0,0
8111,306936.7359203525,2011-01-06 23:54:10,3391.7080512411703,2,32,0.5499359965324402,4.155943870544434,24.327503426816783,24.54092009708507,98.14473977617226,88.09572179062503,6.47544875391759e-05,0.10283113270998,0,0,0
8112,306966.7513879433,2011-01-06 23:54:40,3421.723518846972,2,32,0.550297200679779,4.159667491912842,24.332089722062765,24.54092009708507,98.16380875643056,88.09572179062503,0.0001295089750783,0.10283113270998,0,0,0
8113,306996.7661516848,2011-01-06 23:55:10,3451.7382825684786,2,32,0.5501165986061096,4.163066864013672,24.336675906073932,24.54092009708507,98.18289357501791,88.09572179062503,6.47544875391759e-05,0.10283113270998,0,0,0
8114,307026.7812838446,2011-01-06 23:55:40,3481.753414748296,2,32,0.5499359965324402,4.16679048538208,24.34126210124841,24.54092009708507,98.20199487510646,88.09572179062503,0.0001295089750783,0.10283113270998,0,0,0
8115,307056.7965072217,2011-01-06 23:56:10,3511.768638130417,2,32,0.550297200679779,4.17051362991333,24.345848278738465,24.54092009708507,98.22111270456176,88.09572179062503,9.70840483205393e-05,0.10283113270998,0,0,0
8116,307086.8136979521,2011-01-06 23:56:40,3541.7858288457383,2,32,0.550297200679779,4.174237251281738,24.35043479696823,24.54092009708507,98.24024865761768,88.09572179062503,9.71794142969884e-05,0.10283113270998,0,0,0
8117,307116.82837460155,2011-01-06 23:57:10,3571.8005055202966,2,32,0.5501165986061096,4.177798748016357,24.35502097039581,24.54092009708507,98.25940003413612,88.09572179062503,9.71794142969884e-05,0.10283113270998,0,0,0
8118,307146.841730755,2011-01-06 23:57:40,3601.81386165366,2,32,0.5499359965324402,4.181360244750977,24.359606911146056,24.54092009708507,98.27856747247392,88.09572179062503,6.47544875391759e-05,0.10283113270998,0,0,0
8119,307176.8569747084,2011-01-06 23:58:10,3631.829105617077,2,32,0.5501165986061096,4.185083389282227,24.36419313989146,24.54092009708507,98.2977532276029,88.09572179062503,6.47544875391759e-05,0.10283113270998,0,0,0
8120,307206.87199715973,2011-01-06 23:58:40,3661.844128068417,2,32,0.5499359965324402,4.188968658447266,24.368779306187243,24.54092009708507,98.3169559586555,88.09572179062503,6.47544875391759e-05,0.10283113270998,0,0,0
8121,307236.88710171566,2011-01-06 23:59:10,3691.8592326193743,2,32,0.5499359965324402,4.192853927612305,24.37336552483676,24.54092009708507,98.33617630094408,88.09572179062503,9.70840483205393e-05,0.10283113270998,0,0,0
8122,307266.90221075783,2011-01-06 23:59:40,3721.874341651501,2,32,0.5501165986061096,4.196577072143555,24.377951759275675,24.54092009708507,98.35541418042264,88.09572179062503,0.0001295089750783,0.10283113270998,0,0,0
8123,307292.04238707764,2011-01-07 00:00:06,3747.0145179713286,2,32,0.5501165986061096,4.200138568878174,24.38179311826432,24.54092009708507,98.37154113096314,88.09572179062503,0.0001618385285837,0.10283113270998,0,0,0
8124,307322.05560528307,2011-01-07 00:00:36,30.01512460092847,3,32,0.0,4.096046447753906,24.38179311826432,24.54092009708507,98.37154113096314,88.09572179062503,-0.0004856109735555,0.10283113270998,0,0,0
8125,307352.0708119285,2011-01-07 00:01:06,60.03033135661187,3,32,0.0,4.0826096534729,24.38179311826432,24.54092009708507,98.37154113096314,88.09572179062503,-0.0002590179501567,0.10283113270998,0,0,0
8126,307382.0879817567,2011-01-07 00:01:36,90.0475010896388,3,32,0.0,4.074191570281982,24.38179311826432,24.54092009708507,98.37154113096314,88.09572179062503,-0.0001619339018361,0.10283113270998,0,0,0
8127,307412.0540861743,2011-01-07 00:02:06,120.01360549716216,3,32,0.0,4.068687438964844,24.38179311826432,24.54092009708507,98.37154113096314,88.09572179062503,-0.0001619339018361,0.10283113270998,0,0,0
8128,307412.0541926137,2011-01-07 00:02:06,2.541333786e-06,4,32,1.0238547325134275,4.199976921081543,24.38179311898708,24.54092009708507,98.37154113399872,88.09572179062503,0.0,0.10283113270998,0,0,0
8129,307412.7574430352,2011-01-07 00:02:07,0.703252992843703,4,32,0.9729229211807252,4.199653148651123,24.381986773400563,24.54092009708507,98.37235445309304,88.09572179062503,-6.47544875391759e-05,0.10283113270998,0,0,0
8130,307414.64791239647,2011-01-07 00:02:09,2.593722359187514,4,32,0.9228941798210144,4.199976921081543,24.38248351773779,24.54092009708507,98.37444069801344,88.09572179062503,0.0,0.10283113270998,0,0,0
8131,307417.52501273586,2011-01-07 00:02:11,5.470822698494709,4,32,0.8728653788566589,4.199976921081543,24.38320006143577,24.54092009708507,98.37745008093869,88.09572179062503,3.24249267578125e-05,0.10283113270998,0,0,0
8132,307421.47602703416,2011-01-07 00:02:15,9.421836986797866,4,32,0.8228366374969482,4.199653148651123,24.384129475123004,24.54092009708507,98.38135350771852,88.09572179062503,-3.23295607813634e-05,0.10283113270998,0,0,0
8133,307426.7103129703,2011-01-07 00:02:21,14.656122922900153,4,32,0.7726272344589233,4.199814796447754,24.38528795769641,24.54092009708507,98.38621898102534,88.09572179062503,0.0,0.10283113270998,0,0,0
8134,307433.4602259202,2011-01-07 00:02:27,21.406035877880253,4,32,0.7225984930992126,4.199976921081543,24.386687925502557,24.54092009708507,98.39209869063384,88.09572179062503,0.0,0.10283113270998,0,0,0
8135,307442.39754512964,2011-01-07 00:02:36,30.343355092306982,4,32,0.6725696921348572,4.199976921081543,24.38841694414297,24.54092009708507,98.39936036004424,88.09572179062503,0.0,0.10283113270998,0,0,0
8136,307454.64738567144,2011-01-07 00:02:49,42.5931956140689,4,32,0.622360348701477,4.199814796447754,24.390615540632982,24.54092009708507,98.40859422854736,88.09572179062503,0.0,0.10283113270998,0,0,0
8137,307472.8189261917,2011-01-07 00:03:07,60.76473614932602,4,32,0.5723315477371216,4.199814796447754,24.39362255120368,24.54092009708507,98.42122334460396,88.09572179062503,0.0,0.10283113270998,0,0,0
8138,307504.0526241022,2011-01-07 00:03:38,91.99843403482528,4,32,0.5223028063774109,4.199814796447754,24.3983507163876,24.54092009708507,98.44108111191318,88.09572179062503,0.0,0.10283113270998,0,0,0
8139,307565.3327920462,2011-01-07 00:04:39,153.27860197877789,4,32,0.4722740054130554,4.199814796447754,24.40676909261865,24.54092009708507,98.47643704843551,88.09572179062503,-3.24249267578125e-05,0.10283113270998,0,0,0
8140,307671.12795980164,2011-01-07 00:06:25,259.07376975924615,4,32,0.4222452342510223,4.199653148651123,24.41987588646564,24.54092009708507,98.53148341833403,88.09572179062503,-3.23295607813634e-05,0.10283113270998,0,0,0
8141,307809.4693027899,2011-01-07 00:08:43,397.41511272749005,4,32,0.3722164630889892,4.199814796447754,24.43512543474797,24.54092009708507,98.59552960788736,88.09572179062503,-3.24249267578125e-05,0.10283113270998,0,0,0
8142,307976.1852386141,2011-01-07 00:11:30,564.1310485467627,4,32,0.3221877217292785,4.199976921081543,24.451189891061137,24.54092009708507,98.6629986017116,88.09572179062503,0.0,0.10283113270998,0,0,0
8143,308177.5568147925,2011-01-07 00:14:51,765.502624725084,4,32,0.2721589505672455,4.199976921081543,24.467798346847992,24.54092009708507,98.7327524417865,88.09572179062503,0.0,0.10283113270998,0,0,0
8144,308427.8025620784,2011-01-07 00:19:02,1015.748372011012,4,32,0.2221301645040512,4.199653148651123,24.484939145334508,24.54092009708507,98.80474205778184,88.09572179062503,-6.47544875391759e-05,0.10283113270998,0,0,0
8145,308752.6408101628,2011-01-07 00:24:27,1340.5866201054937,4,32,0.1721013933420181,4.199976921081543,24.502653361856296,24.54092009708507,98.87913992311516,88.09572179062503,0.0,0.10283113270998,0,0,0
8146,309215.5235782013,2011-01-07 00:32:09,1803.4693881338872,4,32,0.1220726296305656,4.199976921081543,24.521387150670968,24.54092009708507,98.95781987619804,88.09572179062503,3.24249267578125e-05,0.10283113270998,0,0,0
8147,310009.3225966311,2011-01-07 00:45:23,2597.268406593741,4,32,0.0720438584685325,4.199814796447754,24.542240023090585,24.54092009708507,99.04539989592207,88.09572179062503,-3.24249267578125e-05,0.10283113270998,0,0,0
8148,310644.108869542,2011-01-07 00:55:58,3232.054679504689,4,32,0.0498289167881011,4.199976921081543,24.55289975561553,24.54092009708507,99.09016984027146,88.09572179062503,3.24249267578125e-05,0.10283113270998,0,0,0
8149,310674.1320426149,2011-01-07 00:56:28,30.01522086083778,5,32,0.0,4.1901021003723145,24.55289975561553,24.54092009708507,99.09016984027146,88.09572179062503,-6.47544875391759e-05,0.10283113270998,0,0,0
8150,310704.1315241435,2011-01-07 00:56:58,60.01470236936673,5,32,0.0,4.188644886016846,24.55289975561553,24.54092009708507,99.09016984027146,88.09572179062503,-3.24249267578125e-05,0.10283113270998,0,0,0
8151,310704.3278932691,2011-01-07 00:56:58,0.187380078811808,6,32,-1.9243103452026844e-05,4.188644886016846,24.55289975561553,24.54092009808668,99.09016984027146,88.09572179482038,0.0,0.1076892986893653,0,0,0
8152,310709.1561485719,2011-01-07 00:57:03,5.015635386655973,6,32,0.0007031940040178,4.188483238220215,24.55290067166246,24.5409200982538,99.09017367723844,88.09572179552039,-3.23295607813634e-05,0.1076892986893653,0,0,0
8153,310727.7568533608,2011-01-07 00:57:22,18.59172429246738,7,32,-1.0993878841400146,3.988392353057861,24.55290067166246,24.54659841369748,99.09017367723844,88.11848822127153,-0.0015864372253417,0.1076892986893653,0,0,0
8154,310757.77236556273,2011-01-07 00:57:52,48.60723650945433,7,32,-1.099568486213684,3.9422547817230233,24.55290067166246,24.55576579288127,99.09017367723844,88.15482909730136,-0.0010684489971026,0.1076892986893653,0,0,0
8155,310787.7871152342,2011-01-07 00:58:22,78.62198608069342,7,32,-1.099568486213684,3.9082589149475098,24.55290067166246,24.56493287441081,99.09017367723844,88.19080267679395,-0.0007770538213662,0.1076892986893653,0,0,0
8156,310817.8023335788,2011-01-07 00:58:52,108.63720442525988,7,32,-1.0993878841400146,3.882842779159546,24.55290067166246,24.574100143078205,99.09017367723844,88.22650876509482,-0.0005827903514727,0.1076892986893653,0,0,0
8157,310847.8174539843,2011-01-07 00:59:22,138.6523249359943,7,32,-1.0993878841400146,3.862445116043091,24.55290067166246,24.5832673915014,99.09017367723844,88.26200621733338,-0.0004856586456298,0.1076892986893653,0,0,0
8158,310877.8324643354,2011-01-07 00:59:52,168.66733517690244,7,32,-1.099568486213684,3.844799518585205,24.55290067166246,24.59243474658219,99.09017367723844,88.29733104808318,-0.0004209041653666,0.1076892986893653,0,0,0
8159,310907.8475774127,2011-01-07 01:00:22,198.68244827917272,7,32,-1.099568486213684,3.828934907913208,24.55290067166246,24.601602695602057,99.09017367723844,88.3325060949403,-0.0004209041653666,0.1076892986893653,0,0,0
8160,310937.862974598,2011-01-07 01:00:52,228.6978454494278,7,32,-1.0997490882873535,3.814688920974731,24.55290067166246,24.61077079205231,99.09017367723844,88.3675450769785,-0.0003885269106831,0.1076892986893653,0,0,0
8161,310967.87793676404,2011-01-07 01:01:22,258.7128076255437,7,32,-1.099568486213684,3.8015761375427246,24.55290067166246,24.61993867325753,99.09017367723844,88.40245816629174,-0.0003561496851034,0.1076892986893653,0,0,0
8162,310997.8929272507,2011-01-07 01:01:52,288.72779809718065,7,32,-1.0993878841400146,3.789272785186768,24.55290067166246,24.62910639390429,99.09017367723844,88.4372539709669,-0.0003561496851034,0.1076892986893653,0,0,0
8163,311027.9080254408,2011-01-07 01:02:22,318.74289628227274,7,32,-1.099568486213684,3.777778863906861,24.55290067166246,24.63827360067339,99.09017367723844,88.47193744446591,-0.0002913951757363,0.1076892986893653,0,0,0
8164,311057.923376441,2011-01-07 01:02:52,348.7582472924828,7,32,-1.0993878841400146,3.766608715057373,24.55290067166246,24.647440869230685,99.09017367723844,88.50651748128655,-0.0002913951757363,0.1076892986893653,0,0,0
8165,311087.9382503722,2011-01-07 01:03:22,378.7731212186527,7,32,-1.0993878841400146,3.756247997283936,24.55290067166246,24.656608057772782,99.09017367723844,88.54099803407237,-0.0002590179501567,0.1076892986893653,0,0,0
8166,311117.9533866472,2011-01-07 01:03:52,408.788257488664,7,32,-1.099568486213684,3.745887517929077,24.55290067166246,24.665775198165026,99.09017367723844,88.575383632342,-0.0002590179501567,0.1076892986893653,0,0,0
8167,311147.96848756407,2011-01-07 01:04:22,438.8033584055647,7,32,-1.099568486213684,3.73617434501648,24.55290067166246,24.67494243045332,99.09017367723844,88.60967860686756,-0.0002266406954731,0.1076892986893653,0,0,0
8168,311177.9836887058,2011-01-07 01:04:52,468.8185596675561,7,32,-1.099929690361023,3.726623058319092,24.55290067166246,24.68410965886768,99.09017367723844,88.64388552314352,-0.0002913951757363,0.1076892986893653,0,0,0
8169,311207.998713919,2011-01-07 01:05:22,498.8335847654925,7,32,-1.099568486213684,3.717557430267334,24.55290067166246,24.693276847445325,99.09017367723844,88.67800785877004,-0.0002913951757363,0.1076892986893653,0,0,0
8170,311238.0138476126,2011-01-07 01:05:52,528.8487184590826,7,32,-1.099568486213684,3.708815574645996,24.55290067166246,24.702444108894323,99.09017367723844,88.71204812457994,-0.0002266406954731,0.1076892986893653,0,0,0
8171,311268.028949938,2011-01-07 01:06:22,558.8638207844937,7,32,-1.0993878841400146,3.700235605239868,24.55290067166246,24.7116113644094,99.09017367723844,88.74600855891991,-0.0002266406954731,0.1076892986893653,0,0,0
8172,311298.0442726928,2011-01-07 01:06:52,588.87914355432,7,32,-1.099568486213684,3.69197940826416,24.55290067166246,24.72077871093787,99.09017367723844,88.77989222566826,-0.0002266406954731,0.1076892986893653,0,0,0
8173,311328.0591579372,2011-01-07 01:07:22,618.8940287736359,7,32,-1.099568486213684,3.683885097503662,24.55290067166246,24.729945843567105,99.09017367723844,88.8137000619168,-0.0002266406954731,0.1076892986893653,0,0,0
8174,311358.074650039,2011-01-07 01:07:52,648.9095208955397,7,32,-1.0993878841400146,3.676114559173584,24.55290067166246,24.73911300748051,99.09017367723844,88.84743471120512,-0.0001618862152099,0.1076892986893653,0,0,0
8175,311388.0894311138,2011-01-07 01:08:22,678.9243019803201,7,32,-1.099568486213684,3.668182373046875,24.55290067166246,24.74828001033778,99.09017367723844,88.88109652470408,-0.0001942634553415,0.1076892986893653,0,0,0
8176,311418.10450384545,2011-01-07 01:08:52,708.9393746869121,7,32,-1.099568486213684,3.660573720932007,24.55290067166246,24.757447153460756,99.09017367723844,88.91468859147818,-0.0001942634553415,0.1076892986893653,0,0,0
8177,311448.1196356794,2011-01-07 01:09:22,738.9545065409172,7,32,-1.099568486213684,3.653288841247559,24.55290067166246,24.766614310365245,99.09017367723844,88.94821223050262,-0.0001295089750783,0.1076892986893653,0,0,0
8178,311478.1347617139,2011-01-07 01:09:52,768.9696325603812,7,32,-1.099568486213684,3.645842075347901,24.55290067166246,24.77578147204262,99.09017367723844,88.98166825785226,-0.0001942634553415,0.1076892986893653,0,0,0
8179,311508.1364447393,2011-01-07 01:10:22,798.9713156860176,7,32,-1.099568486213684,3.638880968093872,24.55290067166246,24.78494445769142,99.09017367723844,89.01504304563161,-0.0001618862152099,0.1076892986893653,0,0,0
8180,311538.15106633154,2011-01-07 01:10:52,828.9859372933311,7,32,-1.099568486213684,3.631757974624634,24.55290067166246,24.794111478898103,99.09017367723844,89.04836729254309,-0.0001618862152099,0.1076892986893653,0,0,0
8181,311568.1644628355,2011-01-07 01:11:22,858.9993336770104,7,32,-1.099568486213684,3.624634981155396,24.55290067166246,24.803278096022964,99.09017367723844,89.08162576504388,-0.0001942634553415,0.1076892986893653,0,0,0
8182,311598.1797004782,2011-01-07 01:11:52,889.0145713397236,7,32,-1.0997490882873535,3.617835760116577,24.55290067166246,24.812445331847304,99.09017367723844,89.11482347556388,-0.0001942634553415,0.1076892986893653,0,0,0
8183,311628.1947078369,2011-01-07 01:12:22,919.029578673386,7,32,-1.099568486213684,3.6111984252929688,24.55290067166246,24.821612515228644,99.09017367723844,89.14795929772187,-0.0001618862152099,0.1076892986893653,0,0,0
8184,311658.209800784,2011-01-07 01:12:52,949.0446716304482,7,32,-1.0993878841400146,3.6047229766845694,24.55290067166246,24.830779654064266,99.09017367723844,89.18103462461985,-0.0001942634553415,0.1076892986893653,0,0,0
8185,311688.2249202271,2011-01-07 01:13:22,979.0597910735218,7,32,-1.0997490882873535,3.598409414291382,24.55290067166246,24.839946834759026,99.09017367723844,89.21405100442054,-0.0001942634553415,0.1076892986893653,0,0,0
8186,311718.24003354984,2011-01-07 01:13:52,1009.0749043913293,7,32,-1.099568486213684,3.5919342041015625,24.55290067166246,24.849113985951604,99.09017367723844,89.24700902196845,-0.0001942157687153,0.1076892986893653,0,0,0
8187,311748.255270576,2011-01-07 01:14:22,1039.0901415277306,7,32,-1.099568486213684,3.585944414138794,24.55290067166246,24.85828119420525,99.09017367723844,89.27991033093225,-0.0001618862152099,0.1076892986893653,0,0,0
8188,311778.2702681253,2011-01-07 01:14:53,1069.105138971745,7,32,-1.0993878841400146,3.5799546241760254,24.55290067166246,24.86744833467352,99.09017367723844,89.31275599078187,-0.0001618862152099,0.1076892986893653,0,0,0
8189,311808.2855113318,2011-01-07 01:15:23,1099.12038220835,7,32,-1.099568486213684,3.574126720428467,24.55290067166246,24.876615511701267,99.09017367723844,89.34554704248843,-0.0001618862152099,0.1076892986893653,0,0,0
8190,311838.3004895479,2011-01-07 01:15:53,1129.1353603943676,7,32,-1.099568486213684,3.568460702896118,24.55290067166246,24.88578257743179,99.09017367723844,89.3782843646996,-0.0001295089750783,0.1076892986893653,0,0,0
8191,311868.3157569397,2011-01-07 01:16:23,1159.1506277961998,7,32,-1.099568486213684,3.562794685363769,24.55290067166246,24.89494978099794,99.09017367723844,89.41097023473945,-9.713172767078504e-05,0.1076892986893653,0,0,0
8192,311898.33072726114,2011-01-07 01:16:53,1189.1655981025788,7,32,-1.099568486213684,3.557452440261841,24.55290067166246,24.90411691068283,99.09017367723844,89.44360605285534,-9.713172767078504e-05,0.1076892986893653,0,0,0
8193,311928.34583420807,2011-01-07 01:17:23,1219.180705049508,7,32,-1.099568486213684,3.552110195159912,24.55290067166246,24.91328401178967,99.09017367723844,89.47619270075515,-0.0001618862152099,0.1076892986893653,0,0,0
8194,311958.36110855214,2011-01-07 01:17:53,1249.19597942873,7,32,-1.0993878841400146,3.5467679500579834,24.55290067166246,24.92245119483157,99.09017367723844,89.508731539827,-0.0001618862152099,0.1076892986893653,0,0,0
8195,311988.3760790591,2011-01-07 01:18:23,1279.2109499005212,7,32,-1.0993878841400146,3.5420732498168945,24.55290067166246,24.93161831011648,99.09017367723844,89.5412237925804,-0.0001295089750783,0.1076892986893653,0,0,0
8196,312018.3913128672,2011-01-07 01:18:53,1309.2261837186527,7,32,-1.0993878841400146,3.5370547771453857,24.55290067166246,24.940785482237267,99.09017367723844,89.57367086707046,-0.0001618862152099,0.1076892986893653,0,0,0
8197,312048.4064403252,2011-01-07 01:19:23,1339.2413112919892,7,32,-1.099568486213684,3.532036304473877,24.55290067166246,24.94995263037623,99.09017367723844,89.60607314812775,-0.0001942634553415,0.1076892986893653,0,0,0
8198,312078.4214165313,2011-01-07 01:19:53,1369.2562873727595,7,32,-1.099568486213684,3.527341604232788,24.55290067166246,24.9591197695858,99.09017367723844,89.6384317852976,-0.0001618862152099,0.1076892986893653,0,0,0
8199,312108.4365445808,2011-01-07 01:20:23,1399.271415422283,7,32,-1.0993878841400146,3.522808790206909,24.55290067166246,24.96828698572665,99.09017367723844,89.67074736834755,-9.713172767078504e-05,0.1076892986893653,0,0,0
8200,312138.4516457534,2011-01-07 01:20:53,1429.2865165948208,7,32,-1.099568486213684,3.5181140899658203,24.55290067166246,24.97745410622852,99.09017367723844,89.70301930745003,-0.0001295089750783,0.1076892986893653,0,0,0
8201,312168.4667813567,2011-01-07 01:21:23,1459.3016522232333,7,32,-1.099568486213684,3.513257503509521,24.55290067166246,24.98662127974207,99.09017367723844,89.73524803332636,-0.0001295089750783,0.1076892986893653,0,0,0
8202,312198.481911702,2011-01-07 01:21:53,1489.316782543416,7,32,-1.0997490882873535,3.5087249279022217,24.55290067166246,24.99578852803279,99.09017367723844,89.76743476806335,-0.0001295089750783,0.1076892986893653,0,0,0
8203,312228.4969999523,2011-01-07 01:22:23,1519.33187079876,7,32,-1.099568486213684,3.5041921138763428,24.55290067166246,25.004955719056618,99.09017367723844,89.79957928774941,-0.0001295089750783,0.1076892986893653,0,0,0
8204,312258.5142798499,2011-01-07 01:22:53,1549.349150696351,7,32,-1.0993878841400146,3.499659299850464,24.55290067166246,25.01412360309562,99.09017367723844,89.83168427314752,-0.0001295089750783,0.1076892986893653,0,0,0
8205,312288.5272588633,2011-01-07 01:23:23,1579.3621297098152,7,32,-1.0993878841400146,3.495288372039795,24.55290067166246,25.02329017290147,99.09017367723844,89.86374331457732,-9.713172767078504e-05,0.1076892986893653,0,0,0
8206,312318.5423447829,2011-01-07 01:23:53,1609.3772156293378,7,32,-1.0993878841400146,3.490755558013916,24.55290067166246,25.032457341414435,99.09017367723844,89.89576357738598,-6.47544875391759e-05,0.1076892986893653,0,0,0
8207,312348.5578314612,2011-01-07 01:24:23,1639.3927023427618,7,32,-1.0992072820663452,3.486222743988037,24.55290067166246,25.04162469287187,99.09017367723844,89.9277424793031,-9.713172767078504e-05,0.1076892986893653,0,0,0
8208,312378.57265896664,2011-01-07 01:24:53,1669.4075298231746,7,32,-1.099568486213684,3.4813661575317383,24.55290067166246,25.0507917610772,99.09017367723844,89.95967746024641,-9.713172767078504e-05,0.1076892986893653,0,0,0
8209,312408.5876920746,2011-01-07 01:25:23,1699.422562916037,7,32,-1.099568486213684,3.476347684860229,24.55290067166246,25.05995883931039,99.09017367723844,89.99156862191877,-0.0001618862152099,0.1076892986893653,0,0,0
8210,312438.60280008416,2011-01-07 01:25:53,1729.4376709256146,7,32,-1.0993878841400146,3.4716529846191406,24.55290067166246,25.069125947653628,99.09017367723844,90.02341541065901,-0.0001295089750783,0.1076892986893653,0,0,0
8211,312468.6179259583,2011-01-07 01:26:23,1759.4527967997162,7,32,-1.099568486213684,3.466796398162842,24.55290067166246,25.078293097619728,99.09017367723844,90.05521764326527,-0.0001295089750783,0.1076892986893653,0,0,0
8212,312498.6330294816,2011-01-07 01:26:53,1789.4679003181006,7,32,-1.099568486213684,3.461454153060913,24.55290067166246,25.08746022702602,99.09017367723844,90.08697380974054,-0.0001618862152099,0.1076892986893653,0,0,0
8213,312528.64814659394,2011-01-07 01:27:23,1819.48301744039,7,32,-1.099568486213684,3.4561119079589844,24.55290067166246,25.096627369153165,99.09017367723844,90.11868181517823,-0.0001618862152099,0.1076892986893653,0,0,0
8214,312558.6633876451,2011-01-07 01:27:53,1849.4982585065857,7,32,-1.099568486213684,3.4506077766418457,24.55290067166246,25.105794638856988,99.09017367723844,90.15034003284865,-0.0001295089750783,0.1076892986893653,0,0,0
8215,312588.6784489884,2011-01-07 01:28:23,1879.5133199400816,7,32,-1.099568486213684,3.444779872894287,24.55290067166246,25.11496186484072,99.09017367723844,90.18194647155212,-0.0001295089750783,0.1076892986893653,0,0,0
8216,312618.69349405606,2011-01-07 01:28:53,1909.5283649025264,7,32,-1.099568486213684,3.4386281967163086,24.55290067166246,25.124129077829966,99.09017367723844,90.21349778312872,-0.0001618862152099,0.1076892986893653,0,0,0
8217,312648.7087358791,2011-01-07 01:29:23,1939.5436067406456,7,32,-1.0993878841400146,3.43231463432312,24.55290067166246,25.13329630720808,99.09017367723844,90.24499144409856,-0.0001295089750783,0.1076892986893653,0,0,0
8218,312678.72372199496,2011-01-07 01:29:53,1969.558592841389,7,32,-1.0993878841400146,3.425191879272461,24.55290067166246,25.14246349940884,99.09017367723844,90.27642320927336,-0.0001942634553415,0.1076892986893653,0,0,0
8219,312708.7388496284,2011-01-07 01:30:23,1999.573720469864,7,32,-1.099568486213684,3.4177451133728027,24.55290067166246,25.151630654713006,99.09017367723844,90.30778812066556,-0.0001295089750783,0.1076892986893653,0,0,0
8220,312738.7539558585,2011-01-07 01:30:53,2029.5888267050188,7,32,-1.099568486213684,3.409165143966675,24.55290067166246,25.160797858546037,99.09017367723844,90.33908008714668,-0.0002266406954731,0.1076892986893653,0,0,0
8221,312768.7693218812,2011-01-07 01:31:23,2059.604192737669,7,32,-1.099568486213684,3.399775743484497,24.55290067166246,25.16996512651485,99.09017367723844,90.3702909077284,-0.0002913951757363,0.1076892986893653,0,0,0
8222,312798.78421045386,2011-01-07 01:31:53,2089.6190813003177,7,32,-1.099568486213684,3.3889293670654297,24.55290067166246,25.17913229017805,99.09017367723844,90.40140933039868,-0.0003561496851034,0.1076892986893653,0,0,0
8223,312828.7993250498,2011-01-07 01:32:23,2119.6341958963108,7,32,-1.0993878841400146,3.3763022422790527,24.55290067166246,25.188299524545368,99.09017367723844,90.43242000706412,-0.0003561496851034,0.1076892986893653,0,0,0
8224,312858.814456959,2011-01-07 01:32:53,2149.649327800441,7,32,-1.099568486213684,3.3610849380493164,24.55290067166246,25.19746674024704,99.09017367723844,90.46330273816068,-0.0004209041653666,0.1076892986893653,0,0,0
8225,312888.8299177478,2011-01-07 01:33:23,2179.664788739628,7,32,-1.099568486213684,3.34295392036438,24.55290067166246,25.206634060889662,99.09017367723844,90.49403386358964,-0.0004856586456298,0.1076892986893653,0,0,0
8226,312918.84464766504,2011-01-07 01:33:53,2209.679518511521,7,32,-1.0993878841400146,3.320937395095825,24.55290067166246,25.215801204815705,99.09017367723844,90.52458178578505,-0.0006799221155233,0.1076892986893653,0,0,0
8227,312948.859792742,2011-01-07 01:34:23,2239.6946635834697,7,32,-1.0993878841400146,3.293416738510132,24.55290067166246,25.224968376865665,99.09017367723844,90.55490389502565,-0.0007770538213662,0.1076892986893653,0,0,0
8228,312978.8748791678,2011-01-07 01:34:53,2269.7097500142663,7,32,-1.0993878841400146,3.2586114406585693,24.55290067166246,25.234135573408008,99.09017367723844,90.58494214596072,-0.0010684489971026,0.1076892986893653,0,0,0
8229,313008.89011943195,2011-01-07 01:35:23,2299.724990308538,7,32,-1.0993878841400146,3.2134451866149902,24.55290067166246,25.24330271970506,99.09017367723844,90.61461677726705,-0.0013598442310467,0.1076892986893653,0,0,0
8230,313038.9050803851,2011-01-07 01:35:53,2329.739951236543,7,32,-1.0993878841400146,3.153385639190674,24.55290067166246,25.25246951968668,99.09017367723844,90.64381280510904,-0.0018131255637854,0.1076892986893653,0,0,0
8231,313068.92034001247,2011-01-07 01:36:23,2359.755210874024,7,32,-1.099568486213684,3.069852590560913,24.55290067166246,25.26163644903013,99.09017367723844,90.67235998547072,-0.0026225566398352,0.1076892986893653,0,0,0
8232,313098.9354400372,2011-01-07 01:36:53,2389.770310893689,7,32,-1.099568486213684,2.9477908611297607,24.55290067166246,25.270803319964084,99.09017367723844,90.69997993861428,-0.0038528442382812,0.1076892986893653,0,0,0
8233,313128.9504400928,2011-01-07 01:37:23,2419.7853109391867,7,32,-1.0992072820663452,2.7666406631469727,24.55290067166246,25.279970279115265,99.09017367723844,90.72621907266172,-0.0055040838196873,0.1076892986893653,0,0,0
8234,313138.23154895176,2011-01-07 01:37:32,2429.066419793177,7,32,-1.099568486213684,2.699781894683838,24.55290067166246,25.282804911829786,99.09017367723844,90.73396727793664,-0.0057954788208007,0.1076892986893653,0,0,0
8235,313198.23408917314,2011-01-07 01:38:33,60.01459604938462,8,32,0.0,3.5632803440093994,24.55290067166246,25.282804911829786,99.09017367723844,90.73396727793664,0.0011655807029455,0.1076892986893653,0,0,0
8236,313198.4419633393,2011-01-07 01:38:33,0.203268537740214,9,32,-1.9243103452026844e-05,3.5634422302246094,24.55290067166246,25.28280491291632,99.09017367723844,90.73396728180845,0.0,0.1005837768316268,0,0,0
8237,313203.2542267955,2011-01-07 01:38:38,5.015531988957092,9,32,0.0007031940040178,3.570888996124268,24.55290163120728,25.28280491299933,99.0901771006571,90.73396728210426,0.0010360718006268,0.1005837768316268,0,0,0
