Data_Point,Test_Time(s),Date_Time,Step_Time(s),Step_Index,Cycle_Index,Current(A),Voltage(V),Charge_Capacity(Ah),Discharge_Capacity(Ah),Charge_Energy(Wh),Discharge_Energy(Wh),dV/dt(V/s),Internal_Resistance(Ohm),Is_FC_Data,AC_Impedance(Ohm),ACI_Phase_Angle(Deg)
4973,184714.3602446776,2011-01-05 13:56:53,30.01501927341991,1,20,0.0,3.5715365409851074,14.616618582320196,15.376279734684728,58.87009900506485,55.36460724710901,0.0007122993702068,0.099682405591011,0,0,0
4974,184744.37521963057,2011-01-05 13:57:23,60.02999420632962,1,20,0.0,3.593067169189453,14.616618582320196,15.376279734684728,58.87009900506485,55.36460724710901,0.0005179882282391,0.099682405591011,0,0,0
4975,184774.3904566366,2011-01-05 13:57:53,90.0452312274438,1,20,0.0,3.60860824584961,14.616618582320196,15.376279734684728,58.87009900506485,55.36460724710901,0.0003885269106831,0.099682405591011,0,0,0
4976,184804.3585980209,2011-01-05 13:58:23,120.01337259670257,1,20,0.0,3.620264053344727,14.616618582320196,15.376279734684728,58.87009900506485,55.36460724710901,0.0002266406954731,0.099682405591011,0,0,0
4977,184834.37785336445,2011-01-05 13:58:53,30.015119899210337,2,20,0.5501165986061096,3.749125242233277,14.62120493591906,15.376279734684728,58.88719282849768,55.36460724710901,0.0009389400365762,0.099682405591011,0,0,0
4978,184864.393040807,2011-01-05 13:59:23,60.03030734175947,2,20,0.5499359965324402,3.775674343109131,14.625791327918405,15.376279734684728,58.90445386418183,55.36460724710901,0.0005504131549969,0.099682405591011,0,0,0
4979,184894.4081024961,2011-01-05 13:59:53,90.04536902587989,2,20,0.5501165986061096,3.791701078414917,14.63037765109385,15.376279734684728,58.92180993966681,55.36460724710901,0.0003237724304199,0.099682405591011,0,0,0
4980,184924.4233654268,2011-01-05 14:00:23,120.06063196659366,2,20,0.5501165986061096,3.8023855686187744,14.634964018522496,15.376279734684728,58.9392257003334,55.36460724710901,0.0002266406954731,0.099682405591011,0,0,0
4981,184954.43835448995,2011-01-05 14:00:53,150.07562103974522,2,20,0.5499359965324402,3.8106417655944815,14.639550335467252,15.376279734684728,58.95668350626226,55.36460724710901,0.0002590179501567,0.099682405591011,0,0,0
4982,184984.45349873483,2011-01-05 14:01:23,180.0907652645825,2,20,0.5499359965324402,3.8177647590637207,14.64413668537718,15.376279734684728,58.97417682860938,55.36460724710901,0.0001942634553415,0.099682405591011,0,0,0
4983,185014.4685905641,2011-01-05 14:01:53,210.10585709884631,2,20,0.5499359965324402,3.824402093887329,14.648723021922358,15.376279734684728,58.99170187426162,55.36460724710901,0.0001618862152099,0.099682405591011,0,0,0
4984,185044.48406778384,2011-01-05 14:02:23,240.1213345391591,2,20,0.5501165986061096,3.8307156562805176,14.653309428013737,15.376279734684728,59.00925656176254,55.36460724710901,0.0001942634553415,0.099682405591011,0,0,0
4985,185074.49885506908,2011-01-05 14:02:53,270.1361216188809,2,20,0.550297200679779,3.836543321609497,14.65789566350736,15.376279734684728,59.02683818301924,55.36460724710901,0.0001618862152099,0.099682405591011,0,0,0
4986,185104.51397151468,2011-01-05 14:03:23,300.1512380444338,2,20,0.5501165986061096,3.842047452926636,14.662481982229371,15.376279734684728,59.044446323220825,55.36460724710901,9.713172767078504e-05,0.099682405591011,0,0,0
4987,185134.52907702303,2011-01-05 14:03:53,330.16634355277773,2,20,0.5501165986061096,3.847389698028565,14.66706828360696,15.376279734684728,59.06207954189029,55.36460724710901,0.0001295089750783,0.099682405591011,0,0,0
4988,185164.54432032985,2011-01-05 14:04:23,360.18158687459515,2,20,0.5501165986061096,3.852570056915283,14.671654663570848,15.376279734684728,59.07973723661282,55.36460724710901,0.0001295089750783,0.099682405591011,0,0,0
4989,185194.5594392967,2011-01-05 14:04:53,390.1967058414818,2,20,0.550297200679779,3.857588529586792,14.676240985761025,15.376279734684728,59.09741791789794,55.36460724710901,0.0001295089750783,0.099682405591011,0,0,0
4990,185224.57445437464,2011-01-05 14:05:23,420.2117209044079,2,20,0.5499359965324402,3.862283229827881,14.680827238390446,15.376279734684728,59.11512081322637,55.36460724710901,9.713172767078504e-05,0.099682405591011,0,0,0
4991,185254.5896798971,2011-01-05 14:05:53,450.22694643688885,2,20,0.5501165986061096,3.8673017024993896,14.685413593107528,15.376279734684728,59.13284605939718,55.36460724710901,0.0001295089750783,0.099682405591011,0,0,0
4992,185284.60469542613,2011-01-05 14:06:23,480.24196198101424,2,20,0.5501165986061096,3.8716726303100586,14.68999983582968,15.376279734684728,59.15059247814182,55.36460724710901,9.713172767078504e-05,0.099682405591011,0,0,0
4993,185314.61983421748,2011-01-05 14:06:53,510.25710074724697,2,20,0.5499359965324402,3.876367330551148,14.694586153526854,15.376279734684728,59.16836019843442,55.36460724710901,0.0001295089750783,0.099682405591011,0,0,0
4994,185344.6349342472,2011-01-05 14:07:23,540.2722007719238,2,20,0.5501165986061096,3.880738258361816,14.69917239683096,15.376279734684728,59.1861481370683,55.36460724710901,0.0001295089750783,0.099682405591011,0,0,0
4995,185374.650056788,2011-01-05 14:07:53,570.2873233177303,2,20,0.5499359965324402,3.885109186172485,14.703758794567072,15.376279734684728,59.20395688588548,55.36460724710901,0.0001295089750783,0.099682405591011,0,0,0
4996,185404.66516375492,2011-01-05 14:08:23,600.302430289722,2,20,0.5501165986061096,3.889318227767944,14.70834513881363,15.376279734684728,59.22178505823979,55.36460724710901,9.713172767078504e-05,0.099682405591011,0,0,0
4997,185434.68026411548,2011-01-05 14:08:53,630.317530640211,2,20,0.5501165986061096,3.8935272693634033,14.712931550857997,15.376279734684728,59.23963249922018,55.36460724710901,0.0001295089750783,0.099682405591011,0,0,0
4998,185464.6956017724,2011-01-05 14:09:23,660.3328683021531,2,20,0.5499359965324402,3.897250652313232,14.717517891468354,15.376279734684728,59.25749784544958,55.36460724710901,6.47544875391759e-05,0.099682405591011,0,0,0
4999,185494.710526816,2011-01-05 14:09:53,690.3477933457232,2,20,0.5501165986061096,3.901135921478272,14.722104171067734,15.376279734684728,59.2753806080695,55.36460724710901,9.713172767078504e-05,0.099682405591011,0,0,0
5000,185524.72563947213,2011-01-05 14:10:23,720.3629060018816,2,20,0.5501165986061096,3.90469741821289,14.726690535754404,15.376279734684728,59.29328074528999,55.36460724710901,9.713172767078504e-05,0.099682405591011,0,0,0
5001,185554.74087295943,2011-01-05 14:10:53,750.3781395042259,2,20,0.5499359965324402,3.9082589149475098,14.731276878147572,15.376279734684728,59.31119700725188,55.36460724710901,9.713172767078504e-05,0.099682405591011,0,0,0
5002,185584.7580909528,2011-01-05 14:11:23,780.3953576128197,2,20,0.5499359965324402,3.911496639251709,14.735863583718556,15.376279734684728,59.32913017169431,55.36460724710901,9.713172767078504e-05,0.099682405591011,0,0,0
5003,185614.7726906204,2011-01-05 14:11:53,810.4099571451155,2,20,0.5501165986061096,3.914572238922119,14.740449804882251,15.376279734684728,59.34707611205378,55.36460724710901,9.713172767078504e-05,0.099682405591011,0,0,0
5004,185644.7861504722,2011-01-05 14:12:23,840.4234170070021,2,20,0.5501165986061096,3.9174861907958975,14.745035961170396,15.376279734684728,59.3650357398377,55.36460724710901,3.237724376958795e-05,0.099682405591011,0,0,0
5005,185674.80122947952,2011-01-05 14:12:53,870.4384960092847,2,20,0.5501165986061096,3.9204001426696777,14.749622364618768,15.376279734684728,59.38300976995183,55.36460724710901,6.47544875391759e-05,0.099682405591011,0,0,0
5006,185704.81641284697,2011-01-05 14:13:23,900.4536793716647,2,20,0.5501165986061096,3.922990322113037,14.754209294908716,15.376279734684728,59.40099865276452,55.36460724710901,3.237724376958795e-05,0.099682405591011,0,0,0
5007,185734.83147214007,2011-01-05 14:13:53,930.4687386748512,2,20,0.5501165986061096,3.9257423877716064,14.758796480080878,15.376279734684728,59.41900088971244,55.36460724710901,6.47544875391759e-05,0.099682405591011,0,0,0
5008,185764.846719492,2011-01-05 14:14:23,960.4839860367376,2,20,0.5501165986061096,3.928170680999756,14.763383662862598,15.376279734684728,59.437014778939215,55.36460724710901,3.237724376958795e-05,0.099682405591011,0,0,0
5009,185794.86177652449,2011-01-05 14:14:53,990.499043144452,2,20,0.5501165986061096,3.9307608604431152,14.767970750136554,15.376279734684728,59.455039717184974,55.36460724710901,6.47544875391759e-05,0.099682405591011,0,0,0
5010,185824.87689015805,2011-01-05 14:15:23,1020.5141567780468,2,20,0.5501165986061096,3.933027267456055,14.772557321185008,15.376279734684728,59.47307368642,55.36460724710901,3.237724376958795e-05,0.099682405591011,0,0,0
5011,185854.89196262907,2011-01-05 14:15:54,1050.529229153814,2,20,0.5499359965324402,3.935455560684204,14.777143787317646,15.376279734684728,59.49111827015406,55.36460724710901,6.47544875391759e-05,0.099682405591011,0,0,0
5012,185884.90708275884,2011-01-05 14:16:24,1080.544349313674,2,20,0.5501165986061096,3.9378838539123535,14.781730151932194,15.376279734684728,59.509173166758174,55.36460724710901,9.713172767078504e-05,0.099682405591011,0,0,0
5013,185914.9223526719,2011-01-05 14:16:54,1110.5596192217529,2,20,0.5501165986061096,3.940150260925293,14.786316462749545,15.376279734684728,59.527238542597225,55.36460724710901,6.47544875391759e-05,0.099682405591011,0,0,0
5014,185944.93736335897,2011-01-05 14:17:24,1140.5746298937352,2,20,0.5501165986061096,3.942416667938232,14.790902756548729,15.376279734684728,59.54531438721323,55.36460724710901,6.47544875391759e-05,0.099682405591011,0,0,0
5015,185974.9524494439,2011-01-05 14:17:54,1170.5897159937074,2,20,0.5499359965324402,3.944683074951172,14.795489094186422,15.376279734684728,59.56340083217097,55.36460724710901,6.47544875391759e-05,0.099682405591011,0,0,0
5016,186004.96756133315,2011-01-05 14:18:24,1200.6048278729295,2,20,0.5501165986061096,3.946787595748901,14.800075470226382,15.376279734684728,59.581497796339605,55.36460724710901,3.237724376958795e-05,0.099682405591011,0,0,0
5017,186034.98268434007,2011-01-05 14:18:54,1230.6199508999352,2,20,0.5501165986061096,3.949215888977051,14.804661761500492,15.376279734684728,59.59960461711925,55.36460724710901,3.237724376958795e-05,0.099682405591011,0,0,0
5018,186064.997828184,2011-01-05 14:19:24,1260.635094753848,2,20,0.5501165986061096,3.95132040977478,14.809248088445568,15.376279734684728,59.61772180093554,55.36460724710901,6.47544875391759e-05,0.099682405591011,0,0,0
5019,186095.01293675497,2011-01-05 14:19:54,1290.65020329475,2,20,0.5499359965324402,3.95358681678772,14.8138343751472,15.376279734684728,59.63584896014872,55.36460724710901,3.237724376958795e-05,0.099682405591011,0,0,0
5020,186125.02829157468,2011-01-05 14:20:24,1320.6655581194673,2,20,0.5499359965324402,3.955691337585449,14.818420739676318,15.376279734684728,59.65398651130502,55.36460724710901,3.237724376958795e-05,0.099682405591011,0,0,0
5021,186155.04314299475,2011-01-05 14:20:54,1350.680409524507,2,20,0.5501165986061096,3.9579577445983887,14.82300713269513,15.376279734684728,59.6721341518159,55.36460724710901,6.47544875391759e-05,0.099682405591011,0,0,0
5022,186185.05842923856,2011-01-05 14:21:24,1380.695695783337,2,20,0.5501165986061096,3.960224151611328,14.827593561044772,15.376279734684728,59.69029187538665,55.36460724710901,9.713172767078504e-05,0.099682405591011,0,0,0
5023,186215.0734389531,2011-01-05 14:21:54,1410.7107055079582,2,20,0.5501165986061096,3.9623286724090576,14.832179805288554,15.376279734684728,59.70845886788042,55.36460724710901,6.47544875391759e-05,0.099682405591011,0,0,0
5024,186245.0885590829,2011-01-05 14:22:24,1440.725825617693,2,20,0.5501165986061096,3.964433193206787,14.836766107283092,15.376279734684728,59.72663588876272,55.36460724710901,3.237724376958795e-05,0.099682405591011,0,0,0
5025,186275.10370647564,2011-01-05 14:22:54,1470.7409730354884,2,20,0.5501165986061096,3.9665377140045166,14.841352406822775,15.376279734684728,59.744822688301454,55.36460724710901,6.47544875391759e-05,0.099682405591011,0,0,0
5026,186305.1188122647,2011-01-05 14:23:24,1500.7560787994694,2,20,0.5501165986061096,3.968642234802246,14.84593872696942,15.376279734684728,59.763019235083,55.36460724710901,9.713172767078504e-05,0.099682405591011,0,0,0
5027,186335.13613350032,2011-01-05 14:23:54,1530.7734001453623,2,20,0.5501165986061096,3.970746755599976,14.850525385501854,15.376279734684728,59.78122687114568,55.36460724710901,6.47544875391759e-05,0.099682405591011,0,0,0
5028,186365.1490594064,2011-01-05 14:24:24,1560.7863259662545,2,20,0.550297200679779,3.972851276397705,14.855111325312778,15.376279734684728,59.79944135593869,55.36460724710901,6.47544875391759e-05,0.099682405591011,0,0,0
5029,186395.16416031832,2011-01-05 14:24:54,1590.80142685308,2,20,0.5501165986061096,3.9749557971954346,14.859697600498574,15.376279734684728,59.81766685011748,55.36460724710901,3.237724376958795e-05,0.099682405591011,0,0,0
5030,186425.17951740863,2011-01-05 14:25:24,1620.8167840537185,2,20,0.5501165986061096,3.977060317993164,14.864283959306643,15.376279734684728,59.83590222909529,55.36460724710901,6.47544875391759e-05,0.099682405591011,0,0,0
5031,186455.1944157808,2011-01-05 14:25:54,1650.8316824308274,2,20,0.5499359965324402,3.979002952575684,14.868870282549404,15.376279734684728,59.85414669860167,55.36460724710901,0.0,0.099682405591011,0,0,0
5032,186485.2095338805,2011-01-05 14:26:24,1680.8468004152658,2,20,0.5499359965324402,3.981269359588623,14.873456472065817,15.376279734684728,59.87240068237973,55.36460724710901,3.237724376958795e-05,0.099682405591011,0,0,0
5033,186515.22464645645,2011-01-05 14:26:54,1710.8619129862118,2,20,0.5501165986061096,3.983373880386353,14.878042697927118,15.376279734684728,59.89066434772971,55.36460724710901,6.47544875391759e-05,0.099682405591011,0,0,0
5034,186545.23979587425,2011-01-05 14:27:24,1740.8770624390788,2,20,0.5499359965324402,3.985478401184082,14.882628855985898,15.376279734684728,59.90893723142988,55.36460724710901,6.47544875391759e-05,0.099682405591011,0,0,0
5035,186575.25489081623,2011-01-05 14:27:54,1770.8921573710631,2,20,0.5501165986061096,3.9874210357666016,14.88721507828376,15.376279734684728,59.92721991909541,55.36460724710901,6.47544875391759e-05,0.099682405591011,0,0,0
5036,186605.2700199735,2011-01-05 14:28:24,1800.9072865433852,2,20,0.5501165986061096,3.989525556564331,14.891801297046005,15.376279734684728,59.94551198318134,55.36460724710901,9.713172767078504e-05,0.099682405591011,0,0,0
5037,186635.28512806832,2011-01-05 14:28:54,1830.9223946231373,2,20,0.5501165986061096,3.9914681911468506,14.896387523331008,15.376279734684728,59.96381366518624,55.36460724710901,3.237724376958795e-05,0.099682405591011,0,0,0
5038,186665.3002835913,2011-01-05 14:29:24,1860.937550251396,2,20,0.5501165986061096,3.99373459815979,14.900973721714186,15.376279734684728,59.982124684272826,55.36460724710901,9.713172767078504e-05,0.099682405591011,0,0,0
5039,186695.315424538,2011-01-05 14:29:54,1890.9526910627253,2,20,0.5499359965324402,3.9956769943237305,14.90555992453046,15.376279734684728,60.00044529224562,55.36460724710901,3.237724376958795e-05,0.099682405591011,0,0,0
5040,186725.3308148812,2011-01-05 14:30:24,1920.9680815362904,2,20,0.5501165986061096,3.99778151512146,14.910146246001071,15.376279734684728,60.01877596573357,55.36460724710901,3.237724376958795e-05,0.099682405591011,0,0,0
5041,186755.3457694283,2011-01-05 14:30:54,1950.9830360833928,2,20,0.5499359965324402,3.9998860359191895,14.914732485813584,15.376279734684728,60.03711577414568,55.36460724710901,3.237724376958795e-05,0.099682405591011,0,0,0
5042,186785.3607924962,2011-01-05 14:31:24,1980.998059156282,2,20,0.5501165986061096,4.002152442932129,14.919318659050344,15.376279734684728,60.05546501238423,55.36460724710901,9.70840483205393e-05,0.099682405591011,0,0,0
5043,186815.37595433995,2011-01-05 14:31:54,2011.0132210000309,2,20,0.5501165986061096,4.004095077514648,14.923904766183384,15.376279734684728,60.07382367827123,55.36460724710901,3.23295607813634e-05,0.099682405591011,0,0,0
5044,186845.39114019857,2011-01-05 14:32:24,2041.0284069538693,2,20,0.550297200679779,4.006199836730957,14.92849089831638,15.376279734684728,60.09219211729589,55.36460724710901,3.24249267578125e-05,0.099682405591011,0,0,0
5045,186875.40613188824,2011-01-05 14:32:54,2071.043398433018,2,20,0.5499359965324402,4.0084662437438965,14.933077026786227,15.376279734684728,60.11057035383703,55.36460724710901,6.47544875391759e-05,0.099682405591011,0,0,0
5046,186905.42127594264,2011-01-05 14:33:24,2101.0585424723927,2,20,0.5501165986061096,4.010408878326416,14.937663198639257,15.376279734684728,60.12895845537849,55.36460724710901,3.24249267578125e-05,0.099682405591011,0,0,0
5047,186935.43641699452,2011-01-05 14:33:54,2131.073683639609,2,20,0.5501165986061096,4.012836933135986,14.942249396770707,15.376279734684728,60.14735660067634,55.36460724710901,9.70840483205393e-05,0.099682405591011,0,0,0
5048,186965.4517671677,2011-01-05 14:34:24,2161.089033712484,2,20,0.5499359965324402,4.014941692352295,14.946835647314185,15.376279734684728,60.16576500279858,55.36460724710901,6.47544875391759e-05,0.099682405591011,0,0,0
5049,186995.4666488532,2011-01-05 14:34:54,2191.1039153829543,2,20,0.550297200679779,4.017208099365234,14.951421757290078,15.376279734684728,60.18418295809859,55.36460724710901,6.47544875391759e-05,0.099682405591011,0,0,0
5050,187025.48178225107,2011-01-05 14:35:24,2221.119048780808,2,20,0.5501165986061096,4.019312381744385,14.956007959785223,15.376279734684728,60.20261145324504,55.36460724710901,6.47544875391759e-05,0.099682405591011,0,0,0
5051,187055.49687778452,2011-01-05 14:35:54,2251.134144309279,2,20,0.5495747923851013,4.021417140960693,14.96059413278116,15.376279734684728,60.221049962853165,55.36460724710901,3.24249267578125e-05,0.099682405591011,0,0,0
5052,187085.5121357228,2011-01-05 14:36:24,2281.1494022776,2,20,0.550297200679779,4.024007320404053,14.965180283317098,15.376279734684728,60.23949880761283,55.36460724710901,9.71794142969884e-05,0.099682405591011,0,0,0
5053,187115.52711965813,2011-01-05 14:36:54,2311.164386187884,2,20,0.5501165986061096,4.026273727416992,14.969766422847307,15.376279734684728,60.2579580255972,55.36460724710901,9.71794142969884e-05,0.099682405591011,0,0,0
5054,187145.54226407845,2011-01-05 14:37:24,2341.1795306332706,2,20,0.5499359965324402,4.028378009796143,14.974352594063324,15.376279734684728,60.276427966081584,55.36460724710901,3.23295607813634e-05,0.099682405591011,0,0,0
5055,187175.5573903736,2011-01-05 14:37:54,2371.1946568983467,2,20,0.5501165986061096,4.030806541442871,14.978938782424104,15.376279734684728,60.294908628769406,55.36460724710901,6.47544875391759e-05,0.099682405591011,0,0,0
5056,187205.5724965837,2011-01-05 14:38:24,2401.2097631435267,2,20,0.5501165986061096,4.033234596252441,14.983524890636405,15.376279734684728,60.31339976325829,55.36460724710901,6.47544875391759e-05,0.099682405591011,0,0,0
5057,187235.58761187145,2011-01-05 14:38:54,2431.224878401169,2,20,0.5501165986061096,4.035501003265381,14.988111077034032,15.376279734684728,60.33190211634207,55.36460724710901,6.47544875391759e-05,0.099682405591011,0,0,0
5058,187265.60287667176,2011-01-05 14:39:24,2461.2401432215675,2,20,0.5501165986061096,4.037929058074951,14.99269730645837,15.376279734684728,60.350415593649295,55.36460724710901,6.47544875391759e-05,0.099682405591011,0,0,0
5059,187295.6178414444,2011-01-05 14:39:54,2491.255107979117,2,20,0.5499359965324402,4.04035758972168,14.997283542085468,15.376279734684728,60.368940171232296,55.36460724710901,9.71794142969884e-05,0.099682405591011,0,0,0
5060,187325.63304038052,2011-01-05 14:40:24,2521.2703070957614,2,20,0.5501165986061096,4.042947769165039,15.001869707185833,15.376279734684728,60.38747561804414,55.36460724710901,6.47544875391759e-05,0.099682405591011,0,0,0
5061,187355.64810006463,2011-01-05 14:40:54,2551.2853666044603,2,20,0.5501165986061096,4.0452141761779785,15.006455886289448,15.376279734684728,60.4060225093741,55.36460724710901,3.24249267578125e-05,0.099682405591011,0,0,0
5062,187385.66356384096,2011-01-05 14:41:24,2581.300830410793,2,20,0.5501165986061096,4.047966003417969,15.01104210168203,15.376279734684728,60.42458094948671,55.36460724710901,9.70840483205393e-05,0.099682405591011,0,0,0
5063,187415.6783311163,2011-01-05 14:41:54,2611.3155976510684,2,20,0.5501165986061096,4.050394535064697,15.015628242771216,15.376279734684728,60.443150662216325,55.36460724710901,6.47544875391759e-05,0.099682405591011,0,0,0
5064,187445.6934609252,2011-01-05 14:42:24,2641.3307274549647,2,20,0.5499359965324402,4.052822589874268,15.020214400778434,15.376279734684728,60.4617320650828,55.36460724710901,6.47544875391759e-05,0.099682405591011,0,0,0
5065,187475.70857247864,2011-01-05 14:42:54,2671.345839003362,2,20,0.5501165986061096,4.055412769317627,15.024800519305204,15.376279734684728,60.48032524913805,55.36460724710901,6.47544875391759e-05,0.099682405591011,0,0,0
5066,187505.72590684696,2011-01-05 14:43:24,2701.3631735120607,2,20,0.5501165986061096,4.058326721191406,15.029387021667494,15.376279734684728,60.49893197473574,55.36460724710901,9.70840483205393e-05,0.099682405591011,0,0,0
5067,187535.73883835203,2011-01-05 14:43:54,2731.376104901832,2,20,0.5499359965324402,4.060755252838135,15.033972805022488,15.376279734684728,60.517547882329296,55.36460724710901,6.47544875391759e-05,0.099682405591011,0,0,0
5068,187565.7400173061,2011-01-05 14:44:24,2761.3772838659424,2,20,0.5501165986061096,4.063507080078125,15.038556786368892,15.376279734684728,60.536168306879325,55.36460724710901,9.70840483205393e-05,0.099682405591011,0,0,0
5069,187595.7534621155,2011-01-05 14:44:54,2791.3907286402264,2,20,0.5501165986061096,4.066097259521484,15.04314264046638,15.376279734684728,60.554808920620445,55.36460724710901,6.47544875391759e-05,0.099682405591011,0,0,0
5070,187625.7685657041,2011-01-05 14:45:24,2821.4058322287856,2,20,0.5501165986061096,4.069011211395264,15.047728741764908,15.376279734684728,60.57346295620782,55.36460724710901,9.70840483205393e-05,0.099682405591011,0,0,0
5071,187655.78380186803,2011-01-05 14:45:54,2851.4210684980258,2,20,0.5501165986061096,4.071763515472412,15.0523149643556,15.376279734684728,60.59213009402233,55.36460724710901,9.71794142969884e-05,0.099682405591011,0,0,0
5072,187685.79880430448,2011-01-05 14:46:24,2881.4360708292206,2,20,0.5499359965324402,4.074353694915772,15.05690108159808,15.376279734684728,60.61080941626038,55.36460724710901,3.24249267578125e-05,0.099682405591011,0,0,0
5073,187715.81409370116,2011-01-05 14:46:54,2911.451360235896,2,20,0.5499359965324402,4.077105522155762,15.061487292252403,15.376279734684728,60.62950195845379,55.36460724710901,6.47544875391759e-05,0.099682405591011,0,0,0
5074,187745.8290741077,2011-01-05 14:47:24,2941.4663406324225,2,20,0.5499359965324402,4.07985782623291,15.066073444282924,15.376279734684728,60.648207240804616,55.36460724710901,3.24249267578125e-05,0.099682405591011,0,0,0
5075,187775.8441845784,2011-01-05 14:47:54,2971.4814511933587,2,20,0.5499359965324402,4.08293342590332,15.070659632479437,15.376279734684728,60.66692575001442,55.36460724710901,6.47544875391759e-05,0.099682405591011,0,0,0
5076,187805.85928722963,2011-01-05 14:48:25,3001.496553754357,2,20,0.5501165986061096,4.0858473777771,15.075245784136715,15.376279734684728,60.68565739209804,55.36460724710901,9.70840483205393e-05,0.099682405591011,0,0,0
5077,187835.87441453227,2011-01-05 14:48:55,3031.511681062032,2,20,0.5499359965324402,4.088761329650879,15.079831985945136,15.376279734684728,60.70440261194844,55.36460724710901,9.70840483205393e-05,0.099682405591011,0,0,0
5078,187865.8895291684,2011-01-05 14:49:25,3061.5267957231868,2,20,0.5501165986061096,4.091675281524658,15.084418188013204,15.376279734684728,60.72316141300159,55.36460724710901,6.47544875391759e-05,0.099682405591011,0,0,0
5079,187895.90480349743,2011-01-05 14:49:55,3091.5420700372465,2,20,0.5501165986061096,4.094751358032227,15.08900436884852,15.376279734684728,60.74193372369436,55.36460724710901,6.47544875391759e-05,0.099682405591011,0,0,0
5080,187925.9197853476,2011-01-05 14:50:25,3121.5570518974214,2,20,0.5501165986061096,4.097826957702637,15.093590591336955,15.376279734684728,60.76071998596191,55.36460724710901,9.70840483205393e-05,0.099682405591011,0,0,0
5081,187955.9349073721,2011-01-05 14:50:55,3151.5721739219284,2,20,0.5501165986061096,4.100740909576416,15.098176751432106,15.376279734684728,60.77951980751789,55.36460724710901,6.47544875391759e-05,0.099682405591011,0,0,0
5082,187985.9500396071,2011-01-05 14:51:25,3181.587306141846,2,20,0.5499359965324402,4.103816986083984,15.10276305336476,15.376279734684728,60.79833418661162,55.36460724710901,3.24249267578125e-05,0.099682405591011,0,0,0
5083,188015.9651610652,2011-01-05 14:51:55,3211.602427619991,2,20,0.5501165986061096,4.107054710388184,15.107349234290613,15.376279734684728,60.81716224678903,55.36460724710901,9.71794142969884e-05,0.099682405591011,0,0,0
5084,188045.98025887937,2011-01-05 14:52:25,3241.6175254491964,2,20,0.5501165986061096,4.109968662261963,15.111935412614752,15.376279734684728,60.83600449286481,55.36460724710901,3.24249267578125e-05,0.099682405591011,0,0,0
5085,188075.99550955952,2011-01-05 14:52:55,3271.632776119328,2,20,0.550297200679779,4.113206386566162,15.116521627007238,15.376279734684728,60.85486134607291,55.36460724710901,9.71794142969884e-05,0.099682405591011,0,0,0
5086,188106.0105013093,2011-01-05 14:53:25,3301.6477678440883,2,20,0.5501165986061096,4.116443634033203,15.121107799473275,15.376279734684728,60.87373253859212,55.36460724710901,6.47544875391759e-05,0.099682405591011,0,0,0
5087,188136.0256505667,2011-01-05 14:53:55,3331.662917096456,2,20,0.5499359965324402,4.119519710540772,15.125694020196894,15.376279734684728,60.892618569556255,55.36460724710901,9.71794142969884e-05,0.099682405591011,0,0,0
5088,188166.0407693331,2011-01-05 14:54:25,3361.6780358929177,2,20,0.550297200679779,4.122919082641602,15.130280286023153,15.376279734684728,60.911519649189344,55.36460724710901,9.70840483205393e-05,0.099682405591011,0,0,0
5089,188196.05590525223,2011-01-05 14:54:55,3391.6931717869925,2,20,0.5501165986061096,4.126156806945801,15.134866520313706,15.376279734684728,60.930435637311625,55.36460724710901,9.70840483205393e-05,0.099682405591011,0,0,0
5090,188226.0709870064,2011-01-05 14:55:25,3421.708253546146,2,20,0.5501165986061096,4.129556655883789,15.139452698246906,15.376279734684728,60.94936660865225,55.36460724710901,9.71794142969884e-05,0.099682405591011,0,0,0
5091,188256.0862767539,2011-01-05 14:55:55,3451.723543303696,2,20,0.5501165986061096,4.132794380187988,15.144038973685728,15.376279734684728,60.96831325698818,55.36460724710901,9.71794142969884e-05,0.099682405591011,0,0,0
5092,188286.10337664784,2011-01-05 14:56:25,3481.740643322974,2,20,0.5501165986061096,4.136193752288818,15.14862538681854,15.376279734684728,60.98727576794189,55.36460724710901,9.70840483205393e-05,0.099682405591011,0,0,0
5093,188316.1163541676,2011-01-05 14:56:55,3511.7536207274284,2,20,0.5501165986061096,4.139593601226807,15.153211291750432,15.376279734684728,61.006251839984834,55.36460724710901,9.71794142969884e-05,0.099682405591011,0,0,0
5094,188346.1314707435,2011-01-05 14:57:25,3541.7687372682685,2,20,0.5499359965324402,4.142992973327637,15.157797508973683,15.376279734684728,61.025244971218925,55.36460724710901,3.23295607813634e-05,0.099682405591011,0,0,0
5095,188376.14683449047,2011-01-05 14:57:55,3571.784101135522,2,20,0.550297200679779,4.146716594696045,15.162383746591862,15.376279734684728,61.04425417800242,55.36460724710901,0.0001295089750783,0.099682405591011,0,0,0
5096,188406.1617132888,2011-01-05 14:58:25,3601.7989798135354,2,20,0.5501165986061096,4.150115966796875,15.166969888783374,15.376279734684728,61.063279031178105,55.36460724710901,6.47544875391759e-05,0.099682405591011,0,0,0
5097,188436.17683369425,2011-01-05 14:58:55,3631.81410022402,2,20,0.5497553944587708,4.153515815734863,15.171556081850088,15.376279734684728,61.082320172789856,55.36460724710901,9.71794142969884e-05,0.099682405591011,0,0,0
5098,188466.19207616395,2011-01-05 14:59:25,3661.829342708751,2,20,0.5499359965324402,4.157077312469482,15.176142269014504,15.376279734684728,61.10137738392428,55.36460724710901,9.71794142969884e-05,0.099682405591011,0,0,0
5099,188496.20708367307,2011-01-05 14:59:55,3691.8443502028126,2,20,0.5499359965324402,4.160638809204102,15.1807284404973,15.376279734684728,61.12045084338372,55.36460724710901,6.47544875391759e-05,0.099682405591011,0,0,0
5100,188526.22232221795,2011-01-05 15:00:25,3721.8595887677743,2,20,0.5501165986061096,4.164361953735352,15.185314643833628,15.376279734684728,61.13954093803176,55.36460724710901,9.70840483205393e-05,0.099682405591011,0,0,0
5101,188556.2373102435,2011-01-05 15:00:55,3751.874576798328,2,20,0.5501165986061096,4.167923450469971,15.18990074815344,15.376279734684728,61.15864712186752,55.36460724710901,9.70840483205393e-05,0.099682405591011,0,0,0
5102,188586.25257888343,2011-01-05 15:01:25,3781.8898454332334,2,20,0.5499359965324402,4.17148494720459,15.194486913387143,15.376279734684728,61.17777025554084,55.36460724710901,6.47544875391759e-05,0.099682405591011,0,0,0
5103,188616.26758030732,2011-01-05 15:01:55,3811.904846832104,2,20,0.5499359965324402,4.175370216369629,15.199073012524469,15.376279734684728,61.19690990689431,55.36460724710901,0.0001295089750783,0.099682405591011,0,0,0
5104,188646.28272089816,2011-01-05 15:02:25,3841.91998753316,2,20,0.5499359965324402,4.178931713104248,15.20365920345042,15.376279734684728,61.21606691550101,55.36460724710901,9.70840483205393e-05,0.099682405591011,0,0,0
5105,188676.2977959957,2011-01-05 15:02:55,3871.935062555523,2,20,0.5501165986061096,4.182655334472656,15.208245387044729,15.376279734684728,61.23524103462828,55.36460724710901,9.71794142969884e-05,0.099682405591011,0,0,0
5106,188706.312933584,2011-01-05 15:03:25,3901.9502001187575,2,20,0.5499359965324402,4.186540603637695,15.212831569424374,15.376279734684728,61.25443239117459,55.36460724710901,6.47544875391759e-05,0.099682405591011,0,0,0
5107,188736.3280814128,2011-01-05 15:03:55,3931.965347967627,2,20,0.5497553944587708,4.190263748168945,15.217417672548605,15.376279734684728,61.27364088006822,55.36460724710901,6.47544875391759e-05,0.099682405591011,0,0,0
5108,188766.34313411955,2011-01-05 15:04:25,3961.9804006843983,2,20,0.5501165986061096,4.194149017333984,15.222003555511908,15.376279734684728,61.29286596300732,55.36460724710901,9.70840483205393e-05,0.099682405591011,0,0,0
5109,188796.35838597768,2011-01-05 15:04:55,3991.995652527453,2,20,0.5499359965324402,4.198034286499023,15.226588915497906,15.376279734684728,61.31210637938104,55.36460724710901,0.0001295089750783,0.099682405591011,0,0,0
5110,188810.28002512097,2011-01-05 15:05:09,4005.917291685817,2,20,0.550297200679779,4.200138568878174,15.228715715132513,15.376279734684728,61.32103659398797,55.36460724710901,0.0001618385285837,0.099682405591011,0,0,0
5111,188840.28824776164,2011-01-05 15:05:39,30.015110666198836,3,20,0.0,4.099445819854736,15.228715715132513,15.376279734684728,61.32103659398797,55.36460724710901,-0.0004857063177041,0.099682405591011,0,0,0
5112,188870.3036913827,2011-01-05 15:06:09,60.03055439749838,3,20,0.0,4.08649492263794,15.228715715132513,15.376279734684728,61.32103659398797,55.36460724710901,-0.0002590179501567,0.099682405591011,0,0,0
5113,188900.31854665736,2011-01-05 15:06:39,90.04540968220797,3,20,0.0,4.078562736511231,15.228715715132513,15.376279734684728,61.32103659398797,55.36460724710901,-0.0001618385285837,0.099682405591011,0,0,0
5114,188930.2867819106,2011-01-05 15:07:09,120.01364482517968,3,20,0.0,4.073220252990723,15.228715715132513,15.376279734684728,61.32103659398797,55.36460724710901,-9.71794142969884e-05,0.099682405591011,0,0,0
5115,188930.29759239612,2011-01-05 15:07:09,0.01560286714581,4,20,1.0155466794967651,4.199653148651123,15.22872011664362,15.376279734684728,61.32105507880795,55.36460724710901,0.0,0.099682405591011,0,0,0
5116,188931.15689795,2011-01-05 15:07:10,0.874908325750332,4,20,0.9651567339897156,4.199814796447754,15.228955063380027,15.376279734684728,61.32204180487944,55.36460724710901,3.23295607813634e-05,0.099682405591011,0,0,0
5117,188933.14127126383,2011-01-05 15:07:12,2.859281669699867,4,20,0.91512793302536,4.199814796447754,15.229472323408308,15.376279734684728,61.32421418793199,55.36460724710901,3.23295607813634e-05,0.099682405591011,0,0,0
5118,188936.1255670322,2011-01-05 15:07:15,5.843577407924365,4,20,0.86491858959198,4.199653148651123,15.230209207906952,15.376279734684728,61.32730892169585,55.36460724710901,-6.47544875391759e-05,0.099682405591011,0,0,0
5119,188940.1880234335,2011-01-05 15:07:19,9.906033829313056,4,20,0.8148897886276245,4.199653148651123,15.23115603948992,15.376279734684728,61.33128543074333,55.36460724710901,-3.23295607813634e-05,0.099682405591011,0,0,0
5120,188945.56291805475,2011-01-05 15:07:25,15.280928460547829,4,20,0.7648610472679138,4.199814796447754,15.23233421205616,15.376279734684728,61.33623357708724,55.36460724710901,0.0,0.099682405591011,0,0,0
5121,188952.4691682653,2011-01-05 15:07:31,22.18717867608501,4,20,0.7146516442298889,4.199814796447754,15.233751815543805,15.376279734684728,61.342187310528445,55.36460724710901,0.0,0.099682405591011,0,0,0
5122,188961.65661845804,2011-01-05 15:07:41,31.374628858848205,4,20,0.6646229028701782,4.199814796447754,15.235509311006147,15.376279734684728,61.34956856439472,55.36460724710901,0.0,0.099682405591011,0,0,0
5123,188974.23430247165,2011-01-05 15:07:53,43.95231284740429,4,20,0.6145941019058228,4.199814796447754,15.2377396395551,15.376279734684728,61.358935671787485,55.36460724710901,0.0,0.099682405591011,0,0,0
5124,188993.4060676695,2011-01-05 15:08:12,63.12407805530707,4,20,0.5645653605461121,4.199976921081543,15.240869719892032,15.376279734684728,61.37208161391185,55.36460724710901,3.24249267578125e-05,0.099682405591011,0,0,0
5125,189026.43652997483,2011-01-05 15:08:45,96.154540380641,4,20,0.5145365595817566,4.199814796447754,15.245797429057976,15.376279734684728,61.39277741032612,55.36460724710901,0.0,0.099682405591011,0,0,0
5126,189091.2948692477,2011-01-05 15:09:50,161.01287973873346,4,20,0.4645078182220459,4.199976921081543,15.254569012895846,15.376279734684728,61.4296170505859,55.36460724710901,-3.23295607813634e-05,0.099682405591011,0,0,0
5127,189197.66829431825,2011-01-05 15:11:37,267.38630469901915,4,20,0.4144790470600128,4.199814796447754,15.267521564317862,15.376279734684728,61.48401630673092,55.36460724710901,-3.24249267578125e-05,0.099682405591011,0,0,0
5128,189334.040862504,2011-01-05 15:13:53,403.75887290979057,4,20,0.3644502758979797,4.199814796447754,15.282263348463442,15.376279734684728,61.54593020203021,55.36460724710901,0.0,0.099682405591011,0,0,0
5129,189500.60043092252,2011-01-05 15:16:40,570.3184413033252,4,20,0.3144215047359466,4.199653148651123,15.29795320487522,15.376279734684728,61.61182605459835,55.36460724710901,-6.47544875391759e-05,0.099682405591011,0,0,0
5130,189699.84713215876,2011-01-05 15:19:59,769.5651425394831,4,20,0.2643927335739136,4.199814796447754,15.313933184895465,15.376279734684728,61.67894025014094,55.36460724710901,0.0,0.099682405591011,0,0,0
5131,189948.7805499909,2011-01-05 15:24:08,1018.4985603916684,4,20,0.2143639624118805,4.199814796447754,15.33044044219542,15.376279734684728,61.748268854849954,55.36460724710901,0.0,0.099682405591011,0,0,0
5132,190276.9937013026,2011-01-05 15:29:36,1346.711711688362,4,20,0.1643352061510086,4.199814796447754,15.34761684837106,15.376279734684728,61.82040781183012,55.36460724710901,0.0,0.099682405591011,0,0,0
5133,190749.31387256863,2011-01-05 15:37:28,1819.0318829544403,4,20,0.1143064275383949,4.199814796447754,15.365708035240088,15.376279734684728,61.89638877913156,55.36460724710901,-3.24249267578125e-05,0.099682405591011,0,0,0
5134,191590.5654006934,2011-01-05 15:51:30,2660.2834110741387,4,20,0.0642776563763618,4.199814796447754,15.385989470442665,15.376279734684728,61.98156851695551,55.36460724710901,0.0,0.099682405591011,0,0,0
5135,192005.21473086852,2011-01-05 15:58:24,3074.932741254357,4,20,0.0498289167881011,4.199814796447754,15.392575727386031,15.376279734684728,62.00923003911991,55.36460724710901,-3.24249267578125e-05,0.099682405591011,0,0,0
5136,192035.22979083296,2011-01-05 15:58:54,30.015127668573985,5,20,0.0,4.190263748168945,15.392575727386031,15.376279734684728,62.00923003911991,55.36460724710901,-6.47544875391759e-05,0.099682405591011,0,0,0
5137,192065.229306246,2011-01-05 15:59:24,60.01464311669083,5,20,0.0,4.188807010650635,15.392575727386031,15.376279734684728,62.00923003911991,55.36460724710901,-9.70840483205393e-05,0.099682405591011,0,0,0
5138,192065.417873642,2011-01-05 15:59:25,0.187620723572596,6,20,-0.0014641173183918,4.189130783081055,15.392575727386031,15.376279810989937,62.00923003911991,55.36460756676152,0.0,0.1060699149966239,0,0,0
5139,192070.24576881228,2011-01-05 15:59:30,5.015515868780653,6,20,0.0007031940040178,4.188807010650635,15.392576605096714,15.37627981856993,62.009233715881,55.36460759851785,-6.47544875391759e-05,0.1060699149966239,0,0,0
5140,192093.5276977472,2011-01-05 15:59:53,23.28087094373669,7,20,-1.099568486213684,3.988716125488281,15.392576605096714,15.383390730324034,62.009233715881,55.39313634866832,-0.0013597965007647,0.1060699149966239,0,0,0
5141,192123.5428111953,2011-01-05 16:00:23,53.29598439186896,7,20,-1.0993878841400146,3.947920799255371,15.392576605096714,15.392558439480505,62.009233715881,55.42950710436346,-0.0009389400365762,0.1060699149966239,0,0,0
5142,192153.5579346484,2011-01-05 16:00:53,83.31110784493661,7,20,-1.099929690361023,3.9181337356567374,15.392576605096714,15.401726081375038,62.009233715881,55.46555670285597,-0.0007446765666827,0.1060699149966239,0,0,0
5143,192183.57306640217,2011-01-05 16:01:23,113.3262396037046,7,20,-1.0993878841400146,3.8962793350219727,15.392576605096714,15.410893738134158,62.009233715881,55.50137315824252,-0.0005180359003134,0.1060699149966239,0,0,0
5144,192213.5881860808,2011-01-05 16:01:53,143.34135927735278,7,20,-1.099568486213684,3.878148078918457,15.392576605096714,15.420061414576836,62.009233715881,55.53700680134353,-0.0004532813909463,0.1060699149966239,0,0,0
5145,192243.6032942157,2011-01-05 16:02:23,173.35646740723033,7,20,-1.0997490882873535,3.862283229827881,15.392576605096714,15.429229153316848,62.009233715881,55.57248643223439,-0.0003885269106831,0.1060699149966239,0,0,0
5146,192273.6184201249,2011-01-05 16:02:53,203.37159332143187,7,20,-1.099568486213684,3.8481991291046143,15.392576605096714,15.43839681340096,62.009233715881,55.60782942936532,-0.0003561496851034,0.1060699149966239,0,0,0
5147,192303.6335396682,2011-01-05 16:03:23,233.3867128697677,7,20,-1.099568486213684,3.835086345672608,15.392576605096714,15.447564435276483,62.009233715881,55.6430473242206,-0.0003237724304199,0.1060699149966239,0,0,0
5148,192333.64867511616,2011-01-05 16:03:53,263.4018483077054,7,20,-1.0997490882873535,3.82262134552002,15.392576605096714,15.45673203450166,62.009233715881,55.67814852090038,-0.0003561496851034,0.1060699149966239,0,0,0
5149,192363.6637784641,2011-01-05 16:04:23,293.41695166568985,7,20,-1.0997490882873535,3.810803651809693,15.392576605096714,15.465899702836287,62.009233715881,55.713139781640535,-0.0003237724304199,0.1060699149966239,0,0,0
5150,192393.67917465192,2011-01-05 16:04:53,323.43234787354635,7,20,-1.0997490882873535,3.799633502960205,15.392576605096714,15.475067432631151,62.009233715881,55.748025445446416,-0.0002913951757363,0.1060699149966239,0,0,0
5151,192423.69402588156,2011-01-05 16:05:23,353.4471990780869,7,20,-1.0997490882873535,3.7891108989715576,15.392576605096714,15.48423563268612,62.009233715881,55.78281216178412,-0.0002913951757363,0.1060699149966239,0,0,0
5152,192453.7091687029,2011-01-05 16:05:53,383.46234189942624,7,20,-1.099568486213684,3.77875018119812,15.392576605096714,15.493404076183598,62.009233715881,55.81750310632255,-0.0002590179501567,0.1060699149966239,0,0,0
5153,192483.72426693307,2011-01-05 16:06:23,413.4774401346433,7,20,-1.0993878841400146,3.768713235855103,15.392576605096714,15.502572551985637,62.009233715881,55.852101112467565,-0.0002590179501567,0.1060699149966239,0,0,0
5154,192513.73967131128,2011-01-05 16:06:53,443.4928445228878,7,20,-1.099568486213684,3.759161949157715,15.392576605096714,15.511741155288972,62.009233715881,55.88660999042644,-0.0001942634553415,0.1060699149966239,0,0,0
5155,192543.754516556,2011-01-05 16:07:23,473.5076897525372,7,20,-1.099568486213684,3.749772787094116,15.392576605096714,15.520908910105874,62.009233715881,55.92102930521448,-0.0002590179501567,0.1060699149966239,0,0,0
5156,192573.7697804942,2011-01-05 16:07:53,503.52295371579936,7,20,-1.099568486213684,3.7407071590423584,15.392576605096714,15.530076585041844,62.009233715881,55.9553643603184,-0.0002590179501567,0.1060699149966239,0,0,0
5157,192603.7849011553,2011-01-05 16:08:23,533.538074401971,7,20,-1.0993878841400146,3.73228907585144,15.392576605096714,15.539244311884676,62.009233715881,55.98961801763635,-0.0001295089750783,0.1060699149966239,0,0,0
5158,192633.80012242217,2011-01-05 16:08:53,563.5532956237083,7,20,-1.099568486213684,3.723547220230103,15.392576605096714,15.548411952266989,62.009233715881,56.02379309858515,-0.0001942634553415,0.1060699149966239,0,0,0
5159,192663.81501123545,2011-01-05 16:09:23,593.5681844369815,7,20,-1.099568486213684,3.7152910232543945,15.392576605096714,15.557579544442588,62.009233715881,56.05789172173379,-0.0002266406954731,0.1060699149966239,0,0,0
5160,192693.83016333988,2011-01-05 16:09:53,623.5833365615072,7,20,-1.0993878841400146,3.7073585987091056,15.392576605096714,15.566747320359244,62.009233715881,56.09191608342309,-0.0001942634553415,0.1060699149966239,0,0,0
5161,192723.8452628032,2011-01-05 16:10:23,653.5984359997224,7,20,-1.099568486213684,3.699264287948608,15.392576605096714,15.575915090670987,62.009233715881,56.12586779465472,-0.0002590179501567,0.1060699149966239,0,0,0
5162,192753.86041028617,2011-01-05 16:10:53,683.6135834876924,7,20,-1.099568486213684,3.69165563583374,15.392576605096714,15.585082818579314,62.009233715881,56.15974782687112,-0.0002266406954731,0.1060699149966239,0,0,0
5163,192783.87554379425,2011-01-05 16:11:23,713.6287170810327,7,20,-1.0993878841400146,3.684370756149292,15.392576605096714,15.594250498715724,62.009233715881,56.19355813842038,-0.0001942634553415,0.1060699149966239,0,0,0
5164,192813.8906680844,2011-01-05 16:11:53,743.6438413060241,7,20,-1.099568486213684,3.676923990249634,15.392576605096714,15.60341822001688,62.009233715881,56.2273005182344,-0.0001942634553415,0.1060699149966239,0,0,0
5165,192843.9057396933,2011-01-05 16:12:23,773.6589129048552,7,20,-1.099568486213684,3.6696393489837646,15.392576605096714,15.612585882071366,62.009233715881,56.26097514952367,-0.0002266406954731,0.1060699149966239,0,0,0
5166,192873.92099521548,2011-01-05 16:12:53,803.6741684421173,7,20,-1.099568486213684,3.6625163555145264,15.392576605096714,15.621753583309212,62.009233715881,56.29458462835829,-0.0001942634553415,0.1060699149966239,0,0,0
5167,192903.93599184748,2011-01-05 16:13:23,833.6891650540579,7,20,-1.099568486213684,3.655555248260498,15.392576605096714,15.630921330964192,62.009233715881,56.32812976712315,-0.0001942634553415,0.1060699149966239,0,0,0
5168,192933.9513235997,2011-01-05 16:13:53,863.7044967912334,7,20,-1.099568486213684,3.64875602722168,15.392576605096714,15.640089147140516,62.009233715881,56.36161230573414,-0.0001942634553415,0.1060699149966239,0,0,0
5169,192963.96622617223,2011-01-05 16:14:23,893.7193993688115,7,20,-1.0993878841400146,3.6421186923980713,15.392576605096714,15.649256678706118,62.009233715881,56.39503138301682,-0.0001618862152099,0.1060699149966239,0,0,0
5170,192993.98136668283,2011-01-05 16:14:53,923.7345398793916,7,20,-1.0993878841400146,3.635643243789673,15.392576605096714,15.6584244012668,62.009233715881,56.42838993730712,-0.0001295089750783,0.1060699149966239,0,0,0
5171,193023.9964819956,2011-01-05 16:15:23,953.7496551971836,7,20,-1.099568486213684,3.629005908966065,15.392576605096714,15.667592022916056,62.009233715881,56.461688131620136,-0.0001618862152099,0.1060699149966239,0,0,0
5172,193054.0137777728,2011-01-05 16:15:53,983.7669509743516,7,20,-1.099568486213684,3.622368574142456,15.392576605096714,15.67676038987138,62.009233715881,56.49492898303998,-0.0001618862152099,0.1060699149966239,0,0,0
5173,193084.0284055956,2011-01-05 16:16:23,1013.781578797156,7,20,-1.099568486213684,3.616055011749268,15.392576605096714,15.685927978099771,62.009233715881,56.52810856974424,-0.0001942634553415,0.1060699149966239,0,0,0
5174,193114.04183720704,2011-01-05 16:16:53,1043.7950104086335,7,20,-1.099568486213684,3.609903335571289,15.392576605096714,15.695095230097529,62.009233715881,56.56122974429474,-0.0001618862152099,0.1060699149966239,0,0,0
5175,193144.05692362785,2011-01-05 16:17:23,1073.8100968494557,7,20,-1.0993878841400146,3.6040754318237305,15.392576605096714,15.704262935128297,62.009233715881,56.59429669765632,-0.0001295089750783,0.1060699149966239,0,0,0
5176,193174.072200398,2011-01-05 16:17:53,1103.825373704849,7,20,-1.0997490882873535,3.597923755645752,15.392576605096714,15.713430689965149,62.009233715881,56.62730941171054,-0.0001942634553415,0.1060699149966239,0,0,0
5177,193204.0871678924,2011-01-05 16:18:23,1133.8403411140073,7,20,-1.099568486213684,3.5922577381134038,15.392576605096714,15.722598298328124,62.009233715881,56.66026788968886,-0.0001295089750783,0.1060699149966239,0,0,0
5178,193234.1023139518,2011-01-05 16:18:53,1163.8554871734168,7,20,-1.0997490882873535,3.586591958999634,15.392576605096714,15.731765925903012,62.009233715881,56.69317428751599,-0.0001618862152099,0.1060699149966239,0,0,0
5179,193264.11741318947,2011-01-05 16:19:23,1193.8705863860698,7,20,-1.099568486213684,3.581087827682495,15.392576605096714,15.740933564948335,62.009233715881,56.726029791759565,-0.0001618862152099,0.1060699149966239,0,0,0
5180,193294.13254794577,2011-01-05 16:19:53,1223.885721147321,7,20,-1.0997490882873535,3.5757455825805664,15.392576605096714,15.750101256434164,62.009233715881,56.75883596387506,-0.0001295089750783,0.1060699149966239,0,0,0
5181,193324.14769518308,2011-01-05 16:20:24,1253.9008684047164,7,20,-1.0997490882873535,3.5704033374786377,15.392576605096714,15.759268968619944,62.009233715881,56.79159380267078,-0.0001618862152099,0.1060699149966239,0,0,0
5182,193354.1627767267,2011-01-05 16:20:54,1283.9159499232703,7,20,-1.099568486213684,3.565384864807129,15.392576605096714,15.768436619471949,62.009233715881,56.82430364464784,-0.0001295089750783,0.1060699149966239,0,0,0
5183,193384.17789912212,2011-01-05 16:21:24,1313.9310723237145,7,20,-1.0997490882873535,3.56052827835083,15.392576605096714,15.777604251662702,62.009233715881,56.85696774542614,-0.0001295089750783,0.1060699149966239,0,0,0
5184,193414.19303466036,2011-01-05 16:21:54,1343.9462078568895,7,20,-1.099568486213684,3.5556716918945312,15.392576605096714,15.786771941370535,62.009233715881,56.88958753771856,-9.713172767078504e-05,0.1060699149966239,0,0,0
5185,193444.20841637708,2011-01-05 16:22:24,1373.961589598692,7,20,-1.099568486213684,3.5509769916534424,15.392576605096714,15.795939725397004,62.009233715881,56.922164136826346,-0.0001618862152099,0.1060699149966239,0,0,0
5186,193474.2086024215,2011-01-05 16:22:54,1403.9617757283538,7,20,-1.0997490882873535,3.5464441776275635,15.392576605096714,15.805102941161053,62.009233715881,56.95468230711566,-0.0001295089750783,0.1060699149966239,0,0,0
5187,193504.22275796728,2011-01-05 16:23:24,1433.975931168836,7,20,-1.0993878841400146,3.5420732498168945,15.392576605096714,15.81427037395516,62.009233715881,56.98717412118158,-0.0001295089750783,0.1060699149966239,0,0,0
5188,193534.238010462,2011-01-05 16:23:54,1463.99118367354,7,20,-1.0997490882873535,3.537540435791016,15.392576605096714,15.823438122187868,62.009233715881,57.01962662204839,-0.0001618862152099,0.1060699149966239,0,0,0
5189,193564.2530475698,2011-01-05 16:24:24,1494.0062207663716,7,20,-1.0993878841400146,3.5333313941955566,15.392576605096714,15.832605839312434,62.009233715881,57.05203894036004,-9.713172767078504e-05,0.1060699149966239,0,0,0
5190,193594.26862628755,2011-01-05 16:24:54,1524.0217995893613,7,20,-1.099568486213684,3.5291223526000977,15.392576605096714,15.841773729982304,62.009233715881,57.0844125844011,-9.713172767078504e-05,0.1060699149966239,0,0,0
5191,193624.2834909256,2011-01-05 16:25:24,1554.0366642223696,7,20,-1.0993878841400146,3.5250751972198486,15.392576605096714,15.850941368448693,62.009233715881,57.11674671974138,-6.47544875391759e-05,0.1060699149966239,0,0,0
5192,193654.29836731288,2011-01-05 16:25:54,1584.0515405294734,7,20,-1.0997490882873535,3.52070426940918,15.392576605096714,15.86010903271324,62.009233715881,57.14904224381514,-0.0001295089750783,0.1060699149966239,0,0,0
5193,193684.31351609904,2011-01-05 16:26:24,1614.066689295629,7,20,-1.0997490882873535,3.5163333415985107,15.392576605096714,15.869276801232118,62.009233715881,57.1812993907257,-0.0001295089750783,0.1060699149966239,0,0,0
5194,193714.32860429928,2011-01-05 16:26:54,1644.0817774958357,7,20,-1.0993878841400146,3.5122861862182617,15.392576605096714,15.878444571065756,62.009233715881,57.2135182675739,-0.0001295089750783,0.1060699149966239,0,0,0
5195,193744.34374919577,2011-01-05 16:27:24,1674.0969224174096,7,20,-1.099568486213684,3.508239269256592,15.392576605096714,15.887612321546207,62.009233715881,57.245699104133614,-6.47544875391759e-05,0.1060699149966239,0,0,0
5196,193774.3588785435,2011-01-05 16:27:54,1704.1120517350937,7,20,-1.0997490882873535,3.503868341445923,15.392576605096714,15.896780105436337,62.009233715881,57.27784171721736,-0.0001295089750783,0.1060699149966239,0,0,0
5197,193804.37401780105,2011-01-05 16:28:24,1734.1271910226258,7,20,-1.099568486213684,3.499821186065674,15.392576605096714,15.905947891642963,62.009233715881,57.30994603938648,-0.0001295089750783,0.1060699149966239,0,0,0
5198,193834.39123875168,2011-01-05 16:28:54,1764.14441204849,7,20,-1.099568486213684,3.495612144470215,15.392576605096714,15.915116201305803,62.009233715881,57.3420132695216,-9.713172767078504e-05,0.1060699149966239,0,0,0
5199,193864.40421937412,2011-01-05 16:29:24,1794.1573925657024,7,20,-1.099568486213684,3.491241216659546,15.392576605096714,15.924283343556596,62.009233715881,57.374036837136735,-9.713172767078504e-05,0.1060699149966239,0,0,0
5200,193894.41947226983,2011-01-05 16:29:54,1824.172645481431,7,20,-1.099568486213684,3.486546516418457,15.392576605096714,15.93345112577699,62.009233715881,57.40602233881041,-0.0001295089750783,0.1060699149966239,0,0,0
5201,193924.4346257076,2011-01-05 16:30:24,1854.1877989192296,7,20,-1.0993878841400146,3.482175588607788,15.392576605096714,15.942618880366712,62.009233715881,57.43796680185988,-9.713172767078504e-05,0.1060699149966239,0,0,0
5202,193954.44959522705,2011-01-05 16:30:54,1884.202768418597,7,20,-1.099568486213684,3.477480888366699,15.392576605096714,15.951786512378284,62.009233715881,57.469867814099885,-0.0001295089750783,0.1060699149966239,0,0,0
5203,193984.46471343705,2011-01-05 16:31:24,1914.217886643635,7,20,-1.099568486213684,3.4724624156951904,15.392576605096714,15.960954196730984,62.009233715881,57.50172580472474,-0.0001618862152099,0.1060699149966239,0,0,0
5204,194014.47976511123,2011-01-05 16:31:54,1944.23293834287,7,20,-1.0993878841400146,3.467605829238892,15.392576605096714,15.970121881991975,62.009233715881,57.533539071132,-0.0001295089750783,0.1060699149966239,0,0,0
5205,194044.4949540525,2011-01-05 16:32:24,1974.2481272741293,7,20,-1.099568486213684,3.462425470352173,15.392576605096714,15.9792896562804,62.009233715881,57.5653057120453,-0.0001295089750783,0.1060699149966239,0,0,0
5206,194074.5100315861,2011-01-05 16:32:54,2004.2632047877016,7,20,-1.099568486213684,3.456921339035034,15.392576605096714,15.98845735223974,62.009233715881,57.59702291154463,-0.0001618862152099,0.1060699149966239,0,0,0
5207,194104.5251375406,2011-01-05 16:33:24,2034.278310732132,7,20,-1.0993878841400146,3.451093435287476,15.392576605096714,15.997625083264309,62.009233715881,57.62868806578915,-0.0001618862152099,0.1060699149966239,0,0,0
5208,194134.54036112825,2011-01-05 16:33:54,2064.293534329791,7,20,-1.099568486213684,3.444617986679077,15.392576605096714,16.006792844665473,62.009233715881,57.66029729320674,-0.0001618862152099,0.1060699149966239,0,0,0
5209,194164.55557374857,2011-01-05 16:34:24,2094.3087469651286,7,20,-1.099568486213684,3.437656879425049,15.392576605096714,16.015960573779786,62.009233715881,57.69184559907163,-0.0001942634553415,0.1060699149966239,0,0,0
5210,194194.5705467516,2011-01-05 16:34:54,2124.3237199431665,7,20,-1.099568486213684,3.42988657951355,15.392576605096714,16.025128259126223,62.009233715881,57.72332656427603,-0.0002266406954731,0.1060699149966239,0,0,0
5211,194224.58569770824,2011-01-05 16:35:24,2154.338870939881,7,20,-1.0993878841400146,3.421306610107422,15.392576605096714,16.03429584815963,62.009233715881,57.75473256781715,-0.0002590179501567,0.1060699149966239,0,0,0
5212,194254.60078714657,2011-01-05 16:35:54,2184.3539603581235,7,20,-1.099568486213684,3.4111077785491943,15.392576605096714,16.043463264720383,62.009233715881,57.786052132516005,-0.0002913951757363,0.1060699149966239,0,0,0
5213,194284.6159225143,2011-01-05 16:36:24,2214.369095715861,7,20,-1.099568486213684,3.399451971054077,15.392576605096714,16.052630685637038,62.009233715881,57.81727187435376,-0.0003237724304199,0.1060699149966239,0,0,0
5214,194314.6310397469,2011-01-05 16:36:54,2244.384212943413,7,20,-1.0993878841400146,3.3858535289764404,15.392576605096714,16.061798064549922,62.009233715881,57.84837553967748,-0.0003885269106831,0.1060699149966239,0,0,0
5215,194344.64628053736,2011-01-05 16:37:24,2274.399453758984,7,20,-1.099568486213684,3.3691792488098145,15.392576605096714,16.07096561759008,62.009233715881,57.87934199969462,-0.0004856586456298,0.1060699149966239,0,0,0
5216,194374.66127894376,2011-01-05 16:37:54,2304.414452145347,7,20,-1.0997490882873535,3.3491055965423584,15.392576605096714,16.08013328293597,62.009233715881,57.91014163066197,-0.0005827426793985,0.1060699149966239,0,0,0
5217,194404.67655654103,2011-01-05 16:38:24,2334.429729742589,7,20,-1.0993878841400146,3.3243370056152344,15.392576605096714,16.089301129695844,62.009233715881,57.94073567207505,-0.0006799221155233,0.1060699149966239,0,0,0
5218,194434.6915405716,2011-01-05 16:38:54,2364.4447137932234,7,20,-1.099568486213684,3.292445421218872,15.392576605096714,16.09846882306585,62.009233715881,57.97107063635563,-0.0009389400365762,0.1060699149966239,0,0,0
5219,194464.70693185212,2011-01-05 16:39:24,2394.4601050637743,7,20,-1.099568486213684,3.251326560974121,15.392576605096714,16.10763659204707,62.009233715881,58.00107516451328,-0.0012627125252038,0.1060699149966239,0,0,0
5220,194494.7217607611,2011-01-05 16:39:54,2424.4749339577097,7,20,-1.099568486213684,3.1966090202331543,15.392576605096714,16.116804193859988,62.009233715881,58.03064395372153,-0.0016512393485754,0.1060699149966239,0,0,0
5221,194524.7368912718,2011-01-05 16:40:24,2454.49006449343,7,20,-1.099568486213684,3.120846509933472,15.392576605096714,16.125971919957692,62.009233715881,58.05962191631736,-0.0023311614058911,0.1060699149966239,0,0,0
5222,194554.75202332632,2011-01-05 16:40:54,2484.505196527885,7,20,-1.0997490882873535,3.0115737915039062,15.392576605096714,16.135139736536825,62.009233715881,58.08776720918616,-0.0034967423416674,0.1060699149966239,0,0,0
5223,194584.7672508588,2011-01-05 16:41:24,2514.520424055338,7,20,-1.099568486213684,2.842888832092285,15.392576605096714,16.14430747065494,62.009233715881,58.11465935635236,-0.0053098201751708,0.1060699149966239,0,0,0
5224,194603.78245287805,2011-01-05 16:41:43,2533.5356260896388,7,20,-1.099568486213684,2.699781894683838,15.392576605096714,16.150115421646394,62.009233715881,58.13076579518939,-0.0063458918593823,0.1060699149966239,0,0,0
5225,194663.79372419472,2011-01-05 16:42:43,60.0145860043493,8,20,0.0,3.5330076217651367,15.392576605096714,16.150115421646394,62.009233715881,58.13076579518939,0.0013274669181555,0.1060699149966239,0,0,0
5226,194663.9789380141,2011-01-05 16:42:44,0.187491827323483,9,20,0.0007031940040178,3.5334932804107666,15.392576641719804,16.150115421646394,62.00923384528844,58.13076579518939,0.0,0.1012117490172386,0,0,0
5227,194668.807020015,2011-01-05 16:42:48,5.015573813195966,9,20,0.0007031940040178,3.540778160095215,15.392577504588788,16.150115421646394,62.009236897825325,58.13076579518939,0.0011008263099938,0.1012117490172386,0,0,0
