Data_Point,Test_Time(s),Date_Time,Step_Time(s),Step_Index,Cycle_Index,Current(A),Voltage(V),Charge_Capacity(Ah),Discharge_Capacity(Ah),Charge_Energy(Wh),Discharge_Energy(Wh),dV/dt(V/s),Internal_Resistance(Ohm),Is_FC_Data,AC_Impedance(Ohm),ACI_Phase_Angle(Deg)
5228,194698.83555333168,2011-01-05 16:43:19,30.015146605771307,1,21,0.0,3.573479175567627,15.392577504588788,16.150115421646394,62.009236897825325,58.13076579518939,0.0007122993702068,0.1012117490172386,0,0,0
5229,194728.85066946148,2011-01-05 16:43:49,60.030262710524696,1,21,0.0,3.5950098037719727,15.392577504588788,16.150115421646394,62.009236897825325,58.13076579518939,0.0004856586456298,0.1012117490172386,0,0,0
5230,194758.86591977076,2011-01-05 16:44:19,90.04551302476943,1,21,0.0,3.610388994216919,15.392577504588788,16.150115421646394,62.009236897825325,58.13076579518939,0.0003561496851034,0.1012117490172386,0,0,0
5231,194788.8340519571,2011-01-05 16:44:49,120.01364523119156,1,21,0.0,3.622368574142456,15.392577504588788,16.150115421646394,62.009236897825325,58.13076579518939,0.0003561496851034,0.1012117490172386,0,0,0
5232,194818.84892093635,2011-01-05 16:45:19,30.015084686449303,2,21,0.5501165986061096,3.750582218170166,15.397163837678846,16.150115421646394,62.02633775623878,58.13076579518939,0.0009389400365762,0.1012117490172386,0,0,0
5233,194848.8640665396,2011-01-05 16:45:49,60.03023030977205,2,21,0.5499359965324402,3.776645660400391,15.40175008158456,16.150115421646394,62.04360400261096,58.13076579518939,0.0005504131549969,0.1012117490172386,0,0,0
5234,194878.87929497936,2011-01-05 16:46:19,90.04545874949875,2,21,0.5499359965324402,3.792510509490967,15.406336408311926,16.150115421646394,62.060964760353535,58.13076579518939,0.0002913951757363,0.1012117490172386,0,0,0
5235,194908.8943177565,2011-01-05 16:46:49,120.06048150158855,2,21,0.5499359965324402,3.8030331134796143,15.410922726675956,16.150115421646394,62.07838417563388,58.13076579518939,0.0001942634553415,0.1012117490172386,0,0,0
5236,194938.9117120943,2011-01-05 16:47:19,150.07787584942471,2,21,0.5499359965324402,3.811289310455322,15.415509379668093,16.150115421646394,62.09584731409536,58.13076579518939,0.0001618862152099,0.1012117490172386,0,0,0
5237,194968.9245342619,2011-01-05 16:47:49,180.0906980069558,2,21,0.5501165986061096,3.818736076354981,15.420095371434996,16.150115421646394,62.11334396273993,58.13076579518939,0.0001942634553415,0.1012117490172386,0,0,0
5238,194998.9396617299,2011-01-05 16:48:19,210.1058254900676,2,21,0.5499359965324402,3.825535297393799,15.424681645723926,16.150115421646394,62.13087358048984,58.13076579518939,0.0001618862152099,0.1012117490172386,0,0,0
5239,195028.9549845449,2011-01-05 16:48:49,240.12114829999385,2,21,0.5501165986061096,3.831686973571777,15.42926792490398,16.150115421646394,62.14843266428014,58.13076579518939,0.0001618862152099,0.1012117490172386,0,0,0
5240,195058.96991199447,2011-01-05 16:49:19,270.13607574956046,2,21,0.5499359965324402,3.837676525115967,15.433854160131371,16.150115421646394,62.16601949980948,58.13076579518939,0.0001618862152099,0.1012117490172386,0,0,0
5241,195088.98505515163,2011-01-05 16:49:49,300.1512189067368,2,21,0.5501165986061096,3.8431806564331055,15.438440370703766,16.150115421646394,62.183632746442186,58.13076579518939,0.0001295089750783,0.1012117490172386,0,0,0
5242,195119.00013411883,2011-01-05 16:50:19,330.16629786390695,2,21,0.5501165986061096,3.848684787750244,15.443026651132492,16.150115421646394,62.20127162105447,58.13076579518939,0.0001618862152099,0.1012117490172386,0,0,0
5243,195149.01526902543,2011-01-05 16:50:49,360.18143277553287,2,21,0.5501165986061096,3.854027032852173,15.447612924260085,16.150115421646394,62.218934843945824,58.13076579518939,0.0001295089750783,0.1012117490172386,0,0,0
5244,195179.0303728245,2011-01-05 16:51:19,390.1965365696042,2,21,0.550297200679779,3.8590455055236816,15.452199164099296,16.150115421646394,62.2366212645678,58.13076579518939,0.0001295089750783,0.1012117490172386,0,0,0
5245,195209.04549763096,2011-01-05 16:51:49,420.2116613760449,2,21,0.5499359965324402,3.8637402057647705,15.456785395048072,16.150115421646394,62.25433035824291,58.13076579518939,9.713172767078504e-05,0.1012117490172386,0,0,0
5246,195239.06061871312,2011-01-05 16:52:19,450.2267824582035,2,21,0.5501165986061096,3.868596792221069,15.461371690582252,16.150115421646394,62.27206168418202,58.13076579518939,0.0001295089750783,0.1012117490172386,0,0,0
5247,195269.07578808564,2011-01-05 16:52:49,480.241951865804,2,21,0.5501165986061096,3.873129606246948,15.465957897996573,16.150115421646394,62.28981417354058,58.13076579518939,0.0001295089750783,0.1012117490172386,0,0,0
5248,195299.09088307776,2011-01-05 16:53:19,510.2570468228509,2,21,0.5499359965324402,3.877662420272827,15.470544169820222,16.150115421646394,62.30758794159597,58.13076579518939,9.713172767078504e-05,0.1012117490172386,0,0,0
5249,195329.10610432457,2011-01-05 16:53:49,540.2722680897004,2,21,0.5499359965324402,3.882195234298706,15.475130461661085,16.150115421646394,62.325382407366185,58.13076579518939,0.0001295089750783,0.1012117490172386,0,0,0
5250,195359.12110285627,2011-01-05 16:54:19,570.2872666114008,2,21,0.5499359965324402,3.886404275894165,15.479716700060242,16.150115421646394,62.34319682235697,58.13076579518939,0.0001295089750783,0.1012117490172386,0,0,0
5251,195389.13636646367,2011-01-05 16:54:49,600.302530238826,2,21,0.5501165986061096,3.890775203704834,15.484302996211666,16.150115421646394,62.36103105476008,58.13076579518939,9.713172767078504e-05,0.1012117490172386,0,0,0
5252,195419.15134393796,2011-01-05 16:55:19,630.3175076829946,2,21,0.5501165986061096,3.894660472869873,15.488889312663613,16.150115421646394,62.37888434602403,58.13076579518939,6.47544875391759e-05,0.1012117490172386,0,0,0
5253,195449.16671763465,2011-01-05 16:55:49,660.332881394784,2,21,0.5501165986061096,3.898545742034912,15.493475597814747,16.150115421646394,62.39675541221492,58.13076579518939,9.713172767078504e-05,0.1012117490172386,0,0,0
5254,195479.1816009392,2011-01-05 16:56:19,690.3477646943151,2,21,0.5501165986061096,3.902431011199951,15.498061851201385,16.150115421646394,62.41464409052896,58.13076579518939,0.0001295089750783,0.1012117490172386,0,0,0
5255,195509.1967297256,2011-01-05 16:56:49,720.3628935057375,2,21,0.5499359965324402,3.9059925079345694,15.502648148947117,16.150115421646394,62.43254990257122,58.13076579518939,9.713172767078504e-05,0.1012117490172386,0,0,0
5256,195539.21182855728,2011-01-05 16:57:19,750.3779923023536,2,21,0.5501165986061096,3.9095540046691895,15.507234399777325,16.150115421646394,62.45047168862786,58.13076579518939,9.713172767078504e-05,0.1012117490172386,0,0,0
5257,195569.22735182176,2011-01-05 16:57:49,780.3935155969493,2,21,0.5501165986061096,3.9126298427581783,15.51182073336857,16.150115421646394,62.468409266778416,58.13076579518939,9.713172767078504e-05,0.1012117490172386,0,0,0
5258,195599.24207902228,2011-01-05 16:58:19,810.4082427924211,2,21,0.550297200679779,3.915867328643799,15.516407019510652,16.150115421646394,62.48636138892785,58.13076579518939,6.47544875391759e-05,0.1012117490172386,0,0,0
5259,195629.2572035029,2011-01-05 16:58:49,840.4233672479874,2,21,0.5501165986061096,3.918943166732788,15.520993216364918,16.150115421646394,62.50432705005955,58.13076579518939,9.713172767078504e-05,0.1012117490172386,0,0,0
5260,195659.27227029475,2011-01-05 16:59:19,870.4384340699127,2,21,0.5504778623580933,3.921857118606568,15.525579574896623,16.150115421646394,62.52230674602644,58.13076579518939,0.0001295089750783,0.1012117490172386,0,0,0
5261,195689.2875328946,2011-01-05 16:59:49,900.4536966898269,2,21,0.550297200679779,3.924285411834717,15.53016672760448,16.150115421646394,62.54030244455246,58.13076579518939,3.237724376958795e-05,0.1012117490172386,0,0,0
5262,195719.30251375228,2011-01-05 17:00:19,930.468677497378,2,21,0.5501165986061096,3.927037477493286,15.534753685928829,16.150115421646394,62.55830959728527,58.13076579518939,9.713172767078504e-05,0.1012117490172386,0,0,0
5263,195749.3176749695,2011-01-05 17:00:49,960.483838719578,2,21,0.550297200679779,3.9296276569366455,15.5393407507703,16.150115421646394,62.57632901984917,58.13076579518939,6.47544875391759e-05,0.1012117490172386,0,0,0
5264,195779.3327783876,2011-01-05 17:01:19,990.4989421577626,2,21,0.5501165986061096,3.932055950164795,15.543927910582816,16.150115421646394,62.59436041024422,58.13076579518939,3.237724376958795e-05,0.1012117490172386,0,0,0
5265,195809.3480224162,2011-01-05 17:01:49,1020.5141861863414,2,21,0.550297200679779,3.9346461296081534,15.548515047721182,16.150115421646394,62.61240295587761,58.13076579518939,9.713172767078504e-05,0.1012117490172386,0,0,0
5266,195839.36301382017,2011-01-05 17:02:19,1050.5291775752646,2,21,0.5504778623580933,3.9369125366210938,15.553102266107224,16.150115421646394,62.63045678741451,58.13076579518939,9.713172767078504e-05,0.1012117490172386,0,0,0
5267,195869.3782755228,2011-01-05 17:02:49,1080.5444392879176,2,21,0.5499359965324402,3.9390170574188232,15.557688699171417,16.150115421646394,62.64851828167027,58.13076579518939,3.237724376958795e-05,0.1012117490172386,0,0,0
5268,195899.3932734129,2011-01-05 17:03:19,1110.5594371730313,2,21,0.550297200679779,3.9414453506469727,15.56227508952634,16.150115421646394,62.66659038003482,58.13076579518939,3.237724376958795e-05,0.1012117490172386,0,0,0
5269,195929.4083814476,2011-01-05 17:03:49,1140.574545192634,2,21,0.5501165986061096,3.943873643875122,15.566861553445335,16.150115421646394,62.684673383782496,58.13076579518939,6.47544875391759e-05,0.1012117490172386,0,0,0
5270,195959.42352474507,2011-01-05 17:04:19,1170.58968849016,2,21,0.5501165986061096,3.945978164672852,15.571447949099545,16.150115421646394,62.702766584616256,58.13076579518939,3.237724376958795e-05,0.1012117490172386,0,0,0
5271,195989.43884874292,2011-01-05 17:04:49,1200.6050124930598,2,21,0.5501165986061096,3.948406457901001,15.576034435650604,16.150115421646394,62.72087051882276,58.13076579518939,9.713172767078504e-05,0.1012117490172386,0,0,0
5272,196019.45387250252,2011-01-05 17:05:19,1230.6200362576733,2,21,0.5501165986061096,3.9505109786987305,15.580620816102511,16.150115421646394,62.73898435588843,58.13076579518939,3.237724376958795e-05,0.1012117490172386,0,0,0
5273,196049.46886436263,2011-01-05 17:05:49,1260.6350281077457,2,21,0.5501165986061096,3.95277738571167,15.585207223070451,16.150115421646394,62.75710853862033,58.13076579518939,3.237724376958795e-05,0.1012117490172386,0,0,0
5274,196079.48400998092,2011-01-05 17:06:19,1290.650173736081,2,21,0.5501165986061096,3.95504379272461,15.589793679688542,16.150115421646394,62.77524311991923,58.13076579518939,3.237724376958795e-05,0.1012117490172386,0,0,0
5275,196109.5014831302,2011-01-05 17:06:49,1320.6676470908264,2,21,0.550297200679779,3.957310199737549,15.5943804419082,16.150115421646394,62.793389109599495,58.13076579518939,9.713172767078504e-05,0.1012117490172386,0,0,0
5276,196139.51592995191,2011-01-05 17:07:19,1350.6820937120206,2,21,0.5501165986061096,3.9594147205352783,15.598966774465442,16.150115421646394,62.81154345855384,58.13076579518939,6.47544875391759e-05,0.1012117490172386,0,0,0
5277,196169.52935798944,2011-01-05 17:07:49,1380.6955217495913,2,21,0.5499359965324402,3.9616811275482178,15.603552969255713,16.150115421646394,62.829707319464,58.13076579518939,9.713172767078504e-05,0.1012117490172386,0,0,0
5278,196199.54446964312,2011-01-05 17:08:19,1410.7106334032512,2,21,0.550297200679779,3.9637856483459473,15.608139419237908,16.150115421646394,62.84788215475661,58.13076579518939,6.47544875391759e-05,0.1012117490172386,0,0,0
5279,196229.5597639721,2011-01-05 17:08:49,1440.7259277472317,2,21,0.5501165986061096,3.966052055358887,15.612725940072307,16.150115421646394,62.86606727443418,58.13076579518939,9.713172767078504e-05,0.1012117490172386,0,0,0
5280,196259.5747189252,2011-01-05 17:09:19,1470.7408826853082,2,21,0.550297200679779,3.968156576156616,15.617312430209836,16.150115421646394,62.884262106652656,58.13076579518939,3.237724376958795e-05,0.1012117490172386,0,0,0
5281,196289.58995746507,2011-01-05 17:09:49,1500.756121240245,2,21,0.550297200679779,3.970422983169556,15.621898851694768,16.150115421646394,62.90246641577381,58.13076579518939,9.713172767078504e-05,0.1012117490172386,0,0,0
5282,196319.604971726,2011-01-05 17:10:19,1530.7711354710973,2,21,0.5501165986061096,3.972203731536865,15.626485321063758,16.150115421646394,62.92068069875735,58.13076579518939,0.0,0.1012117490172386,0,0,0
5283,196349.62021541875,2011-01-05 17:10:49,1560.7863791889015,2,21,0.5501165986061096,3.9744701385498047,15.631071848176813,16.150115421646394,62.93890486093193,58.13076579518939,6.47544875391759e-05,0.1012117490172386,0,0,0
5284,196379.63519727893,2011-01-05 17:11:20,1590.801361039051,2,21,0.550297200679779,3.976736545562744,15.635658331487583,16.150115421646394,62.95713859838288,58.13076579518939,9.713172767078504e-05,0.1012117490172386,0,0,0
5285,196409.65030963937,2011-01-05 17:11:50,1620.81647339446,2,21,0.5499359965324402,3.9785172939300537,15.640244149558454,16.150115421646394,62.975378908024986,58.13076579518939,9.713172767078504e-05,0.1012117490172386,0,0,0
5286,196439.66555616417,2011-01-05 17:12:20,1650.8317199493354,2,21,0.5501165986061096,3.980783700942993,15.644829746559616,16.150115421646394,62.99362842704612,58.13076579518939,6.47544875391759e-05,0.1012117490172386,0,0,0
5287,196469.68059529708,2011-01-05 17:12:50,1680.8467590471637,2,21,0.5501165986061096,3.9827263355255127,15.649415945292866,16.150115421646394,63.011890118342606,58.13076579518939,0.0,0.1012117490172386,0,0,0
5288,196499.695721908,2011-01-05 17:13:20,1710.8618856581018,2,21,0.5501165986061096,3.984992742538452,15.654002333253413,16.150115421646394,63.03016211611628,58.13076579518939,3.237724376958795e-05,0.1012117490172386,0,0,0
5289,196529.71083523083,2011-01-05 17:13:50,1740.876999005984,2,21,0.5501165986061096,3.9870972633361816,15.658588685545965,16.150115421646394,63.04844348733246,58.13076579518939,9.713172767078504e-05,0.1012117490172386,0,0,0
5290,196559.72593641336,2011-01-05 17:14:20,1770.8921001684969,2,21,0.5499359965324402,3.989201784133911,15.663175070340776,16.150115421646394,63.06673444449768,58.13076579518939,3.237724376958795e-05,0.1012117490172386,0,0,0
5291,196589.7410769892,2011-01-05 17:14:50,1800.9072407392273,2,21,0.550297200679779,3.9913063049316406,15.667761453186705,16.150115421646394,63.08503491334342,58.13076579518939,6.47544875391759e-05,0.1012117490172386,0,0,0
5292,196619.75618432704,2011-01-05 17:15:20,1830.922348077131,2,21,0.5501165986061096,3.99324893951416,15.672347782492286,16.150115421646394,63.10334480450084,58.13076579518939,3.237724376958795e-05,0.1012117490172386,0,0,0
5293,196649.7714263757,2011-01-05 17:15:50,1860.937590145825,2,21,0.5501165986061096,3.995515108108521,15.676934211157036,16.150115421646394,63.12166470301918,58.13076579518939,3.237724376958795e-05,0.1012117490172386,0,0,0
5294,196679.7865438789,2011-01-05 17:16:20,1890.952707644051,2,21,0.5501165986061096,3.99729585647583,15.68152059593804,16.150115421646394,63.13999404379911,58.13076579518939,0.0,0.1012117490172386,0,0,0
5295,196709.80154651587,2011-01-05 17:16:50,1920.9677102659705,2,21,0.5499359965324402,3.9995622634887695,15.686106989083338,16.150115421646394,63.15833302284011,58.13076579518939,6.47544875391759e-05,0.1012117490172386,0,0,0
5296,196739.8166925753,2011-01-05 17:17:20,1950.982856330393,2,21,0.5499359965324402,4.001667022705078,15.690693380480033,16.150115421646394,63.1766817225641,58.13076579518939,3.24249267578125e-05,0.1012117490172386,0,0,0
5297,196769.8317711064,2011-01-05 17:17:50,1980.997934851476,2,21,0.5501165986061096,4.003933429718018,15.695279723061084,16.150115421646394,63.19503996690483,58.13076579518939,6.47544875391759e-05,0.1012117490172386,0,0,0
5298,196799.8469172911,2011-01-05 17:18:20,2011.0130810462229,2,21,0.5499359965324402,4.006037712097168,15.699866118127234,16.150115421646394,63.21340816481888,58.13076579518939,6.47544875391759e-05,0.1012117490172386,0,0,0
5299,196829.8620485637,2011-01-05 17:18:50,2041.0282123338168,2,21,0.5501165986061096,4.008142471313477,15.704452436852073,16.150115421646394,63.231785858027365,58.13076579518939,3.24249267578125e-05,0.1012117490172386,0,0,0
5300,196859.87928006565,2011-01-05 17:19:20,2071.0454438307784,2,21,0.5501165986061096,4.010408878326416,15.709039110983769,16.150115421646394,63.25017473637767,58.13076579518939,9.71794142969884e-05,0.1012117490172386,0,0,0
5301,196889.89226814668,2011-01-05 17:19:50,2101.0584319018167,2,21,0.5499359965324402,4.012513160705566,15.713625074637578,16.150115421646394,63.26857073465099,58.13076579518939,6.47544875391759e-05,0.1012117490172386,0,0,0
5302,196919.9073912188,2011-01-05 17:20:20,2131.0735549689225,2,21,0.550297200679779,4.014617919921875,15.718211520279969,16.150115421646394,63.28697868360938,58.13076579518939,3.24249267578125e-05,0.1012117490172386,0,0,0
5303,196949.9228647544,2011-01-05 17:20:50,2161.089028524553,2,21,0.5497553944587708,4.016722202301025,15.722797924296986,16.150115421646394,63.30539650312237,58.13076579518939,3.23295607813634e-05,0.1012117490172386,0,0,0
5304,196979.93764000968,2011-01-05 17:21:20,2191.103803759755,2,21,0.5499359965324402,4.018988609313965,15.72738424653849,16.150115421646394,63.32382418525776,58.13076579518939,3.23295607813634e-05,0.1012117490172386,0,0,0
5305,197009.95289465968,2011-01-05 17:21:50,2221.119058520081,2,21,0.5501165986061096,4.021255016326904,15.731970697572478,16.150115421646394,63.34226251854301,58.13076579518939,3.23295607813634e-05,0.1012117490172386,0,0,0
5306,197039.9678843745,2011-01-05 17:22:20,2251.134048134581,2,21,0.5501165986061096,4.023521423339844,15.736557044013786,16.150115421646394,63.36071079361659,58.13076579518939,6.47544875391759e-05,0.1012117490172386,0,0,0
5307,197069.9830308148,2011-01-05 17:22:50,2281.1491945749403,2,21,0.5501165986061096,4.025949954986572,15.741143403996096,16.150115421646394,63.37916955464367,58.13076579518939,9.71794142969884e-05,0.1012117490172386,0,0,0
5308,197099.9981091003,2011-01-05 17:23:20,2311.1642728554243,2,21,0.5501165986061096,4.028216361999512,15.745729807741029,16.150115421646394,63.39763903075615,58.13076579518939,6.47544875391759e-05,0.1012117490172386,0,0,0
5309,197130.01325372612,2011-01-05 17:23:50,2341.1794175163486,2,21,0.5499359965324402,4.030482769012451,15.750316191869006,16.150115421646394,63.41611896435245,58.13076579518939,9.71794142969884e-05,0.1012117490172386,0,0,0
5310,197160.02834076344,2011-01-05 17:24:20,2371.1945045185694,2,21,0.5499359965324402,4.032749176025391,15.75490247380589,16.150115421646394,63.434609177099766,58.13076579518939,6.47544875391759e-05,0.1012117490172386,0,0,0
5311,197190.043579559,2011-01-05 17:24:50,2401.2097433241306,2,21,0.550297200679779,4.035177230834961,15.75948885008074,16.150115421646394,63.45311063826187,58.13076579518939,6.47544875391759e-05,0.1012117490172386,0,0,0
5312,197220.05857526368,2011-01-05 17:25:20,2431.2247390237976,2,21,0.5501165986061096,4.037605285644531,15.764075196423972,16.150115421646394,63.47162295637952,58.13076579518939,6.47544875391759e-05,0.1012117490172386,0,0,0
5313,197250.07361557457,2011-01-05 17:25:50,2461.239779324624,2,21,0.5499359965324402,4.039871692657471,15.768661557945569,16.150115421646394,63.49014639953168,58.13076579518939,6.47544875391759e-05,0.1012117490172386,0,0,0
5314,197280.08880252583,2011-01-05 17:26:20,2491.2549662759493,2,21,0.550297200679779,4.04246187210083,15.773247901286313,16.150115421646394,63.50868094487016,58.13076579518939,6.47544875391759e-05,0.1012117490172386,0,0,0
5315,197310.1039481993,2011-01-05 17:26:50,2521.2701119694466,2,21,0.5499359965324402,4.044890403747559,15.777834345989648,16.150115421646394,63.52722726064837,58.13076579518939,6.47544875391759e-05,0.1012117490172386,0,0,0
5316,197340.11904769263,2011-01-05 17:27:20,2551.2852114427496,2,21,0.5499359965324402,4.047480583190918,15.782420783096695,16.150115421646394,63.54578497500213,58.13076579518939,9.71794142969884e-05,0.1012117490172386,0,0,0
5317,197370.13431048297,2011-01-05 17:27:50,2581.300474258151,2,21,0.550297200679779,4.050070762634277,15.78700723832316,16.150115421646394,63.56435440072498,58.13076579518939,6.47544875391759e-05,0.1012117490172386,0,0,0
5318,197400.1492891101,2011-01-05 17:28:20,2611.315452860206,2,21,0.5501165986061096,4.052660942077637,15.79159357124861,16.150115421646394,63.582934923029214,58.13076579518939,9.71794142969884e-05,0.1012117490172386,0,0,0
5319,197430.1644367585,2011-01-05 17:28:50,2641.330600508575,2,21,0.5499359965324402,4.055088996887207,15.796179962145576,16.150115421646394,63.60152752878834,58.13076579518939,6.47544875391759e-05,0.1012117490172386,0,0,0
5320,197460.1795325927,2011-01-05 17:29:20,2671.3456963478206,2,21,0.5501165986061096,4.057841300964356,15.80076637790231,16.150115421646394,63.6201321846612,58.13076579518939,0.0001295089750783,0.1012117490172386,0,0,0
5321,197490.1950562232,2011-01-05 17:29:50,2701.361219998303,2,21,0.550297200679779,4.060431480407715,15.805352855684449,16.150115421646394,63.63874926955094,58.13076579518939,6.47544875391759e-05,0.1012117490172386,0,0,0
5322,197520.20977584977,2011-01-05 17:30:20,2731.375939609874,2,21,0.5501165986061096,4.063021659851074,15.809939183374308,16.150115421646394,63.65737750346444,58.13076579518939,6.47544875391759e-05,0.1012117490172386,0,0,0
5323,197550.22491082156,2011-01-05 17:30:50,2761.391074571625,2,21,0.550297200679779,4.0657734870910645,15.814525522889394,16.150115421646394,63.67601823757837,58.13076579518939,6.47544875391759e-05,0.1012117490172386,0,0,0
5324,197580.2400718282,2011-01-05 17:31:20,2791.4062355983374,2,21,0.5501165986061096,4.068363666534424,15.81911190671876,16.150115421646394,63.694671626281725,58.13076579518939,3.23295607813634e-05,0.1012117490172386,0,0,0
5325,197610.25526043365,2011-01-05 17:31:50,2821.4214242037847,2,21,0.5501165986061096,4.071277618408203,15.823698264295862,16.150115421646394,63.713337602651166,58.13076579518939,6.47544875391759e-05,0.1012117490172386,0,0,0
5326,197640.27023465972,2011-01-05 17:32:20,2851.436398434945,2,21,0.5501165986061096,4.074191570281982,15.828284564429165,16.150115421646394,63.73201605249374,58.13076579518939,9.70840483205393e-05,0.1012117490172386,0,0,0
5327,197670.2853681228,2011-01-05 17:32:50,2881.451531968136,2,21,0.550297200679779,4.076943874359131,15.832870977088987,16.150115421646394,63.750707832968246,58.13076579518939,6.47544875391759e-05,0.1012117490172386,0,0,0
5328,197700.30051530505,2011-01-05 17:33:20,2911.4666790551064,2,21,0.550297200679779,4.07985782623291,15.837457300194291,16.150115421646394,63.769412215223824,58.13076579518939,9.71794142969884e-05,0.1012117490172386,0,0,0
5329,197730.31565127423,2011-01-05 17:33:50,2941.4818150243686,2,21,0.550297200679779,4.0826096534729,15.842043572328938,16.150115421646394,63.78812947814303,58.13076579518939,9.70840483205393e-05,0.1012117490172386,0,0,0
5330,197760.33075365983,2011-01-05 17:34:20,2971.496917414942,2,21,0.5501165986061096,4.08552360534668,15.846629775918146,16.150115421646394,63.80685967346692,58.13076579518939,9.70840483205393e-05,0.1012117490172386,0,0,0
5331,197790.3458989724,2011-01-05 17:34:50,3001.51206274754,2,21,0.5501165986061096,4.088599681854248,15.85121604204626,16.150115421646394,63.82560340346621,58.13076579518939,0.0001295089750783,0.1012117490172386,0,0,0
5332,197820.3610390268,2011-01-05 17:35:20,3031.527202877171,2,21,0.5501165986061096,4.091351509094238,15.855802338609482,16.150115421646394,63.84436072878558,58.13076579518939,9.70840483205393e-05,0.1012117490172386,0,0,0
5333,197850.3761176832,2011-01-05 17:35:50,3061.542281458404,2,21,0.5499359965324402,4.094265460968018,15.860388541762555,16.150115421646394,63.863131213949885,58.13076579518939,6.47544875391759e-05,0.1012117490172386,0,0,0
5334,197880.3913635915,2011-01-05 17:36:20,3091.557527361655,2,21,0.550297200679779,4.097341537475586,15.864974857777202,16.150115421646394,63.881915896099926,58.13076579518939,9.71794142969884e-05,0.1012117490172386,0,0,0
5335,197910.4065701116,2011-01-05 17:36:50,3121.572733886764,2,21,0.5501165986061096,4.100417137145996,15.869561222159588,16.150115421646394,63.90071468687798,58.13076579518939,0.0001295089750783,0.1012117490172386,0,0,0
5336,197940.4214881628,2011-01-05 17:37:20,3151.587651912844,2,21,0.5499359965324402,4.1034932136535645,15.874147487857478,16.150115421646394,63.9195269274661,58.13076579518939,9.71794142969884e-05,0.1012117490172386,0,0,0
5337,197970.43660200184,2011-01-05 17:37:50,3181.602765761976,2,21,0.5501165986061096,4.106568813323975,15.878733758964549,16.150115421646394,63.9383533193533,58.13076579518939,9.70840483205393e-05,0.1012117490172386,0,0,0
5338,198000.45173269795,2011-01-05 17:38:20,3211.6178964480705,2,21,0.550297200679779,4.109644889831543,15.88332006981138,16.150115421646394,63.95719404308086,58.13076579518939,0.0001295089750783,0.1012117490172386,0,0,0
5339,198030.4690394575,2011-01-05 17:38:50,3241.635203212622,2,21,0.5499359965324402,4.112720489501953,15.88790674689054,16.150115421646394,63.97605054311413,58.13076579518939,9.70840483205393e-05,0.1012117490172386,0,0,0
5340,198060.48366303972,2011-01-05 17:39:20,3271.649826794858,2,21,0.5501165986061096,4.115796089172363,15.892492999064428,16.150115421646394,63.99491970554084,58.13076579518939,9.70840483205393e-05,0.1012117490172386,0,0,0
5341,198090.49708625028,2011-01-05 17:39:50,3301.6632500003857,2,21,0.5501165986061096,4.1190338134765625,15.897079040804016,16.150115421646394,64.01380257117505,58.13076579518939,6.47544875391759e-05,0.1012117490172386,0,0,0
5342,198120.5122249965,2011-01-05 17:40:20,3331.6783887465685,2,21,0.5501165986061096,4.122433662414551,15.90166541267616,16.150115421646394,64.03270158865237,58.13076579518939,9.71794142969884e-05,0.1012117490172386,0,0,0
5343,198150.5273152117,2011-01-05 17:40:50,3361.69347898686,2,21,0.5501165986061096,4.125509262084961,15.906251681615585,16.150115421646394,64.05161499040334,58.13076579518939,9.70840483205393e-05,0.1012117490172386,0,0,0
5344,198180.54242009847,2011-01-05 17:41:20,3391.708583848592,2,21,0.5501165986061096,4.128909111022949,15.910837954724752,16.150115421646394,64.07054350146645,58.13076579518939,9.71794142969884e-05,0.1012117490172386,0,0,0
5345,198210.55760943572,2011-01-05 17:41:50,3421.7237732159383,2,21,0.550297200679779,4.132308483123779,15.915424282231063,16.150115421646394,64.0894874994514,58.13076579518939,0.0001295089750783,0.1012117490172386,0,0,0
5346,198240.5727266633,2011-01-05 17:42:20,3451.73889042344,2,21,0.5501165986061096,4.1355462074279785,15.920010630152005,16.150115421646394,64.10844695372133,58.13076579518939,9.70840483205393e-05,0.1012117490172386,0,0,0
5347,198270.58784860265,2011-01-05 17:42:50,3481.7540123527097,2,21,0.5501165986061096,4.138946056365967,15.924597013415111,16.150115421646394,64.12742201628376,58.13076579518939,6.47544875391759e-05,0.1012117490172386,0,0,0
5348,198300.60295152952,2011-01-05 17:43:21,3511.76911527962,2,21,0.550297200679779,4.142507553100586,15.92918335250938,16.150115421646394,64.14641256337548,58.13076579518939,9.71794142969884e-05,0.1012117490172386,0,0,0
5349,198330.6180724162,2011-01-05 17:43:51,3541.784236161279,2,21,0.5499359965324402,4.145906925201416,15.933769713715956,16.150115421646394,64.1654191074113,58.13076579518939,9.70840483205393e-05,0.1012117490172386,0,0,0
5350,198360.6331891074,2011-01-05 17:44:21,3571.7993528675315,2,21,0.5501165986061096,4.149468421936035,15.938355984736909,16.150115421646394,64.18444136948295,58.13076579518939,0.0001295089750783,0.1012117490172386,0,0,0
5351,198390.64832868063,2011-01-05 17:44:51,3601.8144924708504,2,21,0.5501165986061096,4.152868270874023,15.942942236158942,16.150115421646394,64.20347955324482,58.13076579518939,6.47544875391759e-05,0.1012117490172386,0,0,0
5352,198420.6634709857,2011-01-05 17:45:21,3631.829634740815,2,21,0.5501165986061096,4.1562676429748535,15.947528493721071,16.150115421646394,64.22253383122485,58.13076579518939,6.47544875391759e-05,0.1012117490172386,0,0,0
5353,198450.678553201,2011-01-05 17:45:51,3661.844716971143,2,21,0.5501165986061096,4.160152912139893,15.95211473777916,16.150115421646394,64.24160432266976,58.13076579518939,0.0001295089750783,0.1012117490172386,0,0,0
5354,198480.69372977145,2011-01-05 17:46:21,3691.859893526559,2,21,0.5501165986061096,4.163714408874512,15.956701052192624,16.150115421646394,64.26069150687587,58.13076579518939,9.70840483205393e-05,0.1012117490172386,0,0,0
5355,198510.7088049141,2011-01-05 17:46:51,3721.874968679247,2,21,0.5501165986061096,4.1671142578125,15.961287319745024,16.150115421646394,64.27979494643954,58.13076579518939,9.71794142969884e-05,0.1012117490172386,0,0,0
5356,198540.7238165585,2011-01-05 17:47:21,3751.889980328665,2,21,0.5501165986061096,4.17083740234375,15.965873588287272,16.150115421646394,64.29891510513475,58.13076579518939,0.0001295089750783,0.1012117490172386,0,0,0
5357,198570.7391676389,2011-01-05 17:47:51,3781.9053314140624,2,21,0.550297200679779,4.174398899078369,15.97045990638854,16.150115421646394,64.31805226128806,58.13076579518939,6.47544875391759e-05,0.1012117490172386,0,0,0
5358,198600.7542945757,2011-01-05 17:48:21,3811.9204583458,2,21,0.5499359965324402,4.178284168243408,15.975046167562958,16.150115421646394,64.33720602747835,58.13076579518939,9.70840483205393e-05,0.1012117490172386,0,0,0
5359,198630.76931293172,2011-01-05 17:48:51,3841.93547671196,2,21,0.5499359965324402,4.181845664978027,15.979632429272062,16.150115421646394,64.35637699917632,58.13076579518939,9.70840483205393e-05,0.1012117490172386,0,0,0
5360,198660.7842477447,2011-01-05 17:49:21,3871.950411494802,2,21,0.550297200679779,4.185730934143066,15.984218627102727,16.150115421646394,64.37556492818202,58.13076579518939,9.70840483205393e-05,0.1012117490172386,0,0,0
5361,198690.7995560836,2011-01-05 17:49:51,3901.965719933912,2,21,0.550297200679779,4.1896162033081055,15.988804924295687,16.150115421646394,64.39477070979277,58.13076579518939,9.70840483205393e-05,0.1012117490172386,0,0,0
5362,198720.81465182253,2011-01-05 17:50:21,3931.980815572658,2,21,0.5499359965324402,4.193177700042725,15.993391227931156,16.150115421646394,64.41399401197769,58.13076579518939,9.70840483205393e-05,0.1012117490172386,0,0,0
5363,198750.82997748963,2011-01-05 17:50:51,3961.996141244718,2,21,0.5499359965324402,4.1972246170043945,15.997977589654129,16.150115421646394,64.43323522096142,58.13076579518939,9.70840483205393e-05,0.1012117490172386,0,0,0
5364,198772.01704278545,2011-01-05 17:51:12,3983.1832065555686,2,21,0.550297200679779,4.200138568878174,16.001214979508845,16.150115421646394,64.44682770942761,58.13076579518939,0.0001618385285837,0.1012117490172386,0,0,0
5365,198802.03628456395,2011-01-05 17:51:42,30.01516005930165,3,21,0.0,4.099122047424316,16.001214979508845,16.150115421646394,64.44682770942761,58.13076579518939,-0.0004532813909463,0.1012117490172386,0,0,0
5366,198832.0513722629,2011-01-05 17:52:12,60.03024775825904,3,21,0.0,4.086009502410889,16.001214979508845,16.150115421646394,64.44682770942761,58.13076579518939,-0.0002590179501567,0.1012117490172386,0,0,0
5367,198862.06675469645,2011-01-05 17:52:42,90.04563020682316,3,21,0.0,4.0782389640808105,16.001214979508845,16.150115421646394,64.44682770942761,58.13076579518939,-0.0001295089750783,0.1012117490172386,0,0,0
5368,198892.03477249772,2011-01-05 17:53:12,120.01364799808756,3,21,0.0,4.072734832763672,16.001214979508845,16.150115421646394,64.44682770942761,58.13076579518939,-0.0001295089750783,0.1012117490172386,0,0,0
5369,198892.0409754234,2011-01-05 17:53:12,2.756870971e-06,4,21,1.0345107316970823,4.199976921081543,16.00121498030107,16.150115421646394,64.44682771275494,58.13076579518939,0.0,0.1012117490172386,0,0,0
5370,198892.43160716293,2011-01-05 17:53:13,0.39063451641013,4,21,0.9839401245117188,4.199814796447754,16.001323276579697,16.150115421646394,64.44728254035617,58.13076579518939,-3.24249267578125e-05,0.1012117490172386,0,0,0
5371,198894.07219773944,2011-01-05 17:53:14,2.03122508791141,4,21,0.9337307214736938,4.199976921081543,16.00175909437594,16.150115421646394,64.44911290877054,58.13076579518939,0.0,0.1012117490172386,0,0,0
5372,198896.6971640983,2011-01-05 17:53:17,4.656191446759616,4,21,0.8831601142883301,4.199814796447754,16.0024203888761,16.150115421646394,64.45189024132057,58.13076579518939,0.0,0.1012117490172386,0,0,0
5373,198900.36895482053,2011-01-05 17:53:21,8.327982169021254,4,21,0.8331313729286194,4.199976921081543,16.00329458794903,16.150115421646394,64.45556174486815,58.13076579518939,6.47544875391759e-05,0.1012117490172386,0,0,0
5374,198905.2438746808,2011-01-05 17:53:25,13.20290202928838,4,21,0.7831025719642639,4.199814796447754,16.00438757413825,16.150115421646394,64.46015215917728,58.13076579518939,0.0,0.1012117490172386,0,0,0
5375,198911.5406413609,2011-01-05 17:53:32,19.499668709321693,4,21,0.7330738306045532,4.199814796447754,16.005711863390044,16.150115421646394,64.46571399646618,58.13076579518939,0.0,0.1012117490172386,0,0,0
5376,198919.8375416593,2011-01-05 17:53:40,27.79656905287023,4,21,0.6828644275665283,4.199976921081543,16.007341162740804,16.150115421646394,64.47255683144705,58.13076579518939,3.24249267578125e-05,0.1012117490172386,0,0,0
5377,198931.024715629,2011-01-05 17:53:51,38.9837438396465,4,21,0.6326550245285034,4.199814796447754,16.00938165923247,16.150115421646394,64.48112668117419,58.13076579518939,-3.24249267578125e-05,0.1012117490172386,0,0,0
5378,198947.38381253707,2011-01-05 17:54:08,55.34283989057343,4,21,0.5826262831687927,4.199814796447754,16.012135994025506,16.150115421646394,64.49269456267221,58.13076579518939,0.0,0.1012117490172386,0,0,0
5379,198974.1335739432,2011-01-05 17:54:34,82.0926013017058,4,21,0.532597541809082,4.199976921081543,16.01626315786098,16.150115421646394,64.51002819732784,58.13076579518939,3.24249267578125e-05,0.1012117490172386,0,0,0
5380,199025.2419652901,2011-01-05 17:55:25,133.200992738826,4,21,0.4825687408447265,4.199814796447754,16.023431477434332,16.150115421646394,64.54013432421569,58.13076579518939,-3.24249267578125e-05,0.1012117490172386,0,0,0
5381,199117.45906094697,2011-01-05 17:56:58,225.418088295444,4,21,0.4325399696826935,4.199976921081543,16.03510810346183,16.150115421646394,64.58917477866301,58.13076579518939,0.0,0.1012117490172386,0,0,0
5382,199243.9570589655,2011-01-05 17:59:04,351.9160863290046,4,21,0.3823305964469909,4.199814796447754,16.049403639224114,16.150115421646394,64.64921435283613,58.13076579518939,-3.24249267578125e-05,0.1012117490172386,0,0,0
5383,199399.37621463268,2011-01-05 18:01:40,507.3352419811685,4,21,0.3323018252849579,4.199653148651123,16.064810333752604,16.150115421646394,64.71392067569765,58.13076579518939,-3.23295607813634e-05,0.1012117490172386,0,0,0
5384,199585.7480741017,2011-01-05 18:04:46,693.7071014551652,4,21,0.2822730541229248,4.199814796447754,16.080696878312814,16.150115421646394,64.78064226538717,58.13076579518939,0.0,0.1012117490172386,0,0,0
5385,199813.9786061824,2011-01-05 18:08:34,921.937633530877,4,21,0.2322442829608917,4.199976921081543,16.09696818379654,16.150115421646394,64.8489799501568,58.13076579518939,0.0,0.1012117490172386,0,0,0
5386,200107.25493365436,2011-01-05 18:13:27,1215.2139610028069,4,21,0.1822155117988586,4.199814796447754,16.11377540088013,16.150115421646394,64.91956839853168,58.13076579518939,0.0,0.1012117490172386,0,0,0
5387,200515.21680962096,2011-01-05 18:20:15,1623.1758370045343,4,21,0.1320061385631561,4.199814796447754,16.131441870234507,16.150115421646394,64.99376553727174,58.13076579518939,-6.47544875391759e-05,0.1012117490172386,0,0,0
5388,201183.39321770263,2011-01-05 18:31:24,2291.352245071177,4,21,0.081977367401123,4.199814796447754,16.150908915478983,16.150115421646394,65.07552505705063,58.13076579518939,0.0,0.1012117490172386,0,0,0
5389,201973.56723467843,2011-01-05 18:44:34,3081.5262620319104,4,21,0.0498289167881011,4.199814796447754,16.165100410767717,16.150115421646394,65.13512757536286,58.13076579518939,-3.24249267578125e-05,0.1012117490172386,0,0,0
5390,202003.57811126625,2011-01-05 18:45:04,30.015274715059068,5,21,0.0,4.190263748168945,16.165100410767717,16.150115421646394,65.13512757536286,58.13076579518939,-3.24249267578125e-05,0.1012117490172386,0,0,0
5391,202033.57744236497,2011-01-05 18:45:34,60.014605818732846,5,21,0.0,4.188807010650635,16.165100410767717,16.150115421646394,65.13512757536286,58.13076579518939,0.0,0.1012117490172386,0,0,0
5392,202033.76148475145,2011-01-05 18:45:34,0.18742966238934,6,21,0.0001613661734154,4.188807010650635,16.165100419169054,16.150115421646394,65.13512761055443,58.13076579518939,0.0,0.1054507344961166,0,0,0
5393,202038.5896906612,2011-01-05 18:45:39,5.015635572118202,6,21,0.0001613661734154,4.188644886016846,16.165101306703207,16.150115421646394,65.13513132829196,58.13076579518939,-6.47544875391759e-05,0.1054507344961166,0,0,0
5394,202059.55457881652,2011-01-05 18:46:00,20.968359874610567,7,21,-1.0997490882873535,3.9885542392730713,16.165101306703207,16.156519875789698,65.13513132829196,58.15645197476305,-0.0014569282066076,0.1054507344961166,0,0,0
5395,202089.5696732874,2011-01-05 18:46:30,50.98345433542059,7,21,-1.099568486213684,3.9454925060272217,16.165101306703207,16.165687367055096,65.13513132829196,58.19281048225236,-0.0010684489971026,0.1054507344961166,0,0,0
5396,202119.5848371662,2011-01-05 18:47:00,80.99861821424165,7,21,-1.0993878841400146,3.914410352706909,16.165101306703207,16.174854910250247,65.13513132829196,58.228829976898055,-0.0007122993702068,0.1054507344961166,0,0,0
5397,202149.60017920908,2011-01-05 18:47:30,111.0139602821648,7,21,-1.099568486213684,3.890775203704834,16.165101306703207,16.184022492858716,65.13513132829196,58.264602036371954,-0.0006151676061563,0.1054507344961166,0,0,0
5398,202179.61507621777,2011-01-05 18:48:00,141.02885727582589,7,21,-1.099568486213684,3.871834516525269,16.165101306703207,16.193189883414473,65.13513132829196,58.30018008177008,-0.0004532813909463,0.1054507344961166,0,0,0
5399,202209.63022294384,2011-01-05 18:48:30,171.0440040269595,7,21,-1.099568486213684,3.855322122573853,16.165101306703207,16.20235738439957,65.13513132829196,58.33559759177472,-0.0004209041653666,0.1054507344961166,0,0,0
5400,202239.64531515405,2011-01-05 18:49:00,201.05909621209784,7,21,-1.099568486213684,3.840752363204956,16.165101306703207,16.21152486771479,65.13513132829196,58.37087402360617,-0.0003885269106831,0.1054507344961166,0,0,0
5401,202269.6605331628,2011-01-05 18:49:30,231.07431424588972,7,21,-1.099568486213684,3.8274779319763184,16.165101306703207,16.22069243605443,65.13513132829196,58.40602259862676,-0.0003237724304199,0.1054507344961166,0,0,0
5402,202299.67553003036,2011-01-05 18:50:00,261.08931108339243,7,21,-1.099568486213684,3.814688920974731,16.165101306703207,16.229859896426674,65.13513132829196,58.44105170761628,-0.0003237724304199,0.1054507344961166,0,0,0
5403,202329.69070533765,2011-01-05 18:50:30,291.1044863906968,7,21,-1.0993878841400146,3.802871227264404,16.165101306703207,16.239027397527305,65.13513132829196,58.47596811269229,-0.0002590179501567,0.1054507344961166,0,0,0
5404,202359.705837718,2011-01-05 18:51:00,321.1196187960764,7,21,-1.099568486213684,3.791377305984497,16.165101306703207,16.248194822519622,65.13513132829196,58.510777612750175,-0.0003237724304199,0.1054507344961166,0,0,0
5405,202389.7209358579,2011-01-05 18:51:30,351.1347169160061,7,21,-1.099568486213684,3.78069281578064,16.165101306703207,16.257362265168265,65.13513132829196,58.54548535400302,-0.0002913951757363,0.1054507344961166,0,0,0
5406,202419.7360505241,2011-01-05 18:52:00,381.14983157214914,7,21,-1.0993878841400146,3.770332098007202,16.165101306703207,16.266529808406492,65.13513132829196,58.58009583371276,-0.0002266406954731,0.1054507344961166,0,0,0
5407,202449.75144002528,2011-01-05 18:52:30,411.16522116852775,7,21,-1.0997490882873535,3.7599713802337646,16.165101306703207,16.275697397809843,65.13513132829196,58.61461261097362,-0.0002913951757363,0.1054507344961166,0,0,0
5408,202479.76631066823,2011-01-05 18:53:00,441.1800918315648,7,21,-1.099568486213684,3.750258445739746,16.165101306703207,16.284864823062104,65.13513132829196,58.649038586677136,-0.0002913951757363,0.1054507344961166,0,0,0
5409,202509.78140429693,2011-01-05 18:53:30,471.19518535002624,7,21,-1.099568486213684,3.7410309314727774,16.165101306703207,16.294032339547194,65.13513132829196,58.683377329580765,-0.0002590179501567,0.1054507344961166,0,0,0
5410,202539.7965197902,2011-01-05 18:54:00,501.2103008733304,7,21,-1.099568486213684,3.7318034172058105,16.165101306703207,16.303199870990802,65.13513132829196,58.71763022046342,-0.0001942634553415,0.1054507344961166,0,0,0
5411,202569.8140270745,2011-01-05 18:54:30,531.2278081526265,7,21,-1.099568486213684,3.722899675369263,16.165101306703207,16.312368134022993,65.13513132829196,58.75180355777871,-0.0002590179501567,0.1054507344961166,0,0,0
5412,202599.8284577961,2011-01-05 18:55:00,561.2422388541441,7,21,-1.0997490882873535,3.714157819747925,16.165101306703207,16.321535444555728,65.13513132829196,58.78589334612166,-0.0002590179501567,0.1054507344961166,0,0,0
5413,202629.84200615852,2011-01-05 18:55:30,591.2557872366513,7,21,-1.0997490882873535,3.705901622772217,16.165101306703207,16.330702497714082,65.13513132829196,58.81990436463227,-0.0002266406954731,0.1054507344961166,0,0,0
5414,202659.85700244468,2011-01-05 18:56:00,621.2707834977174,7,21,-1.099568486213684,3.697807312011719,16.165101306703207,16.339869998865773,65.13513132829196,58.85384152428545,-0.0002266406954731,0.1054507344961166,0,0,0
5415,202689.87213397288,2011-01-05 18:56:30,651.2859150259108,7,21,-1.099568486213684,3.6900367736816406,16.165101306703207,16.349037531422486,65.13513132829196,58.88770521842773,-0.0001942634553415,0.1054507344961166,0,0,0
5416,202719.8872394862,2011-01-05 18:57:00,681.3010205392671,7,21,-1.099568486213684,3.681942462921143,16.165101306703207,16.358205028138197,65.13513132829196,58.92149647706282,-0.0001942634553415,0.1054507344961166,0,0,0
5417,202749.90242567565,2011-01-05 18:57:30,711.316206738718,7,21,-1.099568486213684,3.674495697021485,16.165101306703207,16.36737260818972,65.13513132829196,58.95521655598257,-0.0001942634553415,0.1054507344961166,0,0,0
5418,202779.917495069,2011-01-05 18:58:00,741.3312761470896,7,21,-1.099568486213684,3.6668872833251953,16.165101306703207,16.37654017588839,65.13513132829196,58.98886702517218,-0.0001618862152099,0.1054507344961166,0,0,0
5419,202809.93261496825,2011-01-05 18:58:30,771.3463960513125,7,21,-1.0993878841400146,3.659440517425537,16.165101306703207,16.385707736667015,65.13513132829196,59.0224491945747,-0.0001942634553415,0.1054507344961166,0,0,0
5420,202839.94770552428,2011-01-05 18:59:01,801.3614865773159,7,21,-1.099568486213684,3.652317523956299,16.165101306703207,16.394875329726922,65.13513132829196,59.05596461366415,-0.0001618862152099,0.1054507344961166,0,0,0
5421,202869.9628351277,2011-01-05 18:59:31,831.3766161807118,7,21,-1.099568486213684,3.6450326442718506,16.165101306703207,16.404042893186965,65.13513132829196,59.08941353171125,-0.0002266406954731,0.1054507344961166,0,0,0
5422,202899.9779481046,2011-01-05 19:00:01,861.3917291576699,7,21,-1.099568486213684,3.6380715370178223,16.165101306703207,16.413210388161446,65.13513132829196,59.12279737633176,-0.0001618862152099,0.1054507344961166,0,0,0
5423,202929.99309091092,2011-01-05 19:00:31,891.4068719689842,7,21,-1.099568486213684,3.631110429763794,16.165101306703207,16.42237790310405,65.13513132829196,59.15611751399277,-0.0002266406954731,0.1054507344961166,0,0,0
5424,202960.00818271516,2011-01-05 19:01:01,921.421963763148,7,21,-1.0997490882873535,3.6244730949401855,16.165101306703207,16.43154535529147,65.13513132829196,59.18937431691079,-0.0001295089750783,0.1054507344961166,0,0,0
5425,202990.0233284036,2011-01-05 19:01:31,951.4371094817084,7,21,-1.099568486213684,3.617835760116577,16.165101306703207,16.440712844780336,65.13513132829196,59.22257045386969,-0.0001618862152099,0.1054507344961166,0,0,0
5426,203020.03842007747,2011-01-05 19:02:01,981.4522011305096,7,21,-1.0997490882873535,3.6113603115081783,16.165101306703207,16.44988036187465,65.13513132829196,59.25570652119988,-0.0001618862152099,0.1054507344961166,0,0,0
5427,203050.0536934943,2011-01-05 19:02:31,1011.4674745673832,7,21,-1.099568486213684,3.60488486289978,16.165101306703207,16.4590479225717,65.13513132829196,59.288783945416064,-0.0001618862152099,0.1054507344961166,0,0,0
5428,203080.06865184088,2011-01-05 19:03:01,1041.4824328939048,7,21,-1.099568486213684,3.598895072937012,16.165101306703207,16.468215359119412,65.13513132829196,59.32180365595425,-0.0001295089750783,0.1054507344961166,0,0,0
5429,203110.0839256888,2011-01-05 19:03:31,1071.4977067518275,7,21,-1.099568486213684,3.5925815105438232,16.165101306703207,16.47738295170115,65.13513132829196,59.35476733441379,-0.0001942634553415,0.1054507344961166,0,0,0
5430,203140.09903687125,2011-01-05 19:04:01,1101.5128179443384,7,21,-1.099568486213684,3.586591958999634,16.165101306703207,16.486550439959604,65.13513132829196,59.38767487038391,-0.0001618862152099,0.1054507344961166,0,0,0
5431,203170.11402909725,2011-01-05 19:04:31,1131.5278101452852,7,21,-1.0993878841400146,3.580602169036865,16.165101306703207,16.495717896978043,65.13513132829196,59.42052772635987,-0.0001618862152099,0.1054507344961166,0,0,0
5432,203200.12915436988,2011-01-05 19:05:01,1161.54293544295,7,21,-1.099568486213684,3.5749361515045166,16.165101306703207,16.504885432196374,65.13513132829196,59.45332746288981,-0.0001942634553415,0.1054507344961166,0,0,0
5433,203230.14424769787,2011-01-05 19:05:31,1191.5580287558994,7,21,-1.099568486213684,3.569593906402588,16.165101306703207,16.514052905740726,65.13513132829196,59.48607580794414,-0.0001618862152099,0.1054507344961166,0,0,0
5434,203260.15937164213,2011-01-05 19:06:01,1221.5731527202413,7,21,-1.0993878841400146,3.564089775085449,16.165101306703207,16.523220404189335,65.13513132829196,59.51877385967935,-0.0001295089750783,0.1054507344961166,0,0,0
5435,203290.17453022275,2011-01-05 19:06:31,1251.5883121429565,7,21,-1.0993878841400146,3.5587475299835205,16.165101306703207,16.53238787890326,65.13513132829196,59.55142302280127,-0.0001295089750783,0.1054507344961166,0,0,0
5436,203320.1919107261,2011-01-05 19:07:01,1281.6056918894012,7,21,-1.099568486213684,3.553729057312012,16.165101306703207,16.541556088881034,65.13513132829196,59.5840267007342,-0.0001295089750783,0.1054507344961166,0,0,0
5437,203350.2047349538,2011-01-05 19:07:31,1311.6185160970415,7,21,-1.099568486213684,3.548548698425293,16.165101306703207,16.550722894052637,65.13513132829196,59.61657912224885,-0.0001295089750783,0.1054507344961166,0,0,0
5438,203380.21985250217,2011-01-05 19:08:01,1341.6336336754682,7,21,-1.099568486213684,3.543692111968994,16.165101306703207,16.5598904377606,65.13513132829196,59.64908841442329,-0.0001295089750783,0.1054507344961166,0,0,0
5439,203410.23519119664,2011-01-05 19:08:31,1371.6489722797587,7,21,-1.099568486213684,3.5388355255126958,16.165101306703207,16.56905797066861,65.13513132829196,59.68155304037953,-0.0001295089750783,0.1054507344961166,0,0,0
5440,203440.2500718646,2011-01-05 19:09:01,1401.6638529176564,7,21,-1.099568486213684,3.5343027114868164,16.165101306703207,16.578225452396584,65.13513132829196,59.713974307908806,-9.713172767078504e-05,0.1054507344961166,0,0,0
5441,203470.26523048533,2011-01-05 19:09:31,1431.67901165366,7,21,-1.099568486213684,3.5296080112457275,16.165101306703207,16.58739302531265,65.13513132829196,59.7463534683529,-9.713172767078504e-05,0.1054507344961166,0,0,0
5442,203500.2803110265,2011-01-05 19:10:01,1461.6940920845027,7,21,-1.099568486213684,3.5250751972198486,16.165101306703207,16.59656059753562,65.13513132829196,59.77869096472938,-0.0001295089750783,0.1054507344961166,0,0,0
5443,203530.29545263972,2011-01-05 19:10:31,1491.7092337178815,7,21,-1.099568486213684,3.5205423831939697,16.165101306703207,16.60572808796265,65.13513132829196,59.81098633248433,-0.0001295089750783,0.1054507344961166,0,0,0
5444,203560.3105478224,2011-01-05 19:11:01,1521.7243289004905,7,21,-1.099568486213684,3.516009569168091,16.165101306703207,16.614895550646196,65.13513132829196,59.843240206691966,-0.0001295089750783,0.1054507344961166,0,0,0
5445,203590.32581471791,2011-01-05 19:11:31,1551.7395958110983,7,21,-1.0993878841400146,3.511476993560791,16.165101306703207,16.62406312692136,65.13513132829196,59.87545258002513,-9.70840483205393e-05,0.1054507344961166,0,0,0
5446,203620.34118553257,2011-01-05 19:12:01,1581.754966605617,7,21,-1.099929690361023,3.506782293319702,16.165101306703207,16.633230823526212,65.13513132829196,59.90762413492901,-0.0001618862152099,0.1054507344961166,0,0,0
5447,203650.35593759496,2011-01-05 19:12:31,1611.7697186530274,7,21,-1.099568486213684,3.502411365509033,16.165101306703207,16.64239830025644,65.13513132829196,59.93975409586987,-0.0001618862152099,0.1054507344961166,0,0,0
5448,203680.37102269745,2011-01-05 19:13:01,1641.7848037505012,7,21,-1.0993878841400146,3.498202323913574,16.165101306703207,16.651565797359037,65.13513132829196,59.971843670794975,-9.713172767078504e-05,0.1054507344961166,0,0,0
5449,203710.38613657164,2011-01-05 19:13:31,1671.7999176297078,7,21,-1.099568486213684,3.4936695098876958,16.165101306703207,16.66073333230823,65.13513132829196,60.00389261999387,-0.0001295089750783,0.1054507344961166,0,0,0
5450,203740.40125284684,2011-01-05 19:14:01,1701.8150338998737,7,21,-1.099568486213684,3.4892985820770264,16.165101306703207,16.669900906290252,65.13513132829196,60.03590073193186,-9.713172767078504e-05,0.1054507344961166,0,0,0
5451,203770.4163850968,2011-01-05 19:14:31,1731.8301661498658,7,21,-1.099568486213684,3.484603881835937,16.165101306703207,16.679068403811385,65.13513132829196,60.06786759980696,-9.713172767078504e-05,0.1054507344961166,0,0,0
5452,203800.4314896177,2011-01-05 19:15:01,1761.8452706757612,7,21,-1.0993878841400146,3.4800710678100586,16.165101306703207,16.68823591434535,65.13513132829196,60.09979224349135,-9.713172767078504e-05,0.1054507344961166,0,0,0
5453,203830.44674907476,2011-01-05 19:15:31,1791.8605301528423,7,21,-1.0997490882873535,3.47521448135376,16.165101306703207,16.69740346085116,65.13513132829196,60.131673944993885,-0.0001295089750783,0.1054507344961166,0,0,0
5454,203860.46172564177,2011-01-05 19:16:01,1821.8755066997749,7,21,-1.0992072820663452,3.470519781112671,16.165101306703207,16.70657097055969,65.13513132829196,60.16351162402323,-0.0001295089750783,0.1054507344961166,0,0,0
5455,203890.47686822747,2011-01-05 19:16:31,1851.8906492855267,7,21,-1.0993878841400146,3.465663194656372,16.165101306703207,16.715738505255985,65.13513132829196,60.19530434276212,-9.713172767078504e-05,0.1054507344961166,0,0,0
5456,203920.491962558,2011-01-05 19:17:01,1881.905743616012,7,21,-1.0997490882873535,3.4599971771240234,16.165101306703207,16.724906079455323,65.13513132829196,60.22705015146034,-0.0001942634553415,0.1054507344961166,0,0,0
5457,203950.50752785723,2011-01-05 19:17:31,1911.9213089353464,7,21,-1.099568486213684,3.4546549320220947,16.165101306703207,16.7340737911042,65.13513132829196,60.25874693697045,-0.0001295089750783,0.1054507344961166,0,0,0
5458,203980.52220720847,2011-01-05 19:18:01,1941.9359882665256,7,21,-1.099568486213684,3.449150800704956,16.165101306703207,16.74324118100768,65.13513132829196,60.29039235919228,-0.0001618862152099,0.1054507344961166,0,0,0
5459,204010.53733467657,2011-01-05 19:18:31,1971.9511157346,7,21,-1.099568486213684,3.443322896957397,16.165101306703207,16.752408678042624,65.13513132829196,60.32198506151694,-9.713172767078504e-05,0.1054507344961166,0,0,0
5460,204040.55244927257,2011-01-05 19:19:01,2001.9662303506432,7,21,-1.0992072820663452,3.437009334564209,16.165101306703207,16.761576177432456,65.13513132829196,60.35352115858144,-0.0001295089750783,0.1054507344961166,0,0,0
5461,204070.5676823939,2011-01-05 19:19:31,2031.9814634870752,7,21,-1.099568486213684,3.43004846572876,16.165101306703207,16.770743768949004,65.13513132829196,60.38499814823923,-0.0001942634553415,0.1054507344961166,0,0,0
5462,204100.58267300596,2011-01-05 19:20:01,2061.99645405395,7,21,-1.0997490882873535,3.4227635860443115,16.165101306703207,16.779911321047674,65.13513132829196,60.41641011147309,-0.0001942634553415,0.1054507344961166,0,0,0
5463,204130.5978615462,2011-01-05 19:20:31,2092.011642704509,7,21,-1.0993878841400146,3.414669275283813,16.165101306703207,16.789078849301518,65.13513132829196,60.447751316058806,-0.0002266406954731,0.1054507344961166,0,0,0
5464,204160.6129102179,2011-01-05 19:21:01,2122.026691275949,7,21,-1.099568486213684,3.405279874801636,16.165101306703207,16.798246348197367,65.13513132829196,60.479012654873486,-0.0002590179501567,0.1054507344961166,0,0,0
5465,204190.6280283928,2011-01-05 19:21:31,2152.041809450862,7,21,-1.099568486213684,3.3947572708129883,16.165101306703207,16.807413871574337,65.13513132829196,60.510183205652034,-0.0003237724304199,0.1054507344961166,0,0,0
5466,204220.6432665668,2011-01-05 19:22:01,2182.057047614825,7,21,-1.099568486213684,3.3824539184570312,16.165101306703207,16.81658144576217,65.13513132829196,60.54124956790825,-0.0003561496851034,0.1054507344961166,0,0,0
5467,204250.65842114243,2011-01-05 19:22:31,2212.072202215521,7,21,-1.099568486213684,3.3678841590881348,16.165101306703207,16.825748978475215,65.13513132829196,60.57219299743714,-0.0003561496851034,0.1054507344961166,0,0,0
5468,204280.6733733237,2011-01-05 19:23:01,2242.087154376677,7,21,-1.099568486213684,3.350724458694458,16.165101306703207,16.834916436195403,65.13513132829196,60.602991228504,-0.000453233718872,0.1054507344961166,0,0,0
5469,204310.68849082687,2011-01-05 19:23:31,2272.1022719099915,7,21,-1.0993878841400146,3.329841136932373,16.165101306703207,16.844083998197437,65.13513132829196,60.63361528322444,-0.0005827903514727,0.1054507344961166,0,0,0
5470,204340.7036231671,2011-01-05 19:24:01,2302.117404225146,7,21,-1.099568486213684,3.3034536838531494,16.165101306703207,16.853251438132798,65.13513132829196,60.66402360965872,-0.0007446765666827,0.1054507344961166,0,0,0
5471,204370.7189425936,2011-01-05 19:24:31,2332.1327236516395,7,21,-1.0997490882873535,3.2707526683807373,16.165101306703207,16.86241900035411,65.13513132829196,60.69416415816004,-0.0009713172912597,0.1054507344961166,0,0,0
5472,204400.7338507601,2011-01-05 19:25:01,2362.1476318181467,7,21,-1.099568486213684,3.2286624908447266,16.165101306703207,16.87158634753471,65.13513132829196,60.72396432921919,-0.0012627125252038,0.1054507344961166,0,0,0
5473,204430.7489601782,2011-01-05 19:25:31,2392.1627412312228,7,21,-1.099568486213684,3.172650098800659,16.165101306703207,16.880753895069923,65.13513132829196,60.75331974920254,-0.0017159938579425,0.1054507344961166,0,0,0
5474,204460.76424268264,2011-01-05 19:26:01,2422.178023755745,7,21,-1.0993878841400146,3.0960781574249268,16.165101306703207,16.88992147454813,65.13513132829196,60.78207406246105,-0.0022664070129394,0.1054507344961166,0,0,0
5475,204490.78138107256,2011-01-05 19:26:31,2452.1951622158304,7,21,-1.099568486213684,2.9856719970703125,16.165101306703207,16.899089612943463,65.13513132829196,60.80998560913375,-0.003431987715885,0.1054507344961166,0,0,0
5476,204520.79614752583,2011-01-05 19:27:01,2482.20992859897,7,21,-1.099568486213684,2.8200628757476807,16.165101306703207,16.908256985086854,65.13513132829196,60.83664702344609,-0.0051479814574122,0.1054507344961166,0,0,0
5477,204537.7471488669,2011-01-05 19:27:18,2499.160929929979,7,21,-1.099568486213684,2.699781894683838,16.165101306703207,16.913434328120253,65.13513132829196,60.850942447321536,-0.005892610643059,0.1054507344961166,0,0,0
5478,204597.76946984028,2011-01-05 19:28:18,60.01470383802708,8,21,0.0,3.5516245365142822,16.165101306703207,16.913434328120253,65.13513132829196,60.850942447321536,0.0012303352123126,0.1054507344961166,0,0,0
5479,204597.9501063282,2011-01-05 19:28:19,0.187753178691508,9,21,-1.9243103452026844e-05,3.551786422729492,16.165101306703207,16.913434329123852,65.13513132829196,60.8509424508861,0.0,0.1005837768316268,0,0,0
5480,204602.777874903,2011-01-05 19:28:24,5.015520866235849,9,21,0.0005225847125984,3.5590713024139404,16.165102189167037,16.913434329289657,65.13513446644669,60.85094245147501,0.0010036944877356,0.1005837768316268,0,0,0
