Data_Point,Test_Time(s),Date_Time,Step_Time(s),Step_Index,Cycle_Index,Current(A),Voltage(V),Charge_Capacity(Ah),Discharge_Capacity(Ah),Charge_Energy(Wh),Discharge_Energy(Wh),dV/dt(V/s),Internal_Resistance(Ohm),Is_FC_Data,AC_Impedance(Ohm),ACI_Phase_Angle(Deg)
5481,204632.8038365036,2011-01-05 19:28:54,30.017256549400045,1,22,0.0,3.590315341949463,16.165102189167037,16.913434329289657,65.13513446644669,60.85094245147501,0.0006799221155233,0.1005837768316268,0,0,0
5482,204662.81677629423,2011-01-05 19:29:24,60.03019614963448,1,22,0.0,3.610227108001709,16.165102189167037,16.913434329289657,65.13513446644669,60.85094245147501,0.0004209041653666,0.1005837768316268,0,0,0
5483,204692.8318961885,2011-01-05 19:29:54,90.04531604383233,1,22,0.0,3.6247968673706055,16.165102189167037,16.913434329289657,65.13513446644669,60.85094245147501,0.0003237724304199,0.1005837768316268,0,0,0
5484,204722.80226999664,2011-01-05 19:30:24,120.01569004249052,1,22,0.0,3.635643243789673,16.165102189167037,16.913434329289657,65.13513446644669,60.85094245147501,0.0002266406954731,0.1005837768316268,0,0,0
5485,204752.81050691937,2011-01-05 19:30:54,30.01525004357013,2,22,0.5501165986061096,3.762237787246704,16.169688521436118,16.913434329289657,65.15229327029458,60.85094245147501,0.0009065627818927,0.1005837768316268,0,0,0
5486,204782.82548360663,2011-01-05 19:31:24,60.03022672082729,2,22,0.5501165986061096,3.786358833312988,16.174274880102153,16.913434329289657,65.16960802323412,60.85094245147501,0.0005504131549969,0.1005837768316268,0,0,0
5487,204812.84061409227,2011-01-05 19:31:54,90.04535720140966,2,22,0.5501165986061096,3.8009285926818848,16.17886043381241,16.913434329289657,65.18700641379685,60.85094245147501,0.0003237724304199,0.1005837768316268,0,0,0
5488,204842.8557773345,2011-01-05 19:32:24,120.06052046369412,2,22,0.5501165986061096,3.811289310455322,16.18344589013299,16.913434329289657,65.2044599905361,60.85094245147501,0.0002590179501567,0.1005837768316268,0,0,0
5489,204872.87083890836,2011-01-05 19:32:54,150.07558201748975,2,22,0.5499359965324402,3.8195455074310303,16.188031380557476,16.913434329289657,65.22195604982313,60.85094245147501,0.0001942634553415,0.1005837768316268,0,0,0
5490,204902.88595416097,2011-01-05 19:33:24,180.09069726510688,2,22,0.5499359965324402,3.826992273330689,16.192616812402164,16.913434329289657,65.23948784012951,60.85094245147501,0.0001942634553415,0.1005837768316268,0,0,0
5491,204932.90108893724,2011-01-05 19:33:54,210.1058320514205,2,22,0.5499359965324402,3.8339531421661377,16.197203098404866,16.913434329289657,65.25705572957791,60.85094245147501,0.0002265930233988,0.1005837768316268,0,0,0
5492,204962.91619948816,2011-01-05 19:34:24,240.12094260233195,2,22,0.5501165986061096,3.840266704559326,16.201789367525777,16.913434329289657,65.27465376804008,60.85094245147501,0.0001618862152099,0.1005837768316268,0,0,0
5493,204992.9315671799,2011-01-05 19:34:54,270.13631030915514,2,22,0.5501165986061096,3.8464183807373047,16.206375698060985,16.913434329289657,65.29228055085868,60.85094245147501,0.0001942634553415,0.1005837768316268,0,0,0
5494,205022.9465540276,2011-01-05 19:35:24,300.1512971768099,2,22,0.5499359965324402,3.852084398269653,16.210962009949203,16.913434329289657,65.30993436755308,60.85094245147501,0.0001618862152099,0.1005837768316268,0,0,0
5495,205052.96162874412,2011-01-05 19:35:54,330.1663718783738,2,22,0.5501165986061096,3.857588529586792,16.2155482460032,16.913434329289657,65.3276135319563,60.85094245147501,0.0001618862152099,0.1005837768316268,0,0,0
5496,205082.9766732505,2011-01-05 19:36:24,360.1814164097443,2,22,0.5501165986061096,3.8629307746887207,16.220134489571947,16.913434329289657,65.34531726123815,60.85094245147501,0.0001618862152099,0.1005837768316268,0,0,0
5497,205112.9919721709,2011-01-05 19:36:54,390.196715285018,2,22,0.5499359965324402,3.86778736114502,16.224720783712847,16.913434329289657,65.36304486958376,60.85094245147501,0.0001295089750783,0.1005837768316268,0,0,0
5498,205143.0068735204,2011-01-05 19:37:24,420.2116166495728,2,22,0.5501165986061096,3.872805833816528,16.22930703998524,16.913434329289657,65.38079520241574,60.85094245147501,0.0001295089750783,0.1005837768316268,0,0,0
5499,205173.02200653224,2011-01-05 19:37:54,450.2267496664765,2,22,0.5501165986061096,3.877662420272827,16.233893297562517,16.913434329289657,65.39856765463723,60.85094245147501,0.0001295089750783,0.1005837768316268,0,0,0
5500,205203.0371117198,2011-01-05 19:38:24,480.2418548540208,2,22,0.5501165986061096,3.882195234298706,16.238479581183228,16.913434329289657,65.41636198128914,60.85094245147501,0.0001295089750783,0.1005837768316268,0,0,0
5501,205233.05247723617,2011-01-05 19:38:54,510.25722037038463,2,22,0.5501165986061096,3.886728048324585,16.243065935534,16.913434329289657,65.43417768572266,60.85094245147501,9.713172767078504e-05,0.1005837768316268,0,0,0
5502,205263.06749651465,2011-01-05 19:39:24,540.2722396387921,2,22,0.550297200679779,3.891260862350464,16.247652235986884,16.913434329289657,65.4520136944012,60.85094245147501,0.0001295089750783,0.1005837768316268,0,0,0
5503,205293.0825039385,2011-01-05 19:39:54,570.2872470526543,2,22,0.5501165986061096,3.895308017730713,16.25223856239857,16.913434329289657,65.46986952518078,60.85094245147501,9.713172767078504e-05,0.1005837768316268,0,0,0
5504,205323.0975932214,2011-01-05 19:40:24,600.3023363255344,2,22,0.5499359965324402,3.899355173110962,16.256824892247412,16.913434329289657,65.48774428431726,60.85094245147501,9.713172767078504e-05,0.1005837768316268,0,0,0
5505,205353.1127322884,2011-01-05 19:40:54,630.3174754025417,2,22,0.5499359965324402,3.903402328491211,16.26141114466482,16.913434329289657,65.50563723475626,60.85094245147501,9.713172767078504e-05,0.1005837768316268,0,0,0
5506,205383.1278285838,2011-01-05 19:41:24,660.3325716878991,2,22,0.5499359965324402,3.90712571144104,16.265997431071035,16.913434329289657,65.52354804962478,60.85094245147501,9.713172767078504e-05,0.1005837768316268,0,0,0
5507,205413.14295938515,2011-01-05 19:41:54,690.3477024942935,2,22,0.5501165986061096,3.910687208175659,16.270583702514863,16.913434329289657,65.541475841817,60.85094245147501,6.47544875391759e-05,0.1005837768316268,0,0,0
5508,205443.15806351005,2011-01-05 19:42:24,720.3628066442518,2,22,0.5499359965324402,3.914248466491699,16.275169930118516,16.913434329289657,65.55941975462144,60.85094245147501,6.47544875391759e-05,0.1005837768316268,0,0,0
5509,205473.17320366472,2011-01-05 19:42:54,750.3779467889201,2,22,0.5501165986061096,3.917648077011109,16.279756195827854,16.913434329289657,65.57737930503757,60.85094245147501,9.713172767078504e-05,0.1005837768316268,0,0,0
5510,205503.18831369435,2011-01-05 19:43:24,780.3930568185323,2,22,0.5501165986061096,3.9207239151000977,16.284342444865512,16.913434329289657,65.59535359067961,60.85094245147501,6.47544875391759e-05,0.1005837768316268,0,0,0
5511,205533.2036257625,2011-01-05 19:43:54,810.4083688967119,2,22,0.5501165986061096,3.923637866973877,16.288928756987417,16.913434329289657,65.61334218520356,60.85094245147501,6.47544875391759e-05,0.1005837768316268,0,0,0
5512,205563.21865985787,2011-01-05 19:44:24,840.4234029920725,2,22,0.5501165986061096,3.926551818847656,16.293515070645206,16.913434329289657,65.6313442468048,60.85094245147501,6.47544875391759e-05,0.1005837768316268,0,0,0
5513,205593.23365006884,2011-01-05 19:44:54,870.438393172985,2,22,0.5501165986061096,3.9293038845062256,16.298101314633865,16.913434329289657,65.64935881196884,60.85094245147501,6.47544875391759e-05,0.1005837768316268,0,0,0
5514,205623.24890303973,2011-01-05 19:45:24,900.4536461839509,2,22,0.5499359965324402,3.931894063949585,16.30268758887865,16.913434329289657,65.6673859024923,60.85094245147501,6.47544875391759e-05,0.1005837768316268,0,0,0
5515,205653.2661004116,2011-01-05 19:45:54,930.4708436260372,2,22,0.5501165986061096,3.9346461296081534,16.307274139254318,16.913434329289657,65.68542599863319,60.85094245147501,6.47544875391759e-05,0.1005837768316268,0,0,0
5516,205683.280665859,2011-01-05 19:46:24,960.4854089681206,2,22,0.550297200679779,3.9369125366210938,16.31186044370203,16.913434329289657,65.70347667559662,60.85094245147501,3.237724376958795e-05,0.1005837768316268,0,0,0
5517,205713.29408796172,2011-01-05 19:46:54,990.498831075912,2,22,0.5501165986061096,3.939502716064453,16.316447339749864,16.913434329289657,65.72154109296869,60.85094245147501,6.47544875391759e-05,0.1005837768316268,0,0,0
5518,205743.3091772096,2011-01-05 19:47:24,1020.5139203487925,2,22,0.5501165986061096,3.9419310092926025,16.321034438929058,16.913434329289657,65.73961740731488,60.85094245147501,9.713172767078504e-05,0.1005837768316268,0,0,0
5519,205773.3243277,2011-01-05 19:47:54,1050.529070809171,2,22,0.5501165986061096,3.944197416305542,16.32562148170568,16.913434329289657,65.75770426794527,60.85094245147501,6.47544875391759e-05,0.1005837768316268,0,0,0
5520,205803.3394315593,2011-01-05 19:48:24,1080.5441746684044,2,22,0.550297200679779,3.9464638233184814,16.330208648798294,16.913434329289657,65.77580238274419,60.85094245147501,3.237724376958795e-05,0.1005837768316268,0,0,0
5521,205833.3546156735,2011-01-05 19:48:54,1110.5593589330333,2,22,0.5501165986061096,3.948892116546631,16.334795768846586,16.913434329289657,65.79391071094035,60.85094245147501,9.713172767078504e-05,0.1005837768316268,0,0,0
5522,205863.36971342756,2011-01-05 19:49:24,1140.574456536676,2,22,0.550297200679779,3.95099663734436,16.339382885261365,16.913434329289657,65.81202954420826,60.85094245147501,3.237724376958795e-05,0.1005837768316268,0,0,0
5523,205893.3849363936,2011-01-05 19:49:54,1170.5896796130355,2,22,0.550297200679779,3.9534249305725098,16.34396930042206,16.913434329289657,65.83015589015068,60.85094245147501,6.47544875391759e-05,0.1005837768316268,0,0,0
5524,205923.3999475568,2011-01-05 19:50:25,1200.6046906709798,2,22,0.5499359965324402,3.9555294513702393,16.3485556619156,16.913434329289657,65.84829240435585,60.85094245147501,3.237724376958795e-05,0.1005837768316268,0,0,0
5525,205953.41507034324,2011-01-05 19:50:55,1230.6198134523738,2,22,0.5501165986061096,3.9577958583831783,16.353142087972337,16.913434329289657,65.86643941126378,60.85094245147501,3.237724376958795e-05,0.1005837768316268,0,0,0
5526,205983.43018306955,2011-01-05 19:51:25,1260.634926178707,2,22,0.5501165986061096,3.959900379180908,16.35772851353378,16.913434329289657,65.88459664856613,60.85094245147501,3.237724376958795e-05,0.1005837768316268,0,0,0
5527,206013.44539850688,2011-01-05 19:51:55,1290.6501417062525,2,22,0.550297200679779,3.9623286724090576,16.362314908499375,16.913434329289657,65.90276391621836,60.85094245147501,6.47544875391759e-05,0.1005837768316268,0,0,0
5528,206043.46049949896,2011-01-05 19:52:25,1320.6652426983403,2,22,0.5501165986061096,3.964433193206787,16.366901304033455,16.913434329289657,65.92094124380597,60.85094245147501,9.713172767078504e-05,0.1005837768316268,0,0,0
5529,206073.47553525347,2011-01-05 19:52:55,1350.6802783626115,2,22,0.5501165986061096,3.9665377140045166,16.371487721939467,16.913434329289657,65.9391286899235,60.85094245147501,3.237724376958795e-05,0.1005837768316268,0,0,0
5530,206103.49067561867,2011-01-05 19:53:25,1380.6954187278293,2,22,0.5501165986061096,3.968804121017456,16.376074133736566,16.913434329289657,65.95732605780498,60.85094245147501,6.47544875391759e-05,0.1005837768316268,0,0,0
5531,206133.5057828914,2011-01-05 19:53:55,1410.7105260005708,2,22,0.5501165986061096,3.970746755599976,16.380660618842473,16.913434329289657,65.97553364399413,60.85094245147501,0.0,0.1005837768316268,0,0,0
5532,206163.5208898383,2011-01-05 19:54:25,1440.7256329525126,2,22,0.5501165986061096,3.973013162612915,16.38524709743809,16.913434329289657,65.99375107634935,60.85094245147501,6.47544875391759e-05,0.1005837768316268,0,0,0
5533,206193.53614238315,2011-01-05 19:54:55,1470.7408854973164,2,22,0.5501165986061096,3.975117683410645,16.38983354737649,16.913434329289657,66.01197828154467,60.85094245147501,3.237724376958795e-05,0.1005837768316268,0,0,0
5534,206223.55112950644,2011-01-05 19:55:25,1500.7558726155958,2,22,0.5501165986061096,3.977384090423584,16.39442006254755,16.913434329289657,66.0302155590238,60.85094245147501,6.47544875391759e-05,0.1005837768316268,0,0,0
5535,206253.5662790596,2011-01-05 19:55:55,1530.7710221887626,2,22,0.5501165986061096,3.9794886112213135,16.399006462122994,16.913434329289657,66.04846169571755,60.85094245147501,6.47544875391759e-05,0.1005837768316268,0,0,0
5536,206283.5813644929,2011-01-05 19:56:25,1560.7861075970109,2,22,0.5501165986061096,3.981593132019043,16.403592792790583,16.913434329289657,66.06671768997533,60.85094245147501,9.713172767078504e-05,0.1005837768316268,0,0,0
5537,206313.5965099558,2011-01-05 19:56:55,1590.801253090009,2,22,0.5501165986061096,3.983697652816773,16.408179219121248,16.913434329289657,66.0849837171066,60.85094245147501,9.713172767078504e-05,0.1005837768316268,0,0,0
5538,206343.6117733477,2011-01-05 19:57:25,1620.8165164668096,2,22,0.5501165986061096,3.985802173614502,16.412765575439575,16.913434329289657,66.1032590666914,60.85094245147501,3.237724376958795e-05,0.1005837768316268,0,0,0
5539,206373.62674269665,2011-01-05 19:57:55,1650.8314858057774,2,22,0.550297200679779,3.987906694412232,16.417351966800332,16.913434329289657,66.12154426162971,60.85094245147501,6.47544875391759e-05,0.1005837768316268,0,0,0
5540,206403.6441367989,2011-01-05 19:58:25,1680.848880103489,2,22,0.5499359965324402,3.989849328994751,16.421938626524355,16.913434329289657,66.13984003938138,60.85094245147501,3.237724376958795e-05,0.1005837768316268,0,0,0
5541,206433.65697647005,2011-01-05 19:58:55,1710.8617195841946,2,22,0.550297200679779,3.9921157360076895,16.426524602109186,16.913434329289657,66.15814272754515,60.85094245147501,6.47544875391759e-05,0.1005837768316268,0,0,0
5542,206463.67207373283,2011-01-05 19:59:25,1740.8768168369627,2,22,0.5501165986061096,3.994220018386841,16.43111105217096,16.913434329289657,66.1764569452736,60.85094245147501,6.470680091297254e-05,0.1005837768316268,0,0,0
5543,206493.68756254148,2011-01-05 19:59:55,1770.8923056606466,2,22,0.5499359965324402,3.99616265296936,16.435697466668582,16.913434329289657,66.19478062967316,60.85094245147501,3.237724376958795e-05,0.1005837768316268,0,0,0
5544,206523.7023446388,2011-01-05 20:00:25,1800.907087752938,2,22,0.550297200679779,3.9984290599823,16.440283794401495,16.913434329289657,66.21311364968454,60.85094245147501,6.47544875391759e-05,0.1005837768316268,0,0,0
5545,206553.71744927,2011-01-05 20:00:55,1830.922192469308,2,22,0.5501165986061096,4.000533580780029,16.444870134950346,16.913434329289657,66.23145616301856,60.85094245147501,9.70840483205393e-05,0.1005837768316268,0,0,0
5546,206583.7325488435,2011-01-05 20:01:25,1860.937291952636,2,22,0.550297200679779,4.002638339996338,16.449456442018423,16.913434329289657,66.24980822790992,60.85094245147501,9.71794142969884e-05,0.1005837768316268,0,0,0
5547,206613.7476753241,2011-01-05 20:01:55,1890.9524184282368,2,22,0.5501165986061096,4.004742622375488,16.454042819451693,16.913434329289657,66.2681701694492,60.85094245147501,6.47544875391759e-05,0.1005837768316268,0,0,0
5548,206643.7627836244,2011-01-05 20:02:25,1920.9675267385635,2,22,0.5499359965324402,4.006523609161377,16.458629196655565,16.913434329289657,66.28654178953957,60.85094245147501,3.24249267578125e-05,0.1005837768316268,0,0,0
5549,206673.7779774328,2011-01-05 20:02:55,1950.9827205369536,2,22,0.550297200679779,4.008790016174316,16.463215571049993,16.913434329289657,66.30492314401256,60.85094245147501,0.0,0.1005837768316268,0,0,0
5550,206703.7930191371,2011-01-05 20:03:25,1980.997762246291,2,22,0.5501165986061096,4.010894298553467,16.467801899439422,16.913434329289657,66.3233139817987,60.85094245147501,0.0,0.1005837768316268,0,0,0
5551,206733.8081714572,2011-01-05 20:03:55,2011.0129145863536,2,22,0.5499359965324402,4.013160705566406,16.472388254510108,16.913434329289657,66.34171479238287,60.85094245147501,3.23295607813634e-05,0.1005837768316268,0,0,0
5552,206763.8232530008,2011-01-05 20:04:25,2041.02799610992,2,22,0.5499359965324402,4.015265464782715,16.476974666905196,16.913434329289657,66.36012579485948,60.85094245147501,6.47544875391759e-05,0.1005837768316268,0,0,0
5553,206793.83836763183,2011-01-05 20:04:55,2071.043110735988,2,22,0.5501165986061096,4.017531871795654,16.48156105191701,16.913434329289657,66.37854673694045,60.85094245147501,6.47544875391759e-05,0.1005837768316268,0,0,0
5554,206823.85351224765,2011-01-05 20:05:25,2101.0582553618246,2,22,0.5501165986061096,4.019636154174805,16.486147458240765,16.913434329289657,66.39697774915406,60.85094245147501,6.47544875391759e-05,0.1005837768316268,0,0,0
5555,206853.8686139716,2011-01-05 20:05:55,2131.073357075712,2,22,0.5501165986061096,4.021902561187744,16.490733833958874,16.913434329289657,66.41541883010521,60.85094245147501,6.47544875391759e-05,0.1005837768316268,0,0,0
5556,206883.88372033703,2011-01-05 20:06:25,2161.088463441192,2,22,0.5499359965324402,4.024168968200684,16.495320248770263,16.913434329289657,66.4338703329889,60.85094245147501,6.47544875391759e-05,0.1005837768316268,0,0,0
5557,206913.89909325185,2011-01-05 20:06:55,2191.10383636602,2,22,0.5501165986061096,4.026435375213623,16.4999066350059,16.913434329289657,66.45233205018852,60.85094245147501,6.47544875391759e-05,0.1005837768316268,0,0,0
5558,206943.91410251532,2011-01-05 20:07:25,2221.118845649542,2,22,0.5501165986061096,4.0287017822265625,16.504493001425026,16.913434329289657,66.47080415604782,60.85094245147501,3.23295607813634e-05,0.1005837768316268,0,0,0
5559,206973.92909715732,2011-01-05 20:07:55,2251.133840261498,2,22,0.5501165986061096,4.031130313873291,16.50907932109146,16.913434329289657,66.4892864439085,60.85094245147501,9.71794142969884e-05,0.1005837768316268,0,0,0
5560,207003.94421106164,2011-01-05 20:08:25,2281.1489541707792,2,22,0.5499359965324402,4.033396720886231,16.51366564740307,16.913434329289657,66.50777939201075,60.85094245147501,6.47544875391759e-05,0.1005837768316268,0,0,0
5561,207033.9595896456,2011-01-05 20:08:55,2311.164332859974,2,22,0.5501165986061096,4.035824775695801,16.51825206809582,16.913434329289657,66.52628349116587,60.85094245147501,9.71794142969884e-05,0.1005837768316268,0,0,0
5562,207063.9744363088,2011-01-05 20:09:25,2341.179179417934,2,22,0.5499359965324402,4.03809118270874,16.522838429398824,16.913434329289657,66.54479823713564,60.85094245147501,9.71794142969884e-05,0.1005837768316268,0,0,0
5563,207093.9895693909,2011-01-05 20:09:55,2371.194312494988,2,22,0.5501165986061096,4.040519237518311,16.527424815121368,16.913434329289657,66.56332403308036,60.85094245147501,6.47544875391759e-05,0.1005837768316268,0,0,0
5564,207124.0046673554,2011-01-05 20:10:25,2401.2094104695548,2,22,0.5499359965324402,4.04278564453125,16.532011225947883,16.913434329289657,66.58186097636242,60.85094245147501,3.23295607813634e-05,0.1005837768316268,0,0,0
5565,207154.02004778897,2011-01-05 20:10:55,2431.224790903097,2,22,0.5499359965324402,4.045375823974609,16.53659761750251,16.913434329289657,66.60040904669086,60.85094245147501,6.47544875391759e-05,0.1005837768316268,0,0,0
5566,207184.0349023418,2011-01-05 20:11:25,2461.2396454459576,2,22,0.5501165986061096,4.047966003417969,16.541183897951854,16.913434329289657,66.6189679332066,60.85094245147501,6.47544875391759e-05,0.1005837768316268,0,0,0
5567,207214.0502749007,2011-01-05 20:11:55,2491.255018130186,2,22,0.5501165986061096,4.050232410430908,16.545770340442957,16.913434329289657,66.63753898484138,60.85094245147501,3.23295607813634e-05,0.1005837768316268,0,0,0
5568,207244.0651491076,2011-01-05 20:12:25,2521.269892216756,2,22,0.5499359965324402,4.052822589874268,16.550356745978224,16.913434329289657,66.6561214157066,60.85094245147501,6.47544875391759e-05,0.1005837768316268,0,0,0
5569,207274.0802641096,2011-01-05 20:12:55,2551.285007213748,2,22,0.5501165986061096,4.055412769317627,16.55494316510481,16.913434329289657,66.67471565360547,60.85094245147501,6.47544875391759e-05,0.1005837768316268,0,0,0
5570,207304.09538113663,2011-01-05 20:13:25,2581.3001242458126,2,22,0.5501165986061096,4.058002948760986,16.5595296182191,16.913434329289657,66.69332183483533,60.85094245147501,6.47544875391759e-05,0.1005837768316268,0,0,0
5571,207334.11053927612,2011-01-05 20:13:55,2611.3152823853297,2,22,0.5501165986061096,4.060593128204346,16.56411603850436,16.913434329289657,66.7119398971702,60.85094245147501,3.23295607813634e-05,0.1005837768316268,0,0,0
5572,207364.12564111536,2011-01-05 20:14:25,2641.330384254604,2,22,0.5501165986061096,4.063345432281494,16.568702420978028,16.913434329289657,66.73056937228158,60.85094245147501,3.24249267578125e-05,0.1005837768316268,0,0,0
5573,207394.14073839824,2011-01-05 20:14:55,2671.345481507372,2,22,0.5499359965324402,4.0659356117248535,16.573288834841104,16.913434329289657,66.74921134032894,60.85094245147501,6.47544875391759e-05,0.1005837768316268,0,0,0
5574,207424.15585310952,2011-01-05 20:15:25,2701.3605962186525,2,22,0.5501165986061096,4.068687438964844,16.577875213256668,16.913434329289657,66.76786548367829,60.85094245147501,9.70840483205393e-05,0.1005837768316268,0,0,0
5575,207454.17118650585,2011-01-05 20:15:55,2731.375929609951,2,22,0.5501165986061096,4.071439743041992,16.58246160711927,16.913434329289657,66.78653222662653,60.85094245147501,9.71794142969884e-05,0.1005837768316268,0,0,0
5576,207484.1861006021,2011-01-05 20:16:25,2761.3908437162618,2,22,0.5499359965324402,4.074191570281982,16.587047903858355,16.913434329289657,66.80521127426668,60.85094245147501,3.23295607813634e-05,0.1005837768316268,0,0,0
5577,207514.20120746884,2011-01-05 20:16:55,2791.405950577979,2,22,0.5501165986061096,4.077105522155762,16.591634282228394,16.913434329289657,66.82390337866055,60.85094245147501,9.70840483205393e-05,0.1005837768316268,0,0,0
5578,207544.21631871143,2011-01-05 20:17:25,2821.421061825627,2,22,0.5501165986061096,4.079695701599121,16.596220662435552,16.913434329289657,66.84260836743898,60.85094245147501,3.23295607813634e-05,0.1005837768316268,0,0,0
5579,207574.23159211827,2011-01-05 20:17:55,2851.436335267513,2,22,0.5501165986061096,4.0826096534729,16.600807084118653,16.913434329289657,66.86132649383347,60.85094245147501,6.47544875391759e-05,0.1005837768316268,0,0,0
5580,207604.23311267377,2011-01-05 20:18:25,2881.437855868087,2,22,0.5501165986061096,4.085685729980469,16.605391349513642,16.913434329289657,66.88004892034714,60.85094245147501,9.71794142969884e-05,0.1005837768316268,0,0,0
5581,207634.24787432505,2011-01-05 20:18:55,2911.4526175645456,2,22,0.5501165986061096,4.088599681854248,16.60997770864192,16.913434329289657,66.89879322917133,60.85094245147501,0.0001295089750783,0.1005837768316268,0,0,0
5582,207664.26117183236,2011-01-05 20:19:25,2941.4659149514946,2,22,0.5499359965324402,4.091351509094238,16.614563792820977,16.913434329289657,66.91754979737235,60.85094245147501,6.47544875391759e-05,0.1005837768316268,0,0,0
5583,207694.2764132043,2011-01-05 20:19:55,2971.4811563284647,2,22,0.5501165986061096,4.094265460968018,16.619150117180812,16.913434329289657,66.93632076045184,60.85094245147501,6.47544875391759e-05,0.1005837768316268,0,0,0
5584,207724.2914364877,2011-01-05 20:20:25,3001.496179621904,2,22,0.5499359965324402,4.097179412841797,16.62373646076077,16.913434329289657,66.95510554554637,60.85094245147501,3.23295607813634e-05,0.1005837768316268,0,0,0
5585,207754.306523119,2011-01-05 20:20:55,3031.511266228138,2,22,0.5499359965324402,4.100255489349365,16.62832281657827,16.913434329289657,66.97390422963906,60.85094245147501,6.47544875391759e-05,0.1005837768316268,0,0,0
5586,207784.3216371686,2011-01-05 20:21:25,3061.5263802827817,2,22,0.5501165986061096,4.103331089019775,16.632909202403425,16.913434329289657,66.99271687620754,60.85094245147501,6.47544875391759e-05,0.1005837768316268,0,0,0
5587,207814.33675771445,2011-01-05 20:21:55,3091.541500828604,2,22,0.5501165986061096,4.106245040893555,16.63749551645745,16.913434329289657,67.01154325305751,60.85094245147501,0.0,0.1005837768316268,0,0,0
5588,207844.35188736292,2011-01-05 20:22:25,3121.5566304721,2,22,0.5499359965324402,4.109482765197754,16.64208181671999,16.913434329289657,67.03038379833733,60.85094245147501,3.23295607813634e-05,0.1005837768316268,0,0,0
5589,207874.3669942648,2011-01-05 20:22:56,3151.571737368904,2,22,0.5501165986061096,4.112720489501953,16.64666816659167,16.913434329289657,67.04923881637964,60.85094245147501,6.47544875391759e-05,0.1005837768316268,0,0,0
5590,207904.38214708603,2011-01-05 20:23:26,3181.586890285404,2,22,0.5501165986061096,4.115958213806152,16.651254540632202,16.913434329289657,67.06810833525626,60.85094245147501,9.71794142969884e-05,0.1005837768316268,0,0,0
5591,207934.3972421082,2011-01-05 20:23:56,3211.601985237438,2,22,0.5501165986061096,4.1190338134765625,16.655840865124354,16.913434329289657,67.08699218346709,60.85094245147501,9.70840483205393e-05,0.1005837768316268,0,0,0
5592,207964.4123612957,2011-01-05 20:24:26,3241.617104399812,2,22,0.5501165986061096,4.122271537780762,16.66042729427318,16.913434329289657,67.10589124550394,60.85094245147501,6.47544875391759e-05,0.1005837768316268,0,0,0
5593,207994.42758662265,2011-01-05 20:24:56,3271.632329741818,2,22,0.5501165986061096,4.125509262084961,16.665013666612385,16.913434329289657,67.12480482139458,60.85094245147501,6.47544875391759e-05,0.1005837768316268,0,0,0
5594,208024.44257932485,2011-01-05 20:25:26,3301.6473224339893,2,22,0.5501165986061096,4.128909111022949,16.66960000786109,16.913434329289657,67.14373323491087,60.85094245147501,0.0001295089750783,0.1005837768316268,0,0,0
5595,208054.45770821645,2011-01-05 20:25:56,3331.662451320599,2,22,0.550297200679779,4.131984710693359,16.674186337390278,16.913434329289657,67.1626767611139,60.85094245147501,6.47544875391759e-05,0.1005837768316268,0,0,0
5596,208084.4729543804,2011-01-05 20:26:26,3361.677697504549,2,22,0.5499359965324402,4.135384559631348,16.67877276481461,16.913434329289657,67.18163596939885,60.85094245147501,9.71794142969884e-05,0.1005837768316268,0,0,0
5597,208114.4879366315,2011-01-05 20:26:56,3391.6926797456736,2,22,0.5501165986061096,4.138783931732178,16.683359103903378,16.913434329289657,67.20061012804243,60.85094245147501,9.70840483205393e-05,0.1005837768316268,0,0,0
5598,208144.5031959783,2011-01-05 20:27:26,3421.7079390974427,2,22,0.5501165986061096,4.142183780670166,16.687945510225045,16.913434329289657,67.21960005994151,60.85094245147501,6.47544875391759e-05,0.1005837768316268,0,0,0
5599,208174.5181660441,2011-01-05 20:27:56,3451.72290915821,2,22,0.5499359965324402,4.145421504974365,16.692531883300347,16.913434329289657,67.23860557052171,60.85094245147501,3.24249267578125e-05,0.1005837768316268,0,0,0
5600,208204.53329977777,2011-01-05 20:28:26,3481.738042886888,2,22,0.5501165986061096,4.149144649505615,16.69711827617864,16.913434329289657,67.25762711960418,60.85094245147501,9.70840483205393e-05,0.1005837768316268,0,0,0
5601,208234.54840298533,2011-01-05 20:28:56,3511.7531460894843,2,22,0.5501165986061096,4.152544498443604,16.70170464432086,16.913434329289657,67.2766643608994,60.85094245147501,9.71794142969884e-05,0.1005837768316268,0,0,0
5602,208264.5635241778,2011-01-05 20:29:26,3541.768267317005,2,22,0.5501165986061096,4.156105995178223,16.706291063972827,16.913434329289657,67.29571780627879,60.85094245147501,0.0001295089750783,0.1005837768316268,0,0,0
5603,208294.57866703923,2011-01-05 20:29:56,3571.783410148369,2,22,0.5501165986061096,4.159667491912842,16.710877433146848,16.913434329289657,67.31478720753148,60.85094245147501,0.0001295089750783,0.1005837768316268,0,0,0
5604,208324.5938431084,2011-01-05 20:30:26,3601.7985862125606,2,22,0.5499359965324402,4.163066864013672,16.71546381230498,16.913434329289657,67.3338730877531,60.85094245147501,9.70840483205393e-05,0.1005837768316268,0,0,0
5605,208354.61098190435,2011-01-05 20:30:56,3631.815725113745,2,22,0.5501165986061096,4.16679048538208,16.720050477023637,16.913434329289657,67.35297663182027,60.85094245147501,9.71794142969884e-05,0.1005837768316268,0,0,0
5606,208384.62402532337,2011-01-05 20:31:26,3661.8287685427526,2,22,0.5501165986061096,4.170351982116699,16.724636527207366,16.913434329289657,67.3720942170541,60.85094245147501,3.24249267578125e-05,0.1005837768316268,0,0,0
5607,208414.6392570011,2011-01-05 20:31:56,3691.8440001052622,2,22,0.5501165986061096,4.174075126647949,16.729222937293923,16.913434329289657,67.3912300845749,60.85094245147501,9.70840483205393e-05,0.1005837768316268,0,0,0
5608,208444.6544279125,2011-01-05 20:32:26,3721.859171046686,2,22,0.5501165986061096,4.177798748016357,16.73380928275884,16.913434329289657,67.41038250749247,60.85094245147501,0.0001295089750783,0.1005837768316268,0,0,0
5609,208474.66934876057,2011-01-05 20:32:56,3751.8740918847743,2,22,0.5501165986061096,4.1816840171813965,16.738395590530548,16.913434329289657,67.42955171126953,60.85094245147501,0.0001295089750783,0.1005837768316268,0,0,0
5610,208504.6844602789,2011-01-05 20:33:26,3781.889203513372,2,22,0.5501165986061096,4.185083389282227,16.742981973980406,16.913434329289657,67.44873839111415,60.85094245147501,6.47544875391759e-05,0.1005837768316268,0,0,0
5611,208534.69957167693,2011-01-05 20:33:56,3811.9043149013696,2,22,0.5499359965324402,4.189130783081055,16.7475682878179,16.913434329289657,67.46794205682735,60.85094245147501,0.0001295089750783,0.1005837768316268,0,0,0
5612,208564.714882121,2011-01-05 20:34:26,3841.9196252452266,2,22,0.5499359965324402,4.192853927612305,16.75215459965878,16.913434329289657,67.4871632014996,60.85094245147501,0.0001295089750783,0.1005837768316268,0,0,0
5613,208594.72979513963,2011-01-05 20:34:56,3871.934538243777,2,22,0.5499359965324402,4.196739196777344,16.756740872703286,16.913434329289657,67.50640181099187,60.85094245147501,6.47544875391759e-05,0.1005837768316268,0,0,0
5614,208619.4169335045,2011-01-05 20:35:21,3896.6216766136367,2,22,0.5501165986061096,4.200138568878174,16.760513107899392,16.913434329289657,67.52223890986535,60.85094245147501,0.0001618385285837,0.1005837768316268,0,0,0
5615,208649.43048250664,2011-01-05 20:35:51,30.015106926879305,3,22,0.0,4.097665309906006,16.760513107899392,16.913434329289657,67.52223890986535,60.85094245147501,-0.0004856109735555,0.1005837768316268,0,0,0
5616,208679.445611694,2011-01-05 20:36:21,60.03023610421358,3,22,0.0,4.08455228805542,16.760513107899392,16.913434329289657,67.52223890986535,60.85094245147501,-0.0002266883820993,0.1005837768316268,0,0,0
5617,208709.46085622883,2011-01-05 20:36:51,90.04548064907924,3,22,0.0,4.076134204864502,16.760513107899392,16.913434329289657,67.52223890986535,60.85094245147501,-0.0002266883820993,0.1005837768316268,0,0,0
5618,208739.428971884,2011-01-05 20:37:21,120.01359630425058,3,22,0.0,4.070953845977783,16.760513107899392,16.913434329289657,67.52223890986535,60.85094245147501,-9.71794142969884e-05,0.1005837768316268,0,0,0
5619,208739.4294898965,2011-01-05 20:37:21,2.636571147e-06,4,22,1.0193395614624023,4.199976921081543,16.760513108645938,16.913434329289657,67.52223891300082,60.85094245147501,0.0,0.1005837768316268,0,0,0
5620,208740.16386270945,2011-01-05 20:37:22,0.734375464619513,4,22,0.9693107604980468,4.199976921081543,16.76071458612556,16.913434329289657,67.52308509092745,60.85094245147501,0.0,0.1005837768316268,0,0,0
5621,208742.0856902049,2011-01-05 20:37:24,2.65620295505722,4,22,0.919101357460022,4.199976921081543,16.761217714136492,16.913434329289657,67.52519815946849,60.85094245147501,0.0,0.1005837768316268,0,0,0
5622,208745.03878213363,2011-01-05 20:37:26,5.609294883787285,4,22,0.8687113523483276,4.199814796447754,16.761950054257877,16.913434329289657,67.52827389450684,60.85094245147501,-3.24249267578125e-05,0.1005837768316268,0,0,0
5623,208749.038750666,2011-01-05 20:37:30,9.60926341612943,4,22,0.8186826109886169,4.199653148651123,16.762886452108773,16.913434329289657,67.53220663359852,60.85094245147501,-3.23295607813634e-05,0.1005837768316268,0,0,0
5624,208754.35132424897,2011-01-05 20:37:36,14.921837024198773,4,22,0.7686538100242615,4.199814796447754,16.764056215335966,16.913434329289657,67.53711948581677,60.85094245147501,-3.24249267578125e-05,0.1005837768316268,0,0,0
5625,208761.1948768227,2011-01-05 20:37:43,21.765389602933464,4,22,0.7186250686645508,4.199814796447754,16.76546775273968,16.913434329289657,67.54304777013836,60.85094245147501,0.0,0.1005837768316268,0,0,0
5626,208770.22585566572,2011-01-05 20:37:52,30.796368415898083,4,22,0.6685963273048401,4.199976921081543,16.767204728425234,16.913434329289657,67.5503428777047,60.85094245147501,0.0,0.1005837768316268,0,0,0
5627,208782.63215397345,2011-01-05 20:38:04,43.20266675869089,4,22,0.6185675263404846,4.199976921081543,16.769417943402,16.913434329289657,67.55963811785998,60.85094245147501,3.24249267578125e-05,0.1005837768316268,0,0,0
5628,208801.28784553704,2011-01-05 20:38:23,61.8583582871927,4,22,0.5685387849807739,4.199814796447754,16.77248460542323,16.913434329289657,67.57251774604089,60.85094245147501,0.0,0.1005837768316268,0,0,0
5629,208833.27160640527,2011-01-05 20:38:55,93.84211915042104,4,22,0.5185099840164185,4.199814796447754,16.777292085245815,16.913434329289657,67.5927086451122,60.85094245147501,-3.24249267578125e-05,0.1005837768316268,0,0,0
5630,208895.6302114914,2011-01-05 20:39:57,156.2007242716463,4,22,0.4684812128543854,4.199814796447754,16.785796896574414,16.913434329289657,67.62842782652443,60.85094245147501,0.0,0.1005837768316268,0,0,0
5631,209002.19080271764,2011-01-05 20:41:44,262.7613155078812,4,22,0.4182718396186828,4.199976921081543,16.798889325022657,16.913434329289657,67.68341420020205,60.85094245147501,0.0,0.1005837768316268,0,0,0
5632,209140.75080959863,2011-01-05 20:44:02,401.3213223688269,4,22,0.3682430684566498,4.199976921081543,16.814007594411656,16.913434329289657,67.74690928971582,60.85094245147501,3.24249267578125e-05,0.1005837768316268,0,0,0
5633,209306.93569833017,2011-01-05 20:46:48,567.5062111053703,4,22,0.3182142972946167,4.199653148651123,16.829825251067717,16.913434329289657,67.81334169414805,60.85094245147501,-3.23295607813634e-05,0.1005837768316268,0,0,0
5634,209508.29393349856,2011-01-05 20:50:10,768.8644463690274,4,22,0.2680049240589142,4.199814796447754,16.84618658013133,16.913434329289657,67.88205749695044,60.85094245147501,-3.24249267578125e-05,0.1005837768316268,0,0,0
5635,209759.13118553133,2011-01-05 20:54:21,1019.7016982915112,4,22,0.2177955508232116,4.199976921081543,16.86306781215919,16.913434329289657,67.95295678727105,60.85094245147501,6.47544875391759e-05,0.1005837768316268,0,0,0
5636,210087.17251447885,2011-01-05 20:59:49,1347.7430272490667,4,22,0.1677667796611786,4.199976921081543,16.880557110197795,16.913434329289657,68.02640997627368,60.85094245147501,3.24249267578125e-05,0.1005837768316268,0,0,0
5637,210573.63299082103,2011-01-05 21:07:55,1834.2035035762208,4,22,0.1177380084991455,4.199814796447754,16.89964334242602,16.913434329289657,68.1065694164262,60.85094245147501,0.0,0.1005837768316268,0,0,0
5638,211426.1033630472,2011-01-05 21:22:08,2686.6738758324595,4,22,0.0677092373371124,4.199814796447754,16.92101743750323,16.913434329289657,68.19633741821961,60.85094245147501,3.23295607813634e-05,0.1005837768316268,0,0,0
5639,211949.3134667684,2011-01-05 21:30:51,3209.8839795235817,4,22,0.0496483072638511,4.199814796447754,16.929535954302892,16.913434329289657,68.23211381506412,60.85094245147501,0.0,0.1005837768316268,0,0,0
5640,211979.3358728437,2011-01-05 21:31:21,30.01523767273821,5,22,0.0,4.190425872802734,16.929535954302892,16.913434329289657,68.23211381506412,60.85094245147501,-6.47544875391759e-05,0.1005837768316268,0,0,0
5641,212009.33518432343,2011-01-05 21:31:51,60.01454917255313,5,22,0.0,4.188968658447266,16.929535954302892,16.913434329289657,68.23211381506412,60.85094245147501,0.0,0.1005837768316268,0,0,0
5642,212009.5309219132,2011-01-05 21:31:51,0.187516729387088,6,22,-1.9243103452026844e-05,4.189130783081055,16.929535954302892,16.91343433029199,68.23211381506412,60.85094245567392,0.0,0.1052602156996727,0,0,0
5643,212014.3434218087,2011-01-05 21:31:56,5.000016649958358,6,22,0.0007031940040178,4.188807010650635,16.929536834182947,16.91343433029199,68.23211750096671,60.85094245567392,-3.23295607813634e-05,0.1052602156996727,0,0,0
5644,212038.63262361023,2011-01-05 21:32:20,24.29659066481076,7,22,-1.0997490882873535,3.988716125488281,16.929536834182947,16.92085599161834,68.23211750096671,60.880721406591874,-0.0013274193042889,0.1052602156996727,0,0,0
5645,212068.6476551192,2011-01-05 21:32:51,54.31162207347544,7,22,-1.099568486213684,3.948568344116211,16.929536834182947,16.930024292608937,68.23211750096671,60.91709826822878,-0.0009389400365762,0.1052602156996727,0,0,0
5646,212098.66279361476,2011-01-05 21:33:21,84.32676053895864,7,22,-1.0997490882873535,3.919914484024048,16.929536834182947,16.939192646772565,68.23211750096671,60.9531619306503,-0.0006799221155233,0.1052602156996727,0,0,0
5647,212128.67792504767,2011-01-05 21:33:51,114.34189196690212,7,22,-1.099568486213684,3.898060083389282,16.929536834182947,16.948360902807106,68.23211750096671,60.98899675685974,-0.0005180359003134,0.1052602156996727,0,0,0
5648,212158.69324454432,2011-01-05 21:34:21,144.3572115688331,7,22,-1.0997490882873535,3.880414485931397,16.929536834182947,16.957529268621524,68.23211750096671,61.02465258396015,-0.0004209041653666,0.1052602156996727,0,0,0
5649,212188.708231006,2011-01-05 21:34:51,174.3721979352386,7,22,-1.099568486213684,3.86503529548645,16.929536834182947,16.966697547676084,68.23211750096671,61.06015646703814,-0.0003885269106831,0.1052602156996727,0,0,0
5650,212218.7233321484,2011-01-05 21:35:21,204.3872990676764,7,22,-1.0997490882873535,3.8507893085479736,16.929536834182947,16.975865555412714,68.23211750096671,61.09552507692946,-0.0003561496851034,0.1052602156996727,0,0,0
5651,212248.73848346097,2011-01-05 21:35:51,234.40245041526572,7,22,-1.0993878841400146,3.8380002975463863,16.929536834182947,16.98503357775614,68.23211750096671,61.13077041417991,-0.0003237724304199,0.1052602156996727,0,0,0
5652,212278.75361551545,2011-01-05 21:36:21,264.4175824597458,7,22,-1.0997490882873535,3.825697183609009,16.929536834182947,16.994201544007474,68.23211750096671,61.16590035530574,-0.0003237724304199,0.1052602156996727,0,0,0
5653,212308.76875147969,2011-01-05 21:36:51,294.4327184290077,7,22,-1.099568486213684,3.814365148544312,16.929536834182947,17.003369538369295,68.23211750096671,61.20092183672286,-0.0002913951757363,0.1052602156996727,0,0,0
5654,212338.7840127412,2011-01-05 21:37:21,324.4479796905364,7,22,-1.0997490882873535,3.8030331134796143,16.929536834182947,17.012537707829186,68.23211750096671,61.235839978740266,-0.0002913951757363,0.1052602156996727,0,0,0
5655,212368.7990234934,2011-01-05 21:37:51,354.4629904226688,7,22,-1.099568486213684,3.792510509490967,16.929536834182947,17.021705920840787,68.23211750096671,61.27065931524167,-0.0002590179501567,0.1052602156996727,0,0,0
5656,212398.81418609904,2011-01-05 21:38:21,384.4781530283168,7,22,-1.0997490882873535,3.7823116779327393,16.929536834182947,17.030874243606494,68.23211750096671,61.30538384461219,-0.0002913951757363,0.1052602156996727,0,0,0
5657,212428.8293128804,2011-01-05 21:38:51,414.493279824717,7,22,-1.0997490882873535,3.7725985050201416,16.929536834182947,17.04004256451228,68.23211750096671,61.34001663699076,-0.0002266406954731,0.1052602156996727,0,0,0
5658,212458.84447316529,2011-01-05 21:39:21,444.5084401095808,7,22,-1.0997490882873535,3.763047218322754,16.929536834182947,17.04921088307333,68.23211750096671,61.37456089096691,-0.0002266406954731,0.1052602156996727,0,0,0
5659,212488.85964898387,2011-01-05 21:39:51,474.5236160083593,7,22,-1.0997490882873535,3.753819704055786,16.929536834182947,17.058379247834228,68.23211750096671,61.40901968311808,-0.0002590179501567,0.1052602156996727,0,0,0
5660,212518.8747477153,2011-01-05 21:40:21,504.5387146596132,7,22,-1.0997490882873535,3.7449162006378174,16.929536834182947,17.067547657136224,68.23211750096671,61.44339573139013,-0.0002590179501567,0.1052602156996727,0,0,0
5661,212548.89205166785,2011-01-05 21:40:51,534.5560187775687,7,22,-1.0997490882873535,3.7363362312316895,16.929536834182947,17.076716748176068,68.23211750096671,61.47769403435876,-0.0002266406954731,0.1052602156996727,0,0,0
5662,212578.90501774903,2011-01-05 21:41:21,564.5689846683273,7,22,-1.0997490882873535,3.727918148040772,16.929536834182947,17.085884500758386,68.23211750096671,61.511909294042006,-0.0002266406954731,0.1052602156996727,0,0,0
5663,212608.92015683115,2011-01-05 21:41:51,594.5841237503471,7,22,-1.099568486213684,3.7199857234954834,16.929536834182947,17.095052822748727,68.23211750096671,61.54605172308524,-0.0002266406954731,0.1052602156996727,0,0,0
5664,212638.93554176588,2011-01-05 21:42:21,624.5995087051574,7,22,-1.0997490882873535,3.711729526519776,16.929536834182947,17.10422122495814,68.23211750096671,61.58012043719872,-0.0002590179501567,0.1052602156996727,0,0,0
5665,212668.9504554261,2011-01-05 21:42:51,654.6144223753817,7,22,-1.0997490882873535,3.7041208744049072,16.929536834182947,17.11338955581643,68.23211750096671,61.61411653184163,-0.0001942634553415,0.1052602156996727,0,0,0
5666,212698.96571627652,2011-01-05 21:43:21,684.6296832058362,7,22,-1.099568486213684,3.696512222290039,16.929536834182947,17.122557969144978,68.23211750096671,61.64804245127094,-0.0002266406954731,0.1052602156996727,0,0,0
5667,212728.9807642465,2011-01-05 21:43:51,714.6447311707641,7,22,-1.0997490882873535,3.689065456390381,16.929536834182947,17.131726345758455,68.23211750096671,61.68189943684957,-0.0001942634553415,0.1052602156996727,0,0,0
5668,212758.99600243053,2011-01-05 21:44:21,744.659969379839,7,22,-1.0997490882873535,3.6817805767059326,16.929536834182947,17.140894769582925,68.23211750096671,61.71568907788642,-0.0002266406954731,0.1052602156996727,0,0,0
5669,212789.0110054284,2011-01-05 21:44:51,774.6749723476202,7,22,-1.0997490882873535,3.6746575832366943,16.929536834182947,17.150063112400417,68.23211750096671,61.74941210226224,-0.0001942634553415,0.1052602156996727,0,0,0
5670,212819.02614512196,2011-01-05 21:45:21,804.6901120562017,7,22,-1.0997490882873535,3.667534828186035,16.929536834182947,17.159231553290898,68.23211750096671,61.78307093040264,-0.0002266406954731,0.1052602156996727,0,0,0
5671,212849.04129595825,2011-01-05 21:45:51,834.7052628875042,7,22,-1.099568486213684,3.6608974933624263,16.929536834182947,17.168400045195774,68.23211750096671,61.816666991545546,-0.0001618862152099,0.1052602156996727,0,0,0
5672,212879.0564551103,2011-01-05 21:46:21,864.7204220595945,7,22,-1.099568486213684,3.6542601585388175,16.929536834182947,17.17756849696198,68.23211750096671,61.85020099756002,-0.0001295089750783,0.1052602156996727,0,0,0
5673,212909.07163820692,2011-01-05 21:46:51,894.7356052365125,7,22,-1.099568486213684,3.64762282371521,16.929536834182947,17.186736942791157,68.23211750096671,61.8836740929826,-0.0001618862152099,0.1052602156996727,0,0,0
5674,212939.08686086733,2011-01-05 21:47:21,924.7508278066102,7,22,-1.099568486213684,3.641147375106812,16.929536834182947,17.195905310397137,68.23211750096671,61.91708640493838,-0.0001618862152099,0.1052602156996727,0,0,0
5675,212969.10185387023,2011-01-05 21:47:51,954.7658207895064,7,22,-1.0997490882873535,3.634671926498413,16.929536834182947,17.205073671649632,68.23211750096671,61.95043961458726,-0.0001942634553415,0.1052602156996727,0,0,0
5676,212999.1170094484,2011-01-05 21:48:21,984.7809763726518,7,22,-1.099568486213684,3.6285202503204346,16.929536834182947,17.214242106528836,68.23211750096671,61.98373497209084,-0.0001295089750783,0.1052602156996727,0,0,0
5677,213029.13226645932,2011-01-05 21:48:51,1014.7962333986244,7,22,-1.099568486213684,3.622368574142456,16.929536834182947,17.223410560045597,68.23211750096671,62.01697378391574,-0.0001295089750783,0.1052602156996727,0,0,0
5678,213059.147409015,2011-01-05 21:49:21,1044.8113759643263,7,22,-1.0997490882873535,3.6162168979644775,16.929536834182947,17.232578974321566,68.23211750096671,62.050156872606,-0.0001618862152099,0.1052602156996727,0,0,0
5679,213089.16287287147,2011-01-05 21:49:51,1074.826839820784,7,22,-1.0997490882873535,3.610388994216919,16.929536834182947,17.241747530967363,68.23211750096671,62.08328630932516,-0.0001618862152099,0.1052602156996727,0,0,0
5680,213119.177622568,2011-01-05 21:50:21,1104.841589522348,7,22,-1.099568486213684,3.6047229766845694,16.929536834182947,17.250915841223133,68.23211750096671,62.11636142325296,-0.0001295089750783,0.1052602156996727,0,0,0
5681,213149.19283491265,2011-01-05 21:50:51,1134.8568018519234,7,22,-1.099929690361023,3.598895072937012,16.929536834182947,17.260084313942844,68.23211750096671,62.14938484089543,-0.0001942634553415,0.1052602156996727,0,0,0
5682,213179.20814757727,2011-01-05 21:51:21,1164.8721145165644,7,22,-1.099568486213684,3.593714714050293,16.929536834182947,17.269252852945264,68.23211750096671,62.18235726439977,-9.713172767078504e-05,0.1052602156996727,0,0,0
5683,213209.22300295724,2011-01-05 21:51:51,1194.8869699065365,7,22,-1.099568486213684,3.5882108211517334,16.929536834182947,17.2784212254803,68.23211750096671,62.21527932636218,-0.0001618862152099,0.1052602156996727,0,0,0
5684,213239.2381529013,2011-01-05 21:52:21,1224.9021198255653,7,22,-1.099568486213684,3.583030462265014,16.929536834182947,17.28758973541972,68.23211750096671,62.24815326903891,-0.0001295089750783,0.1052602156996727,0,0,0
5685,213269.2532846651,2011-01-05 21:52:51,1254.9172516093956,7,22,-1.0997490882873535,3.577850103378296,16.929536834182947,17.29675821231427,68.23211750096671,62.280979894591376,-0.0001295089750783,0.1052602156996727,0,0,0
5686,213299.26857974596,2011-01-05 21:53:21,1284.9325466801877,7,22,-1.0997490882873535,3.572831630706787,16.929536834182947,17.30592673145071,68.23211750096671,62.31376052278028,-0.0001295089750783,0.1052602156996727,0,0,0
5687,213329.2835732952,2011-01-05 21:53:51,1314.9475402294952,7,22,-1.0997490882873535,3.5679750442504883,16.929536834182947,17.315095088953274,68.23211750096671,62.34649574857195,-0.0001295089750783,0.1052602156996727,0,0,0
5688,213359.2987214148,2011-01-05 21:54:21,1344.9626883490391,7,22,-1.0997490882873535,3.5632803440093994,16.929536834182947,17.324263592743062,68.23211750096671,62.37918732622903,-0.0001618862152099,0.1052602156996727,0,0,0
5689,213389.31385555447,2011-01-05 21:54:51,1374.9778224837287,7,22,-1.0997490882873535,3.5585856437683105,16.929536834182947,17.333432029403934,68.23211750096671,62.41183655982263,-0.0001618862152099,0.1052602156996727,0,0,0
5690,213419.32921149195,2011-01-05 21:55:21,1404.9931784262317,7,22,-1.099568486213684,3.5542147159576416,16.929536834182947,17.34260049083648,68.23211750096671,62.44444423113632,-0.0001295089750783,0.1052602156996727,0,0,0
5691,213449.3441217336,2011-01-05 21:55:51,1435.0080886929734,7,22,-1.0997490882873535,3.5498437881469727,16.929536834182947,17.35176889190094,68.23211750096671,62.47701094213895,-9.713172767078504e-05,0.1052602156996727,0,0,0
5692,213479.3592939984,2011-01-05 21:56:21,1465.023260962707,7,22,-1.099568486213684,3.5456347465515137,16.929536834182947,17.36093742497054,68.23211750096671,62.50953850222228,-0.0001295089750783,0.1052602156996727,0,0,0
5693,213509.3746070239,2011-01-05 21:56:51,1495.03857395316,7,22,-1.0997490882873535,3.5412638187408447,16.929536834182947,17.370105953348748,68.23211750096671,62.542026922336575,-0.0001618862152099,0.1052602156996727,0,0,0
5694,213539.3896091947,2011-01-05 21:57:21,1525.053576144005,7,22,-1.099568486213684,3.5370547771453857,16.929536834182947,17.379274442742712,68.23211750096671,62.57447701611138,-9.713172767078504e-05,0.1052602156996727,0,0,0
5695,213569.404752392,2011-01-05 21:57:51,1555.0687193412814,7,22,-1.0997490882873535,3.5331695079803467,16.929536834182947,17.38844298799054,68.23211750096671,62.60688954642614,-0.0001295089750783,0.1052602156996727,0,0,0
5696,213599.42013820392,2011-01-05 21:58:21,1585.0841051281657,7,22,-1.099568486213684,3.529284238815308,16.929536834182947,17.39761158119975,68.23211750096671,62.63926499563574,-6.47544875391759e-05,0.1052602156996727,0,0,0
5697,213629.43516272545,2011-01-05 21:58:51,1615.0991296647028,7,22,-1.0997490882873535,3.5252370834350586,16.929536834182947,17.406780116654815,68.23211750096671,62.671603635741285,-6.47544875391759e-05,0.1052602156996727,0,0,0
5698,213659.45018300635,2011-01-05 21:59:21,1645.1141499356088,7,22,-1.099568486213684,3.5213518142700195,16.929536834182947,17.415948550612452,68.23211750096671,62.70390545272401,-6.47544875391759e-05,0.1052602156996727,0,0,0
5699,213689.46545786172,2011-01-05 21:59:51,1675.1294247910175,7,22,-1.099568486213684,3.5171427726745605,16.929536834182947,17.425117152225884,68.23211750096671,62.736171769861045,-9.713172767078504e-05,0.1052602156996727,0,0,0
5700,213719.48262891307,2011-01-05 22:00:21,1705.1465958373176,7,22,-1.099568486213684,3.5130956172943115,16.929536834182947,17.434286286390716,68.23211750096671,62.768403294882745,-0.0001295089750783,0.1052602156996727,0,0,0
5701,213749.4972620441,2011-01-05 22:00:51,1735.1612289884015,7,22,-1.0997490882873535,3.509210586547852,16.929536834182947,17.443455082890086,68.23211750096671,62.80059677899765,-0.0001295089750783,0.1052602156996727,0,0,0
5702,213779.51073427172,2011-01-05 22:01:21,1765.1747012211204,7,22,-1.1001102924346924,3.5048396587371826,16.929536834182947,17.452623871616787,68.23211750096671,62.83275289183058,-0.0001942634553415,0.1052602156996727,0,0,0
5703,213809.5258733889,2011-01-05 22:01:51,1795.1898403081525,7,22,-1.0997490882873535,3.500954389572144,16.929536834182947,17.46179298967882,68.23211750096671,62.86487240582997,-0.0001295089750783,0.1052602156996727,0,0,0
5704,213839.54105520243,2011-01-05 22:02:21,1825.2050221216723,7,22,-1.0997490882873535,3.496745347976685,16.929536834182947,17.470962246607044,68.23211750096671,62.8969542414345,-0.0001295089750783,0.1052602156996727,0,0,0
5705,213869.5561711568,2011-01-05 22:02:51,1855.220138086076,7,22,-1.0997490882873535,3.492374420166016,16.929536834182947,17.48013146220819,68.23211750096671,62.92899692290986,-0.0001618862152099,0.1052602156996727,0,0,0
5706,213899.571307507,2011-01-05 22:03:21,1885.2352744262623,7,22,-1.099568486213684,3.4880034923553467,16.929536834182947,17.489300672444177,68.23211750096671,62.96099940250458,-0.0001295089750783,0.1052602156996727,0,0,0
5707,213929.5864830399,2011-01-05 22:03:51,1915.2504499641416,7,22,-1.0997490882873535,3.483470678329468,16.929536834182947,17.4984695815585,68.23211750096671,62.9929598181102,-0.0001295089750783,0.1052602156996727,0,0,0
5708,213959.60163732985,2011-01-05 22:04:21,1945.2656042691017,7,22,-1.099568486213684,3.478775978088379,16.929536834182947,17.507638042810715,68.23211750096671,63.02487585831482,-9.713172767078504e-05,0.1052602156996727,0,0,0
5709,213989.6167558556,2011-01-05 22:04:52,1975.2807227748388,7,22,-1.0997490882873535,3.47359561920166,16.929536834182947,17.516806406973778,68.23211750096671,63.05674701653485,-0.0001618862152099,0.1052602156996727,0,0,0
5710,214019.6318916444,2011-01-05 22:05:22,2005.2958585636509,7,22,-1.099568486213684,3.468577146530152,16.929536834182947,17.525974781764486,68.23211750096671,63.08857171499552,-0.0001295089750783,0.1052602156996727,0,0,0
5711,214049.6470440948,2011-01-05 22:05:52,2035.3110110190007,7,22,-1.0997490882873535,3.4630730152130127,16.929536834182947,17.53514324828527,68.23211750096671,63.12034756317647,-0.0001618862152099,0.1052602156996727,0,0,0
5712,214079.6622375974,2011-01-05 22:06:22,2065.326204606866,7,22,-1.0997490882873535,3.457245111465454,16.929536834182947,17.544311701668377,68.23211750096671,63.15207105025298,-0.0001295089750783,0.1052602156996727,0,0,0
5713,214109.67732815348,2011-01-05 22:06:52,2095.3412950827446,7,22,-1.0997490882873535,3.450769662857056,16.929536834182947,17.55348019216233,68.23211750096671,63.18373829536186,-0.0001618862152099,0.1052602156996727,0,0,0
5714,214139.6925002227,2011-01-05 22:07:22,2125.356467167016,7,22,-1.0997490882873535,3.4434847831726074,16.929536834182947,17.562648626727317,68.23211750096671,63.21534345562857,-0.0002266406954731,0.1052602156996727,0,0,0
5715,214169.7076508084,2011-01-05 22:07:52,2155.3716177376696,7,22,-1.099568486213684,3.43555235862732,16.929536834182947,17.57181712688244,68.23211750096671,63.24687980318389,-0.0002266406954731,0.1052602156996727,0,0,0
5716,214199.7227790384,2011-01-05 22:08:22,2185.38674598268,7,22,-1.0997490882873535,3.4264869689941406,16.929536834182947,17.580985626719084,68.23211750096671,63.27833793271451,-0.0002590179501567,0.1052602156996727,0,0,0
5717,214229.7380414528,2011-01-05 22:08:52,2215.4020084020945,7,22,-1.0997490882873535,3.415640592575073,16.929536834182947,17.590154186896058,68.23211750096671,63.30970565113178,-0.0003237724304199,0.1052602156996727,0,0,0
5718,214259.75319091568,2011-01-05 22:09:22,2245.4171578699998,7,22,-1.0997490882873535,3.4031753540039062,16.929536834182947,17.599322707087378,68.23211750096671,63.34096700954161,-0.0003237724304199,0.1052602156996727,0,0,0
5719,214289.76836759137,2011-01-05 22:09:52,2275.4323345356893,7,22,-1.0993878841400146,3.38811993598938,16.929536834182947,17.608491187559682,68.23211750096671,63.37210184985582,-0.0004209041653666,0.1052602156996727,0,0,0
5720,214319.78336068452,2011-01-05 22:10:22,2305.4473276088097,7,22,-1.099568486213684,3.3693411350250244,16.929536834182947,17.61765966951606,68.23211750096671,63.40308317601798,-0.0005504131549969,0.1052602156996727,0,0,0
5721,214349.7985191599,2011-01-05 22:10:52,2335.462486104213,7,22,-1.099568486213684,3.346515417098999,16.929536834182947,17.62682818854858,68.23211750096671,63.43387503896106,-0.0006475448608398,0.1052602156996727,0,0,0
5722,214379.81365038737,2011-01-05 22:11:22,2365.4776173316577,7,22,-1.0997490882873535,3.317052125930786,16.929536834182947,17.635996669388142,68.23211750096671,63.46442839938543,-0.0008741855854168,0.1052602156996727,0,0,0
5723,214409.8287943365,2011-01-05 22:11:52,2395.4927612657702,7,22,-1.099568486213684,3.2790088653564453,16.929536834182947,17.645165119542764,68.23211750096671,63.49467381763886,-0.0011008263099938,0.1052602156996727,0,0,0
5724,214439.84395312265,2011-01-05 22:12:22,2425.507920066936,7,22,-1.099568486213684,3.2278530597686768,16.929536834182947,17.654333572742015,68.23211750096671,63.5245138695602,-0.0015541076427325,0.1052602156996727,0,0,0
5725,214469.8612696716,2011-01-05 22:12:52,2455.5252366208856,7,22,-1.099568486213684,3.1579184532165527,16.929536834182947,17.66350270678475,68.23211750096671,63.55380690919971,-0.0021045207977294,0.1052602156996727,0,0,0
5726,214499.8742505146,2011-01-05 22:13:22,2485.5382174588976,7,22,-1.099568486213684,3.057549238204956,16.929536834182947,17.672670520161507,68.23211750096671,63.58232573715323,-0.0030758380889892,0.1052602156996727,0,0,0
5727,214529.88937584232,2011-01-05 22:13:52,2515.553342766588,7,22,-1.099568486213684,2.901977062225342,16.929536834182947,17.681839002955517,68.23211750096671,63.609699337455794,-0.0049860952422022,0.1052602156996727,0,0,0
5728,214556.54519872475,2011-01-05 22:14:18,2542.209165649002,7,22,-1.099568486213684,2.7018864154815674,16.929536834182947,17.689981051371515,68.23211750096671,63.63254268118369,-0.0064106462523341,0.1052602156996727,0,0,0
5729,214556.79524247567,2011-01-05 22:14:19,2542.459209399966,7,22,-1.099568486213684,2.699781894683838,16.929536834182947,17.690057423656206,68.23211750096671,63.63274895122015,-0.0065077780745923,0.1052602156996727,0,0,0
5730,214616.81231952264,2011-01-05 22:15:19,60.014907996853694,8,22,0.0,3.51892352104187,16.929536834182947,17.690057423656206,68.23211750096671,63.63274895122015,0.0013274669181555,0.1052602156996727,0,0,0
5731,214617.00277218624,2011-01-05 22:15:19,0.187518769471606,9,22,-1.9243103452026844e-05,3.51908540725708,16.929536834182947,17.69005742465855,68.23211750096671,63.63274895474749,0.0,0.099682405591011,0,0,0
5732,214621.8309233144,2011-01-05 22:15:24,5.015669922730498,9,22,0.0008838032954372,3.527017831802368,16.92953766840795,17.69005742474298,68.23212044057054,63.632748955044605,0.0011332035064697,0.099682405591011,0,0,0
