Data_Point,Test_Time(s),Date_Time,Step_Time(s),Step_Index,Cycle_Index,Current(A),Voltage(V),Charge_Capacity(Ah),Discharge_Capacity(Ah),Charge_Energy(Wh),Discharge_Energy(Wh),dV/dt(V/s),Internal_Resistance(Ohm),Is_FC_Data,AC_Impedance(Ohm),ACI_Phase_Angle(Deg)
988,35692.00390232693,2011-01-03 20:32:52,30.013268520003702,1,5,0.0,3.5169808864593506,2.629054657534211,3.428693237327076,10.555180820021032,12.431023476645157,0.0008418083307333,0.0978845432400703,0,0,0
989,35722.01880439322,2011-01-03 20:33:22,60.02817058129492,1,5,0.0,3.5427207946777344,2.629054657534211,3.428693237327076,10.555180820021032,12.431023476645157,0.0006151676061563,0.0978845432400703,0,0,0
990,35752.03404702833,2011-01-03 20:33:52,90.04341320637589,1,5,0.0,3.56133770942688,2.629054657534211,3.428693237327076,10.555180820021032,12.431023476645157,0.0003885269106831,0.0978845432400703,0,0,0
991,35782.00241539334,2011-01-03 20:34:22,120.01178159142786,1,5,0.0,3.5760693550109863,2.629054657534211,3.428693237327076,10.555180820021032,12.431023476645157,0.0003237724304199,0.0978845432400703,0,0,0
992,35812.01906391609,2011-01-03 20:34:52,30.015263366775656,2,5,0.5499359965324402,3.711891412734986,2.633640746361006,3.428693237327076,10.572086183460874,12.431023476645157,0.0011008263099938,0.0978845432400703,0,0,0
993,35842.034081269725,2011-01-03 20:35:22,60.03028067529844,2,5,0.5501165986061096,3.7442686557769775,2.638226848430538,3.428693237327076,10.589189223596808,12.431023476645157,0.0007122993702068,0.0978845432400703,0,0,0
994,35872.049206131305,2011-01-03 20:35:52,90.04540556695147,2,5,0.550297200679779,3.766284942626953,2.642812990000175,3.428693237327076,10.606413936186929,12.431023476645157,0.0005504131549969,0.0978845432400703,0,0,0
995,35902.064358431264,2011-01-03 20:36:22,120.06055786691446,2,5,0.5501165986061096,3.78069281578064,2.647399122747917,3.428693237327076,10.623721372441544,12.431023476645157,0.0003237724304199,0.0978845432400703,0,0,0
996,35932.07962940199,2011-01-03 20:36:52,150.075828832629,2,5,0.5501165986061096,3.789920330047608,2.651985309517295,3.428693237327076,10.641082559140363,12.431023476645157,0.0001942634553415,0.0978845432400703,0,0,0
997,35962.09462544752,2011-01-03 20:37:22,180.0908248581079,2,5,0.5501165986061096,3.796557664871216,2.656571415401553,3.428693237327076,10.658479599528825,12.431023476645157,0.0001295089750783,0.0978845432400703,0,0,0
998,35992.1097484645,2011-01-03 20:37:52,210.1059479001511,2,5,0.5501165986061096,3.8027093410491934,2.661157568149765,3.428693237327076,10.675905783432054,12.431023476645157,0.0001618862152099,0.0978845432400703,0,0,0
999,36022.12488755654,2011-01-03 20:38:22,240.1210869972084,2,5,0.5501165986061096,3.808213472366333,2.665743701996132,3.428693237327076,10.69335798356238,12.431023476645157,0.0001618862152099,0.0978845432400703,0,0,0
1000,36052.14014708375,2011-01-03 20:38:52,270.13634649935227,2,5,0.5501165986061096,3.813393831253052,2.67032987444968,3.428693237327076,10.710834777449447,12.431023476645157,0.0001295089750783,0.0978845432400703,0,0,0
1001,36082.157565271,2011-01-03 20:39:22,300.15376472169095,2,5,0.5499359965324402,3.818250417709351,2.674916364782248,3.428693237327076,10.728336241880887,12.431023476645157,0.0001295089750783,0.0978845432400703,0,0,0
1002,36112.17044303714,2011-01-03 20:39:52,330.1666424627533,2,5,0.550297200679779,3.8231070041656494,2.67950210499844,3.428693237327076,10.745857024746856,12.431023476645157,0.0001618862152099,0.0978845432400703,0,0,0
1003,36142.18550271124,2011-01-03 20:40:22,360.1817021468892,2,5,0.5499359965324402,3.827639818191528,2.684088230513447,3.428693237327076,10.76340063941681,12.431023476645157,9.713172767078504e-05,0.0978845432400703,0,0,0
1004,36172.20069776777,2011-01-03 20:40:52,390.19689720341466,2,5,0.5499359965324402,3.8321726322174072,2.688674406615244,3.428693237327076,10.780965190935706,12.431023476645157,9.713172767078504e-05,0.0978845432400703,0,0,0
1005,36202.217637352194,2011-01-03 20:41:22,420.213836792853,2,5,0.5501165986061096,3.836381435394287,2.693260790138466,3.428693237327076,10.798550594240403,12.431023476645157,9.713172767078504e-05,0.0978845432400703,0,0,0
1006,36232.2310970236,2011-01-03 20:41:52,450.2272965444647,2,5,0.5499359965324402,3.840590476989746,2.697846657516328,3.428693237327076,10.81615382452556,12.431023476645157,9.713172767078504e-05,0.0978845432400703,0,0,0
1007,36262.24598160132,2011-01-03 20:42:22,480.24218101190667,2,5,0.550297200679779,3.845123291015625,2.702432760597303,3.428693237327076,10.833777492281111,12.431023476645157,0.0001618862152099,0.0978845432400703,0,0,0
1008,36292.26112278859,2011-01-03 20:42:52,510.2573222292483,2,5,0.550297200679779,3.849170446395874,2.70701895356712,3.428693237327076,10.85142086991602,12.431023476645157,9.713172767078504e-05,0.0978845432400703,0,0,0
1009,36322.27627517877,2011-01-03 20:43:22,540.272474619436,2,5,0.5501165986061096,3.853379487991333,2.711605104099836,3.428693237327076,10.869083336646153,12.431023476645157,9.713172767078504e-05,0.0978845432400703,0,0,0
1010,36352.29160547736,2011-01-03 20:43:52,570.2878050784262,2,5,0.550297200679779,3.857588529586792,2.71619124486827,3.428693237327076,10.886764798422965,12.431023476645157,0.0001295089750783,0.0978845432400703,0,0,0
1011,36382.3065314683,2011-01-03 20:44:22,600.3027309089576,2,5,0.5499359965324402,3.861473798751831,2.720777361150615,3.428693237327076,10.904465176184727,12.431023476645157,6.47544875391759e-05,0.0978845432400703,0,0,0
1012,36412.32166594383,2011-01-03 20:44:52,630.3178653794843,2,5,0.5501165986061096,3.86552095413208,2.725363516610499,3.428693237327076,10.922184416030522,12.431023476645157,6.47544875391759e-05,0.0978845432400703,0,0,0
1013,36442.336817136034,2011-01-03 20:45:23,660.3330165466239,2,5,0.5501165986061096,3.869729995727539,2.729949684552711,3.428693237327076,10.939922269746113,12.431023476645157,9.713172767078504e-05,0.0978845432400703,0,0,0
1014,36472.35219752447,2011-01-03 20:45:53,690.3483971455781,2,5,0.5501165986061096,3.873615264892578,2.734535858948513,3.428693237327076,10.957678460344551,12.431023476645157,9.713172767078504e-05,0.0978845432400703,0,0,0
1015,36502.36707953578,2011-01-03 20:46:23,720.3632789513865,2,5,0.5499359965324402,3.877500534057617,2.739121954428307,3.428693237327076,10.975452193161026,12.431023476645157,9.713172767078504e-05,0.0978845432400703,0,0,0
1016,36532.38222326439,2011-01-03 20:46:53,750.3784226749746,2,5,0.5501165986061096,3.881385803222656,2.743708110214708,3.428693237327076,10.993243654256634,12.431023476645157,0.0001295089750783,0.0978845432400703,0,0,0
1017,36562.397379559305,2011-01-03 20:47:23,780.3935789698943,2,5,0.5501165986061096,3.8849472999572754,2.748294276955195,3.428693237327076,11.011052096209584,12.431023476645157,0.0001295089750783,0.0978845432400703,0,0,0
1018,36592.41249274178,2011-01-03 20:47:53,810.4086921824392,2,5,0.5501165986061096,3.888346910476685,2.752880424622372,3.428693237327076,11.028876703512772,12.431023476645157,9.713172767078504e-05,0.0978845432400703,0,0,0
1019,36622.42764536254,2011-01-03 20:48:23,840.423844803202,2,5,0.5501165986061096,3.8917465209960938,2.757466610314268,3.428693237327076,11.046717072482682,12.431023476645157,9.713172767078504e-05,0.0978845432400703,0,0,0
1020,36652.44276391339,2011-01-03 20:48:53,870.4389633490392,2,5,0.5501165986061096,3.894822359085083,2.762052802256699,3.428693237327076,11.064572299952696,12.431023476645157,6.47544875391759e-05,0.0978845432400703,0,0,0
1021,36682.46015461715,2011-01-03 20:49:23,900.4563540527931,2,5,0.5499359965324402,3.897574424743652,2.766639247210459,3.428693237327076,11.082442190962867,12.431023476645157,6.47544875391759e-05,0.0978845432400703,0,0,0
1022,36712.4731745526,2011-01-03 20:49:53,930.4693739982724,2,5,0.5497553944587708,3.9006502628326416,2.771225064853178,3.428693237327076,11.10032303674009,12.431023476645157,9.713172767078504e-05,0.0978845432400703,0,0,0
1023,36742.48822646737,2011-01-03 20:50:23,960.4844259782072,2,5,0.5499359965324402,3.903402328491211,2.775811157297961,3.428693237327076,11.118217689940172,12.431023476645157,0.0001295089750783,0.0978845432400703,0,0,0
1024,36772.50334190546,2011-01-03 20:50:53,990.4995413210617,2,5,0.5501165986061096,3.9056687355041504,2.780397733619928,3.428693237327076,11.13612629183256,12.431023476645157,6.47544875391759e-05,0.0978845432400703,0,0,0
1025,36802.518469158,2011-01-03 20:51:23,1020.5146685735988,2,5,0.5501165986061096,3.90842080116272,2.784984745273455,3.428693237327076,11.154048037176215,12.431023476645157,9.713172767078504e-05,0.0978845432400703,0,0,0
1026,36832.53373814879,2011-01-03 20:51:53,1050.5299375744162,2,5,0.5499359965324402,3.910525321960449,2.789571315266801,3.428693237327076,11.171978971541169,12.431023476645157,3.237724376958795e-05,0.0978845432400703,0,0,0
1027,36862.548786394414,2011-01-03 20:52:23,1080.5449858200438,2,5,0.5499359965324402,3.9126298427581783,2.794157355113427,3.428693237327076,11.189918290495076,12.431023476645157,3.237724376958795e-05,0.0978845432400703,0,0,0
1028,36892.56391142141,2011-01-03 20:52:53,1110.5601108370092,2,5,0.550297200679779,3.915219783782959,2.798743494186319,3.428693237327076,11.207868211960262,12.431023476645157,9.713172767078504e-05,0.0978845432400703,0,0,0
1029,36922.5813920543,2011-01-03 20:53:23,1140.577591489944,2,5,0.5501165986061096,3.917000532150269,2.803330036824299,3.428693237327076,11.225829492504069,12.431023476645157,6.47544875391759e-05,0.0978845432400703,0,0,0
1030,36952.59416968085,2011-01-03 20:53:53,1170.5903690864152,2,5,0.5499359965324402,3.919105052947998,2.807915787295343,3.428693237327076,11.243797307030343,12.431023476645157,3.237724376958795e-05,0.0978845432400703,0,0,0
1031,36982.60932857223,2011-01-03 20:54:23,1200.6055280078813,2,5,0.5497553944587708,3.920885801315308,2.812501906037716,3.428693237327076,11.261775952793167,12.431023476645157,0.0,0.0978845432400703,0,0,0
1032,37012.62443800536,2011-01-03 20:54:53,1230.6206374109315,2,5,0.5501165986061096,3.923314094543457,2.817088038751536,3.428693237327076,11.2797639127755,12.431023476645157,6.47544875391759e-05,0.0978845432400703,0,0,0
1033,37042.63959032537,2011-01-03 20:55:23,1260.6357897359574,2,5,0.5501165986061096,3.925256729125977,2.821674180358233,3.428693237327076,11.297761070643594,12.431023476645157,9.713172767078504e-05,0.0978845432400703,0,0,0
1034,37072.65483659954,2011-01-03 20:55:53,1290.6510360402078,2,5,0.5501165986061096,3.927199363708496,2.826260405017979,3.428693237327076,11.315767543811148,12.431023476645157,3.237724376958795e-05,0.0978845432400703,0,0,0
1035,37102.66985288051,2011-01-03 20:56:23,1320.6660522860825,2,5,0.5499359965324402,3.929141998291016,2.830846538228988,3.428693237327076,11.333782630640878,12.431023476645157,3.237724376958795e-05,0.0978845432400703,0,0,0
1036,37132.68499488982,2011-01-03 20:56:53,1350.6811942953975,2,5,0.5501165986061096,3.931246519088745,2.835432605531655,3.428693237327076,11.35180641132322,12.431023476645157,9.713172767078504e-05,0.0978845432400703,0,0,0
1037,37162.70015090905,2011-01-03 20:57:23,1380.6963503246552,2,5,0.5501165986061096,3.933027267456055,2.840018735551963,3.428693237327076,11.369839257652847,12.431023476645157,3.237724376958795e-05,0.0978845432400703,0,0,0
1038,37192.715288357,2011-01-03 20:57:53,1410.7114877926526,2,5,0.5499359965324402,3.934808015823364,2.844604843735437,3.428693237327076,11.38788090163955,12.431023476645157,0.0,0.0978845432400703,0,0,0
1039,37222.730449148126,2011-01-03 20:58:23,1440.7266485887906,2,5,0.5501165986061096,3.9369125366210938,2.849191032880002,3.428693237327076,11.405931676324329,12.431023476645157,6.47544875391759e-05,0.0978845432400703,0,0,0
1040,37252.74553083711,2011-01-03 20:58:53,1470.7417302426818,2,5,0.5499359965324402,3.938855171203613,2.853777093681783,3.428693237327076,11.423990794744649,12.431023476645157,6.47544875391759e-05,0.0978845432400703,0,0,0
1041,37282.76263109197,2011-01-03 20:59:23,1500.758830532635,2,5,0.5501165986061096,3.940797805786133,2.858363538424406,3.428693237327076,11.442060253434752,12.431023476645157,6.47544875391759e-05,0.0978845432400703,0,0,0
1042,37312.77581823416,2011-01-03 20:59:53,1530.7720176698078,2,5,0.5499359965324402,3.9425785541534415,2.862949411730791,3.428693237327076,11.460136244132286,12.431023476645157,3.237724376958795e-05,0.0978845432400703,0,0,0
1043,37342.79095151171,2011-01-03 21:00:23,1560.787150917286,2,5,0.5501165986061096,3.944521188735962,2.86753556026513,3.428693237327076,11.478222070983502,12.431023476645157,6.47544875391759e-05,0.0978845432400703,0,0,0
1044,37372.80606520044,2011-01-03 21:00:53,1590.8022646110303,2,5,0.5501165986061096,3.9464638233184814,2.872121695522967,3.428693237327076,11.496316486928327,12.431023476645157,3.237724376958795e-05,0.0978845432400703,0,0,0
1045,37402.82122556551,2011-01-03 21:01:23,1620.8174250011568,2,5,0.5499359965324402,3.948082685470581,2.876707857654739,3.428693237327076,11.514419399446504,12.431023476645157,3.237724376958795e-05,0.0978845432400703,0,0,0
1046,37432.83650801484,2011-01-03 21:01:53,1650.8327074354545,2,5,0.5501165986061096,3.950187206268311,2.88129396749066,3.428693237327076,11.532530622610336,12.431023476645157,6.47544875391759e-05,0.0978845432400703,0,0,0
1047,37462.8515213284,2011-01-03 21:02:23,1680.8477207389956,2,5,0.5501165986061096,3.95196795463562,2.885880058548137,3.428693237327076,11.5506502722114,12.431023476645157,3.237724376958795e-05,0.0978845432400703,0,0,0
1048,37492.86668787388,2011-01-03 21:02:53,1710.8628872844629,2,5,0.5499359965324402,3.9537487030029297,2.890466153763858,3.428693237327076,11.568778344016984,12.431023476645157,6.47544875391759e-05,0.0978845432400703,0,0,0
1049,37522.88181931184,2011-01-03 21:03:23,1740.8780187224313,2,5,0.5501165986061096,3.955691337585449,2.895052252480153,3.428693237327076,11.58691484263672,12.431023476645157,9.713172767078504e-05,0.0978845432400703,0,0,0
1050,37552.89734192975,2011-01-03 21:03:53,1770.8935413603906,2,5,0.5501165986061096,3.957310199737549,2.899638452135895,3.428693237327076,11.605060072236622,12.431023476645157,6.47544875391759e-05,0.0978845432400703,0,0,0
1051,37582.91209147092,2011-01-03 21:04:23,1800.9082909216047,2,5,0.550297200679779,3.959252834320069,2.904224581096879,3.428693237327076,11.62321332640356,12.431023476645157,3.237724376958795e-05,0.0978845432400703,0,0,0
1052,37612.92739646143,2011-01-03 21:04:53,1830.923595897082,2,5,0.5501165986061096,3.961033582687378,2.908810748026967,3.428693237327076,11.641375038286323,12.431023476645157,6.47544875391759e-05,0.0978845432400703,0,0,0
1053,37642.94260215948,2011-01-03 21:05:23,1860.938801570067,2,5,0.5499359965324402,3.9626524448394775,2.913397004832581,3.428693237327076,11.659545384610436,12.431023476645157,3.237724376958795e-05,0.0978845432400703,0,0,0
1054,37672.95764262071,2011-01-03 21:05:53,1890.9538420463307,2,5,0.550297200679779,3.964918851852417,2.917983233754698,3.428693237327076,11.677723875777382,12.431023476645157,9.713172767078504e-05,0.0978845432400703,0,0,0
1055,37702.97265582901,2011-01-03 21:06:23,1920.9688552646592,2,5,0.5499359965324402,3.966375827789306,2.922569451356023,3.428693237327076,11.695910556446426,12.431023476645157,6.47544875391759e-05,0.0978845432400703,0,0,0
1056,37732.98780035459,2011-01-03 21:06:53,1950.983999765184,2,5,0.5501165986061096,3.968156576156616,2.927155706667038,3.428693237327076,11.714105647153968,12.431023476645157,3.237724376958795e-05,0.0978845432400703,0,0,0
1057,37763.00295453424,2011-01-03 21:07:23,1980.9991539698945,2,5,0.5501165986061096,3.969937324523926,2.931741920687131,3.428693237327076,11.73230889327909,12.431023476645157,3.237724376958795e-05,0.0978845432400703,0,0,0
1058,37793.01821611658,2011-01-03 21:07:53,2011.014415537185,2,5,0.5501165986061096,3.971879959106445,2.936328231669547,3.428693237327076,11.750520826192776,12.431023476645157,3.237724376958795e-05,0.0978845432400703,0,0,0
1059,37823.03324772573,2011-01-03 21:08:23,2041.029447161387,2,5,0.5501165986061096,3.973660707473755,2.940914499722755,3.428693237327076,11.768740957275426,12.431023476645157,3.237724376958795e-05,0.0978845432400703,0,0,0
1060,37853.04837622138,2011-01-03 21:08:53,2071.044575626948,2,5,0.5501165986061096,3.9756033420562735,2.945500741393015,3.428693237327076,11.786969330630743,12.431023476645157,9.713172767078504e-05,0.0978845432400703,0,0,0
1061,37883.065515308015,2011-01-03 21:09:23,2101.061714728632,2,5,0.5501165986061096,3.977384090423584,2.950087276333203,3.428693237327076,11.805207301377832,12.431023476645157,6.47544875391759e-05,0.0978845432400703,0,0,0
1062,37913.07867925239,2011-01-03 21:09:53,2131.074878662976,2,5,0.5501165986061096,3.9791648387908936,2.954673149848231,3.428693237327076,11.82345063496636,12.431023476645157,6.47544875391759e-05,0.0978845432400703,0,0,0
1063,37943.09382359251,2011-01-03 21:10:23,2161.0900230281622,2,5,0.550297200679779,3.981269359588623,2.959259326779404,3.428693237327076,11.841704076987988,12.431023476645157,9.713172767078504e-05,0.0978845432400703,0,0,0
1064,37973.10898550644,2011-01-03 21:10:53,2191.105184917024,2,5,0.5501165986061096,3.982888221740722,2.96384553455434,3.428693237327076,11.859966178594902,12.431023476645157,6.47544875391759e-05,0.0978845432400703,0,0,0
1065,38003.12643991396,2011-01-03 21:11:23,2221.122639424797,2,5,0.5499359965324402,3.984668970108032,2.968432107389545,3.428693237327076,11.878238212368387,12.431023476645157,3.237724376958795e-05,0.0978845432400703,0,0,0
1066,38033.13930589572,2011-01-03 21:11:53,2251.1355053313646,2,5,0.5501165986061096,3.986611604690552,2.973017979906984,3.428693237327076,11.896516030413812,12.431023476645157,3.237724376958795e-05,0.0978845432400703,0,0,0
1067,38063.1544295994,2011-01-03 21:12:23,2281.1506290150064,2,5,0.5499359965324402,3.988392353057861,2.977604176185834,3.428693237327076,11.914803738652536,12.431023476645157,3.237724376958795e-05,0.0978845432400703,0,0,0
1068,38093.16962910703,2011-01-03 21:12:53,2311.1658286128504,2,5,0.550297200679779,3.990496873855591,2.982190374491903,3.428693237327076,11.933100128716832,12.431023476645157,6.47544875391759e-05,0.0978845432400703,0,0,0
1069,38123.18663170852,2011-01-03 21:13:23,2341.1828311241093,2,5,0.5501165986061096,3.992277622222901,2.986776838233367,3.428693237327076,11.95140630177985,12.431023476645157,6.47544875391759e-05,0.0978845432400703,0,0,0
1070,38153.19996773677,2011-01-03 21:13:53,2371.196167152364,2,5,0.5501165986061096,3.994220018386841,2.991362780856926,3.428693237327076,11.96971922909738,12.431023476645157,3.237724376958795e-05,0.0978845432400703,0,0,0
1071,38183.215038924565,2011-01-03 21:14:23,2401.211238330146,2,5,0.5499359965324402,3.99616265296936,2.995948969716652,3.428693237327076,11.988042075546677,12.431023476645157,3.237724376958795e-05,0.0978845432400703,0,0,0
1072,38213.23023014654,2011-01-03 21:14:53,2431.2264295621394,2,5,0.5501165986061096,3.99826717376709,3.000535237870838,3.428693237327076,12.006374296916285,12.431023476645157,6.47544875391759e-05,0.0978845432400703,0,0,0
1073,38243.245378571846,2011-01-03 21:15:23,2461.2415779924577,2,5,0.5501165986061096,4.000209808349609,3.005121392903364,3.428693237327076,12.02471499834908,12.431023476645157,9.713172767078504e-05,0.0978845432400703,0,0,0
1074,38273.26063455522,2011-01-03 21:15:53,2491.256833985857,2,5,0.5499359965324402,4.002152442932129,3.00970754761975,3.428693237327076,12.043064966487954,12.431023476645157,6.47544875391759e-05,0.0978845432400703,0,0,0
1075,38303.2756695829,2011-01-03 21:16:23,2521.271868993492,2,5,0.5499359965324402,4.004095077514648,3.014293750119358,3.428693237327076,12.061424447533737,12.431023476645157,0.0,0.0978845432400703,0,0,0
1076,38333.29094614256,2011-01-03 21:16:53,2551.28714557821,2,5,0.5501165986061096,4.006199836730957,3.018879927468777,3.428693237327076,12.079793259198956,12.431023476645157,0.0,0.0978845432400703,0,0,0
1077,38363.305959526304,2011-01-03 21:17:24,2581.3021589419013,2,5,0.5499359965324402,4.008142471313477,3.023466123602261,3.428693237327076,12.098171715488494,12.431023476645157,0.0,0.0978845432400703,0,0,0
1078,38393.32111272851,2011-01-03 21:17:54,2611.317312169176,2,5,0.550297200679779,4.010570526123047,3.028052318826666,3.428693237327076,12.116559709359011,12.431023476645157,6.47544875391759e-05,0.0978845432400703,0,0,0
1079,38423.336268848,2011-01-03 21:18:24,2641.332468283645,2,5,0.550297200679779,4.012675285339356,3.032638483170592,3.428693237327076,12.134957330620846,12.431023476645157,6.47544875391759e-05,0.0978845432400703,0,0,0
1080,38453.35157474076,2011-01-03 21:18:54,2671.347774176409,2,5,0.550297200679779,4.014941692352295,3.037224687249558,3.428693237327076,12.15336499022578,12.431023476645157,9.71794142969884e-05,0.0978845432400703,0,0,0
1081,38483.36852184393,2011-01-03 21:19:24,2701.364721259524,2,5,0.550297200679779,4.017208099365234,3.041811178267266,3.428693237327076,12.171783703419006,12.431023476645157,9.71794142969884e-05,0.0978845432400703,0,0,0
1082,38513.38180353676,2011-01-03 21:19:54,2731.378002952358,2,5,0.5501165986061096,4.019150733947754,3.046397152486656,3.428693237327076,12.190210442076037,12.431023476645157,6.47544875391759e-05,0.0978845432400703,0,0,0
1083,38543.39690343111,2011-01-03 21:20:24,2761.393102856736,2,5,0.5501165986061096,4.021417140960693,3.050983393929045,3.428693237327076,12.208648290667544,12.431023476645157,3.24249267578125e-05,0.0978845432400703,0,0,0
1084,38573.41207396151,2011-01-03 21:20:54,2791.4082733771093,2,5,0.5501165986061096,4.023683547973633,3.055569675327661,3.428693237327076,12.227096709730016,12.431023476645157,6.47544875391759e-05,0.0978845432400703,0,0,0
1085,38603.42744212947,2011-01-03 21:21:24,2821.423641565132,2,5,0.5499359965324402,4.025949954986572,3.06015596862176,3.428693237327076,12.245555581569144,12.431023476645157,3.24249267578125e-05,0.0978845432400703,0,0,0
1086,38633.442625842734,2011-01-03 21:21:54,2851.438825258336,2,5,0.5501165986061096,4.028216361999512,3.064742285914994,3.428693237327076,12.2640251722292,12.431023476645157,3.24249267578125e-05,0.0978845432400703,0,0,0
1087,38663.457552279775,2011-01-03 21:22:24,2881.4537517204417,2,5,0.5501165986061096,4.030644416809082,3.069328536330944,3.428693237327076,12.282505177220091,12.431023476645157,6.47544875391759e-05,0.0978845432400703,0,0,0
1088,38693.47285501468,2011-01-03 21:22:54,2911.46905444531,2,5,0.5501165986061096,4.0330729484558105,3.073914801189396,3.428693237327076,12.300995985091388,12.431023476645157,6.47544875391759e-05,0.0978845432400703,0,0,0
1089,38723.4878838419,2011-01-03 21:23:24,2941.484083252491,2,5,0.5499359965324402,4.035338878631592,3.078501097825634,3.428693237327076,12.319497914622008,12.431023476645157,6.47544875391759e-05,0.0978845432400703,0,0,0
1090,38753.50302584119,2011-01-03 21:23:54,2971.499225251782,2,5,0.5501165986061096,4.037929058074951,3.083087365743705,3.428693237327076,12.338010826734642,12.431023476645157,6.47544875391759e-05,0.0978845432400703,0,0,0
1091,38783.51819427135,2011-01-03 21:24:24,3001.514393676933,2,5,0.5501165986061096,4.04035758972168,3.087673668555463,3.428693237327076,12.356535086541069,12.431023476645157,9.71794142969884e-05,0.0978845432400703,0,0,0
1092,38813.53335424043,2011-01-03 21:24:54,3031.5295536460094,2,5,0.5497553944587708,4.042623996734619,3.092259985724782,3.428693237327076,12.375070719082425,12.431023476645157,3.24249267578125e-05,0.0978845432400703,0,0,0
1093,38843.55086223651,2011-01-03 21:25:24,3061.547061652117,2,5,0.5499359965324402,4.0452141761779785,3.09684582200211,3.428693237327076,12.393615810495929,12.431023476645157,6.47544875391759e-05,0.0978845432400703,0,0,0
1094,38873.56371044397,2011-01-03 21:25:54,3091.5599098695984,2,5,0.5499359965324402,4.047804355621338,3.10143085041012,3.428693237327076,12.412169130542072,12.431023476645157,6.47544875391759e-05,0.0978845432400703,0,0,0
1095,38903.57883226297,2011-01-03 21:26:24,3121.575031673556,2,5,0.5501165986061096,4.050394535064697,3.106016226856899,3.428693237327076,12.43073559662859,12.431023476645157,6.47544875391759e-05,0.0978845432400703,0,0,0
1096,38933.59400461792,2011-01-03 21:26:54,3151.5902040535643,2,5,0.5499359965324402,4.052984714508057,3.110601644810447,3.428693237327076,12.449313926112715,12.431023476645157,9.71794142969884e-05,0.0978845432400703,0,0,0
1097,38963.609234796975,2011-01-03 21:27:24,3181.605434207563,2,5,0.5501165986061096,4.055574893951416,3.115187882083385,3.428693237327076,12.46790765269022,12.431023476645157,9.71794142969884e-05,0.0978845432400703,0,0,0
1098,38993.62445779313,2011-01-03 21:27:54,3211.620657208736,2,5,0.5497553944587708,4.058165073394775,3.119774242954672,3.428693237327076,12.486513917426526,12.431023476645157,6.47544875391759e-05,0.0978845432400703,0,0,0
1099,39023.63949815912,2011-01-03 21:28:24,3241.635697569712,2,5,0.5501165986061096,4.060593128204346,3.124360570457986,3.428693237327076,12.505132164200518,12.431023476645157,0.0,0.0978845432400703,0,0,0
1100,39053.654667220864,2011-01-03 21:28:54,3271.650866656513,2,5,0.550297200679779,4.063507080078125,3.128946888060121,3.428693237327076,12.523762286629804,12.431023476645157,9.70840483205393e-05,0.0978845432400703,0,0,0
1101,39083.671806257385,2011-01-03 21:29:24,3301.668005778248,2,5,0.5501165986061096,4.066097259521484,3.133533482648393,3.428693237327076,12.542405999058246,12.431023476645157,3.23295607813634e-05,0.0978845432400703,0,0,0
1102,39113.6850094997,2011-01-03 21:29:54,3331.681208930334,2,5,0.5499359965324402,4.068849563598633,3.13811948469365,3.428693237327076,12.561059874282392,12.431023476645157,3.24249267578125e-05,0.0978845432400703,0,0,0
1103,39143.70016700764,2011-01-03 21:30:24,3361.696366413214,2,5,0.5501165986061096,4.071763515472412,3.142705778586818,3.428693237327076,12.579727607697691,12.431023476645157,9.71794142969884e-05,0.0978845432400703,0,0,0
1104,39173.71533789894,2011-01-03 21:30:54,3391.7115373045126,2,5,0.550297200679779,4.074515342712402,3.147292057612561,3.428693237327076,12.598408086071558,12.431023476645157,6.47544875391759e-05,0.0978845432400703,0,0,0
1105,39203.73054437392,2011-01-03 21:31:24,3421.7267437794967,2,5,0.5499359965324402,4.077267646789551,3.151878346125593,3.428693237327076,12.617101475062595,12.431023476645157,3.24249267578125e-05,0.0978845432400703,0,0,0
1106,39233.74580587104,2011-01-03 21:31:54,3451.7420052966622,2,5,0.5499359965324402,4.08018159866333,3.156464580801645,3.428693237327076,12.635807759899665,12.431023476645157,6.47544875391759e-05,0.0978845432400703,0,0,0
1107,39263.76085486854,2011-01-03 21:32:24,3481.7570542741137,2,5,0.550297200679779,4.083095550537109,3.161050871068657,3.428693237327076,12.654527549226115,12.431023476645157,3.24249267578125e-05,0.0978845432400703,0,0,0
1108,39293.77617315219,2011-01-03 21:32:54,3511.772372597859,2,5,0.550297200679779,4.08617115020752,3.165637180127245,3.428693237327076,12.673260875587795,12.431023476645157,9.70840483205393e-05,0.0978845432400703,0,0,0
1109,39323.79121927252,2011-01-03 21:33:24,3541.787418708165,2,5,0.550297200679779,4.089085102081299,3.170223399107493,3.428693237327076,12.69200733232466,12.431023476645157,6.47544875391759e-05,0.0978845432400703,0,0,0
1110,39353.80649760659,2011-01-03 21:33:54,3571.8026970221936,2,5,0.5499359965324402,4.091837406158447,3.174809725788718,3.428693237327076,12.710767905761823,12.431023476645157,3.24249267578125e-05,0.0978845432400703,0,0,0
1111,39383.82154844869,2011-01-03 21:34:24,3601.8177478642924,2,5,0.5501165986061096,4.095075130462647,3.179395944490571,3.428693237327076,12.729541725469806,12.431023476645157,6.47544875391759e-05,0.0978845432400703,0,0,0
1112,39413.83675045253,2011-01-03 21:34:54,3631.832949868133,2,5,0.5499359965324402,4.097989082336426,3.18398221777577,3.428693237327076,12.748329583627347,12.431023476645157,6.47544875391759e-05,0.0978845432400703,0,0,0
1113,39443.85192904302,2011-01-03 21:35:24,3661.848128448594,2,5,0.5501165986061096,4.101064682006836,3.188568506422022,3.428693237327076,12.767131526527068,12.431023476645157,6.47544875391759e-05,0.0978845432400703,0,0,0
1114,39473.86748477346,2011-01-03 21:35:54,3691.863684194069,2,5,0.5499359965324402,4.104140758514404,3.193154928829031,3.428693237327076,12.785948129911247,12.431023476645157,6.47544875391759e-05,0.0978845432400703,0,0,0
1115,39503.88228341199,2011-01-03 21:36:24,3721.878482817561,2,5,0.550297200679779,4.107378482818604,3.197741180310726,3.428693237327076,12.804778312112488,12.431023476645157,9.71794142969884e-05,0.0978845432400703,0,0,0
1116,39533.89737594298,2011-01-03 21:36:54,3751.8935753635983,2,5,0.5501165986061096,4.110454082489014,3.202327464767774,3.428693237327076,12.823622953729847,12.431023476645157,9.70840483205393e-05,0.0978845432400703,0,0,0
1117,39563.91285138331,2011-01-03 21:37:24,3781.9090507989135,2,5,0.550297200679779,4.113691806793213,3.206913880549199,3.428693237327076,12.842482642353549,12.431023476645157,9.70840483205393e-05,0.0978845432400703,0,0,0
1118,39593.92789601494,2011-01-03 21:37:54,3811.924095445572,2,5,0.5499359965324402,4.116767406463623,3.211500183525603,3.428693237327076,12.861356458572848,12.431023476645157,3.23295607813634e-05,0.0978845432400703,0,0,0
1119,39623.943013442986,2011-01-03 21:38:24,3841.939212858586,2,5,0.5501165986061096,4.120167255401611,3.216086450588752,3.428693237327076,12.880244877141084,12.431023476645157,9.71794142969884e-05,0.0978845432400703,0,0,0
1120,39653.95820928647,2011-01-03 21:38:54,3871.954408692048,2,5,0.5501165986061096,4.1232428550720215,3.220672734529008,3.428693237327076,12.899148331323223,12.431023476645157,6.47544875391759e-05,0.0978845432400703,0,0,0
1121,39683.97539011717,2011-01-03 21:39:24,3901.9715895377713,2,5,0.5501165986061096,4.12664270401001,3.225259253871961,3.428693237327076,12.918067735167964,12.431023476645157,9.71794142969884e-05,0.0978845432400703,0,0,0
1122,39713.98862898325,2011-01-03 21:39:54,3931.9848284088807,2,5,0.550297200679779,4.13004207611084,3.229845178060892,3.428693237327076,12.936999919531956,12.431023476645157,6.47544875391759e-05,0.0978845432400703,0,0,0
1123,39744.00378958391,2011-01-03 21:40:24,3961.9999890045183,2,5,0.5501165986061096,4.133279800415039,3.234431463939499,3.428693237327076,12.955948975725097,12.431023476645157,6.47544875391759e-05,0.0978845432400703,0,0,0
1124,39774.01895366323,2011-01-03 21:40:54,3992.0151530738153,2,5,0.5501165986061096,4.136679649353027,3.239017762367721,3.428693237327076,12.974913457522396,12.431023476645157,9.71794142969884e-05,0.0978845432400703,0,0,0
1125,39804.034152469096,2011-01-03 21:41:24,4022.030351879685,2,5,0.5499359965324402,4.140241146087647,3.243604035660697,3.428693237327076,12.993893448442275,12.431023476645157,0.0001295089750783,0.0978845432400703,0,0,0
1126,39834.0493977909,2011-01-03 21:41:54,4052.045597201487,2,5,0.5501165986061096,4.143478870391846,3.248190344551242,3.428693237327076,13.01288929138516,12.431023476645157,6.47544875391759e-05,0.0978845432400703,0,0,0
1127,39864.06453185541,2011-01-03 21:42:24,4082.060731271014,2,5,0.5501165986061096,4.147040367126465,3.252776600600362,3.428693237327076,13.03190093578743,12.431023476645157,6.47544875391759e-05,0.0978845432400703,0,0,0
1128,39894.07971659623,2011-01-03 21:42:54,4112.075916006817,2,5,0.5499359965324402,4.150439739227295,3.257362829147893,3.428693237327076,13.050928443354728,12.431023476645157,3.23295607813634e-05,0.0978845432400703,0,0,0
1129,39924.09728953918,2011-01-03 21:43:24,4142.09348905503,2,5,0.5499359965324402,4.153839588165283,3.261949377396537,3.428693237327076,13.069973300447494,12.431023476645157,3.24249267578125e-05,0.0978845432400703,0,0,0
1130,39954.1100904688,2011-01-03 21:43:54,4172.106289884404,2,5,0.5501165986061096,4.157724857330322,3.266535186431108,3.428693237327076,13.089031158817225,12.431023476645157,0.0001295089750783,0.0978845432400703,0,0,0
1131,39984.1252812196,2011-01-03 21:44:24,4202.121480630186,2,5,0.5501165986061096,4.161286354064941,3.271121419218151,3.428693237327076,13.108107052850468,12.431023476645157,0.0001619339018361,0.0978845432400703,0,0,0
1132,40014.14046900801,2011-01-03 21:44:54,4232.13666842361,2,5,0.5501165986061096,4.1648478507995605,3.275707656029955,3.428693237327076,13.127199364008057,12.431023476645157,0.0001295089750783,0.0978845432400703,0,0,0
1133,40044.15755134321,2011-01-03 21:45:24,4262.153750758815,2,5,0.5499359965324402,4.168247222900391,3.280294142314285,3.428693237327076,13.146309243964408,12.431023476645157,9.70840483205393e-05,0.0978845432400703,0,0,0
1134,40074.17103871867,2011-01-03 21:45:54,4292.167238159335,2,5,0.5499359965324402,4.171970844268799,3.284880096043903,3.428693237327076,13.165433537799093,12.431023476645157,9.71794142969884e-05,0.0978845432400703,0,0,0
1135,40104.186060373024,2011-01-03 21:46:24,4322.182259783614,2,5,0.5499359965324402,4.175532341003418,3.289466317444752,3.428693237327076,13.184575773752812,12.431023476645157,6.47544875391759e-05,0.0978845432400703,0,0,0
1136,40134.201422626254,2011-01-03 21:46:54,4352.197622076946,2,5,0.5501165986061096,4.179417610168457,3.294052547952986,3.428693237327076,13.203734890256245,12.431023476645157,0.0001295089750783,0.0978845432400703,0,0,0
1137,40164.21644933822,2011-01-03 21:47:24,4382.212648748805,2,5,0.5501165986061096,4.183140754699707,3.298638826676619,3.428693237327076,13.222911089144963,12.431023476645157,0.0001295089750783,0.0978845432400703,0,0,0
1138,40194.23178042878,2011-01-03 21:47:54,4412.227979864431,2,5,0.5501165986061096,4.186702251434326,3.303225083337721,3.428693237327076,13.242104141781622,12.431023476645157,6.47544875391759e-05,0.0978845432400703,0,0,0
1139,40224.24682286994,2011-01-03 21:48:24,4442.243022285543,2,5,0.5501165986061096,4.190587520599365,3.307811311633925,3.428693237327076,13.2613142616555,12.431023476645157,0.0001295089750783,0.0978845432400703,0,0,0
1140,40254.26215502315,2011-01-03 21:48:54,4472.258354448781,2,5,0.5501165986061096,4.194311141967773,3.312397563365505,3.428693237327076,13.28054175540496,12.431023476645157,9.71794142969884e-05,0.0978845432400703,0,0,0
1141,40284.27914447687,2011-01-03 21:49:25,4502.275343917533,2,5,0.5499359965324402,4.198034286499023,3.31698403152132,3.428693237327076,13.299787554538035,12.431023476645157,9.71794142969884e-05,0.0978845432400703,0,0,0
1142,40298.730273161054,2011-01-03 21:49:39,4516.726472596703,2,5,0.5501165986061096,4.200138568878174,3.319192156196829,3.428693237327076,13.309059581069803,12.431023476645157,0.0001295089750783,0.0978845432400703,0,0,0
1143,40328.74745478783,2011-01-03 21:50:09,30.01557534431969,3,5,0.0,4.109482765197754,3.319192193453881,3.428693237327076,13.309059737554584,12.431023476645157,-0.0003885269106831,0.0978845432400703,0,0,0
1144,40358.76229105013,2011-01-03 21:50:39,60.030411591582094,3,5,0.0,4.098312854766846,3.319192193453881,3.428693237327076,13.309059737554584,12.431023476645157,-0.0002265930233988,0.0978845432400703,0,0,0
1145,40388.77745685375,2011-01-03 21:51:09,90.04557739018786,3,5,0.0,4.091513633728027,3.319192193453881,3.428693237327076,13.309059737554584,12.431023476645157,-0.0001618385285837,0.0978845432400703,0,0,0
1146,40418.746051793445,2011-01-03 21:51:39,120.01417234993367,3,5,0.0,4.087142467498779,3.319192193453881,3.428693237327076,13.309059737554584,12.431023476645157,-9.71794142969884e-05,0.0978845432400703,0,0,0
1147,40418.76095837681,2011-01-03 21:51:39,0.015630771692526,4,5,0.9949572682380676,4.199814796447754,3.319196535008917,3.428693237327076,13.309077971281663,12.431023476645157,0.0,0.0978845432400703,0,0,0
1148,40419.7609271216,2011-01-03 21:51:40,1.015599521499738,4,5,0.9438448548316956,4.199814796447754,3.319464272149636,3.428693237327076,13.310202393978594,12.431023476645157,0.0,0.0978845432400703,0,0,0
1149,40421.87215944216,2011-01-03 21:51:42,3.126831822002529,4,5,0.8936354517936707,4.199814796447754,3.320001851726271,3.428693237327076,13.312460079163271,12.431023476645157,0.0,0.0978845432400703,0,0,0
1150,40424.97959272704,2011-01-03 21:51:45,6.234265101869275,4,5,0.8434261083602905,4.199653148651123,3.320750310835581,3.428693237327076,13.315603399379953,12.431023476645157,-3.23295607813634e-05,0.0978845432400703,0,0,0
1151,40429.22959275981,2011-01-03 21:51:50,10.48426514466825,4,5,0.7933973073959351,4.199653148651123,3.321715334638433,3.428693237327076,13.319656223097358,12.431023476645157,0.0,0.0978845432400703,0,0,0
1152,40434.79195529375,2011-01-03 21:51:55,16.04662767859897,4,5,0.7433685660362244,4.199653148651123,3.322901396446451,3.428693237327076,13.324637358197092,12.431023476645157,0.0,0.0978845432400703,0,0,0
1153,40442.08872305917,2011-01-03 21:52:03,23.343395434004748,4,5,0.6933397650718689,4.199814796447754,3.324355748699176,3.428693237327076,13.330745284947817,12.431023476645157,0.0,0.0978845432400703,0,0,0
1154,40451.82310332499,2011-01-03 21:52:12,33.07777572989605,4,5,0.6433110237121582,4.199814796447754,3.326159966653263,3.428693237327076,13.338322546989414,12.431023476645157,3.23295607813634e-05,0.0978845432400703,0,0,0
1155,40465.47900001635,2011-01-03 21:52:26,46.73367241124033,4,5,0.5932822227478027,4.199653148651123,3.32850053891085,3.428693237327076,13.348152338827813,12.431023476645157,0.0,0.0978845432400703,0,0,0
1156,40486.9943223046,2011-01-03 21:52:48,68.2489946794318,4,5,0.543253481388092,4.199653148651123,3.331885689865995,3.428693237327076,13.362369080335768,12.431023476645157,0.0,0.0978845432400703,0,0,0
1157,40525.07193482118,2011-01-03 21:53:26,106.3266071960116,4,5,0.4932246804237366,4.199653148651123,3.337339996445764,3.428693237327076,13.385275748093362,12.431023476645157,-6.47544875391759e-05,0.0978845432400703,0,0,0
1158,40596.36782429495,2011-01-03 21:54:37,177.62249666977698,4,5,0.4431959092617035,4.199814796447754,3.346571655996566,3.428693237327076,13.424046388615729,12.431023476645157,0.0,0.0978845432400703,0,0,0
1159,40701.61632007558,2011-01-03 21:56:22,282.87099244540235,4,5,0.3931671380996704,4.199653148651123,3.358774031613869,3.428693237327076,13.475293238467822,12.431023476645157,-3.23295607813634e-05,0.0978845432400703,0,0,0
1160,40832.14573118596,2011-01-03 21:58:33,413.40040356581017,4,5,0.3431383967399597,4.199814796447754,3.372104289901304,3.428693237327076,13.531276943407052,12.431023476645157,3.23295607813634e-05,0.0978845432400703,0,0,0
1161,40989.45598980861,2011-01-03 22:01:10,570.7106621884543,4,5,0.2931096255779266,4.199653148651123,3.385987384183688,3.428693237327076,13.589582423558555,12.431023476645157,0.0,0.0978845432400703,0,0,0
1162,41181.1098466202,2011-01-03 22:04:22,762.3645189950338,4,5,0.2430808395147323,4.199653148651123,3.400232052598144,3.428693237327076,13.649406438196428,12.431023476645157,-3.23295607813634e-05,0.0978845432400703,0,0,0
1163,41421.49707998104,2011-01-03 22:08:22,1002.751752380934,4,5,0.1930520683526992,4.199653148651123,3.414751644991867,3.428693237327076,13.710385030866854,12.431023476645157,0.0,0.0978845432400703,0,0,0
1164,41746.007950088846,2011-01-03 22:13:47,1327.262622498766,4,5,0.1430232971906662,4.199814796447754,3.42981576855518,3.428693237327076,13.77365051144434,12.431023476645157,0.0,0.0978845432400703,0,0,0
1165,42238.42294324911,2011-01-03 22:21:59,1819.6776156339645,4,5,0.0929945334792137,4.199491024017334,3.445718143150679,3.428693237327076,13.840436256710262,12.431023476645157,-3.24249267578125e-05,0.0978845432400703,0,0,0
1166,43027.00587654478,2011-01-03 22:35:08,2608.26054892964,4,5,0.0496483072638511,4.199653148651123,3.460859975876647,3.428693237327076,13.904028085224123,12.431023476645157,-3.23295607813634e-05,0.0978845432400703,0,0,0
1167,43057.021752321765,2011-01-03 22:35:38,30.015171457709982,5,5,0.0,4.191397190093994,3.460859975876647,3.428693237327076,13.904028085224123,12.431023476645157,-3.23295607813634e-05,0.0978845432400703,0,0,0
1168,43087.02146637487,2011-01-03 22:36:08,60.01488552584904,5,5,0.0,4.1901021003723145,3.460859975876647,3.428693237327076,13.904028085224123,12.431023476645157,0.0,0.0978845432400703,0,0,0
1169,43087.2104073101,2011-01-03 22:36:08,0.187405752799284,6,5,-1.9243103452026844e-05,4.1901021003723145,3.460859975876647,3.428693238328818,13.904028085224123,12.431023480842557,0.0,0.0965279787778854,0,0,0
1170,43092.0230083928,2011-01-03 22:36:13,5.000006965822511,6,5,0.0007031940040178,4.1901021003723145,3.460860720399186,3.428693238413202,13.904031204880017,12.431023481196137,0.0,0.0965279787778854,0,0,0
1171,43122.03973515721,2011-01-03 22:36:43,30.015178821061724,7,5,-1.099929690361023,4.004418849945068,3.460860720399186,3.437863118141205,13.904031204880017,12.467956467491367,-0.0009713172912597,0.0965279787778854,0,0,0
1172,43152.05495026871,2011-01-03 22:37:13,60.030393932570405,7,5,-1.0997490882873535,3.9744701385498047,3.460860720399186,3.447032907003668,13.904031204880017,12.504529880654838,-0.0006475448608398,0.0965279787778854,0,0,0
1173,43182.07017081377,2011-01-03 22:37:43,90.04561447762113,7,5,-1.0997490882873535,3.95310115814209,3.460860720399186,3.456202647384734,13.904031204880017,12.540871299217908,-0.0004856586456298,0.0965279787778854,0,0,0
1174,43212.08736870196,2011-01-03 22:38:13,120.06281236080692,7,5,-1.0997490882873535,3.936588764190674,3.460860720399186,3.465373009349803,13.904031204880017,12.577045426232106,-0.0004209041653666,0.0965279787778854,0,0,0
1175,43242.100606340005,2011-01-03 22:38:43,150.07604999884325,7,5,-1.0997490882873535,3.922990322113037,3.460860720399186,3.474542194964119,13.904031204880017,12.6130774238177,-0.0003237724304199,0.0965279787778854,0,0,0
1176,43272.11578488036,2011-01-03 22:39:13,180.09122853419294,7,5,-1.099929690361023,3.9103634357452393,3.460860720399186,3.483711971179292,13.904031204880017,12.648991566758356,-0.0003237724304199,0.0965279787778854,0,0,0
1177,43302.13134889144,2011-01-03 22:39:43,210.10679256030417,7,5,-1.099568486213684,3.898869514465332,3.460860720399186,3.492881237293119,13.904031204880017,12.684793622076752,-0.0002913951757363,0.0965279787778854,0,0,0
1178,43332.14618751463,2011-01-03 22:40:13,240.1216311734631,7,5,-1.0997490882873535,3.887861251831055,3.460860720399186,3.502050104549439,13.904031204880017,12.720490422819145,-0.0002913951757363,0.0965279787778854,0,0,0
1179,43362.16152132196,2011-01-03 22:40:43,270.1369649807983,7,5,-1.099568486213684,3.877176761627197,3.460860720399186,3.51121932227105,13.904031204880017,12.756089241634994,-0.0002590179501567,0.0965279787778854,0,0,0
1180,43392.17652951276,2011-01-03 22:41:13,300.1519731665844,7,5,-1.0997490882873535,3.86665415763855,3.460860720399186,3.520388251147467,13.904031204880017,12.791590354805878,-0.0003237724304199,0.0965279787778854,0,0,0
1181,43422.19179506498,2011-01-03 22:41:43,330.16723871880686,7,5,-1.0997490882873535,3.856455326080322,3.460860720399186,3.529557169248259,13.904031204880017,12.826996805314648,-0.0002590179501567,0.0965279787778854,0,0,0
1182,43452.20700811635,2011-01-03 22:42:13,360.18245177018105,7,5,-1.0997490882873535,3.846580266952514,3.460860720399186,3.538726025008876,13.904031204880017,12.862310795459578,-0.0002266406954731,0.0965279787778854,0,0,0
1183,43482.22248785239,2011-01-03 22:42:43,390.197931511228,7,5,-1.1001102924346924,3.836705207824707,3.460860720399186,3.547895330744101,13.904031204880017,12.897536261787428,-0.0002913951757363,0.0965279787778854,0,0,0
1184,43512.237427833184,2011-01-03 22:43:13,420.2128715120762,7,5,-1.0997490882873535,3.827316045761109,3.460860720399186,3.557064646618023,13.904031204880017,12.932673672620057,-0.0002266406954731,0.0965279787778854,0,0,0
1185,43542.25265099977,2011-01-03 22:43:43,450.22809464858574,7,5,-1.099568486213684,3.8180885314941406,3.460860720399186,3.56623427454533,13.904031204880017,12.967726554419295,-0.0002590179501567,0.0965279787778854,0,0,0
1186,43572.26808723238,2011-01-03 22:44:13,480.2435309012462,7,5,-1.0997490882873535,3.809022903442383,3.460860720399186,3.575403979867723,13.904031204880017,13.002695415140094,-0.0002266406954731,0.0965279787778854,0,0,0
1187,43602.2832255124,2011-01-03 22:44:43,510.2586691862796,7,5,-1.099929690361023,3.800119161605835,3.460860720399186,3.58457366311642,13.904031204880017,13.037581648853164,-0.0002590179501567,0.0965279787778854,0,0,0
1188,43632.29830396331,2011-01-03 22:45:13,540.2737476221506,7,5,-1.0997490882873535,3.791377305984497,3.460860720399186,3.593743282081353,13.904031204880017,13.07238735696769,-0.0002590179501567,0.0965279787778854,0,0,0
1189,43662.31348517032,2011-01-03 22:45:43,570.2889288241463,7,5,-1.099929690361023,3.782959222793579,3.460860720399186,3.602912934813489,13.904031204880017,13.107114591946871,-0.0001942634553415,0.0965279787778854,0,0,0
1190,43692.328703118896,2011-01-03 22:46:13,600.3041467727259,7,5,-1.0997490882873535,3.774864912033081,3.460860720399186,3.61208261719431,13.904031204880017,13.141765451064623,-0.0001942634553415,0.0965279787778854,0,0,0
1191,43722.34403356285,2011-01-03 22:46:43,630.319477231716,7,5,-1.0997490882873535,3.766608715057373,3.460860720399186,3.621252261408863,13.904031204880017,13.176341679966942,-0.0002266406954731,0.0965279787778854,0,0,0
1192,43752.359116334526,2011-01-03 22:47:13,660.3345599883556,7,5,-1.099929690361023,3.758838176727295,3.460860720399186,3.630421857979091,13.904031204880017,13.21084522318922,-0.0002266406954731,0.0965279787778854,0,0,0
1193,43782.374342608855,2011-01-03 22:47:43,690.3497862727104,7,5,-1.099929690361023,3.751391649246216,3.460860720399186,3.639591517096361,13.904031204880017,13.24527804301984,-0.0001618862152099,0.0965279787778854,0,0,0
1194,43812.39154700829,2011-01-03 22:48:13,720.3669907172491,7,5,-1.099929690361023,3.743782997131348,3.460860720399186,3.648761859978111,13.904031204880017,13.279644009432277,-0.0001618862152099,0.0965279787778854,0,0,0
1195,43842.40474047624,2011-01-03 22:48:43,750.3801841551251,7,5,-1.0997490882873535,3.7364981174468994,3.460860720399186,3.657930918527584,13.904031204880017,13.31393716543954,-0.0001942634553415,0.0965279787778854,0,0,0
1196,43872.41994661037,2011-01-03 22:49:13,780.3953902892594,7,5,-1.0997490882873535,3.729051351547241,3.460860720399186,3.667100586991617,13.904031204880017,13.348165790353336,-0.0002266406954731,0.0965279787778854,0,0,0
1197,43902.4352944978,2011-01-03 22:49:43,810.4107381616491,7,5,-1.0997490882873535,3.722252130508423,3.460860720399186,3.676270228125333,13.904031204880017,13.382329468694056,-0.0001942634553415,0.0965279787778854,0,0,0
1198,43932.45271632412,2011-01-03 22:50:13,840.4281599929825,7,5,-1.0997490882873535,3.7152910232543945,3.460860720399186,3.685440534839329,13.904031204880017,13.416430753111372,-0.0001942634553415,0.0965279787778854,0,0,0
1199,43962.46559881702,2011-01-03 22:50:43,870.4410424758629,7,5,-1.099929690361023,3.708329916000366,3.460860720399186,3.694609535229227,13.904031204880017,13.45046390619328,-0.0001942634553415,0.0965279787778854,0,0,0
1200,43992.48082493095,2011-01-03 22:51:13,900.4562685847804,7,5,-1.0997490882873535,3.701692581176758,3.460860720399186,3.703779253968156,13.904031204880017,13.4844380559323,-0.0001618862152099,0.0965279787778854,0,0,0
1201,44022.49604813262,2011-01-03 22:51:43,930.4714918115149,7,5,-1.099929690361023,3.695055246353149,3.460860720399186,3.712948987665911,13.904031204880017,13.518351403708747,-0.0001618862152099,0.0965279787778854,0,0,0
1202,44052.51316262296,2011-01-03 22:52:13,960.4886062767976,7,5,-1.0997490882873535,3.688741683959961,3.460860720399186,3.722119328136912,13.904031204880017,13.552207290793127,-0.0001618862152099,0.0965279787778854,0,0,0
1203,44082.526613878406,2011-01-03 22:52:43,990.5020576475216,7,5,-1.099929690361023,3.682104349136353,3.460860720399186,3.731288473375065,13.904031204880017,13.585999777854251,-0.0001942634553415,0.0965279787778854,0,0,0
1204,44112.5416578985,2011-01-03 22:53:13,1020.5171015573428,7,5,-1.0997490882873535,3.675952672958374,3.460860720399186,3.74045812262606,13.904031204880017,13.619735943562652,-0.0001618862152099,0.0965279787778854,0,0,0
1205,44142.557004382434,2011-01-03 22:53:43,1050.5324480563097,7,5,-1.0997490882873535,3.669801235198975,3.460860720399186,3.749627910098167,13.904031204880017,13.653415517293816,-0.0001618862152099,0.0965279787778854,0,0,0
1206,44172.57209388087,2011-01-03 22:54:13,1080.547537534702,7,5,-1.099929690361023,3.663811445236206,3.460860720399186,3.75879758860076,13.904031204880017,13.687038654431529,-0.0001618862152099,0.0965279787778854,0,0,0
1207,44202.58729871677,2011-01-03 22:54:43,1110.5627423706003,7,5,-1.0997490882873535,3.6578216552734375,3.460860720399186,3.767967318922648,13.904031204880017,13.720606851800968,-0.0001618862152099,0.0965279787778854,0,0,0
1208,44232.602524058784,2011-01-03 22:55:13,1140.5779677376693,7,5,-1.0997490882873535,3.651831865310669,3.460860720399186,3.777136958277765,13.904031204880017,13.754120792335115,-0.0001618862152099,0.0965279787778854,0,0,0
1209,44262.61772429822,2011-01-03 22:55:43,1170.593167947037,7,5,-1.0997490882873535,3.6460039615631104,3.460860720399186,3.786306610911663,13.904031204880017,13.787580998531215,-0.0001295089750783,0.0965279787778854,0,0,0
1210,44292.632963194,2011-01-03 22:56:14,1200.6084068478362,7,5,-1.099568486213684,3.6406617164611816,3.460860720399186,3.795476147584096,13.904031204880017,13.82098841192782,-9.713172767078504e-05,0.0965279787778854,0,0,0
1211,44322.64818775908,2011-01-03 22:56:44,1230.6236315983683,7,5,-1.0997490882873535,3.634995698928833,3.460860720399186,3.804645833223376,13.904031204880017,13.854344871066306,-0.0001295089750783,0.0965279787778854,0,0,0
1212,44352.66336439469,2011-01-03 22:57:14,1260.6388080435083,7,5,-1.0997490882873535,3.629653453826904,3.460860720399186,3.813815531590285,13.904031204880017,13.887651273244211,-9.713172767078504e-05,0.0965279787778854,0,0,0
1213,44382.6785793458,2011-01-03 22:57:44,1290.6540230046426,7,5,-1.0997490882873535,3.6241493225097656,3.460860720399186,3.822985261982368,13.904031204880017,13.920908448807216,-0.0001618862152099,0.0965279787778854,0,0,0
1214,44412.69393287729,2011-01-03 22:58:14,1320.6693765561863,7,5,-1.0997490882873535,3.618968963623047,3.460860720399186,3.832154969458463,13.904031204880017,13.954117420698545,-0.0001618862152099,0.0965279787778854,0,0,0
1215,44442.695445803736,2011-01-03 22:58:44,1350.6708894776211,7,5,-1.0997490882873535,3.614112377166748,3.460860720399186,3.84132050103386,13.904031204880017,13.987264194363814,-9.713172767078504e-05,0.0965279787778854,0,0,0
1216,44472.70859501138,2011-01-03 22:59:14,1380.6840386652118,7,5,-1.099929690361023,3.608932018280029,3.460860720399186,3.850489568409658,13.904031204880017,14.020378019050364,-9.713172767078504e-05,0.0965279787778854,0,0,0
1217,44502.72383044354,2011-01-03 22:59:44,1410.6992741073907,7,5,-1.099568486213684,3.604237318038941,3.460860720399186,3.859659308243164,13.904031204880017,14.053449393080848,-9.713172767078504e-05,0.0965279787778854,0,0,0
1218,44532.73899794639,2011-01-03 23:00:14,1440.7144416052315,7,5,-1.099929690361023,3.5993807315826416,3.460860720399186,3.868828985830259,13.904031204880017,14.086477181307972,-0.0001618862152099,0.0965279787778854,0,0,0
1219,44562.75423712288,2011-01-03 23:00:44,1470.72968078673,7,5,-1.099929690361023,3.5950098037719727,3.460860720399186,3.877998688310594,13.904031204880017,14.119462911420907,-9.713172767078504e-05,0.0965279787778854,0,0,0
1220,44592.76957758179,2011-01-03 23:01:14,1500.745021250655,7,5,-1.099929690361023,3.590477228164673,3.460860720399186,3.887168473470829,13.904031204880017,14.152407945505676,-0.0001295089750783,0.0965279787778854,0,0,0
1221,44622.784640057886,2011-01-03 23:01:44,1530.7600837117122,7,5,-1.099568486213684,3.586430072784424,3.460860720399186,3.8963381519067,13.904031204880017,14.185312432641105,-6.47544875391759e-05,0.0965279787778854,0,0,0
1222,44652.79986271821,2011-01-03 23:02:14,1560.7753063770474,7,5,-1.099929690361023,3.582059144973755,3.460860720399186,3.905507876733482,13.904031204880017,14.218178150468276,-9.713172767078504e-05,0.0965279787778854,0,0,0
1223,44682.81508021566,2011-01-03 23:02:44,1590.79052386949,7,5,-1.0997490882873535,3.578011989593506,3.460860720399186,3.914677590084844,13.904031204880017,14.251006250413758,-0.0001295089750783,0.0965279787778854,0,0,0
1224,44712.83029244499,2011-01-03 23:03:14,1620.8057360988155,7,5,-1.0997490882873535,3.574126720428467,3.460860720399186,3.923847371132962,13.904031204880017,14.28379814625472,-9.713172767078504e-05,0.0965279787778854,0,0,0
1225,44742.84552254887,2011-01-03 23:03:44,1650.8209662077022,7,5,-1.0997490882873535,3.5704033374786377,3.460860720399186,3.933017130748412,13.904031204880017,14.316554313655791,-6.47544875391759e-05,0.0965279787778854,0,0,0
1226,44772.860857338645,2011-01-03 23:04:14,1680.836301007511,7,5,-1.099929690361023,3.566518068313598,3.460860720399186,3.942186935867327,13.904031204880017,14.34927569282864,-9.713172767078504e-05,0.0965279787778854,0,0,0
1227,44802.87829139043,2011-01-03 23:04:44,1710.8537350442643,7,5,-1.0997490882873535,3.562794685363769,3.460860720399186,3.951357335506649,13.904031204880017,14.381964990593657,-9.713172767078504e-05,0.0965279787778854,0,0,0
1228,44832.89115917669,2011-01-03 23:05:14,1740.866602840541,7,5,-1.0997490882873535,3.5592331886291504,3.460860720399186,3.960526335653082,13.904031204880017,14.41461640759754,-0.0001295089750783,0.0965279787778854,0,0,0
1229,44862.90637394734,2011-01-03 23:05:44,1770.8818176914,7,5,-1.0997490882873535,3.5556716918945312,3.460860720399186,3.969696125781734,13.904031204880017,14.447237491055755,-9.713172767078504e-05,0.0965279787778854,0,0,0
1230,44892.9215811742,2011-01-03 23:06:14,1800.897024828033,7,5,-1.099568486213684,3.552110195159912,3.460860720399186,3.978865814072945,13.904031204880017,14.479825045983976,-9.713172767078504e-05,0.0965279787778854,0,0,0
1231,44922.936806771846,2011-01-03 23:06:44,1830.9122504256763,7,5,-1.099929690361023,3.548386812210083,3.460860720399186,3.98803558874189,13.904031204880017,14.512380078518788,-6.47544875391759e-05,0.0965279787778854,0,0,0
1232,44952.9520069361,2011-01-03 23:07:14,1860.927450589932,7,5,-1.099929690361023,3.544825315475464,3.460860720399186,3.99720532155069,13.904031204880017,14.544902238433398,-9.713172767078504e-05,0.0965279787778854,0,0,0
1233,44982.96722495486,2011-01-03 23:07:44,1890.9426686086863,7,5,-1.099929690361023,3.5412638187408447,3.460860720399186,4.006375102006917,13.904031204880017,14.577391682430113,-9.713172767078504e-05,0.0965279787778854,0,0,0
1234,45012.982488010864,2011-01-03 23:08:14,1920.95793168975,7,5,-1.099929690361023,3.537540435791016,3.460860720399186,4.015544899558022,13.904031204880017,14.60984812273662,-0.0001295089750783,0.0965279787778854,0,0,0
1235,45042.9997910812,2011-01-03 23:08:44,1950.975234850319,7,5,-1.099568486213684,3.5341408252716064,3.460860720399186,4.02471538794894,13.904031204880017,14.642273732646704,-9.713172767078504e-05,0.0965279787778854,0,0,0
1236,45073.012879452224,2011-01-03 23:09:14,1980.9883231060487,7,5,-1.0997490882873535,3.5302555561065674,3.460860720399186,4.033884463276046,13.904031204880017,14.674660734124563,-9.713172767078504e-05,0.0965279787778854,0,0,0
1237,45103.02812999203,2011-01-03 23:09:44,2011.0035736709185,7,5,-1.099929690361023,3.5265321731567383,3.460860720399186,4.043054243110648,13.904031204880017,14.707016310842151,-0.0001295089750783,0.0965279787778854,0,0,0
1238,45133.0433084572,2011-01-03 23:10:14,2041.0187521110304,7,5,-1.099929690361023,3.522808790206909,3.460860720399186,4.052224080827773,13.904031204880017,14.739337382501663,-9.713172767078504e-05,0.0965279787778854,0,0,0
1239,45163.058547904366,2011-01-03 23:10:44,2071.0339915581912,7,5,-1.0997490882873535,3.51876163482666,3.460860720399186,4.061393837704411,13.904031204880017,14.77162280248483,-0.0001295089750783,0.0965279787778854,0,0,0
1240,45193.07376157729,2011-01-03 23:11:14,2101.0492052311142,7,5,-1.099929690361023,3.514876365661621,3.460860720399186,4.070563669290787,13.904031204880017,14.80387204626052,-9.713172767078504e-05,0.0965279787778854,0,0,0
1241,45223.089004688576,2011-01-03 23:11:44,2131.0644483674696,7,5,-1.0997490882873535,3.510667562484741,3.460860720399186,4.079733493312997,13.904031204880017,14.836083478813304,-6.47544875391759e-05,0.0965279787778854,0,0,0
1242,45253.10429271682,2011-01-03 23:12:14,2161.079736385685,7,5,-1.099929690361023,3.5062966346740723,3.460860720399186,4.088903307582611,13.904031204880017,14.868255715185876,-9.713172767078504e-05,0.0965279787778854,0,0,0
1243,45283.11939945322,2011-01-03 23:12:44,2191.094843107051,7,5,-1.0997490882873535,3.5016019344329834,3.460860720399186,4.098073090805615,13.904031204880017,14.900386710146424,-9.713172767078504e-05,0.0965279787778854,0,0,0
1244,45313.134795570855,2011-01-03 23:13:14,2221.110239314908,7,5,-1.0997490882873535,3.496745347976685,3.460860720399186,4.107242897981753,13.904031204880017,14.932474422457163,-0.0001295089750783,0.0965279787778854,0,0,0
1245,45343.14989149031,2011-01-03 23:13:44,2251.1253352343533,7,5,-1.099929690361023,3.491403102874756,3.460860720399186,4.116412662511367,13.904031204880017,14.96451564496852,-0.0001942634553415,0.0965279787778854,0,0,0
1246,45373.16511883229,2011-01-03 23:14:14,2281.140562581357,7,5,-1.0997490882873535,3.486060857772827,3.460860720399186,4.125582396041578,13.904031204880017,14.996507156095952,-0.0001618862152099,0.0965279787778854,0,0,0
1247,45403.18026908716,2011-01-03 23:14:44,2311.155712740985,7,5,-1.0997490882873535,3.4797472953796387,3.460860720399186,4.134752112560417,13.904031204880017,15.028444554475604,-0.0001618862152099,0.0965279787778854,0,0,0
1248,45433.19588668178,2011-01-03 23:15:14,2341.1713303757056,7,5,-1.0997490882873535,3.4729480743408203,3.460860720399186,4.143921951278823,13.904031204880017,15.060322894977856,-0.0001942634553415,0.0965279787778854,0,0,0
1249,45463.21068341557,2011-01-03 23:15:44,2371.1861270693885,7,5,-1.1001102924346924,3.465177536010742,3.460860720399186,4.153091604767086,13.904031204880017,15.0921342974932,-0.0002266406954731,0.0965279787778854,0,0,0
1250,45493.22589952456,2011-01-03 23:16:14,2401.201343188408,7,5,-1.099929690361023,3.4564356803894043,3.460860720399186,4.162261370335043,13.904031204880017,15.12387059122494,-0.0002590179501567,0.0965279787778854,0,0,0
1251,45523.2413527495,2011-01-03 23:16:44,2431.216796403344,7,5,-1.099568486213684,3.446074962615967,3.460860720399186,4.171431241746925,13.904031204880017,15.155519556500606,-0.0002590179501567,0.0965279787778854,0,0,0
1252,45553.2564877263,2011-01-03 23:17:14,2461.231931400182,7,5,-1.0997490882873535,3.4337716102600098,3.460860720399186,4.180601049241816,13.904031204880017,15.187064244949736,-0.0003237724304199,0.0965279787778854,0,0,0
1253,45583.27155390663,2011-01-03 23:17:44,2491.246997560458,7,5,-1.099568486213684,3.4188783168792725,3.460860720399186,4.189770827222663,13.904031204880017,15.218483797966048,-0.0003885269106831,0.0965279787778854,0,0,0
1254,45613.28677597548,2011-01-03 23:18:14,2521.262219629307,7,5,-1.0997490882873535,3.399937629699707,3.460860720399186,4.198940599706962,13.904031204880017,15.249750155397376,-0.0005827903514727,0.0965279787778854,0,0,0
1255,45643.30399972814,2011-01-03 23:18:44,2551.2794434070297,7,5,-1.0997490882873535,3.3769497871398926,3.460860720399186,4.208110967121816,13.904031204880017,15.280828403671576,-0.0006475448608398,0.0965279787778854,0,0,0
1256,45673.31720489525,2011-01-03 23:19:14,2581.292648549076,7,5,-1.099929690361023,3.346515417098999,3.460860720399186,4.217280127893687,13.904031204880017,15.311659478593414,-0.0009712696191854,0.0965279787778854,0,0,0
1257,45703.332436512894,2011-01-03 23:19:44,2611.307880276998,7,5,-1.099568486213684,3.3073389530181885,3.460860720399186,4.226449965104956,13.904031204880017,15.342176205357966,-0.0011332035064697,0.0965279787778854,0,0,0
1258,45733.34764225104,2011-01-03 23:20:14,2641.323085904871,7,5,-1.0997490882873535,3.2545642852783203,3.460860720399186,4.235619666345921,13.904031204880017,15.372272742348455,-0.0015864849556237,0.0965279787778854,0,0,0
1259,45763.36287449525,2011-01-03 23:20:44,2671.338318154092,7,5,-1.099929690361023,3.181877613067627,3.460860720399186,4.244789471599716,13.904031204880017,15.4018015934185,-0.0022663592826575,0.0965279787778854,0,0,0
1260,45793.37807736124,2011-01-03 23:21:14,2701.3535210150685,7,5,-1.1001102924346924,3.077461242675781,3.460860720399186,4.253959273397584,13.904031204880017,15.430533149500992,-0.0033996105194091,0.0965279787778854,0,0,0
1261,45823.3932922873,2011-01-03 23:21:44,2731.368735946128,7,5,-1.0997490882873535,2.904243469238281,3.460860720399186,4.263129079019635,13.904031204880017,15.458038519315958,-0.0058602811768651,0.0965279787778854,0,0,0
1262,45846.45547824074,2011-01-03 23:22:07,2754.430921894568,7,5,-1.099929690361023,2.704152822494507,3.460860720399186,4.270174703235667,13.904031204880017,15.47781797714472,-0.0073172091506421,0.0965279787778854,0,0,0
1263,45846.93985037012,2011-01-03 23:22:08,2754.915294023952,7,5,-1.099929690361023,2.699943780899048,3.460860720399186,4.270322676830562,13.904031204880017,15.478217843136449,-0.0072848321869969,0.0965279787778854,0,0,0
1264,45906.95313534016,2011-01-03 23:23:08,60.012810343857,8,5,0.0,3.4381425380706787,3.460860720399186,4.270322676830562,13.904031204880017,15.478217843136449,0.0015216827159747,0.0965279787778854,0,0,0
1265,45907.141909954495,2011-01-03 23:23:08,0.18748698525556,9,5,-1.9243103452026844e-05,3.4383044242858887,3.460860720399186,4.270322677832737,13.904031204880017,15.478217846582233,0.0,0.096440702676773,0,0,0
1266,45911.97008844589,2011-01-03 23:23:13,5.015665611986798,9,5,0.0007031940040178,3.4472081661224365,3.460861442947347,4.27032267791726,13.904033692907367,15.478217846872852,0.0012950897216796,0.096440702676773,0,0,0
