Data_Point,Test_Time(s),Date_Time,Step_Time(s),Step_Index,Cycle_Index,Current(A),Voltage(V),Charge_Capacity(Ah),Discharge_Capacity(Ah),Charge_Energy(Wh),Discharge_Energy(Wh),dV/dt(V/s),Internal_Resistance(Ohm),Is_FC_Data,AC_Impedance(Ohm),ACI_Phase_Angle(Deg)
2609,94003.41933363836,2011-01-04 12:44:51,30.015026852308832,1,11,0.0,3.544015884399414,7.460644657394989,8.24263177658672,29.97575538399893,29.775552199329116,0.0007446765666827,0.099682405591011,0,0,0
2610,94033.43449819888,2011-01-04 12:45:21,60.0301914078164,1,11,0.0,3.5678131580352783,7.460644657394989,8.24263177658672,29.97575538399893,29.775552199329116,0.0005827903514727,0.099682405591011,0,0,0
2611,94063.44960147164,2011-01-04 12:45:51,90.04529469562603,1,11,0.0,3.584811210632324,7.460644657394989,8.24263177658672,29.97575538399893,29.775552199329116,0.0003885269106831,0.099682405591011,0,0,0
2612,94093.41796812236,2011-01-04 12:46:21,120.01366134134304,1,11,0.0,3.598409414291382,7.460644657394989,8.24263177658672,29.97575538399893,29.775552199329116,0.0003237724304199,0.099682405591011,0,0,0
2613,94123.43724874296,2011-01-04 12:46:51,30.01505569920417,2,11,0.5501165986061096,3.7316415309906006,7.465230912209316,8.24263177658672,29.99275930433566,29.775552199329116,0.0010036944877356,0.099682405591011,0,0,0
2614,94153.4523952134,2011-01-04 12:47:21,60.03020216963818,2,11,0.5501165986061096,3.7611045837402335,7.469817206887502,8.24263177658672,30.0099470471454,29.775552199329116,0.0006151676061563,0.099682405591011,0,0,0
2615,94183.46754441565,2011-01-04 12:47:51,90.04535146210556,2,11,0.5501165986061096,3.78036904335022,7.474403509615748,8.24263177658672,30.02724444946303,29.775552199329116,0.0004209041653666,0.099682405591011,0,0,0
2616,94213.4826432724,2011-01-04 12:48:21,120.06045022864676,2,11,0.5501165986061096,3.792348623275757,7.47898980301593,8.24263177658672,30.04461152308175,29.775552199329116,0.0002913951757363,0.099682405591011,0,0,0
2617,94243.4977608408,2011-01-04 12:48:51,150.07556779704802,2,11,0.5501165986061096,3.800766706466675,7.483576067980455,8.24263177658672,30.06202386252677,29.775552199329116,0.0002266406954731,0.099682405591011,0,0,0
2618,94273.51288197307,2011-01-04 12:49:21,180.09068893935654,2,11,0.550297200679779,3.807727813720703,7.488162327931752,8.24263177658672,30.07947085024752,29.775552199329116,0.0001942634553415,0.099682405591011,0,0,0
2619,94303.52803356628,2011-01-04 12:49:51,210.1058405475956,2,11,0.5501165986061096,3.814041376113892,7.492748670888727,8.24263177658672,30.09694848083704,29.775552199329116,0.0001942634553415,0.099682405591011,0,0,0
2620,94333.54314761092,2011-01-04 12:50:21,240.12095457717697,2,11,0.5501165986061096,3.81986927986145,7.497334888672032,8.24263177658672,30.114454019605446,29.775552199329116,0.0001618862152099,0.099682405591011,0,0,0
2621,94363.55837958444,2011-01-04 12:50:51,270.136186550711,2,11,0.5501165986061096,3.825535297393799,7.501921165283831,8.24263177658672,30.13198605704184,29.775552199329116,0.0001618862152099,0.099682405591011,0,0,0
2622,94393.57338062242,2011-01-04 12:51:21,300.1511875736451,2,11,0.5499359965324402,3.8307156562805176,7.50650731760483,8.24263177658672,30.14954261628603,29.775552199329116,9.713172767078504e-05,0.099682405591011,0,0,0
2623,94423.58854016542,2011-01-04 12:51:51,330.16634711665995,2,11,0.5501165986061096,3.8357338905334473,7.511093510676035,8.24263177658672,30.167123223102244,29.775552199329116,0.0001295089750783,0.099682405591011,0,0,0
2624,94453.603650586,2011-01-04 12:52:21,360.1814575422592,2,11,0.5501165986061096,3.840914249420166,7.515679681790678,8.24263177658672,30.18472673037588,29.775552199329116,0.0001295089750783,0.099682405591011,0,0,0
2625,94483.6188833014,2011-01-04 12:52:51,390.1966902526297,2,11,0.5499359965324402,3.845447063446045,7.520265887984,8.24263177658672,30.202352625667302,29.775552199329116,9.713172767078504e-05,0.099682405591011,0,0,0
2626,94513.63389866508,2011-01-04 12:53:21,420.2117056413677,2,11,0.5501165986061096,3.850303649902344,7.524852118653352,8.24263177658672,30.220000348365,29.775552199329116,0.0001295089750783,0.099682405591011,0,0,0
2627,94543.64915020738,2011-01-04 12:53:51,450.2269571736482,2,11,0.5501165986061096,3.854836463928223,7.52943838724384,8.24263177658672,30.237669386191207,29.775552199329116,9.713172767078504e-05,0.099682405591011,0,0,0
2628,94573.66609721527,2011-01-04 12:54:21,480.2439041565132,2,11,0.5501165986061096,3.8593692779541016,7.534024869318074,8.24263177658672,30.25536014955864,29.775552199329116,0.0001295089750783,0.099682405591011,0,0,0
2629,94603.67953015507,2011-01-04 12:54:51,510.2573371163515,2,11,0.5499359965324402,3.8637402057647705,7.538610805863508,8.24263177658672,30.273069381783586,29.775552199329116,9.713172767078504e-05,0.099682405591011,0,0,0
2630,94633.69438672802,2011-01-04 12:55:21,540.2721936942842,2,11,0.550297200679779,3.8684349060058594,7.543196987086785,8.24263177658672,30.29079978014464,29.775552199329116,0.0001618862152099,0.099682405591011,0,0,0
2631,94663.7095071786,2011-01-04 12:55:51,570.2873141599063,2,11,0.5499359965324402,3.872482061386109,7.547782768673852,8.24263177658672,30.30854856763134,29.775552199329116,0.0001295089750783,0.099682405591011,0,0,0
2632,94693.7248728303,2011-01-04 12:56:21,600.3026797965699,2,11,0.5497553944587708,3.876691102981568,7.552368285597109,8.24263177658672,30.32631593260815,29.775552199329116,6.47544875391759e-05,0.099682405591011,0,0,0
2633,94723.73991783283,2011-01-04 12:56:51,630.3177247991148,2,11,0.5501165986061096,3.881062030792236,7.556954132439897,8.24263177658672,30.344103912555493,29.775552199329116,0.0001295089750783,0.099682405591011,0,0,0
2634,94753.75492876548,2011-01-04 12:57:21,660.3327357568093,2,11,0.5499359965324402,3.8849472999572754,7.561540870475148,8.24263177658672,30.361914277441063,29.775552199329116,9.713172767078504e-05,0.099682405591011,0,0,0
2635,94783.77005125616,2011-01-04 12:57:51,690.3478582224159,2,11,0.550297200679779,3.8891563415527344,7.566127814106419,8.24263177658672,30.379743795405226,29.775552199329116,0.0001295089750783,0.099682405591011,0,0,0
2636,94813.78518600736,2011-01-04 12:58:21,720.3629929686294,2,11,0.550297200679779,3.8927178382873535,7.570714877133972,8.24263177658672,30.39759155298995,29.775552199329116,9.713172767078504e-05,0.099682405591011,0,0,0
2637,94843.80031236268,2011-01-04 12:58:51,750.3781193189179,2,11,0.5501165986061096,3.8962793350219727,7.575301887486187,8.24263177658672,30.415455977244584,29.775552199329116,9.713172767078504e-05,0.099682405591011,0,0,0
2638,94873.81542491858,2011-01-04 12:59:21,780.393231889864,2,11,0.5499359965324402,3.899840831756592,7.579888430682725,8.24263177658672,30.43333476881544,29.775552199329116,6.47544875391759e-05,0.099682405591011,0,0,0
2639,94903.8305520809,2011-01-04 12:59:51,810.4083590471638,2,11,0.5501165986061096,3.903078556060791,7.584474687505746,8.24263177658672,30.45122793201489,29.775552199329116,6.47544875391759e-05,0.099682405591011,0,0,0
2640,94933.84570631568,2011-01-04 13:00:21,840.4235133019989,2,11,0.5501165986061096,3.9063162803649902,7.589060888121592,8.24263177658672,30.46913560336812,29.775552199329116,9.713172767078504e-05,0.099682405591011,0,0,0
2641,94963.86079935796,2011-01-04 13:00:51,870.4386063392609,2,11,0.5501165986061096,3.90906834602356,7.59364705438616,8.24263177658672,30.487057144361952,29.775552199329116,6.47544875391759e-05,0.099682405591011,0,0,0
2642,94993.87592484108,2011-01-04 13:01:21,900.4537317973256,2,11,0.5501165986061096,3.912306070327759,7.598233242037812,8.24263177658672,30.50499210831555,29.775552199329116,0.0001295089750783,0.099682405591011,0,0,0
2643,95023.89105314625,2011-01-04 13:01:51,930.4688601275489,2,11,0.5501165986061096,3.914734125137329,7.602819373309505,8.24263177658672,30.522939559621697,29.775552199329116,6.47544875391759e-05,0.099682405591011,0,0,0
2644,95053.90854711235,2011-01-04 13:02:21,960.486354163839,2,11,0.5499359965324402,3.917324304580689,7.607405885219476,8.24263177658672,30.540900472052517,29.775552199329116,6.47544875391759e-05,0.099682405591011,0,0,0
2645,95083.92132515996,2011-01-04 13:02:51,990.4991321512848,2,11,0.5499359965324402,3.919752597808838,7.611991610665919,8.24263177658672,30.558869871653577,29.775552199329116,6.47544875391759e-05,0.099682405591011,0,0,0
2646,95113.9364272197,2011-01-04 13:03:21,1020.5142341859712,2,11,0.5501165986061096,3.9221808910369873,7.61657780645855,8.24263177658672,30.5768522642739,29.775552199329116,6.47544875391759e-05,0.099682405591011,0,0,0
2647,95143.95158770004,2011-01-04 13:03:51,1050.5293946512847,2,11,0.5501165986061096,3.924447298049927,7.621164043877325,8.24263177658672,30.59484565413371,29.775552199329116,6.47544875391759e-05,0.099682405591011,0,0,0
2648,95173.96868523816,2011-01-04 13:04:21,1080.5464921943922,2,11,0.5501165986061096,3.926713705062866,7.625750495304689,8.24263177658672,30.6128503527881,29.775552199329116,6.47544875391759e-05,0.099682405591011,0,0,0
2649,95203.981852982,2011-01-04 13:04:51,1110.5596599382309,2,11,0.5499359965324402,3.9289801120758057,7.630336339470711,8.24263177658672,30.630862954790786,29.775552199329116,6.47544875391759e-05,0.099682405591011,0,0,0
2650,95233.99706303587,2011-01-04 13:05:21,1140.5748699971468,2,11,0.5501165986061096,3.931084632873535,7.634922484954505,8.24263177658672,30.648886888822545,29.775552199329116,0.0,0.099682405591011,0,0,0
2651,95264.01205212908,2011-01-04 13:05:51,1170.5898591003731,2,11,0.550297200679779,3.933512926101685,7.639508702113727,8.24263177658672,30.666921017852705,29.775552199329116,6.47544875391759e-05,0.099682405591011,0,0,0
2652,95294.0271932462,2011-01-04 13:06:21,1200.60500020744,2,11,0.5501165986061096,3.935455560684204,7.644094900664262,8.24263177658672,30.68496497182383,29.775552199329116,0.0,0.099682405591011,0,0,0
2653,95324.04230827828,2011-01-04 13:06:51,1230.6201152645824,2,11,0.5499359965324402,3.937721967697144,7.648681111783123,8.24263177658672,30.70301868106713,29.775552199329116,9.713172767078504e-05,0.099682405591011,0,0,0
2654,95354.05743953575,2011-01-04 13:07:21,1260.6352465170887,2,11,0.5499359965324402,3.939664602279663,7.653267333487374,8.24263177658672,30.721082247501805,29.775552199329116,3.237724376958795e-05,0.099682405591011,0,0,0
2655,95384.0725490491,2011-01-04 13:07:51,1290.6503560153767,2,11,0.5501165986061096,3.9417691230773926,7.657853546724542,8.24263177658672,30.73915546601065,29.775552199329116,3.237724376958795e-05,0.099682405591011,0,0,0
2656,95414.08772291284,2011-01-04 13:08:22,1320.6655298690582,2,11,0.5501165986061096,3.943873643875122,7.662439725318856,8.24263177658672,30.757238182749024,29.775552199329116,3.237724376958795e-05,0.099682405591011,0,0,0
2657,95444.10279908802,2011-01-04 13:08:52,1350.680606044295,2,11,0.550297200679779,3.9461400508880615,7.66702591657458,8.24263177658672,30.775330596548724,29.775552199329116,6.47544875391759e-05,0.099682405591011,0,0,0
2658,95474.11792260628,2011-01-04 13:09:22,1380.6957295926,2,11,0.5501165986061096,3.948082685470581,7.671612163738469,8.24263177658672,30.79343271341988,29.775552199329116,6.47544875391759e-05,0.099682405591011,0,0,0
2659,95504.13319211335,2011-01-04 13:09:52,1410.7109991848915,2,11,0.5499359965324402,3.950187206268311,7.676198361675827,8.24263177658672,30.811544190603065,29.775552199329116,3.237724376958795e-05,0.099682405591011,0,0,0
2660,95534.1482242288,2011-01-04 13:10:22,1440.7260312802678,2,11,0.5501165986061096,3.95229172706604,7.68078454891304,8.24263177658672,30.82966517162215,29.775552199329116,9.713172767078504e-05,0.099682405591011,0,0,0
2661,95564.16344014228,2011-01-04 13:10:52,1470.7412471236005,2,11,0.5501165986061096,3.9543962478637695,7.685370737345415,8.24263177658672,30.84779563421534,29.775552199329116,6.47544875391759e-05,0.099682405591011,0,0,0
2662,95594.17842132076,2011-01-04 13:11:22,1500.756228302076,2,11,0.550297200679779,3.956500768661499,7.689956870012174,8.24263177658672,30.86593531610853,29.775552199329116,3.237724376958795e-05,0.099682405591011,0,0,0
2663,95624.19354903948,2011-01-04 13:11:52,1530.7713560207749,2,11,0.5501165986061096,3.9584434032440186,7.694542969177055,8.24263177658672,30.884084197147384,29.775552199329116,6.47544875391759e-05,0.099682405591011,0,0,0
2664,95654.20892699182,2011-01-04 13:12:22,1560.7867339480706,2,11,0.5501165986061096,3.960547924041748,7.699129234151662,8.24263177658672,30.902243127095264,29.775552199329116,6.47544875391759e-05,0.099682405591011,0,0,0
2665,95684.22392838068,2011-01-04 13:12:52,1590.8017353519542,2,11,0.5501165986061096,3.9623286724090576,7.703715371285439,8.24263177658672,30.920410904553805,29.775552199329116,0.0,0.099682405591011,0,0,0
2666,95714.23892753896,2011-01-04 13:13:22,1620.8167344901908,2,11,0.5501165986061096,3.964595079421997,7.708301605723835,8.24263177658672,30.93858833818465,29.775552199329116,9.713172767078504e-05,0.099682405591011,0,0,0
2667,95744.25404914742,2011-01-04 13:13:52,1650.8318561086862,2,11,0.5499359965324402,3.966375827789306,7.712887791997726,8.24263177658672,30.956774790122427,29.775552199329116,0.0,0.099682405591011,0,0,0
2668,95774.27210054285,2011-01-04 13:14:22,1680.8499076093494,2,11,0.5501165986061096,3.968480348587036,7.717474441011937,8.24263177658672,30.97497232934317,29.775552199329116,3.237724376958795e-05,0.099682405591011,0,0,0
2669,95804.28431985788,2011-01-04 13:14:52,1710.8621268241618,2,11,0.5501165986061096,3.970422983169556,7.722060184511205,8.24263177658672,30.993175544523844,29.775552199329116,6.47544875391759e-05,0.099682405591011,0,0,0
2670,95834.29943941125,2011-01-04 13:15:22,1740.8772464025726,2,11,0.5499359965324402,3.972527503967285,7.726646392028544,8.24263177658672,31.011389801320856,29.775552199329116,6.47544875391759e-05,0.099682405591011,0,0,0
2671,95864.31467082335,2011-01-04 13:15:52,1770.8924778096948,2,11,0.5499359965324402,3.974632024765015,7.731232647711154,8.24263177658672,31.02961341532785,29.775552199329116,6.47544875391759e-05,0.099682405591011,0,0,0
2672,95894.3320017682,2011-01-04 13:16:22,1800.9098087595237,2,11,0.5501165986061096,3.976412773132324,7.735819223957575,8.24263177658672,31.047847521610976,29.775552199329116,3.237724376958795e-05,0.099682405591011,0,0,0
2673,95924.34480223668,2011-01-04 13:16:52,1830.9226091878995,2,11,0.5501165986061096,3.9785172939300537,7.740405143788534,8.24263177658672,31.06608776894693,29.775552199329116,0.0001295089750783,0.099682405591011,0,0,0
2674,95954.35992649676,2011-01-04 13:17:22,1860.937733568278,2,11,0.5501165986061096,3.980459928512573,7.744991235709599,8.24263177658672,31.084338234693508,29.775552199329116,6.47544875391759e-05,0.099682405591011,0,0,0
2675,95984.37506580431,2011-01-04 13:17:52,1890.9528728006724,2,11,0.550297200679779,3.982564449310303,7.749577386260822,8.24263177658672,31.10259815429392,29.775552199329116,6.47544875391759e-05,0.099682405591011,0,0,0
2676,96014.39018088652,2011-01-04 13:18:22,1920.967987842777,2,11,0.5501165986061096,3.9845070838928223,7.754163469196572,8.24263177658672,31.12086684863357,29.775552199329116,6.47544875391759e-05,0.099682405591011,0,0,0
2677,96044.40529522188,2011-01-04 13:18:52,1950.9831021981704,2,11,0.5499359965324402,3.986449718475342,7.758749608996482,8.24263177658672,31.1391450375516,29.775552199329116,3.237724376958795e-05,0.099682405591011,0,0,0
2678,96074.42042140174,2011-01-04 13:19:22,1980.9982283680097,2,11,0.5501165986061096,3.9885542392730713,7.763335743684801,8.24263177658672,31.1574323935762,29.775552199329116,6.47544875391759e-05,0.099682405591011,0,0,0
2679,96104.4355493861,2011-01-04 13:19:52,2011.013356377433,2,11,0.5501165986061096,3.990496873855591,7.767921830564841,8.24263177658672,31.175728740593105,29.775552199329116,6.47544875391759e-05,0.099682405591011,0,0,0
2680,96134.45067394697,2011-01-04 13:20:22,2041.028480903174,2,11,0.5501165986061096,3.99260139465332,7.772507966693754,8.24263177658672,31.194034497919407,29.775552199329116,3.237724376958795e-05,0.099682405591011,0,0,0
2681,96164.465922988,2011-01-04 13:20:52,2071.0437299492582,2,11,0.5501165986061096,3.994705677032471,7.777094120524762,8.24263177658672,31.21234954687253,29.775552199329116,9.713172767078504e-05,0.099682405591011,0,0,0
2682,96194.48093630157,2011-01-04 13:21:22,2101.058743257812,2,11,0.5499359965324402,3.9966483116149902,7.781680211212898,8.24263177658672,31.230673648926157,29.775552199329116,6.47544875391759e-05,0.099682405591011,0,0,0
2683,96224.49603794528,2011-01-04 13:21:52,2131.0738449366117,2,11,0.5501165986061096,3.99875283241272,7.786266350632478,8.24263177658672,31.24900735020488,29.775552199329116,9.713172767078504e-05,0.099682405591011,0,0,0
2684,96254.5113114022,2011-01-04 13:22:22,2161.089118458697,2,11,0.5501165986061096,4.000695705413818,7.79085240355142,8.24263177658672,31.2673500550596,29.775552199329116,6.47544875391759e-05,0.099682405591011,0,0,0
2685,96284.52629605432,2011-01-04 13:22:52,2191.104103045668,2,11,0.5499359965324402,4.002799987792969,7.795438446454806,8.24263177658672,31.28570222638432,29.775552199329116,3.23295607813634e-05,0.099682405591011,0,0,0
2686,96314.54141093102,2011-01-04 13:23:22,2221.119217887273,2,11,0.5499359965324402,4.004904747009277,7.800024523942995,8.24263177658672,31.3040641751638,29.775552199329116,6.47544875391759e-05,0.099682405591011,0,0,0
2687,96344.55653274,2011-01-04 13:23:52,2251.1343397313303,2,11,0.5499359965324402,4.006847381591797,7.804610613965314,8.24263177658672,31.322435850254458,29.775552199329116,0.0,0.099682405591011,0,0,0
2688,96374.57363367156,2011-01-04 13:24:22,2281.151440632808,2,11,0.5499359965324402,4.009113788604736,7.809197034336251,8.24263177658672,31.34081851419698,29.775552199329116,6.47544875391759e-05,0.099682405591011,0,0,0
2689,96404.58708198466,2011-01-04 13:24:52,2311.164888945912,2,11,0.5501165986061096,4.011380195617676,7.813782846254538,8.24263177658672,31.35920852605065,29.775552199329116,9.71794142969884e-05,0.099682405591011,0,0,0
2690,96434.60190303906,2011-01-04 13:25:22,2341.179709995296,2,11,0.5501165986061096,4.013484477996826,7.818368942951303,8.24263177658672,31.37760960138245,29.775552199329116,3.23295607813634e-05,0.099682405591011,0,0,0
2691,96464.61704343434,2011-01-04 13:25:52,2371.194850415651,2,11,0.5501165986061096,4.015589237213135,7.822955058386606,8.24263177658672,31.39602072447036,29.775552199329116,3.24249267578125e-05,0.099682405591011,0,0,0
2692,96494.63218794992,2011-01-04 13:26:22,2401.2099949061508,2,11,0.5501165986061096,4.017855644226074,7.827541135296076,8.24263177658672,31.41444175411412,29.775552199329116,9.71794142969884e-05,0.099682405591011,0,0,0
2693,96524.64755121566,2011-01-04 13:26:52,2431.2253581719056,2,11,0.5501165986061096,4.020122051239014,7.83212732159443,8.24263177658672,31.43287332029646,29.775552199329116,9.71794142969884e-05,0.099682405591011,0,0,0
2694,96554.66238483638,2011-01-04 13:27:22,2461.2401917926218,2,11,0.5501165986061096,4.022226333618164,7.836713371112028,8.24263177658672,31.45131467260559,29.775552199329116,3.23295607813634e-05,0.099682405591011,0,0,0
2695,96584.67750435964,2011-01-04 13:27:52,2491.255311315895,2,11,0.5501165986061096,4.024492740631104,7.841299518199211,8.24263177658672,31.46976682559633,29.775552199329116,3.23295607813634e-05,0.099682405591011,0,0,0
2696,96614.69289150994,2011-01-04 13:28:22,2521.2706985564023,2,11,0.5499359965324402,4.026759147644043,7.845885726493713,8.24263177658672,31.488229701212592,29.775552199329116,3.23295607813634e-05,0.099682405591011,0,0,0
2697,96644.707882553,2011-01-04 13:28:52,2551.2856895192635,2,11,0.5501165986061096,4.029187679290772,7.850471844064261,8.24263177658672,31.506702816143765,29.775552199329116,6.47544875391759e-05,0.099682405591011,0,0,0
2698,96674.72287709475,2011-01-04 13:29:22,2581.3006840810945,2,11,0.5501165986061096,4.031615734100342,7.855057924365935,8.24263177658672,31.52518635994984,29.775552199329116,6.47544875391759e-05,0.099682405591011,0,0,0
2699,96704.7380093147,2011-01-04 13:29:52,2611.3158163110365,2,11,0.5501165986061096,4.033882141113281,7.859644106356765,8.24263177658672,31.54368118641616,29.775552199329116,3.23295607813634e-05,0.099682405591011,0,0,0
2700,96734.75313971507,2011-01-04 13:30:22,2641.3309466813444,2,11,0.5499359965324402,4.036310195922852,7.864230234723014,8.24263177658672,31.56218675437824,29.775552199329116,6.47544875391759e-05,0.099682405591011,0,0,0
2701,96764.76825169956,2011-01-04 13:30:52,2671.3460586558035,2,11,0.5501165986061096,4.03873872756958,7.86881642080349,8.24263177658672,31.580703684255425,29.775552199329116,6.47544875391759e-05,0.099682405591011,0,0,0
2702,96794.78337607993,2011-01-04 13:31:22,2701.3611830462078,2,11,0.5501165986061096,4.04132890701294,7.873402700857322,8.24263177658672,31.599232160023472,29.775552199329116,9.71794142969884e-05,0.099682405591011,0,0,0
2703,96824.7985183048,2011-01-04 13:31:52,2731.37632527106,2,11,0.5501165986061096,4.043595314025879,7.877988867447758,8.24263177658672,31.61777146491254,29.775552199329116,6.47544875391759e-05,0.099682405591011,0,0,0
2704,96854.81363433936,2011-01-04 13:32:22,2761.3914412956137,2,11,0.5501165986061096,4.046185493469238,7.882575062848206,8.24263177658672,31.636322359266096,29.775552199329116,6.47544875391759e-05,0.099682405591011,0,0,0
2705,96884.82875326616,2011-01-04 13:32:52,2791.4065602424503,2,11,0.5499359965324402,4.048775672912598,7.887161244977866,8.24263177658672,31.65488480974503,29.775552199329116,6.47544875391759e-05,0.099682405591011,0,0,0
2706,96914.84388132067,2011-01-04 13:33:22,2821.4216882769365,2,11,0.550297200679779,4.051365852355957,7.891747417466942,8.24263177658672,31.673458953707893,29.775552199329116,6.47544875391759e-05,0.099682405591011,0,0,0
2707,96944.85912650716,2011-01-04 13:33:52,2851.436933458389,2,11,0.5501165986061096,4.053793907165527,7.896333633397001,8.24263177658672,31.69204517334208,29.775552199329116,3.23295607813634e-05,0.099682405591011,0,0,0
2708,96974.8765804034,2011-01-04 13:34:22,2881.4543873947373,2,11,0.550297200679779,4.056546211242676,7.900920189482667,8.24263177658672,31.71064473181204,29.775552199329116,6.47544875391759e-05,0.099682405591011,0,0,0
2709,97004.88926252697,2011-01-04 13:34:52,2911.4670694831734,2,11,0.5499359965324402,4.059136390686035,7.905506012262898,8.24263177658672,31.729253445486385,29.775552199329116,3.24249267578125e-05,0.099682405591011,0,0,0
2710,97034.90439670673,2011-01-04 13:35:22,2941.4822036629757,2,11,0.5499359965324402,4.0617265701293945,7.910092313019876,8.24263177658672,31.74787603784127,29.775552199329116,6.47544875391759e-05,0.099682405591011,0,0,0
2711,97064.91957660548,2011-01-04 13:35:52,2971.497383561723,2,11,0.5501165986061096,4.064478397369385,7.914678490995504,8.24263177658672,31.766510382751072,29.775552199329116,6.47544875391759e-05,0.099682405591011,0,0,0
2712,97094.93665688054,2011-01-04 13:36:22,3001.514463841805,2,11,0.5501165986061096,4.067230701446533,7.919264987819258,8.24263177658672,31.7851585054798,29.775552199329116,6.47544875391759e-05,0.099682405591011,0,0,0
2713,97124.94975400838,2011-01-04 13:36:52,3031.527560964635,2,11,0.5501165986061096,4.0701446533203125,7.923850796620584,8.24263177658672,31.8038164124671,29.775552199329116,9.71794142969884e-05,0.099682405591011,0,0,0
2714,97154.96487456924,2011-01-04 13:37:22,3061.542681535519,2,11,0.5501165986061096,4.072896480560303,7.928436937858766,8.24263177658672,31.822488406792395,29.775552199329116,0.0001295089750783,0.099682405591011,0,0,0
2715,97184.9799736666,2011-01-04 13:37:52,3091.5577806479223,2,11,0.5501165986061096,4.075648784637451,7.933023115640146,8.24263177658672,31.84117343720977,29.775552199329116,3.24249267578125e-05,0.099682405591011,0,0,0
2716,97214.99513919956,2011-01-04 13:38:22,3121.572946190892,2,11,0.5499359965324402,4.078562736511231,7.937609281268065,8.24263177658672,31.85987147094888,29.775552199329116,9.71794142969884e-05,0.099682405591011,0,0,0
2717,97245.01041785444,2011-01-04 13:38:52,3151.588224830732,2,11,0.5501165986061096,4.081314563751221,7.942195433862742,8.24263177658672,31.87858266926553,29.775552199329116,6.47544875391759e-05,0.099682405591011,0,0,0
2718,97275.02539893266,2011-01-04 13:39:22,3181.6032058989326,2,11,0.5501165986061096,4.084228515625,7.94678165274617,8.24263177658672,31.897307297871382,29.775552199329116,6.47544875391759e-05,0.099682405591011,0,0,0
2719,97305.04064926197,2011-01-04 13:39:52,3211.618456213177,2,11,0.5499359965324402,4.087142467498779,7.951367857044146,8.24263177658672,31.916045286440323,29.775552199329116,9.70840483205393e-05,0.099682405591011,0,0,0
2720,97335.05566257048,2011-01-04 13:40:23,3241.633469526744,2,11,0.5501165986061096,4.090218544006348,7.955954049963714,8.24263177658672,31.93479670029721,29.775552199329116,6.47544875391759e-05,0.099682405591011,0,0,0
2721,97365.07076948236,2011-01-04 13:40:53,3271.648576433573,2,11,0.5501165986061096,4.093294143676758,7.960540238867766,8.24263177658672,31.95356174665207,29.775552199329116,9.70840483205393e-05,0.099682405591011,0,0,0
2722,97395.08591087512,2011-01-04 13:41:23,3301.6637178313645,2,11,0.550297200679779,4.096208095550537,7.96512639512865,8.24263177658672,31.97234044113011,29.775552199329116,9.70840483205393e-05,0.099682405591011,0,0,0
2723,97425.10101823809,2011-01-04 13:41:53,3331.6788252143806,2,11,0.5501165986061096,4.0992841720581055,7.969712572358861,8.24263177658672,31.991133186892505,29.775552199329116,6.47544875391759e-05,0.099682405591011,0,0,0
2724,97455.11616242284,2011-01-04 13:42:23,3361.693969379068,2,11,0.5501165986061096,4.102198123931885,7.974298734139182,8.24263177658672,32.00993982418987,29.775552199329116,9.71794142969884e-05,0.099682405591011,0,0,0
2725,97485.1312615202,2011-01-04 13:42:53,3391.709068486459,2,11,0.5501165986061096,4.105273723602295,7.978884940979167,8.24263177658672,32.028760706972896,29.775552199329116,6.47544875391759e-05,0.099682405591011,0,0,0
2726,97515.14638375524,2011-01-04 13:43:23,3421.724190711466,2,11,0.5499359965324402,4.108511447906494,7.983471092283094,8.24263177658672,32.04759567324478,29.775552199329116,6.47544875391759e-05,0.099682405591011,0,0,0
2727,97545.16151466186,2011-01-04 13:43:53,3451.739321653197,2,11,0.5499359965324402,4.111587524414063,7.988057268748716,8.24263177658672,32.066445137251925,29.775552199329116,3.24249267578125e-05,0.099682405591011,0,0,0
2728,97575.17881517085,2011-01-04 13:44:23,3481.756622157145,2,11,0.5501165986061096,4.114824771881104,7.992643823489241,8.24263177658672,32.08531059080839,29.775552199329116,9.70840483205393e-05,0.099682405591011,0,0,0
2729,97605.19190080502,2011-01-04 13:44:53,3511.769707756254,2,11,0.5499359965324402,4.117900848388672,7.997229655613127,8.24263177658672,32.10418765991921,29.775552199329116,6.47544875391759e-05,0.099682405591011,0,0,0
2730,97635.2068832216,2011-01-04 13:45:23,3541.7846901778275,2,11,0.550297200679779,4.121300220489502,8.001815930998637,8.24263177658672,32.12308133503235,29.775552199329116,0.0001295089750783,0.099682405591011,0,0,0
2731,97665.22215724492,2011-01-04 13:45:53,3571.7999642162004,2,11,0.5499359965324402,4.124214172363281,8.006402209578514,8.24263177658672,32.141989883367025,29.775552199329116,3.23295607813634e-05,0.099682405591011,0,0,0
2732,97695.23724461305,2011-01-04 13:46:23,3601.815051684583,2,11,0.5499359965324402,4.1277756690979,8.010988415707539,8.24263177658672,32.160913197052245,29.775552199329116,6.47544875391759e-05,0.099682405591011,0,0,0
2733,97725.25226587642,2011-01-04 13:46:53,3631.8300728627514,2,11,0.5499359965324402,4.1310133934021,8.015574599329224,8.24263177658672,32.17985155790858,29.775552199329116,6.47544875391759e-05,0.099682405591011,0,0,0
2734,97755.26739634198,2011-01-04 13:47:23,3661.845203298221,2,11,0.5501165986061096,4.134413242340088,8.020160853628784,8.24263177658672,32.19880540853679,29.775552199329116,9.71794142969884e-05,0.099682405591011,0,0,0
2735,97785.2825359854,2011-01-04 13:47:53,3691.86034294164,2,11,0.5501165986061096,4.137812614440918,8.024747127794276,8.24263177658672,32.217774722806695,29.775552199329116,9.70840483205393e-05,0.099682405591011,0,0,0
2736,97815.29999194178,2011-01-04 13:48:23,3721.877798903035,2,11,0.5501165986061096,4.141212463378906,8.029333784728335,8.24263177658672,32.23676118202734,29.775552199329116,9.71794142969884e-05,0.099682405591011,0,0,0
2737,97845.31288350228,2011-01-04 13:48:53,3751.890690463539,2,11,0.550297200679779,4.144773960113525,8.03391968851023,8.24263177658672,32.255760339940686,29.775552199329116,0.0001295089750783,0.099682405591011,0,0,0
2738,97875.32789935217,2011-01-04 13:49:23,3781.9057063384894,2,11,0.5501165986061096,4.148173332214356,8.038505815910428,8.24263177658672,32.274776666716164,29.775552199329116,9.70840483205393e-05,0.099682405591011,0,0,0
2739,97905.34300880534,2011-01-04 13:49:53,3811.920815771616,2,11,0.5501165986061096,4.151734828948975,8.043092049516265,8.24263177658672,32.29380941084977,29.775552199329116,6.47544875391759e-05,0.099682405591011,0,0,0
2740,97935.35814034355,2011-01-04 13:50:23,3841.9359473048207,2,11,0.5499359965324402,4.155296325683594,8.04767829290695,8.24263177658672,32.312858364150394,29.775552199329116,9.70840483205393e-05,0.099682405591011,0,0,0
2741,97965.3732604082,2011-01-04 13:50:53,3871.951067374456,2,11,0.5501165986061096,4.158857822418213,8.052264488276423,8.24263177658672,32.331923367640506,29.775552199329116,9.70840483205393e-05,0.099682405591011,0,0,0
2742,97995.38849556464,2011-01-04 13:51:23,3901.9663025208974,2,11,0.5501165986061096,4.162581443786621,8.056850752206124,8.24263177658672,32.351005108564074,29.775552199329116,9.71794142969884e-05,0.099682405591011,0,0,0
2743,98025.4034918207,2011-01-04 13:51:53,3931.981298786977,2,11,0.5501165986061096,4.16614294052124,8.061436977157939,8.24263177658672,32.370103322499176,29.775552199329116,0.0001295089750783,0.099682405591011,0,0,0
2744,98055.41865830602,2011-01-04 13:52:23,3961.99646526227,2,11,0.550297200679779,4.169704437255859,8.06602317889631,8.24263177658672,32.389218160894785,29.775552199329116,9.71794142969884e-05,0.099682405591011,0,0,0
2745,98085.43376016026,2011-01-04 13:52:53,3992.0115671165054,2,11,0.5499359965324402,4.173427581787109,8.070609358327735,8.24263177658672,32.40834977200946,29.775552199329116,9.70840483205393e-05,0.099682405591011,0,0,0
2746,98115.44886880642,2011-01-04 13:53:23,4022.026675767682,2,11,0.550297200679779,4.177312850952148,8.075195594929493,8.24263177658672,32.427498443894095,29.775552199329116,0.0001295089750783,0.099682405591011,0,0,0
2747,98145.46401203878,2011-01-04 13:53:53,4052.0418189950337,2,11,0.5499359965324402,4.180874347686768,8.079781828889471,8.24263177658672,32.4466640460899,29.775552199329116,9.70840483205393e-05,0.099682405591011,0,0,0
2748,98175.48112890004,2011-01-04 13:54:23,4082.0589358613006,2,11,0.5501165986061096,4.184597969055176,8.084368405361992,8.24263177658672,32.465848246658695,29.775552199329116,0.0001295089750783,0.099682405591011,0,0,0
2749,98205.4942425992,2011-01-04 13:54:53,4112.072049565455,2,11,0.5501165986061096,4.188321113586426,8.088954266843277,8.24263177658672,32.48504659177864,29.775552199329116,6.47544875391759e-05,0.099682405591011,0,0,0
2750,98235.5093709996,2011-01-04 13:55:23,4142.087177970866,2,11,0.5499359965324402,4.192044734954834,8.09354048302187,8.24263177658672,32.504263902393724,29.775552199329116,6.47544875391759e-05,0.099682405591011,0,0,0
2751,98265.52451893369,2011-01-04 13:55:53,4172.10232588991,2,11,0.5499359965324402,4.195929527282715,8.098126726559364,8.24263177658672,32.52349884838867,29.775552199329116,0.0001295089750783,0.099682405591011,0,0,0
2752,98295.5398561495,2011-01-04 13:56:23,4202.117663301227,2,11,0.5499359965324402,4.199814796447754,8.102713012386296,8.24263177658672,32.542751666859814,29.775552199329116,9.70840483205393e-05,0.099682405591011,0,0,0
2753,98296.07098048476,2011-01-04 13:56:24,4202.64878746607,2,11,0.5499359965324402,4.200138568878174,8.102794172112036,8.24263177658672,32.54309253044829,29.775552199329116,0.0001295089750783,0.099682405591011,0,0,0
2754,98326.08989832446,2011-01-04 13:56:54,30.014982561923564,3,11,0.0,4.101550579071045,8.102794172112036,8.24263177658672,32.54309253044829,29.775552199329116,-0.0004532813909463,0.099682405591011,0,0,0
2755,98356.10502581258,2011-01-04 13:57:24,60.030110019972845,3,11,0.0,4.088923454284668,8.102794172112036,8.24263177658672,32.54309253044829,29.775552199329116,-0.0002265930233988,0.099682405591011,0,0,0
2756,98386.12018083432,2011-01-04 13:57:54,90.04526505675683,3,11,0.0,4.08115291595459,8.102794172112036,8.24263177658672,32.54309253044829,29.775552199329116,-0.0001295089750783,0.099682405591011,0,0,0
2757,98416.08840423304,2011-01-04 13:58:24,120.01348852563312,3,11,0.0,4.076134204864502,8.102794172112036,8.24263177658672,32.54309253044829,29.775552199329116,-9.71794142969884e-05,0.099682405591011,0,0,0
2758,98416.10224435518,2011-01-04 13:58:24,0.01559893233906,4,11,1.0168110132217407,4.199814796447754,8.102798577991521,8.24263177658672,32.543111034326145,29.775552199329116,0.0,0.099682405591011,0,0,0
2759,98416.82100105802,2011-01-04 13:58:25,0.734355625173509,4,11,0.9667822122573853,4.199814796447754,8.102995040352608,8.24263177658672,32.54393615222835,29.775552199329116,0.0,0.099682405591011,0,0,0
2760,98418.74282108487,2011-01-04 13:58:26,2.656175626947161,4,11,0.9162116050720216,4.199814796447754,8.103496631895842,8.24263177658672,32.54604275779105,29.775552199329116,0.0,0.099682405591011,0,0,0
2761,98421.6509146338,2011-01-04 13:58:29,5.564269175869089,4,11,0.8661828637123108,4.199653148651123,8.104215634243166,8.24263177658672,32.54906245011778,29.775552199329116,-6.47544875391759e-05,0.099682405591011,0,0,0
2762,98425.65087433413,2011-01-04 13:58:33,9.564228896249112,4,11,0.8157928586006165,4.199814796447754,8.105149109940031,8.24263177658672,32.55298290095109,29.775552199329116,3.23295607813634e-05,0.099682405591011,0,0,0
2763,98430.9613875621,2011-01-04 13:58:39,14.874742109179802,4,11,0.7654028534889221,4.199814796447754,8.106314151738562,8.24263177658672,32.55787591297458,29.775552199329116,0.0,0.099682405591011,0,0,0
2764,98437.82064811994,2011-01-04 13:58:46,21.73400267204417,4,11,0.7150129079818726,4.199814796447754,8.107722791310847,8.24263177658672,32.56379198953191,29.775552199329116,0.0,0.099682405591011,0,0,0
2765,98446.86737607462,2011-01-04 13:58:55,30.780730626715812,4,11,0.6649841070175171,4.199653148651123,8.10945402233776,8.24263177658672,32.57106292364885,29.775552199329116,-3.23295607813634e-05,0.099682405591011,0,0,0
2766,98459.35192361347,2011-01-04 13:59:07,43.265278185631885,4,11,0.6149553656578064,4.199976921081543,8.111668361649885,8.24263177658672,32.58036283696782,29.775552199329116,3.24249267578125e-05,0.099682405591011,0,0,0
2767,98478.03876470627,2011-01-04 13:59:26,61.95212023080601,4,11,0.5647459626197815,4.199976921081543,8.114720385589747,8.24263177658672,32.59318091775542,29.775552199329116,3.24249267578125e-05,0.099682405591011,0,0,0
2768,98510.10069463588,2011-01-04 13:59:58,94.01404919298868,4,11,0.5147172212600708,4.199653148651123,8.119505564771753,8.24263177658672,32.61327802513144,29.775552199329116,-3.23295607813634e-05,0.099682405591011,0,0,0
2769,98572.88100211916,2011-01-04 14:01:01,156.79435667124216,4,11,0.4646884202957153,4.199976921081543,8.127999916449108,8.24263177658672,32.648953306514315,29.775552199329116,3.24249267578125e-05,0.099682405591011,0,0,0
2770,98676.78555138152,2011-01-04 14:02:45,260.6989059386471,4,11,0.4146596491336822,4.199814796447754,8.14065181062568,8.24263177658672,32.70208955794059,29.775552199329116,-3.24249267578125e-05,0.099682405591011,0,0,0
2771,98811.45703421412,2011-01-04 14:04:59,395.3703887662328,4,11,0.3646308779716491,4.199814796447754,8.15520591011122,8.24263177658672,32.76321472296386,29.775552199329116,0.0,0.099682405591011,0,0,0
2772,98973.31175185194,2011-01-04 14:07:41,557.2251064040378,4,11,0.3146021068096161,4.199814796447754,8.170450940283686,8.24263177658672,32.827241758604856,29.775552199329116,0.0,0.099682405591011,0,0,0
2773,99169.52720315557,2011-01-04 14:10:57,753.4405577076715,4,11,0.264573335647583,4.199814796447754,8.186202805008083,8.24263177658672,32.89339751755266,29.775552199329116,-3.24249267578125e-05,0.099682405591011,0,0,0
2774,99414.1482601075,2011-01-04 14:15:02,998.0616146696384,4,11,0.2143639624118805,4.199814796447754,8.20243333767775,8.24263177658672,32.96156351601876,29.775552199329116,-3.24249267578125e-05,0.099682405591011,0,0,0
2775,99739.45523247209,2011-01-04 14:20:27,1323.368587014174,4,11,0.1643352061510086,4.199976921081543,8.219465004914111,8.24263177658672,33.03309416253794,29.775552199329116,6.47544875391759e-05,0.099682405591011,0,0,0
2776,100202.57249982998,2011-01-04 14:28:10,1786.4858544071378,4,11,0.1143064275383949,4.199653148651123,8.237193962744511,8.24263177658672,33.1075529701978,29.775552199329116,-3.23295607813634e-05,0.099682405591011,0,0,0
2777,101012.87170651084,2011-01-04 14:41:41,2596.7850610679698,4,11,0.0642776563763618,4.199814796447754,8.256754657495394,8.24263177658672,33.18970540148246,29.775552199329116,0.0,0.099682405591011,0,0,0
2778,101412.30268261516,2011-01-04 14:48:20,2996.216037162235,4,11,0.0498289167881011,4.199814796447754,8.26309362423467,8.24263177658672,33.21632825267283,29.775552199329116,-3.24249267578125e-05,0.099682405591011,0,0,0
2779,101442.31880445743,2011-01-04 14:48:50,30.015187452574107,5,11,0.0,4.190587520599365,8.26309362423467,8.24263177658672,33.21632825267283,29.775552199329116,-6.47544875391759e-05,0.099682405591011,0,0,0
2780,101472.3183029884,2011-01-04 14:49:20,60.01468597350319,5,11,0.0,4.1892924308776855,8.26309362423467,8.24263177658672,33.21632825267283,29.775552199329116,0.0,0.099682405591011,0,0,0
2781,101472.50782621588,2011-01-04 14:49:21,0.18740842445788,6,11,-1.9243103452026844e-05,4.188968658447266,8.26309362423467,8.242631777588475,33.21632825267283,29.775552203525432,0.0,0.1036408320069313,0,0,0
2782,101477.3358620417,2011-01-04 14:49:25,5.015444225222863,6,11,0.0005225847125984,4.188968658447266,8.263094445653689,8.242631777755692,33.216331693801024,29.775552204225896,-6.47544875391759e-05,0.1036408320069313,0,0,0
2783,101503.57018995524,2011-01-04 14:49:52,26.232007383787284,7,11,-1.0997490882873535,3.988878011703491,8.263094445653689,8.250644260232399,33.216331693801024,29.80770678210006,-0.0012626647949218,0.1036408320069313,0,0,0
2784,101533.5873426458,2011-01-04 14:50:22,56.24916016456399,7,11,-1.099568486213684,3.9511585235595694,8.263094445653689,8.259812804092068,33.216331693801024,29.84409733357802,-0.0009065627818927,0.1036408320069313,0,0,0
2785,101563.6004838886,2011-01-04 14:50:52,86.26230132214134,7,11,-1.099568486213684,3.924285411834717,8.263094445653689,8.268980123961102,33.216331693801024,29.8801892463023,-0.0006799221155233,0.1036408320069313,0,0,0
2786,101593.61558975282,2011-01-04 14:51:22,116.2774071763472,7,11,-1.099568486213684,3.903887987136841,8.263094445653689,8.27814804849991,33.216331693801024,29.91606941898878,-0.0004856586456298,0.1036408320069313,0,0,0
2787,101623.63081281916,2011-01-04 14:51:52,146.29263026774422,7,11,-1.0997490882873535,3.887051820755005,8.263094445653689,8.287316047832707,33.216331693801024,29.951781012296728,-0.0004209041653666,0.1036408320069313,0,0,0
2788,101653.64813036055,2011-01-04 14:52:22,176.30994787933002,7,11,-1.0997490882873535,3.8723201751708975,8.263094445653689,8.296484694153312,33.216331693801024,29.98735236565066,-0.0004209041653666,0.1036408320069313,0,0,0
2789,101683.66096414709,2011-01-04 14:52:52,206.32278160068168,7,11,-1.099568486213684,3.859207391738892,8.263094445653689,8.305651974630441,33.216331693801024,30.02279090652536,-0.0003885269106831,0.1036408320069313,0,0,0
2790,101713.67607878818,2011-01-04 14:53:22,236.33789623677475,7,11,-1.099568486213684,3.8467421531677246,8.263094445653689,8.314819913620676,33.216331693801024,30.058114602719225,-0.0003561496851034,0.1036408320069313,0,0,0
2791,101743.6913129622,2011-01-04 14:53:52,266.3531304057806,7,11,-1.099568486213684,3.835086345672608,8.263094445653689,8.323987965729994,33.216331693801024,30.093328494174298,-0.0002913951757363,0.1036408320069313,0,0,0
2792,101773.70635808504,2011-01-04 14:54:22,296.36817550857523,7,11,-1.099568486213684,3.823916435241699,8.263094445653689,8.333155914880304,33.216331693801024,30.12843668535764,-0.0002590179501567,0.1036408320069313,0,0,0
2793,101803.72144119257,2011-01-04 14:54:52,326.38325862611435,7,11,-1.099568486213684,3.813231945037842,8.263094445653689,8.342323916571742,33.216331693801024,30.16344421571934,-0.0002590179501567,0.1036408320069313,0,0,0
2794,101833.73655772336,2011-01-04 14:55:22,356.3983751519171,7,11,-1.099568486213684,3.8023855686187744,8.263094445653689,8.351491866273912,33.216331693801024,30.198353687509545,-0.0002913951757363,0.1036408320069313,0,0,0
2795,101863.75168620398,2011-01-04 14:55:52,386.41350363752736,7,11,-1.099568486213684,3.792510509490967,8.263094445653689,8.360659858661448,33.216331693801024,30.233169573812305,-0.0002590179501567,0.1036408320069313,0,0,0
2796,101893.76626907976,2011-01-04 14:56:22,416.428086217573,7,11,-1.099568486213684,3.782797336578369,8.263094445653689,8.369827717240282,33.216331693801024,30.267894270721172,-0.0002590179501567,0.1036408320069313,0,0,0
2797,101923.76643218704,2011-01-04 14:56:52,446.4282497058052,7,11,-1.0997490882873535,3.773246049880981,8.263094445653689,8.378991173669302,33.216331693801024,30.30251401182332,-0.0002590179501567,0.1036408320069313,0,0,0
2798,101953.78143906457,2011-01-04 14:57:22,476.44325649310593,7,11,-1.099568486213684,3.764180421829224,8.263094445653689,8.388159128879268,33.216331693801024,30.337065102582045,-0.0002590179501567,0.1036408320069313,0,0,0
2799,101983.7966838751,2011-01-04 14:57:52,506.4585015041334,7,11,-1.0997490882873535,3.754952907562256,8.263094445653689,8.397327178458946,33.216331693801024,30.37153350758324,-0.0002590179501567,0.1036408320069313,0,0,0
2800,102013.81168713862,2011-01-04 14:58:22,536.473504567152,7,11,-1.0997490882873535,3.746373176574707,8.263094445653689,8.406495150151011,33.216331693801024,30.40592093778464,-0.0002266406954731,0.1036408320069313,0,0,0
2801,102043.82683289728,2011-01-04 14:58:52,566.4886503508745,7,11,-1.099568486213684,3.738278865814209,8.263094445653689,8.415663194543367,33.216331693801024,30.440230011881628,-0.0001618862152099,0.1036408320069313,0,0,0
2802,102073.84193092698,2011-01-04 14:59:22,596.5037483555168,7,11,-1.0997490882873535,3.729698896408081,8.263094445653689,8.424831189231819,33.216331693801024,30.47446236459476,-0.0002266406954731,0.1036408320069313,0,0,0
2803,102103.85706722204,2011-01-04 14:59:52,626.5188846656282,7,11,-1.1001102924346924,3.721604585647583,8.263094445653689,8.43399915903488,33.216331693801024,30.508620127610435,-0.0002266406954731,0.1036408320069313,0,0,0
2804,102133.87219771266,2011-01-04 15:00:22,656.5340151462105,7,11,-1.099568486213684,3.713995933532715,8.263094445653689,8.443167158749072,33.216331693801024,30.54270505259215,-0.0001942634553415,0.1036408320069313,0,0,0
2805,102163.88920794816,2011-01-04 15:00:52,686.5510254017706,7,11,-1.099568486213684,3.706387281417847,8.263094445653689,8.452335690262295,33.216331693801024,30.57672070071563,-0.0001618862152099,0.1036408320069313,0,0,0
2806,102193.90253973084,2011-01-04 15:01:22,716.5643571593819,7,11,-1.099568486213684,3.6987786293029785,8.263094445653689,8.461503134910858,33.216331693801024,30.610662867644105,-0.0001618862152099,0.1036408320069313,0,0,0
2807,102223.91758539504,2011-01-04 15:01:52,746.5794028285882,7,11,-1.0997490882873535,3.69133186340332,8.263094445653689,8.470671110658044,33.216331693801024,30.644538884752667,-0.0002266406954731,0.1036408320069313,0,0,0
2808,102253.93274305334,2011-01-04 15:02:22,776.5945605069559,7,11,-1.0997490882873535,3.684046983718872,8.263094445653689,8.479839131625152,33.216331693801024,30.678348359486115,-0.0001942634553415,0.1036408320069313,0,0,0
2809,102283.9478512885,2011-01-04 15:02:52,806.6096687170332,7,11,-1.099568486213684,3.677085876464844,8.263094445653689,8.489007062046543,33.216331693801024,30.712092098205083,-0.0001942634553415,0.1036408320069313,0,0,0
2810,102313.96323165686,2011-01-04 15:03:22,836.6250490904253,7,11,-1.099568486213684,3.670286893844605,8.263094445653689,8.498175202009678,33.216331693801024,30.74577237160836,-0.0001295089750783,0.1036408320069313,0,0,0
2811,102343.97808897163,2011-01-04 15:03:52,866.6399064051944,7,11,-1.099568486213684,3.663325786590576,8.263094445653689,8.507343164294547,33.216331693801024,30.779389220245186,-0.0001618862152099,0.1036408320069313,0,0,0
2812,102373.99321356254,2011-01-04 15:04:22,896.6550309910855,7,11,-1.099568486213684,3.656526565551758,8.263094445653689,8.51651115478553,33.216331693801024,30.81294371650993,-0.0001942634553415,0.1036408320069313,0,0,0
2813,102404.00856701886,2011-01-04 15:04:52,926.6703844774668,7,11,-1.0997490882873535,3.649889230728149,8.263094445653689,8.525679228238813,33.216331693801024,30.846436432334624,-0.0001942634553415,0.1036408320069313,0,0,0
2814,102434.02359154537,2011-01-04 15:05:22,956.6854090089917,7,11,-1.0997490882873535,3.643251895904541,8.263094445653689,8.534847185030642,33.216331693801024,30.879868057896665,-0.0002266406954731,0.1036408320069313,0,0,0
2815,102464.03862897903,2011-01-04 15:05:52,986.7004465228724,7,11,-1.0997490882873535,3.636776447296143,8.263094445653689,8.544015141073139,33.216331693801024,30.913240516205683,-0.0001942634553415,0.1036408320069313,0,0,0
2816,102494.05373149492,2011-01-04 15:06:22,1016.7155490287332,7,11,-1.099568486213684,3.630624771118164,8.263094445653689,8.553183071183584,33.216331693801024,30.946554219492683,-0.0001295089750783,0.1036408320069313,0,0,0
2817,102524.06884944427,2011-01-04 15:06:52,1046.730666877834,7,11,-1.0997490882873535,3.6244730949401855,8.263094445653689,8.562351071511742,33.216331693801024,30.97981111144036,-0.0001618862152099,0.1036408320069313,0,0,0
2818,102554.08410974842,2011-01-04 15:07:22,1076.745927202027,7,11,-1.099568486213684,3.618483304977417,8.263094445653689,8.571519139355882,33.216331693801024,31.013012566494258,-0.0001618862152099,0.1036408320069313,0,0,0
2819,102584.0991004406,2011-01-04 15:07:52,1106.7609178841883,7,11,-1.0997490882873535,3.612493515014648,8.263094445653689,8.58068709055663,33.216331693801024,31.046159239083387,-0.0001942634553415,0.1036408320069313,0,0,0
2820,102614.1143392612,2011-01-04 15:08:22,1136.7761567148125,7,11,-1.099568486213684,3.6068274974823,8.263094445653689,8.58985513373738,33.216331693801024,31.079252640084203,-0.0001295089750783,0.1036408320069313,0,0,0
2821,102644.12935181288,2011-01-04 15:08:52,1166.791169241417,7,11,-1.099929690361023,3.600999593734741,8.263094445653689,8.59902303030143,33.216331693801024,31.11229284223897,-0.0001295089750783,0.1036408320069313,0,0,0
2822,102674.144484514,2011-01-04 15:09:22,1196.8063019475462,7,11,-1.099568486213684,3.5954954624176025,8.263094445653689,8.608190992835965,33.216331693801024,31.145281753481488,-0.0001618862152099,0.1036408320069313,0,0,0
2823,102704.15958100486,2011-01-04 15:09:52,1226.8213984384158,7,11,-1.0997490882873535,3.589991569519043,8.263094445653689,8.617359007015715,33.216331693801024,31.178220163783383,-0.0001618862152099,0.1036408320069313,0,0,0
2824,102734.17471852298,2011-01-04 15:10:22,1256.8365359515255,7,11,-1.099568486213684,3.584811210632324,8.263094445653689,8.626527039426195,33.216331693801024,31.211109153255403,-0.0001295089750783,0.1036408320069313,0,0,0
2825,102764.19226977688,2011-01-04 15:10:52,1286.8540873056695,7,11,-1.099568486213684,3.5794689655303955,8.263094445653689,8.635695742612166,33.216331693801024,31.24395176163682,-0.0001295089750783,0.1036408320069313,0,0,0
2826,102794.20497403057,2011-01-04 15:11:22,1316.866791459098,7,11,-1.099568486213684,3.5744504928588867,8.263094445653689,8.644863004801408,33.216331693801024,31.27674233649032,-9.713172767078504e-05,0.1036408320069313,0,0,0
2827,102824.22009155886,2011-01-04 15:11:52,1346.8819089924118,7,11,-1.0997490882873535,3.569270133972168,8.263094445653689,8.654031006075096,33.216331693801024,31.309489509746246,-0.0001618862152099,0.1036408320069313,0,0,0
2828,102854.23521224,2011-01-04 15:12:22,1376.8970296685586,7,11,-1.099568486213684,3.564575433731079,8.263094445653689,8.663199012762949,33.216331693801024,31.34219200745445,-0.0001295089750783,0.1036408320069313,0,0,0
2829,102884.25224180872,2011-01-04 15:12:52,1406.914059237253,7,11,-1.099568486213684,3.5600426197052,8.263094445653689,8.672367609678457,33.216331693801024,31.37485388238425,-0.0001295089750783,0.1036408320069313,0,0,0
2830,102914.26559139077,2011-01-04 15:13:22,1436.927408849363,7,11,-1.099568486213684,3.5553479194641118,8.263094445653689,8.681535077985355,33.216331693801024,31.40746956333001,-0.0001618862152099,0.1036408320069313,0,0,0
2831,102944.2805859626,2011-01-04 15:13:52,1466.942403401169,7,11,-1.099568486213684,3.5509769916534424,8.263094445653689,8.690703076586736,33.216331693801024,31.440045344805103,-9.713172767078504e-05,0.1036408320069313,0,0,0
2832,102974.29584369031,2011-01-04 15:14:22,1496.9576611389157,7,11,-1.099568486213684,3.546606063842773,8.263094445653689,8.699871151802455,33.216331693801024,31.47258092369871,-9.713172767078504e-05,0.1036408320069313,0,0,0
2833,103004.31097608568,2011-01-04 15:14:52,1526.97279355432,7,11,-1.0997490882873535,3.5423970222473145,8.263094445653689,8.709039208911918,33.216331693801024,31.505076810202635,-6.47544875391759e-05,0.1036408320069313,0,0,0
2834,103034.32595899848,2011-01-04 15:15:22,1556.987776427018,7,11,-1.099568486213684,3.538349866867065,8.263094445653689,8.718207278910512,33.216331693801024,31.537534462131624,-9.713172767078504e-05,0.1036408320069313,0,0,0
2835,103064.34121323752,2011-01-04 15:15:52,1587.0030306911071,7,11,-1.099568486213684,3.5339789390563965,8.263094445653689,8.727375464326771,33.216331693801024,31.56995432584956,-0.0001295089750783,0.1036408320069313,0,0,0
2836,103094.35623621516,2011-01-04 15:16:22,1617.018053678784,7,11,-1.0993878841400146,3.5300936698913574,8.263094445653689,8.736543512974528,33.216331693801024,31.602336528944075,-9.713172767078504e-05,0.1036408320069313,0,0,0
2837,103124.37135802412,2011-01-04 15:16:53,1647.033175452667,7,11,-1.0997490882873535,3.5260465145111084,8.263094445653689,8.74571163358865,33.216331693801024,31.63468240632499,-9.713172767078504e-05,0.1036408320069313,0,0,0
2838,103154.38654076996,2011-01-04 15:17:23,1677.0483583889848,7,11,-1.0997490882873535,3.5218374729156494,8.263094445653689,8.7548797590271,33.216331693801024,31.666991551448657,-0.0001618862152099,0.1036408320069313,0,0,0
2839,103184.40158545673,2011-01-04 15:17:53,1707.0634028902805,7,11,-1.0997490882873535,3.5181140899658203,8.263094445653689,8.764047800778915,33.216331693801024,31.69926445836913,-9.713172767078504e-05,0.1036408320069313,0,0,0
2840,103214.41673679429,2011-01-04 15:18:23,1737.0785542228325,7,11,-1.0997490882873535,3.5140669345855717,8.263094445653689,8.773215942599137,33.216331693801024,31.73150084309706,-9.713172767078504e-05,0.1036408320069313,0,0,0
2841,103244.43183019244,2011-01-04 15:18:53,1767.0936476260065,7,11,-1.099568486213684,3.5101819038391118,8.263094445653689,8.782383964378232,33.216331693801024,31.763700199118684,-9.713172767078504e-05,0.1036408320069313,0,0,0
2842,103274.44707042656,2011-01-04 15:19:23,1797.1088878801784,7,11,-1.099568486213684,3.5061347484588623,8.263094445653689,8.791552062685433,33.216331693801024,31.795862417182185,-6.47544875391759e-05,0.1036408320069313,0,0,0
2843,103304.46208306344,2011-01-04 15:19:53,1827.123900497008,7,11,-1.0993878841400146,3.5020875930786133,8.263094445653689,8.80072018814206,33.216331693801024,31.827988418690097,-0.0001295089750783,0.1036408320069313,0,0,0
2844,103334.47732574868,2011-01-04 15:20:23,1857.1391431972763,7,11,-1.0997490882873535,3.4978785514831543,8.263094445653689,8.809888248453557,33.216331693801024,31.860077031029004,-0.0001295089750783,0.1036408320069313,0,0,0
2845,103364.49450772724,2011-01-04 15:20:53,1887.1563251557727,7,11,-1.099568486213684,3.4938313961029053,8.263094445653689,8.819056947134948,33.216331693801024,31.892130604878098,-0.0001295089750783,0.1036408320069313,0,0,0
2846,103394.50758660458,2011-01-04 15:21:23,1917.1694040581915,7,11,-1.099568486213684,3.489784240722656,8.263094445653689,8.828224407771618,33.216331693801024,31.92414156640521,-0.0001295089750783,0.1036408320069313,0,0,0
2847,103424.52257152738,2011-01-04 15:21:53,1947.1843889559364,7,11,-1.099568486213684,3.4854133129119877,8.263094445653689,8.83739242487411,33.216331693801024,31.956114796118023,-6.47544875391759e-05,0.1036408320069313,0,0,0
2848,103454.53772213816,2011-01-04 15:22:23,1977.1995395717013,7,11,-1.0993878841400146,3.4807186126708984,8.263094445653689,8.846560616146336,33.216331693801024,31.98804785202277,-0.0001618862152099,0.1036408320069313,0,0,0
2849,103484.55322395924,2011-01-04 15:22:53,2007.2150413977915,7,11,-1.0997490882873535,3.4758620262146,8.263094445653689,8.855728747213604,33.216331693801024,32.01993794813307,-0.0001618862152099,0.1036408320069313,0,0,0
2850,103514.56796224734,2011-01-04 15:23:23,2037.2297796758844,7,11,-1.0997490882873535,3.471005439758301,8.263094445653689,8.864896704744954,33.216331693801024,32.05178330531644,-0.0001295089750783,0.1036408320069313,0,0,0
2851,103544.58309865269,2011-01-04 15:23:53,2067.244916106296,7,11,-1.0997490882873535,3.465825080871582,8.263094445653689,8.874064760335697,33.216331693801024,32.08358270192599,-0.0001618862152099,0.1036408320069313,0,0,0
2852,103574.59825119324,2011-01-04 15:24:23,2097.260068651871,7,11,-1.099568486213684,3.4601590633392334,8.263094445653689,8.883232822768557,33.216331693801024,32.115332224258914,-0.0001942634553415,0.1036408320069313,0,0,0
2853,103604.61573560054,2011-01-04 15:24:53,2127.2775531243256,7,11,-1.0993878841400146,3.454331159591675,8.263094445653689,8.892401622334393,33.216331693801024,32.14703158136896,-0.0001618862152099,0.1036408320069313,0,0,0
2854,103634.62845968868,2011-01-04 15:25:23,2157.2902771172,7,11,-1.0993878841400146,3.4480175971984863,8.263094445653689,8.901568970654404,33.216331693801024,32.178669995828905,-0.0001618862152099,0.1036408320069313,0,0,0
2855,103664.64358473568,2011-01-04 15:25:53,2187.305402169253,7,11,-1.099568486213684,3.440894603729248,8.263094445653689,8.910737060672549,33.216331693801024,32.210249535310545,-0.0001942634553415,0.1036408320069313,0,0,0
2856,103694.658714304,2011-01-04 15:26:23,2217.320531727536,7,11,-1.099568486213684,3.43296217918396,8.263094445653689,8.919905096223452,33.216331693801024,32.241759257492454,-0.0001942634553415,0.1036408320069313,0,0,0
2857,103724.67385831832,2011-01-04 15:26:53,2247.335675766911,7,11,-1.0997490882873535,3.4235730171203613,8.263094445653689,8.929073205290365,33.216331693801024,32.273190857912546,-0.0002590179501567,0.1036408320069313,0,0,0
2858,103754.68907725436,2011-01-04 15:27:23,2277.3508947079645,7,11,-1.099568486213684,3.413050413131714,8.263094445653689,8.938241272281324,33.216331693801024,32.30453269946845,-0.0002913951757363,0.1036408320069313,0,0,0
2859,103784.7040727034,2011-01-04 15:27:53,2307.3658901519943,7,11,-1.0997490882873535,3.400423288345337,8.263094445653689,8.947410136569411,33.216331693801024,32.33577090475275,-0.0003885269106831,0.1036408320069313,0,0,0
2860,103814.71920201108,2011-01-04 15:28:23,2337.3810194345906,7,11,-1.099929690361023,3.3855297565460205,8.263094445653689,8.956578995598496,33.216331693801024,32.36688319871624,-0.0003885269106831,0.1036408320069313,0,0,0
2861,103844.73433973972,2011-01-04 15:28:53,2367.3961571732625,7,11,-1.0997490882873535,3.367074728012085,8.263094445653689,8.965747898198753,33.216331693801024,32.397842811329674,-0.0005180359003134,0.1036408320069313,0,0,0
2862,103874.74945784445,2011-01-04 15:29:23,2397.411275293038,7,11,-1.099929690361023,3.34424901008606,8.263094445653689,8.974916732322134,33.216331693801024,32.42861495538202,-0.0006799221155233,0.1036408320069313,0,0,0
2863,103904.76458651052,2011-01-04 15:29:53,2427.426403939048,7,11,-1.0997490882873535,3.3157570362091064,8.263094445653689,8.984084787363772,33.216331693801024,32.45915144502968,-0.0008418083307333,0.1036408320069313,0,0,0
2864,103934.7797204898,2011-01-04 15:30:23,2457.4415379384,7,11,-1.0997490882873535,3.278846979141236,8.263094445653689,8.993252844993606,33.216331693801024,32.489389897378054,-0.0011332035064697,0.1036408320069313,0,0,0
2865,103964.79688247351,2011-01-04 15:30:53,2487.458700087526,7,11,-1.099568486213684,3.230767011642456,8.263094445653689,9.002421576178966,33.216331693801024,32.51924278703135,-0.0014245987404137,0.1036408320069313,0,0,0
2866,103994.8099622832,2011-01-04 15:31:23,2517.471779711743,7,11,-1.0997490882873535,3.165365219116211,8.263094445653689,9.011589003694478,33.216331693801024,32.54857629503947,-0.0020397664047777,0.1036408320069313,0,0,0
2867,104024.8250881974,2011-01-04 15:31:53,2547.4869056259445,7,11,-1.099568486213684,3.074385404586792,8.263094445653689,9.0207570925659,33.216331693801024,32.57720442515448,-0.002816820051521,0.1036408320069313,0,0,0
2868,104054.8403417898,2011-01-04 15:32:23,2577.502159223372,7,11,-1.0993878841400146,2.936620712280273,8.263094445653689,9.029925274038552,33.216331693801024,32.60480830504327,-0.0044356347061693,0.1036408320069313,0,0,0
2869,104083.54483182111,2011-01-04 15:32:52,2606.206649244656,7,11,-1.099568486213684,2.73652982711792,8.263094445653689,9.038693026174313,33.216331693801024,32.629728024131936,-0.0063459398224949,0.1036408320069313,0,0,0
2870,104088.120948527,2011-01-04 15:32:56,2610.7827659856102,7,11,-1.0997490882873535,2.699781894683838,8.263094445653689,9.040090793197544,33.216331693801024,32.63352763851,-0.0064430236816406,0.1036408320069313,0,0,0
2871,104148.13241146204,2011-01-04 15:33:56,60.012581994740735,8,11,0.0,3.5061347484588623,8.263094445653689,9.040090793197544,33.216331693801024,32.63352763851,0.0013598442310467,0.1036408320069313,0,0,0
2872,104148.3197428224,2011-01-04 15:33:57,0.187413817899997,9,11,-1.9243103452026844e-05,3.5062966346740723,8.263094445653689,9.040090794199326,33.216331693801024,32.63352764202256,0.0,0.1004020571708679,0,0,0
2873,104153.14789693302,2011-01-04 15:34:02,5.015567958604522,9,11,0.0003419754502829,3.514390707015991,8.263095239934502,9.040090794283834,33.2163344825814,32.63352764231887,0.0011331557761877,0.1004020571708679,0,0,0
