Data_Point,Test_Time(s),Date_Time,Step_Time(s),Step_Index,Cycle_Index,Current(A),Voltage(V),Charge_Capacity(Ah),Discharge_Capacity(Ah),Charge_Energy(Wh),Discharge_Energy(Wh),dV/dt(V/s),Internal_Resistance(Ohm),Is_FC_Data,AC_Impedance(Ohm),ACI_Phase_Angle(Deg)
10199,391213.505017223,2011-01-07 23:18:58,30.0151196535982,1,41,0.0,3.586430072784424,30.52046153733978,31.257438900179007,123.27678992481144,112.03863935312732,0.0006799221155233,0.1011203974485397,0,0,0
10200,391243.5200921351,2011-01-07 23:19:28,60.030194645886674,1,41,0.0,3.60747504234314,30.52046153733978,31.257438900179007,123.27678992481144,112.03863935312732,0.0005180359003134,0.1011203974485397,0,0,0
10201,391273.5351604257,2011-01-07 23:19:58,90.04526285627256,1,41,0.0,3.622692346572876,30.52046153733978,31.257438900179007,123.27678992481144,112.03863935312732,0.0003561496851034,0.1011203974485397,0,0,0
10202,391303.5034562349,2011-01-07 23:20:28,120.01355864539312,1,41,0.0,3.634186267852783,30.52046153733978,31.257438900179007,123.27678992481144,112.03863935312732,0.0002913951757363,0.1011203974485397,0,0,0
10203,391333.51381446846,2011-01-07 23:20:58,30.01519747254696,2,41,0.5501165986061096,3.760133266448975,30.52504795937422,31.257438900179007,123.29393815008864,112.03863935312732,0.0009065627818927,0.1011203974485397,0,0,0
10204,391363.5290776799,2011-01-07 23:21:28,60.03046068894784,2,41,0.5501165986061096,3.784901857376098,30.52963446886396,31.257438900179007,123.31124568780446,112.03863935312732,0.0004856586456298,0.1011203974485397,0,0,0
10205,391393.5440251444,2011-01-07 23:21:58,90.0454081533977,2,41,0.5501165986061096,3.799795389175415,30.534220858092404,31.257438900179007,123.32864137564292,112.03863935312732,0.0003237724304199,0.1011203974485397,0,0,0
10206,391423.5591374045,2011-01-07 23:22:28,120.06052043361916,2,41,0.5501165986061096,3.810156106948853,30.53880727757986,31.257438900179007,123.346093533503,112.03863935312732,0.0002590179501567,0.1011203974485397,0,0,0
10207,391453.57428217074,2011-01-07 23:22:58,150.07566517474322,2,41,0.550297200679779,3.8185741901397705,30.543393671572566,31.257438900179007,123.36358795492356,112.03863935312732,0.0002266406954731,0.1011203974485397,0,0,0
10208,391483.59235027776,2011-01-07 23:23:28,180.09373339708196,2,41,0.550297200679779,3.8260209560394287,30.547980542430043,31.257438900179007,123.3811202022887,112.03863935312732,0.0002266406954731,0.1011203974485397,0,0,0
10209,391513.60455133725,2011-01-07 23:23:58,210.1059344516333,2,41,0.5499359965324402,3.832658290863037,30.55256650429186,31.257438900179007,123.39868143820796,112.03863935312732,0.0001295089750783,0.1011203974485397,0,0,0
10210,391543.61965274543,2011-01-07 23:24:28,240.1210357795583,2,41,0.5501165986061096,3.839133501052856,30.557152880721905,31.257438900179007,123.41627438077256,112.03863935312732,0.0001942634553415,0.1011203974485397,0,0,0
10211,391573.6348058274,2011-01-07 23:24:58,270.1361888464327,2,41,0.5499359965324402,3.844961404800415,30.561739292511703,31.257438900179007,123.4338958503218,112.03863935312732,0.0001295089750783,0.1011203974485397,0,0,0
10212,391603.6500000618,2011-01-07 23:25:28,300.1513831811592,2,41,0.5501165986061096,3.8507893085479736,30.56632571799724,31.257438900179007,123.45154407460856,112.03863935312732,0.0001618862152099,0.1011203974485397,0,0,0
10213,391633.6651835996,2011-01-07 23:25:58,330.16656661371417,2,41,0.5501165986061096,3.856293439865112,30.570912168475097,31.257438900179007,123.469217781492,112.03863935312732,0.0001618862152099,0.1011203974485397,0,0,0
10214,391663.68022031646,2011-01-07 23:26:28,360.1816033506586,2,41,0.550297200679779,3.861473798751831,30.57549854997228,31.257438900179007,123.48691555730436,112.03863935312732,0.0001618862152099,0.1011203974485397,0,0,0
10215,391693.69533389504,2011-01-07 23:26:58,390.1967169040532,2,41,0.550297200679779,3.86649227142334,30.58008500052799,31.257438900179007,123.50463695100596,112.03863935312732,0.0001942634553415,0.1011203974485397,0,0,0
10216,391723.7104775183,2011-01-07 23:27:29,420.2118605524538,2,41,0.5501165986061096,3.8711869716644287,30.58467149721941,31.257438900179007,123.52238092780424,112.03863935312732,0.0001295089750783,0.1011203974485397,0,0,0
10217,391753.7256007609,2011-01-07 23:27:59,450.2269837649218,2,41,0.5499359965324402,3.875719785690308,30.58925800431263,31.257438900179007,123.54014660077075,112.03863935312732,9.713172767078504e-05,0.1011203974485397,0,0,0
10218,391783.7407498077,2011-01-07 23:28:29,480.2421328167896,2,41,0.5501165986061096,3.8802525997161865,30.59384455467778,31.257438900179007,123.55793360900417,112.03863935312732,9.713172767078504e-05,0.1011203974485397,0,0,0
10219,391813.75588903006,2011-01-07 23:28:59,510.25727205920913,2,41,0.5499359965324402,3.884623527526856,30.598431025802405,31.257438900179007,123.57574093246146,112.03863935312732,9.713172767078504e-05,0.1011203974485397,0,0,0
10220,391843.7710147488,2011-01-07 23:29:29,540.272397752861,2,41,0.5501165986061096,3.8891563415527344,30.603017469245188,31.257438900179007,123.5935680935108,112.03863935312732,0.0001618862152099,0.1011203974485397,0,0,0
10221,391873.786260632,2011-01-07 23:29:59,570.2876436510996,2,41,0.5501165986061096,3.893203496932984,30.607604200986746,31.257438900179007,123.61141587056096,112.03863935312732,9.713172767078504e-05,0.1011203974485397,0,0,0
10222,391903.8013927767,2011-01-07 23:30:29,600.3027757958296,2,41,0.5501165986061096,3.897250652313232,30.61219146986134,31.257438900179007,123.62928439821168,112.03863935312732,9.713172767078504e-05,0.1011203974485397,0,0,0
10223,391933.816425193,2011-01-07 23:30:59,630.3178082019803,2,41,0.5501165986061096,3.9009740352630615,30.616778513213987,31.257438900179007,123.6471699564141,112.03863935312732,9.713172767078504e-05,0.1011203974485397,0,0,0
10224,391963.8315467212,2011-01-07 23:31:29,660.3329297252383,2,41,0.5501165986061096,3.9048593044281006,30.62136497810403,31.257438900179007,123.66507053975997,112.03863935312732,0.0001295089750783,0.1011203974485397,0,0,0
10225,391993.8468033864,2011-01-07 23:31:59,690.3481864153737,2,41,0.5501165986061096,3.9082589149475098,30.62595142138924,31.257438900179007,123.68298752619926,112.03863935312732,9.713172767078504e-05,0.1011203974485397,0,0,0
10226,392023.8618422534,2011-01-07 23:32:29,720.36322528764,2,41,0.5499359965324402,3.911658525466919,30.630537833270925,31.257438900179007,123.70092031854912,112.03863935312732,6.47544875391759e-05,0.1011203974485397,0,0,0
10227,392053.8769429198,2011-01-07 23:32:59,750.3783259489035,2,41,0.5501165986061096,3.914896011352539,30.63512426689333,31.257438900179007,123.71886830611764,112.03863935312732,9.713172767078504e-05,0.1011203974485397,0,0,0
10228,392083.8921337157,2011-01-07 23:33:29,780.3935168199976,2,41,0.550297200679779,3.917971849441528,30.63971071763815,31.257438900179007,123.73683060720964,112.03863935312732,6.47544875391759e-05,0.1011203974485397,0,0,0
10229,392113.9073367421,2011-01-07 23:33:59,810.4087197862364,2,41,0.550297200679779,3.920885801315308,30.644297192919822,31.257438900179007,123.75480667684305,112.03863935312732,9.713172767078504e-05,0.1011203974485397,0,0,0
10230,392143.92249322747,2011-01-07 23:34:29,840.4238762716309,2,41,0.550297200679779,3.923637866973877,30.64888369185324,31.257438900179007,123.77279591476436,112.03863935312732,9.713172767078504e-05,0.1011203974485397,0,0,0
10231,392173.9374859949,2011-01-07 23:34:59,870.4388690089146,2,41,0.5501165986061096,3.9263899326324463,30.653470147627456,31.257438900179007,123.79079755309093,112.03863935312732,6.47544875391759e-05,0.1011203974485397,0,0,0
10232,392203.9547842382,2011-01-07 23:35:29,900.4561673424535,2,41,0.5501165986061096,3.928818225860596,30.658056935907705,31.257438900179007,123.8088125281972,112.03863935312732,6.47544875391759e-05,0.1011203974485397,0,0,0
10233,392233.9677644346,2011-01-07 23:35:59,930.469147438616,2,41,0.5501165986061096,3.931246519088745,30.662643042586343,31.257438900179007,123.8268365175545,112.03863935312732,6.47544875391759e-05,0.1011203974485397,0,0,0
10234,392263.98290288507,2011-01-07 23:36:29,960.484285889062,2,41,0.5501165986061096,3.933836698532105,30.667229484682245,31.257438900179007,123.84487322899496,112.03863935312732,6.47544875391759e-05,0.1011203974485397,0,0,0
10235,392293.9980515008,2011-01-07 23:36:59,990.4994345048428,2,41,0.550297200679779,3.936264991760254,30.67181591516496,31.257438900179007,123.86292102098112,112.03863935312732,6.47544875391759e-05,0.1011203974485397,0,0,0
10236,392324.0133849322,2011-01-07 23:37:29,1020.514767966316,2,41,0.5501165986061096,3.938531398773194,30.676402389853877,31.257438900179007,123.88097983765935,112.03863935312732,3.237724376958795e-05,0.1011203974485397,0,0,0
10237,392354.0283170485,2011-01-07 23:37:59,1050.5297000524383,2,41,0.5501165986061096,3.940959692001343,30.680988718425827,31.257438900179007,123.89904890505989,112.03863935312732,6.47544875391759e-05,0.1011203974485397,0,0,0
10238,392384.0434462557,2011-01-07 23:38:29,1080.54482926486,2,41,0.5501165986061096,3.943226099014282,30.685575180906376,31.257438900179007,123.91712911021328,112.03863935312732,9.713172767078504e-05,0.1011203974485397,0,0,0
10239,392414.0585896335,2011-01-07 23:38:59,1110.559972642586,2,41,0.5501165986061096,3.9454925060272217,30.690161613577285,31.257438900179007,123.93521972599716,112.03863935312732,9.713172767078504e-05,0.1011203974485397,0,0,0
10240,392444.073753768,2011-01-07 23:39:29,1140.5751368071192,2,41,0.5501165986061096,3.947758913040161,30.694748121500016,31.257438900179007,123.9533210831089,112.03863935312732,6.47544875391759e-05,0.1011203974485397,0,0,0
10241,392474.088850314,2011-01-07 23:39:59,1170.5902333230513,2,41,0.5501165986061096,3.950187206268311,30.699334582591245,31.257438900179007,123.971432596368,112.03863935312732,0.0001295089750783,0.1011203974485397,0,0,0
10242,392504.1039822031,2011-01-07 23:40:29,1200.605365212144,2,41,0.5499359965324402,3.95212984085083,30.703921028738183,31.257438900179007,123.9895542890646,112.03863935312732,3.237724376958795e-05,0.1011203974485397,0,0,0
10243,392534.11924782046,2011-01-07 23:40:59,1230.620630849579,2,41,0.5499359965324402,3.9543962478637695,30.708507477008965,31.257438900179007,124.00768613818964,112.03863935312732,6.47544875391759e-05,0.1011203974485397,0,0,0
10244,392564.1342196207,2011-01-07 23:41:29,1260.6356026246183,2,41,0.550297200679779,3.956662654876709,30.713093545237733,31.257438900179007,124.0258265216922,112.03863935312732,9.713172767078504e-05,0.1011203974485397,0,0,0
10245,392594.1493481362,2011-01-07 23:41:59,1290.650731165366,2,41,0.5499359965324402,3.958929061889648,30.71767922467745,31.257438900179007,124.04397526333798,112.03863935312732,9.713172767078504e-05,0.1011203974485397,0,0,0
10246,392624.1646408762,2011-01-07 23:42:29,1320.6660238953236,2,41,0.5499359965324402,3.960871696472168,30.722264981833472,31.257438900179007,124.06213432408694,112.03863935312732,3.237724376958795e-05,0.1011203974485397,0,0,0
10247,392654.179673112,2011-01-07 23:42:59,1350.681056116012,2,41,0.5499359965324402,3.9631381034851074,30.726850652220264,31.257438900179007,124.08030294928952,112.03863935312732,6.47544875391759e-05,0.1011203974485397,0,0,0
10248,392684.1947958934,2011-01-07 23:43:29,1380.6961789224683,2,41,0.5501165986061096,3.965404510498047,30.731436345050124,31.257438900179007,124.09848157425844,112.03863935312732,6.47544875391759e-05,0.1011203974485397,0,0,0
10249,392714.2100527088,2011-01-07 23:43:59,1410.7114357329035,2,41,0.5499359965324402,3.9673471450805664,30.736022037541417,31.257438900179007,124.11667012307528,112.03863935312732,6.47544875391759e-05,0.1011203974485397,0,0,0
10250,392744.2250655462,2011-01-07 23:44:29,1440.7264485702829,2,41,0.5501165986061096,3.969613552093506,30.740607993527767,31.257438900179007,124.1348694937424,112.03863935312732,6.47544875391759e-05,0.1011203974485397,0,0,0
10251,392774.2402252747,2011-01-07 23:44:59,1470.7416082937475,2,41,0.5501165986061096,3.971879959106445,30.745194576253738,31.257438900179007,124.15308133075824,112.03863935312732,9.713172767078504e-05,0.1011203974485397,0,0,0
10252,392804.2553265023,2011-01-07 23:45:29,1500.7567095214226,2,41,0.5501165986061096,3.973822593688965,30.749781195826,31.257438900179007,124.17130308697506,112.03863935312732,3.237724376958795e-05,0.1011203974485397,0,0,0
10253,392834.2707352665,2011-01-07 23:45:59,1530.7721183808103,2,41,0.5501165986061096,3.9759271144866943,30.754367825219436,31.257438900179007,124.18953461458489,112.03863935312732,6.47544875391759e-05,0.1011203974485397,0,0,0
10254,392864.2856001952,2011-01-07 23:46:29,1560.7869832293563,2,41,0.550297200679779,3.977869749069214,30.758954416785087,31.257438900179007,124.20777558309764,112.03863935312732,3.237724376958795e-05,0.1011203974485397,0,0,0
10255,392894.30075161805,2011-01-07 23:46:59,1590.8021346270705,2,41,0.5501165986061096,3.9802980422973633,30.76354090775219,31.257438900179007,124.22602572233356,112.03863935312732,3.237724376958795e-05,0.1011203974485397,0,0,0
10256,392924.3158632216,2011-01-07 23:47:29,1620.817246225593,2,41,0.5501165986061096,3.982240676879883,30.768127414685743,31.257438900179007,124.24428585441484,112.03863935312732,3.237724376958795e-05,0.1011203974485397,0,0,0
10257,392954.3311126335,2011-01-07 23:47:59,1650.832495637589,2,41,0.5501165986061096,3.984345197677612,30.77271390126389,31.257438900179007,124.26255552548702,112.03863935312732,3.237724376958795e-05,0.1011203974485397,0,0,0
10258,392984.3461191653,2011-01-07 23:48:29,1680.8475021692525,2,41,0.5499359965324402,3.986449718475342,30.7773003933611,31.257438900179007,124.28083493242534,112.03863935312732,3.237724376958795e-05,0.1011203974485397,0,0,0
10259,393014.3612687986,2011-01-07 23:48:59,1710.862651827632,2,41,0.5499359965324402,3.9885542392730713,30.78188687790471,31.257438900179007,124.2991238830156,112.03863935312732,6.47544875391759e-05,0.1011203974485397,0,0,0
10260,393044.3764054645,2011-01-07 23:49:29,1740.8777884735805,2,41,0.5501165986061096,3.990658760070801,30.78647332811928,31.257438900179007,124.31742230972418,112.03863935312732,3.237724376958795e-05,0.1011203974485397,0,0,0
10261,393074.3915445967,2011-01-07 23:49:59,1770.8929276057252,2,41,0.5499359965324402,3.9927632808685294,30.791059807742705,31.257438900179007,124.33573055049048,112.03863935312732,6.47544875391759e-05,0.1011203974485397,0,0,0
10262,393104.4066560549,2011-01-07 23:50:29,1800.9080390739227,2,41,0.5501165986061096,3.99502944946289,30.79564628288087,31.257438900179007,124.35404841591289,112.03863935312732,9.713172767078504e-05,0.1011203974485397,0,0,0
10263,393134.4218695573,2011-01-07 23:50:59,1830.9232525714087,2,41,0.5504778623580933,3.99729585647583,30.800232800812108,31.257438900179007,124.37237622524158,112.03863935312732,6.47544875391759e-05,0.1011203974485397,0,0,0
10264,393164.43706564646,2011-01-07 23:51:29,1860.93844866552,2,41,0.5501165986061096,3.9992384910583496,30.8048193546127,31.257438900179007,124.39071388368276,112.03863935312732,6.47544875391759e-05,0.1011203974485397,0,0,0
10265,393194.4520577622,2011-01-07 23:51:59,1890.9534407962924,2,41,0.5501165986061096,4.001343250274658,30.809405825681957,31.257438900179007,124.40906107656134,112.03863935312732,6.47544875391759e-05,0.1011203974485397,0,0,0
10266,393224.4671963579,2011-01-07 23:52:29,1920.9685793670376,2,41,0.5501165986061096,4.003447532653809,30.813992342317466,31.257438900179007,124.42741844489235,112.03863935312732,0.0,0.1011203974485397,0,0,0
10267,393254.4823389437,2011-01-07 23:52:59,1950.9837219477777,2,41,0.5499359965324402,4.005713939666748,30.818578802320182,31.257438900179007,124.44578543722416,112.03863935312732,6.47544875391759e-05,0.1011203974485397,0,0,0
10268,393284.49750201055,2011-01-07 23:53:29,1980.9988850195875,2,41,0.5501165986061096,4.007818698883057,30.823165316139832,31.257438900179007,124.46416268083026,112.03863935312732,6.47544875391759e-05,0.1011203974485397,0,0,0
10269,393314.5126205864,2011-01-07 23:53:59,2011.0140035955,2,41,0.550297200679779,4.010246753692627,30.82775186912364,31.257438900179007,124.48255012546932,112.03863935312732,9.70840483205393e-05,0.1011203974485397,0,0,0
10270,393344.52777369344,2011-01-07 23:54:29,2041.0291568177613,2,41,0.550297200679779,4.012513160705566,30.83233839585805,31.257438900179007,124.5009476534144,112.03863935312732,9.70840483205393e-05,0.1011203974485397,0,0,0
10271,393374.5428804048,2011-01-07 23:54:59,2071.0442634188285,2,41,0.5501165986061096,4.014617919921875,30.83692491627641,31.257438900179007,124.51935550489912,112.03863935312732,9.71794142969884e-05,0.1011203974485397,0,0,0
10272,393404.5603313588,2011-01-07 23:55:29,2101.061714472994,2,41,0.5501165986061096,4.016722202301025,30.841511798889247,31.257438900179007,124.53777511236852,112.03863935312732,3.23295607813634e-05,0.1011203974485397,0,0,0
10273,393434.57332051743,2011-01-07 23:55:59,2131.0747036217185,2,41,0.5501165986061096,4.019150733947754,30.84609803073712,31.257438900179007,124.55620253164696,112.03863935312732,9.71794142969884e-05,0.1011203974485397,0,0,0
10274,393464.588279651,2011-01-07 23:56:29,2161.089662665027,2,41,0.5501165986061096,4.021417140960693,30.85068452724916,31.257438900179007,124.57464146202366,112.03863935312732,6.47544875391759e-05,0.1011203974485397,0,0,0
10275,393494.60344603605,2011-01-07 23:56:59,2191.104829070144,2,41,0.5501165986061096,4.023683547973633,30.85527099558595,31.257438900179007,124.5930909204375,112.03863935312732,3.24249267578125e-05,0.1011203974485397,0,0,0
10276,393524.6185724966,2011-01-07 23:57:29,2221.119955525695,2,41,0.5501165986061096,4.026111602783203,30.85985750550649,31.257438900179007,124.61155124523027,112.03863935312732,3.23295607813634e-05,0.1011203974485397,0,0,0
10277,393554.63380837487,2011-01-07 23:57:59,2251.135191393936,2,41,0.550297200679779,4.028378009796143,30.86444401674961,31.257438900179007,124.63002245542724,112.03863935312732,3.23295607813634e-05,0.1011203974485397,0,0,0
10278,393584.6489429006,2011-01-07 23:58:29,2281.1503259196,2,41,0.5499359965324402,4.030806541442871,30.86903054546715,31.257438900179007,124.6485046381593,112.03863935312732,6.47544875391759e-05,0.1011203974485397,0,0,0
10279,393614.664122268,2011-01-07 23:58:59,2311.165505276998,2,41,0.550297200679779,4.033396720886231,30.87361700215166,31.257438900179007,124.66699754214214,112.03863935312732,9.71794142969884e-05,0.1011203974485397,0,0,0
10280,393644.6792467536,2011-01-07 23:59:30,2341.180629777677,2,41,0.5499359965324402,4.035501003265381,30.87820348177365,31.257438900179007,124.68550167810292,112.03863935312732,3.24249267578125e-05,0.1011203974485397,0,0,0
10281,393674.6943592494,2011-01-08 00:00:00,2371.1957422634105,2,41,0.5501165986061096,4.038252830505371,30.88278992111333,31.257438900179007,124.70401696055352,112.03863935312732,9.70840483205393e-05,0.1011203974485397,0,0,0
10282,393704.7093861618,2011-01-08 00:00:30,2401.2107691909064,2,41,0.5501165986061096,4.0406813621521,30.887376437237005,31.257438900179007,124.72254397749178,112.03863935312732,6.47544875391759e-05,0.1011203974485397,0,0,0
10283,393734.72462916287,2011-01-08 00:01:00,2431.2260121818995,2,41,0.5501165986061096,4.043271541595459,30.891962965869293,31.257438900179007,124.74108257739674,112.03863935312732,6.47544875391759e-05,0.1011203974485397,0,0,0
10284,393764.73967301246,2011-01-08 00:01:30,2461.2410560265585,2,41,0.5501165986061096,4.045861721038818,30.89654940708543,31.257438900179007,124.7596325180877,112.03863935312732,6.47544875391759e-05,0.1011203974485397,0,0,0
10285,393794.7547734182,2011-01-08 00:02:00,2491.2561564271723,2,41,0.5501165986061096,4.048451900482178,30.901135893985405,31.257438900179007,124.77819433643772,112.03863935312732,9.71794142969884e-05,0.1011203974485397,0,0,0
10286,393824.7699101192,2011-01-08 00:02:30,2521.271293123246,2,41,0.5501165986061096,4.050879955291748,30.905722368756745,31.257438900179007,124.79676790277256,112.03863935312732,6.47544875391759e-05,0.1011203974485397,0,0,0
10287,393854.7850461486,2011-01-08 00:03:00,2551.286429147645,2,41,0.5497553944587708,4.053470134735107,30.91030881732289,31.257438900179007,124.81535337224084,112.03863935312732,3.23295607813634e-05,0.1011203974485397,0,0,0
10288,393884.8001939173,2011-01-08 00:03:30,2581.3015769263397,2,41,0.550297200679779,4.056222438812256,30.914895326111708,31.257438900179007,124.83395126910932,112.03863935312732,6.47544875391759e-05,0.1011203974485397,0,0,0
10289,393914.81546381535,2011-01-08 00:04:00,2611.3168468444437,2,41,0.550297200679779,4.058974266052246,30.9194818596607,31.257438900179007,124.8525615268616,112.03863935312732,6.47544875391759e-05,0.1011203974485397,0,0,0
10290,393944.8304434049,2011-01-08 00:04:30,2641.331826418921,2,41,0.5499359965324402,4.061402797698975,30.92406838546206,31.257438900179007,124.8711839312124,112.03863935312732,6.47544875391759e-05,0.1011203974485397,0,0,0
10291,393974.84571463626,2011-01-08 00:05:00,2671.3470976553103,2,41,0.5501165986061096,4.064316749572754,30.92865481649549,31.257438900179007,124.88981838037304,112.03863935312732,9.71794142969884e-05,0.1011203974485397,0,0,0
10292,394004.86074718775,2011-01-08 00:05:30,2701.362130216848,2,41,0.5501165986061096,4.067068576812744,30.933241279760665,31.257438900179007,124.90846570451568,112.03863935312732,3.23295607813634e-05,0.1011203974485397,0,0,0
10293,394034.87599660974,2011-01-08 00:06:00,2731.3773796338564,2,41,0.5501165986061096,4.069820880889893,30.9378277914842,31.257438900179007,124.92712596571202,112.03863935312732,6.47544875391759e-05,0.1011203974485397,0,0,0
10294,394064.8911422882,2011-01-08 00:06:30,2761.3925252972795,2,41,0.5501165986061096,4.072734832763672,30.94241429708607,31.257438900179007,124.9457989940243,112.03863935312732,9.71794142969884e-05,0.1011203974485397,0,0,0
10295,394094.9060167106,2011-01-08 00:07:00,2791.407399739736,2,41,0.5499359965324402,4.075486660003662,30.94700073307291,31.257438900179007,124.9644847481444,112.03863935312732,3.23295607813634e-05,0.1011203974485397,0,0,0
10296,394124.92360388907,2011-01-08 00:07:30,2821.424986998365,2,41,0.5499359965324402,4.078400611877441,30.951587597305608,31.257438900179007,124.98318540520728,112.03863935312732,9.70840483205393e-05,0.1011203974485397,0,0,0
10297,394154.9363714354,2011-01-08 00:08:00,2851.4377544645886,2,41,0.5501165986061096,4.081314563751221,30.95617369035164,31.257438900179007,125.001896291463,112.03863935312732,6.47544875391759e-05,0.1011203974485397,0,0,0
10298,394184.95150200126,2011-01-08 00:08:30,2881.452885030383,2,41,0.5501165986061096,4.084228515625,30.96076010985814,31.257438900179007,125.02062182201664,112.03863935312732,9.70840483205393e-05,0.1011203974485397,0,0,0
10299,394214.9666882909,2011-01-08 00:09:00,2911.4680713401094,2,41,0.550297200679779,4.087304592132568,30.965346610843824,31.257438900179007,125.0393612916013,112.03863935312732,9.71794142969884e-05,0.1011203974485397,0,0,0
10300,394244.9819972013,2011-01-08 00:09:30,2941.4833802052813,2,41,0.5501165986061096,4.0903801918029785,30.96993316264346,31.257438900179007,125.05811470431031,112.03863935312732,0.0001295089750783,0.1011203974485397,0,0,0
10301,394274.9969325356,2011-01-08 00:10:00,2971.498315554536,2,41,0.5501165986061096,4.093294143676758,30.974519666549725,31.257438900179007,125.07688167947272,112.03863935312732,9.70840483205393e-05,0.1011203974485397,0,0,0
10302,394305.0121609802,2011-01-08 00:10:30,3001.51354398925,2,41,0.550297200679779,4.096370220184326,30.979106179226022,31.257438900179007,125.09566260507032,112.03863935312732,6.47544875391759e-05,0.1011203974485397,0,0,0
10303,394335.0272106444,2011-01-08 00:11:00,3031.5285936784758,2,41,0.5501165986061096,4.099445819854736,30.983692696575428,31.257438900179007,125.11445764641344,112.03863935312732,6.47544875391759e-05,0.1011203974485397,0,0,0
10304,394365.0423393254,2011-01-08 00:11:30,3061.5437223294985,2,41,0.5501165986061096,4.102683544158936,30.988279315488345,31.257438900179007,125.13326726423834,112.03863935312732,0.0001295089750783,0.1011203974485397,0,0,0
10305,394395.0575806924,2011-01-08 00:12:00,3091.558963811731,2,41,0.550297200679779,4.105759620666504,30.992865822757704,31.257438900179007,125.1520907162904,112.03863935312732,9.71794142969884e-05,0.1011203974485397,0,0,0
10306,394425.0725975198,2011-01-08 00:12:30,3121.5739805187545,2,41,0.5501165986061096,4.108997344970703,30.99745229647014,31.257438900179007,125.17092854591418,112.03863935312732,0.0001295089750783,0.1011203974485397,0,0,0
10307,394455.0878609115,2011-01-08 00:13:00,3151.5892439406675,2,41,0.5501165986061096,4.111911296844482,31.00203884177128,31.257438900179007,125.18978125684195,112.03863935312732,6.47544875391759e-05,0.1011203974485397,0,0,0
10308,394485.1028803554,2011-01-08 00:13:30,3181.6042633594498,2,41,0.5501165986061096,4.1153106689453125,31.006625342537006,31.257438900179007,125.20864836219955,112.03863935312732,0.0001295089750783,0.1011203974485397,0,0,0
10309,394515.1181193314,2011-01-08 00:14:00,3211.619502345461,2,41,0.5501165986061096,4.118710041046143,31.01121185619836,31.257438900179007,125.22753036857634,112.03863935312732,0.0001618385285837,0.1011203974485397,0,0,0
10310,394545.1332715361,2011-01-08 00:14:30,3241.634654575249,2,41,0.5501165986061096,4.121786117553711,31.015798411427756,31.257438900179007,125.24642757889929,112.03863935312732,6.47544875391759e-05,0.1011203974485397,0,0,0
10311,394575.1482681731,2011-01-08 00:15:00,3271.649651182177,2,41,0.5501165986061096,4.125185489654541,31.02038495714765,31.257438900179007,125.26533986026736,112.03863935312732,9.70840483205393e-05,0.1011203974485397,0,0,0
10312,394605.1635413694,2011-01-08 00:15:30,3301.664924388476,2,41,0.5501165986061096,4.12842321395874,31.02497149506923,31.257438900179007,125.28426740648806,112.03863935312732,9.70840483205393e-05,0.1011203974485397,0,0,0
10313,394635.17867479735,2011-01-08 00:16:00,3331.680057816404,2,41,0.5501165986061096,4.131984710693359,31.029558067068425,31.257438900179007,125.30321051668103,112.03863935312732,0.0001295089750783,0.1011203974485397,0,0,0
10314,394665.1936845821,2011-01-08 00:16:30,3361.695067586138,2,41,0.5501165986061096,4.135222434997559,31.03414466688176,31.257438900179007,125.32216919855362,112.03863935312732,6.47544875391759e-05,0.1011203974485397,0,0,0
10315,394695.20889822993,2011-01-08 00:17:00,3391.7102812339986,2,41,0.5501165986061096,4.138622283935547,31.038731309129645,31.257438900179007,125.3411437035126,112.03863935312732,9.71794142969884e-05,0.1011203974485397,0,0,0
10316,394725.223958656,2011-01-08 00:17:30,3421.725341664996,2,41,0.5501165986061096,4.142021656036377,31.04331786703176,31.257438900179007,125.3601336470484,112.03863935312732,6.47544875391759e-05,0.1011203974485397,0,0,0
10317,394755.23939023697,2011-01-08 00:18:00,3451.740773256038,2,41,0.5501165986061096,4.145583152770996,31.04790443726489,31.257438900179007,125.37913971280508,112.03863935312732,9.70840483205393e-05,0.1011203974485397,0,0,0
10318,394785.2542112864,2011-01-08 00:18:30,3481.755594285373,2,41,0.550297200679779,4.149306774139404,31.052490933791077,31.257438900179007,125.39816184799363,112.03863935312732,0.0001295089750783,0.1011203974485397,0,0,0
10319,394815.2693796464,2011-01-08 00:19:00,3511.7707626604,2,41,0.5501165986061096,4.152706146240234,31.057077475955,31.257438900179007,125.41720047807053,112.03863935312732,6.47544875391759e-05,0.1011203974485397,0,0,0
10320,394845.28449248296,2011-01-08 00:19:30,3541.785875486983,2,41,0.5501165986061096,4.156429767608643,31.061664009957177,31.257438900179007,125.43625547550548,112.03863935312732,9.71794142969884e-05,0.1011203974485397,0,0,0
10321,394875.2997456844,2011-01-08 00:20:00,3571.801128703461,2,41,0.5499359965324402,4.159829139709473,31.066250503392137,31.257438900179007,125.45532681831564,112.03863935312732,6.47544875391759e-05,0.1011203974485397,0,0,0
10322,394905.31475264207,2011-01-08 00:20:30,3601.8161356561736,2,41,0.5499359965324402,4.163714408874512,31.070837001897964,31.257438900179007,125.47441485347662,112.03863935312732,0.0001295089750783,0.1011203974485397,0,0,0
10323,394935.32989919273,2011-01-08 00:21:00,3631.8312821967834,2,41,0.5501165986061096,4.167275905609131,31.07542354762,31.257438900179007,125.49351964828392,112.03863935312732,9.70840483205393e-05,0.1011203974485397,0,0,0
10324,394965.3450403901,2011-01-08 00:21:30,3661.8464234241487,2,41,0.5501165986061096,4.17083740234375,31.0800100727627,31.257438900179007,125.51264116113634,112.03863935312732,9.70840483205393e-05,0.1011203974485397,0,0,0
10325,394995.3602906692,2011-01-08 00:22:00,3691.861673683257,2,41,0.5501165986061096,4.174561023712158,31.084596662602404,31.257438900179007,125.53177991359571,112.03863935312732,9.71794142969884e-05,0.1011203974485397,0,0,0
10326,395025.3753070955,2011-01-08 00:22:30,3721.876690109581,2,41,0.5501165986061096,4.178446292877197,31.089183175793757,31.257438900179007,125.55093533783746,112.03863935312732,0.0001295089750783,0.1011203974485397,0,0,0
10327,395055.3904313005,2011-01-08 00:23:00,3751.891814334572,2,41,0.5501165986061096,4.182007789611816,31.093769691743045,31.257438900179007,125.57010797859802,112.03863935312732,6.47544875391759e-05,0.1011203974485397,0,0,0
10328,395085.4055771443,2011-01-08 00:23:30,3781.9069601483698,2,41,0.5501165986061096,4.185893058776856,31.09835621335027,31.257438900179007,125.58929790221032,112.03863935312732,9.71794142969884e-05,0.1011203974485397,0,0,0
10329,395115.4207125372,2011-01-08 00:24:00,3811.922095571269,2,41,0.5501165986061096,4.189939975738525,31.10294268071088,31.257438900179007,125.6085051401922,112.03863935312732,0.0001618385285837,0.1011203974485397,0,0,0
10330,395145.435837935,2011-01-08 00:24:30,3841.9372209491344,2,41,0.5501165986061096,4.193663597106934,31.107529164545937,31.257438900179007,125.62773000274832,112.03863935312732,9.71794142969884e-05,0.1011203974485397,0,0,0
10331,395175.4510152474,2011-01-08 00:25:00,3871.952398261437,2,41,0.5501165986061096,4.197386741638184,31.112115699120444,31.257438900179007,125.64697285066032,112.03863935312732,9.71794142969884e-05,0.1011203974485397,0,0,0
10332,395194.4037951014,2011-01-08 00:25:19,3890.905178100419,2,41,0.550297200679779,4.200138568878174,31.11501182382294,31.257438900179007,125.6591327621607,112.03863935312732,0.0001618385285837,0.1011203974485397,0,0,0
10333,395224.4151073741,2011-01-08 00:25:49,30.01509251596286,3,41,0.0,4.101226806640625,31.11501182382294,31.257438900179007,125.6591327621607,112.03863935312732,-0.0004532813909463,0.1011203974485397,0,0,0
10334,395254.4307425525,2011-01-08 00:26:19,60.03072779966995,3,41,0.0,4.088437557220459,31.11501182382294,31.257438900179007,125.6591327621607,112.03863935312732,-0.0002590179501567,0.1011203974485397,0,0,0
10335,395284.4321629634,2011-01-08 00:26:49,90.03214819049015,3,41,0.0,4.08082914352417,31.11501182382294,31.257438900179007,125.6591327621607,112.03863935312732,-9.70840483205393e-05,0.1011203974485397,0,0,0
10336,395314.4136319993,2011-01-08 00:27:19,120.01361713617014,3,41,0.0,4.075486660003662,31.11501182382294,31.257438900179007,125.6591327621607,112.03863935312732,-0.0001619339018361,0.1011203974485397,0,0,0
10337,395314.4274383406,2011-01-08 00:27:20,2.636571147e-06,4,41,1.0234935283660889,4.199814796447754,31.115011824572527,31.257438900179007,125.65913276530884,112.03863935312732,0.0,0.1011203974485397,0,0,0
10338,395315.161934496,2011-01-08 00:27:20,0.734498842114192,4,41,0.9729229211807252,4.199814796447754,31.11521419498835,31.257438900179007,125.65998268361326,112.03863935312732,0.0,0.1011203974485397,0,0,0
10339,395317.0211990203,2011-01-08 00:27:22,2.593763321277646,4,41,0.9223523139953612,4.199814796447754,31.11570267525558,31.257438900179007,125.66203419969358,112.03863935312732,0.0,0.1011203974485397,0,0,0
10340,395319.8335912772,2011-01-08 00:27:25,5.406155588158179,4,41,0.8723235726356506,4.199653148651123,31.11640268851011,31.257438900179007,125.66497411226808,112.03863935312732,0.0,0.1011203974485397,0,0,0
10341,395323.7087171632,2011-01-08 00:27:29,9.28128148423764,4,41,0.8219335675239563,4.199653148651123,31.11731339739356,31.257438900179007,125.66879889113208,112.03863935312732,-3.23295607813634e-05,0.1011203974485397,0,0,0
10342,395328.8023230464,2011-01-08 00:27:34,14.374887357336748,4,41,0.7719048261642456,4.199653148651123,31.118439522941465,31.257438900179007,125.67352840093804,112.03863935312732,-3.23295607813634e-05,0.1011203974485397,0,0,0
10343,395335.39596316137,2011-01-08 00:27:40,20.968527482340605,4,41,0.7218760251998901,4.199814796447754,31.119805425782623,31.257438900179007,125.67926494124085,112.03863935312732,3.23295607813634e-05,0.1011203974485397,0,0,0
10344,395344.03633650526,2011-01-08 00:27:49,29.608900806240165,4,41,0.67166668176651,4.199814796447754,31.12147504993294,31.257438900179007,125.68627707602964,112.03863935312732,3.23295607813634e-05,0.1011203974485397,0,0,0
10345,395355.94250004325,2011-01-08 00:28:01,41.51506435423671,4,41,0.6216378808021545,4.199976921081543,31.123609239971632,31.257438900179007,125.69524031486836,112.03863935312732,3.24249267578125e-05,0.1011203974485397,0,0,0
10346,395373.50473973335,2011-01-08 00:28:19,59.07730405934792,4,41,0.5714285373687744,4.199814796447754,31.126510838788924,31.257438900179007,125.7074265178387,112.03863935312732,0.0,0.1011203974485397,0,0,0
10347,395403.12913275085,2011-01-08 00:28:48,88.70169705689564,4,41,0.521399736404419,4.199814796447754,31.13098793826432,31.257438900179007,125.72622956248874,112.03863935312732,0.0,0.1011203974485397,0,0,0
10348,395460.1594444154,2011-01-08 00:29:45,145.73200874140167,4,41,0.4713709652423858,4.199814796447754,31.1388097542889,31.257438900179007,125.75907979376584,112.03863935312732,0.0,0.1011203974485397,0,0,0
10349,395557.50159437454,2011-01-08 00:31:23,243.07415867546808,4,41,0.4213421940803528,4.199653148651123,31.150843751109804,31.257438900179007,125.8096204692398,112.03863935312732,-3.23295607813634e-05,0.1011203974485397,0,0,0
10350,395687.2026118832,2011-01-08 00:33:32,372.77517620415495,4,41,0.3713134229183197,4.199653148651123,31.16510175451084,31.257438900179007,125.8695016223276,112.03863935312732,0.0,0.1011203974485397,0,0,0
10351,395842.8094397171,2011-01-08 00:36:08,528.3820040180913,4,41,0.3212846517562866,4.199653148651123,31.180043893983942,31.257438900179007,125.93225605826068,112.03863935312732,-6.47544875391759e-05,0.1011203974485397,0,0,0
10352,396029.75951990514,2011-01-08 00:39:15,715.3320842060211,4,41,0.2710752785205841,4.199653148651123,31.19539927638406,31.257438900179007,125.99674600702474,112.03863935312732,0.0,0.1011203974485397,0,0,0
10353,396260.0995101596,2011-01-08 00:43:05,945.6720744605784,4,41,0.221046507358551,4.199814796447754,31.211106060197903,31.257438900179007,126.06271128704046,112.03863935312732,0.0,0.1011203974485397,0,0,0
10354,396561.3758553974,2011-01-08 00:48:06,1246.9484197033375,4,41,0.1710177361965179,4.199976921081543,31.22744568239713,31.257438900179007,126.13133481296452,112.03863935312732,0.0,0.1011203974485397,0,0,0
10355,396990.26191425096,2011-01-08 00:55:15,1675.8344786772418,4,41,0.1209889724850654,4.199814796447754,31.24468631720296,31.257438900179007,126.20374232901814,112.03863935312732,-3.24249267578125e-05,0.1011203974485397,0,0,0
10356,397745.7159259004,2011-01-08 01:07:51,2431.288490201348,4,41,0.0709602013230323,4.199814796447754,31.26432392703747,31.257438900179007,126.28621664800954,112.03863935312732,0.0,0.1011203974485397,0,0,0
10357,398304.5662987736,2011-01-08 01:17:10,2990.1388630795213,4,41,0.0498289167881011,4.199653148651123,31.27366405873561,31.257438900179007,126.32544356701308,112.03863935312732,-6.47544875391759e-05,0.1011203974485397,0,0,0
10358,398334.581317706,2011-01-08 01:17:40,30.01504564915636,5,41,0.0,4.190749645233154,31.27366405873561,31.257438900179007,126.32544356701308,112.03863935312732,-3.23295607813634e-05,0.1011203974485397,0,0,0
10359,398364.58083228697,2011-01-08 01:18:10,60.01456020504951,5,41,0.0,4.188968658447266,31.27366405873561,31.257438900179007,126.32544356701308,112.03863935312732,-6.47544875391759e-05,0.1011203974485397,0,0,0
10360,398364.76924770896,2011-01-08 01:18:10,0.187475271060181,6,41,-1.9243103452026844e-05,4.189130783081055,31.27366405873561,31.25743890118112,126.32544356701308,112.03863935732528,0.0,0.1052602156996727,0,0,0
10361,398369.5972885222,2011-01-08 01:18:15,5.015516099355317,6,41,0.0003419754502829,4.189130783081055,31.27366499229961,31.2574389012649,126.32544747793476,112.03863935767626,-3.23295607813634e-05,0.1052602156996727,0,0,0
10362,398396.3168827159,2011-01-08 01:18:42,26.718439557435453,7,41,-1.0997490882873535,3.989039897918701,31.27366499229961,31.26560018276679,126.32544747793476,112.071399041819,-0.0012626647949218,0.1052602156996727,0,0,0
10363,398426.33189862594,2011-01-08 01:19:12,56.73345537724792,7,41,-1.099568486213684,3.9500253200531006,31.27366499229961,31.274768269201417,126.32544747793476,112.10778269073704,-0.0009065627818927,0.1052602156996727,0,0,0
10364,398456.3473971889,2011-01-08 01:19:42,86.74895394020483,7,41,-1.099568486213684,3.922342777252197,31.27366499229961,31.283936433569977,126.32544747793476,112.14386335064918,-0.0005827903514727,0.1052602156996727,0,0,0
10365,398486.3621530959,2011-01-08 01:20:12,116.76370983219716,7,41,-1.0997490882873535,3.900812149047852,31.27366499229961,31.29310443765215,126.32544747793476,112.17972043779676,-0.0005180359003134,0.1052602156996727,0,0,0
10366,398516.3772896567,2011-01-08 01:20:42,146.77884639794567,7,41,-1.0997490882873535,3.882842779159546,31.27366499229961,31.302272522327705,126.32544747793476,112.21539974241108,-0.0004532813909463,0.1052602156996727,0,0,0
10367,398546.3924362323,2011-01-08 01:21:12,176.793992973642,7,41,-1.0997490882873535,3.8669779300689697,31.27366499229961,31.31144065537191,126.32544747793476,112.25092547721884,-0.0004209041653666,0.1052602156996727,0,0,0
10368,398576.4075728131,2011-01-08 01:21:42,206.80912954941547,7,41,-1.0997490882873535,3.852570056915283,31.27366499229961,31.320608804468822,126.32544747793476,112.28631252066754,-0.0003885269106831,0.1052602156996727,0,0,0
10369,398606.4226963815,2011-01-08 01:22:12,236.82425311777044,7,41,-1.0997490882873535,3.839133501052856,31.27366499229961,31.329776959478828,126.32544747793476,112.32157128893051,-0.0003561496851034,0.1052602156996727,0,0,0
10370,398636.4377645668,2011-01-08 01:22:42,266.8393213281564,7,41,-1.099568486213684,3.826182842254639,31.27366499229961,31.33894509079267,126.32544747793476,112.35670928060436,-0.0003237724304199,0.1052602156996727,0,0,0
10371,398666.4529692674,2011-01-08 01:23:12,296.85452601869275,7,41,-1.099568486213684,3.8142032623291016,31.27366499229961,31.34811314618389,126.32544747793476,112.39173300327428,-0.0002913951757363,0.1052602156996727,0,0,0
10372,398696.46810737695,2011-01-08 01:23:42,326.86966413330146,7,41,-1.0997490882873535,3.802223682403565,31.27366499229961,31.357281213134705,126.32544747793476,112.4266462218754,-0.0003237724304199,0.1052602156996727,0,0,0
10373,398726.4832413312,2011-01-08 01:24:12,356.88479808754124,7,41,-1.0993878841400146,3.791053533554077,31.27366499229961,31.36644936390992,126.32544747793476,112.46145441169595,-0.0003237724304199,0.1052602156996727,0,0,0
10374,398756.4982902535,2011-01-08 01:24:42,386.8998469898054,7,41,-1.0997490882873535,3.7802071571350098,31.27366499229961,31.3756175166497,126.32544747793476,112.49616151236472,-0.0002913951757363,0.1052602156996727,0,0,0
10375,398786.51363980514,2011-01-08 01:25:12,416.9151965564175,7,41,-1.0997490882873535,3.769846439361572,31.27366499229961,31.384785744263905,126.32544747793476,112.53077140895864,-0.0002913951757363,0.1052602156996727,0,0,0
10376,398816.5286744067,2011-01-08 01:25:42,446.9302311430026,7,41,-1.099568486213684,3.7598094940185542,31.27366499229961,31.393953913226717,126.32544747793476,112.5652871440584,-0.0002590179501567,0.1052602156996727,0,0,0
10377,398846.54405370745,2011-01-08 01:26:12,476.94561044873376,7,41,-1.0997490882873535,3.749934673309326,31.27366499229961,31.40312225112503,126.32544747793476,112.5997129830568,-0.0002590179501567,0.1052602156996727,0,0,0
10378,398876.5589363704,2011-01-08 01:26:42,506.96049312170334,7,41,-1.099568486213684,3.740545272827149,31.27366499229961,31.412290327914523,126.32544747793476,112.63404998607072,-0.0002266406954731,0.1052602156996727,0,0,0
10379,398906.57406959776,2011-01-08 01:27:12,536.9756263340942,7,41,-1.0993878841400146,3.731479644775391,31.27366499229961,31.42145848952644,126.32544747793476,112.6683026625146,-0.0002590179501567,0.1052602156996727,0,0,0
10380,398936.589230404,2011-01-08 01:27:42,566.9907871402573,7,41,-1.0997490882873535,3.7227377891540527,31.27366499229961,31.43062663714391,126.32544747793476,112.70247374095972,-0.0002266406954731,0.1052602156996727,0,0,0
10381,398966.6047250973,2011-01-08 01:28:12,597.0062818686572,7,41,-1.0993878841400146,3.714319705963135,31.27366499229961,31.439794866521293,126.32544747793476,112.73656547448148,-0.0001618862152099,0.1052602156996727,0,0,0
10382,398996.6194654255,2011-01-08 01:28:42,627.0210221617725,7,41,-1.099568486213684,3.705739736557007,31.27366499229961,31.44896294189597,126.32544747793476,112.77057852228576,-0.0001942634553415,0.1052602156996727,0,0,0
10383,399026.634897598,2011-01-08 01:29:12,657.0364543342638,7,41,-1.099568486213684,3.697807312011719,31.27366499229961,31.458131204592785,126.32544747793476,112.80451549703388,-0.0001295089750783,0.1052602156996727,0,0,0
10384,399056.64976826106,2011-01-08 01:29:42,687.0513250223635,7,41,-1.0997490882873535,3.689227342605591,31.27366499229961,31.46729929192463,126.32544747793476,112.83837673775376,-0.0002266406954731,0.1052602156996727,0,0,0
10385,399086.6651132161,2011-01-08 01:30:12,717.0666699674573,7,41,-1.099568486213684,3.6814568042755127,31.27366499229961,31.47646758182505,126.32544747793476,112.87216554501003,-0.0001942634553415,0.1052602156996727,0,0,0
10386,399116.6801381487,2011-01-08 01:30:42,747.0816949100066,7,41,-1.0997490882873535,3.673848152160645,31.27366499229961,31.48563580391556,126.32544747793476,112.9058827593488,-0.0001618862152099,0.1052602156996727,0,0,0
10387,399146.6951651162,2011-01-08 01:31:12,777.0967218525401,7,41,-1.099568486213684,3.666239738464356,31.27366499229961,31.494803997936,126.32544747793476,112.93952953107942,-0.0001618862152099,0.1052602156996727,0,0,0
10388,399176.7104146736,2011-01-08 01:31:42,807.111971424936,7,41,-1.099568486213684,3.6586310863494873,31.27366499229961,31.50397222596781,126.32544747793476,112.97310722289976,-0.0001942634553415,0.1052602156996727,0,0,0
10389,399206.72541139583,2011-01-08 01:32:12,837.1269681271015,7,41,-1.099568486213684,3.651346206665039,31.27366499229961,31.513140357820426,126.32544747793476,113.00661636089842,-0.0001618862152099,0.1052602156996727,0,0,0
10390,399236.7405481922,2011-01-08 01:32:42,867.1421049234244,7,41,-1.0997490882873535,3.644061326980591,31.27366499229961,31.522308553464104,126.32544747793476,113.04005890889482,-0.0001942634553415,0.1052602156996727,0,0,0
10391,399266.7557079106,2011-01-08 01:33:12,897.157264666939,7,41,-1.099929690361023,3.6371002197265625,31.27366499229961,31.53147671744424,126.32544747793476,113.07343675219668,-0.0001942634553415,0.1052602156996727,0,0,0
10392,399296.7708331982,2011-01-08 01:33:42,927.1723899295166,7,41,-1.099568486213684,3.630300998687744,31.27366499229961,31.540644913205785,126.32544747793476,113.10675174400538,-0.0001942634553415,0.1052602156996727,0,0,0
10393,399326.7859656888,2011-01-08 01:34:12,957.1875224501836,7,41,-1.099568486213684,3.623663663864136,31.27366499229961,31.549813086860688,126.32544747793476,113.14000468048626,-0.0001942634553415,0.1052602156996727,0,0,0
10394,399356.8010962496,2011-01-08 01:34:42,987.2026529808908,7,41,-1.0993878841400146,3.617188215255737,31.27366499229961,31.558981204193728,126.32544747793476,113.17319650326384,-0.0001295089750783,0.1052602156996727,0,0,0
10395,399386.8162498879,2011-01-08 01:35:12,1017.2178066242018,7,41,-1.0997490882873535,3.610550880432129,31.27366499229961,31.56814937637684,126.32544747793476,113.20632870898469,-0.0001618862152099,0.1052602156996727,0,0,0
10396,399416.8315450289,2011-01-08 01:35:42,1047.2331017651686,7,41,-1.099568486213684,3.604237318038941,31.27366499229961,31.577317390356715,126.32544747793476,113.23940172409124,-0.0001618862152099,0.1052602156996727,0,0,0
10397,399446.8464914157,2011-01-08 01:36:12,1077.2480481569453,7,41,-1.0997490882873535,3.598085641860962,31.27366499229961,31.586485174623324,126.32544747793476,113.27241679586211,-0.0001618862152099,0.1052602156996727,0,0,0
10398,399476.8616813544,2011-01-08 01:36:42,1107.2632380856903,7,41,-1.099568486213684,3.5922577381134038,31.27366499229961,31.59565320051898,126.32544747793476,113.30537671800604,-0.0001295089750783,0.1052602156996727,0,0,0
10399,399506.8768037047,2011-01-08 01:37:12,1137.2783604410224,7,41,-1.099568486213684,3.586268186569214,31.27366499229961,31.604821413924363,126.32544747793476,113.33828302269166,-0.0001295089750783,0.1052602156996727,0,0,0
10400,399536.89422356617,2011-01-08 01:37:42,1167.2957803174834,7,41,-1.099568486213684,3.5804402828216557,31.27366499229961,31.61399032597448,126.32544747793476,113.37113870930948,-0.0001618862152099,0.1052602156996727,0,0,0
10401,399566.90708575846,2011-01-08 01:38:12,1197.308642499769,7,41,-1.0997490882873535,3.574774265289306,31.27366499229961,31.623157862227107,126.32544747793476,113.40393677256267,-0.0001618862152099,0.1052602156996727,0,0,0
10402,399596.9222142692,2011-01-08 01:38:42,1227.3237710054289,7,41,-1.099568486213684,3.569270133972168,31.27366499229961,31.63232605524919,126.32544747793476,113.43668589749574,-0.0001942634553415,0.1052602156996727,0,0,0
10403,399626.9373647696,2011-01-08 01:39:12,1257.3389215059071,7,41,-1.099568486213684,3.564089775085449,31.27366499229961,31.641494224128728,126.32544747793476,113.46938547163316,-0.0001295089750783,0.1052602156996727,0,0,0
10404,399656.9525149392,2011-01-08 01:39:42,1287.354071670548,7,41,-1.099568486213684,3.5587475299835205,31.27366499229961,31.65066234183885,126.32544747793476,113.50203716582683,-0.0001942634553415,0.1052602156996727,0,0,0
10405,399686.9676397056,2011-01-08 01:40:12,1317.3691964719762,7,41,-1.099568486213684,3.553729057312012,31.27366499229961,31.65983050141165,126.32544747793476,113.5346417553115,-0.0001295089750783,0.1052602156996727,0,0,0
10406,399716.9827599306,2011-01-08 01:40:42,1347.3843166719364,7,41,-1.0997490882873535,3.548872470855713,31.27366499229961,31.66899869406461,126.32544747793476,113.56720086976487,-0.0001295089750783,0.1052602156996727,0,0,0
10407,399746.9980189466,2011-01-08 01:41:12,1377.3995756978932,7,41,-1.099568486213684,3.544177770614624,31.27366499229961,31.678166936378933,126.32544747793476,113.59971590671854,-0.0001295089750783,0.1052602156996727,0,0,0
10408,399777.0130420445,2011-01-08 01:41:43,1407.4145987808076,7,41,-1.099568486213684,3.539321184158325,31.27366499229961,31.687335142897297,126.32544747793476,113.63218678219296,-0.0001618862152099,0.1052602156996727,0,0,0
10409,399807.0281811716,2011-01-08 01:42:13,1437.42973790794,7,41,-1.0997490882873535,3.5346264839172363,31.27366499229961,31.696503390672905,126.32544747793476,113.6646146535887,-9.713172767078504e-05,0.1052602156996727,0,0,0
10410,399837.0433069906,2011-01-08 01:42:43,1467.4448637269038,7,41,-1.0997490882873535,3.5300936698913574,31.27366499229961,31.70567161424285,126.32544747793476,113.69699957160002,-0.0001295089750783,0.1052602156996727,0,0,0
10411,399867.058467892,2011-01-08 01:43:13,1497.4600246333168,7,41,-1.099568486213684,3.525398969650269,31.27366499229961,31.7148398470069,126.32544747793476,113.72934219436478,-0.0001295089750783,0.1052602156996727,0,0,0
10412,399897.07361393137,2011-01-08 01:43:43,1527.475170687714,7,41,-1.099568486213684,3.5208661556243896,31.27366499229961,31.724008065319698,126.32544747793476,113.76164324693715,-0.0001618862152099,0.1052602156996727,0,0,0
10413,399927.0887116704,2011-01-08 01:44:13,1557.4902684116569,7,41,-1.0997490882873535,3.5163333415985107,31.27366499229961,31.73317620688844,126.32544747793476,113.79390319640068,-0.0001618862152099,0.1052602156996727,0,0,0
10414,399957.1038441159,2011-01-08 01:44:43,1587.505400847111,7,41,-1.099929690361023,3.511962413787842,31.27366499229961,31.74234445554998,126.32544747793476,113.82612263006214,-0.0001295089750783,0.1052602156996727,0,0,0
10415,399987.1191097383,2011-01-08 01:45:13,1617.5206664845462,7,41,-1.099568486213684,3.507591724395752,31.27366499229961,31.75151272994442,126.32544747793476,113.85830114096048,-0.0001295089750783,0.1052602156996727,0,0,0
10416,400017.1340492378,2011-01-08 01:45:43,1647.53560599417,7,41,-1.099568486213684,3.503058910369873,31.27366499229961,31.760681514502707,126.32544747793476,113.89044042137014,-9.713172767078504e-05,0.1052602156996727,0,0,0
10417,400047.1493727044,2011-01-08 01:46:13,1677.55092961612,7,41,-1.099568486213684,3.498687982559204,31.27366499229961,31.769850497512348,126.32544747793476,113.92253945147944,-0.0001295089750783,0.1052602156996727,0,0,0
10418,400077.1644675812,2011-01-08 01:46:43,1707.5660243576297,7,41,-1.0997490882873535,3.494155168533325,31.27366499229961,31.77901886843196,126.32544747793476,113.95459536094768,-0.0001295089750783,0.1052602156996727,0,0,0
10419,400107.17961097904,2011-01-08 01:47:13,1737.5811677253307,7,41,-1.099929690361023,3.4892985820770264,31.27366499229961,31.788187128940944,126.32544747793476,113.98660890169286,-0.0001295089750783,0.1052602156996727,0,0,0
10420,400137.1947455047,2011-01-08 01:47:43,1767.5963022459823,7,41,-1.099568486213684,3.4847657680511475,31.27366499229961,31.797355413040176,126.32544747793476,114.01857967249202,-0.0001295089750783,0.1052602156996727,0,0,0
10421,400167.2098413941,2011-01-08 01:48:13,1797.6113981453775,7,41,-1.099568486213684,3.4800710678100586,31.27366499229961,31.80652368036992,126.32544747793476,114.05050724714262,-6.47544875391759e-05,0.1052602156996727,0,0,0
10422,400197.2249843557,2011-01-08 01:48:43,1827.6265410920296,7,41,-1.0997490882873535,3.47489070892334,31.27366499229961,31.815691865253505,126.32544747793476,114.0823899153602,-0.0001942634553415,0.1052602156996727,0,0,0
10423,400227.24025515607,2011-01-08 01:49:13,1857.641811937444,7,41,-1.099568486213684,3.469872236251831,31.27366499229961,31.824860238776164,126.32544747793476,114.11422688906516,-0.0001618862152099,0.1052602156996727,0,0,0
10424,400257.257454989,2011-01-08 01:49:43,1887.6590117303897,7,41,-1.099929690361023,3.4643681049346924,31.27366499229961,31.834029176570503,126.32544747793476,114.14601731645998,-0.0001295089750783,0.1052602156996727,0,0,0
10425,400287.2703934916,2011-01-08 01:50:13,1917.671950227876,7,41,-1.0997490882873535,3.458702087402344,31.27366499229961,31.843196785449685,126.32544747793476,114.17775224239324,-0.0001618862152099,0.1052602156996727,0,0,0
10426,400317.2855692099,2011-01-08 01:50:43,1947.6871260364296,7,41,-1.0997490882873535,3.452550411224365,31.27366499229961,31.85236509956448,126.32544747793476,114.20943501990386,-0.0001942634553415,0.1052602156996727,0,0,0
10427,400347.30067093886,2011-01-08 01:51:13,1977.7022276751288,7,41,-1.099568486213684,3.446074962615967,31.27366499229961,31.8615334454569,126.32544747793476,114.2410604929616,-0.0001942634553415,0.1052602156996727,0,0,0
10428,400377.3160180544,2011-01-08 01:51:43,2007.7175747956444,7,41,-1.099929690361023,3.4389519691467285,31.27366499229961,31.87070180504747,126.32544747793476,114.272624338515,-0.0002266406954731,0.1052602156996727,0,0,0
10429,400407.3309435741,2011-01-08 01:52:13,2037.7325003154017,7,41,-1.099568486213684,3.4315052032470703,31.27366499229961,31.87987003114448,126.32544747793476,114.30412110981652,-0.0002266406954731,0.1052602156996727,0,0,0
10430,400437.34607263113,2011-01-08 01:52:43,2067.747629372436,7,41,-1.099568486213684,3.423411130905152,31.27366499229961,31.88903833624142,126.32544747793476,114.3355458588794,-0.0001942634553415,0.1052602156996727,0,0,0
10431,400467.3612167306,2011-01-08 01:53:13,2097.7627734669486,7,41,-1.099568486213684,3.413859844207764,31.27366499229961,31.898206674999138,126.32544747793476,114.36688967131867,-0.0002590179501567,0.1052602156996727,0,0,0
10432,400497.3763517576,2011-01-08 01:53:43,2127.7779084938616,7,41,-1.0993878841400146,3.4028515815734863,31.27366499229961,31.907374931336253,126.32544747793476,114.3981391647394,-0.0003237724304199,0.1052602156996727,0,0,0
10433,400527.3914952857,2011-01-08 01:54:13,2157.7930520219625,7,41,-1.099568486213684,3.3900625705718994,31.27366499229961,31.9165431930178,126.32544747793476,114.42927981083449,-0.0003561496851034,0.1052602156996727,0,0,0
10434,400557.40674230165,2011-01-08 01:54:43,2187.8082990530247,7,41,-1.0997490882873535,3.3740358352661133,31.27366499229961,31.92571154911359,126.32544747793476,114.46028963521984,-0.0004532813909463,0.1052602156996727,0,0,0
10435,400587.42175442725,2011-01-08 01:55:13,2217.8233111635923,7,41,-1.0993878841400146,3.355095148086548,31.27366499229961,31.934879787464293,126.32544747793476,114.49113987328236,-0.0005504131549969,0.1052602156996727,0,0,0
10436,400617.4368996296,2011-01-08 01:55:43,2247.8384563608533,7,41,-1.099568486213684,3.3317837715148926,31.27366499229961,31.944048091786925,126.32544747793476,114.52179635456906,-0.0006799221155233,0.1052602156996727,0,0,0
10437,400647.4521550916,2011-01-08 01:56:13,2277.8537118479903,7,41,-1.0997490882873535,3.30232048034668,31.27366499229961,31.953216419749005,126.32544747793476,114.55221279011208,-0.0008418083307333,0.1052602156996727,0,0,0
10438,400677.4671645858,2011-01-08 01:56:43,2307.8687213269995,7,41,-1.099568486213684,3.264601230621338,31.27366499229961,31.9623846623592,126.32544747793476,114.58232315576764,-0.0011008263099938,0.1052602156996727,0,0,0
10439,400707.4823114972,2011-01-08 01:57:13,2337.883868248558,7,41,-1.099568486213684,3.21490216255188,31.27366499229961,31.971552987572277,126.32544747793476,114.61203611783084,-0.0014569759368896,0.1052602156996727,0,0,0
10440,400737.497457246,2011-01-08 01:57:43,2367.899014002205,7,41,-1.099568486213684,3.1472339630126958,31.27366499229961,31.980721294409715,126.32544747793476,114.64121767811322,-0.0021045207977294,0.1052602156996727,0,0,0
10441,400767.51269594114,2011-01-08 01:58:13,2397.914252687467,7,41,-1.099568486213684,3.051397562026977,31.27366499229961,31.989889645209367,126.32544747793476,114.66966198107262,-0.002978706266731,0.1052602156996727,0,0,0
10442,400797.5278415343,2011-01-08 01:58:43,2427.9293982857275,7,41,-1.0997490882873535,2.904729127883911,31.27366499229961,31.999057970371755,126.32544747793476,114.6970159027661,-0.0046623228117823,0.1052602156996727,0,0,0
10443,400825.8241226234,2011-01-08 01:59:11,2456.225679359712,7,41,-1.0997490882873535,2.7044765949249268,31.27366499229961,32.00770132907766,126.32544747793476,114.72129279086076,-0.0061516286805272,0.1052602156996727,0,0,0
10444,400826.40224580426,2011-01-08 01:59:12,2456.803802540562,7,41,-1.099929690361023,2.699943780899048,31.27366499229961,32.00787792466684,126.32544747793476,114.72177002486686,-0.0061840056441724,0.1052602156996727,0,0,0
10445,400886.4109634505,2011-01-08 02:00:12,60.01450202504704,8,41,0.0,3.5453109741210938,31.27366499229961,32.00787792466684,126.32544747793476,114.72177002486686,0.0012950897216796,0.1052602156996727,0,0,0
10446,400886.5938056069,2011-01-08 02:00:12,0.18761671859095,9,41,-1.9243103452026844e-05,3.545472860336304,31.27366499229961,32.00787792566971,126.32544747793476,114.7217700284225,0.0,0.1005837768316268,0,0,0
10447,400891.4217283008,2011-01-08 02:00:17,5.015539402433759,9,41,0.0003419754502829,3.553243398666382,31.273665833837235,32.00787792575288,126.3254504653983,114.72177002871736,0.0011008263099938,0.1005837768316268,0,0,0
