Data_Point,Test_Time(s),Date_Time,Step_Time(s),Step_Index,Cycle_Index,Current(A),Voltage(V),Charge_Capacity(Ah),Discharge_Capacity(Ah),Charge_Energy(Wh),Discharge_Energy(Wh),dV/dt(V/s),Internal_Resistance(Ohm),Is_FC_Data,AC_Impedance(Ohm),ACI_Phase_Angle(Deg)
1831,66460.86957448062,2011-01-04 05:05:44,30.0152441087788,1,8,0.0,3.482823133468628,5.143686082154339,5.953011685594595,20.66392165961103,21.576556825622973,0.0008418083307333,0.0979729741811752,0,0,0
1832,66490.88671140689,2011-01-04 05:06:15,60.03238113027854,1,8,0.0,3.5095343589782715,5.143686082154339,5.953011685594595,20.66392165961103,21.576556825622973,0.0006151676061563,0.0979729741811752,0,0,0
1833,66520.90001990652,2011-01-04 05:06:45,90.04568954471144,1,8,0.0,3.5296080112457275,5.143686082154339,5.953011685594595,20.66392165961103,21.576556825622973,0.0004856586456298,0.0979729741811752,0,0,0
1834,66550.8683514648,2011-01-04 05:07:14,120.01402111801724,1,8,0.0,3.5453109741210938,5.143686082154339,5.953011685594595,20.66392165961103,21.576556825622973,0.0003885269106831,0.0979729741811752,0,0,0
1835,66580.88480666387,2011-01-04 05:07:45,30.01523299107005,2,8,0.550297200679779,3.6872847080230713,5.148272591656944,5.953011685594595,20.680701170100928,21.576556825622973,0.0012627125252038,0.0979729741811752,0,0,0
1836,66610.89981231334,2011-01-04 05:08:15,60.03023864554736,2,8,0.5499359965324402,3.7233853340148926,5.152859116667521,5.953011685594595,20.69770170997316,21.576556825622973,0.0007446765666827,0.0979729741811752,0,0,0
1837,66640.91511492794,2011-01-04 05:08:45,90.04554127517814,2,8,0.5501165986061096,3.748477697372437,5.157445617459302,5.953011685594595,20.71484031621032,21.576556825622973,0.0005504131549969,0.0979729741811752,0,0,0
1838,66670.93021648141,2011-01-04 05:09:15,120.06064280861531,2,8,0.5501165986061096,3.766446828842163,5.162032025149633,5.953011685594595,20.73207666264969,21.576556825622973,0.0003561496851034,0.0979729741811752,0,0,0
1839,66700.94544389358,2011-01-04 05:09:45,150.07587023581848,2,8,0.5499359965324402,3.77810263633728,5.16661844376742,5.953011685594595,20.74938011363089,21.576556825622973,0.0002266406954731,0.0979729741811752,0,0,0
1840,66730.96073232283,2011-01-04 05:10:15,180.09115966755607,2,8,0.5499359965324402,3.7858731746673584,5.171204978318882,5.953011685594595,20.76672748004066,21.576556825622973,0.0001295089750783,0.0979729741811752,0,0,0
1841,66760.97596356954,2011-01-04 05:10:45,210.10638991178013,2,8,0.5501165986061096,3.792186737060547,5.175791350168244,5.953011685594595,20.78410580692818,21.576556825622973,0.0001942634553415,0.0979729741811752,0,0,0
1842,66790.99104427607,2011-01-04 05:11:15,240.12147062332272,2,8,0.5499359965324402,3.797852754592896,5.180377704792736,5.953011685594595,20.80151108127181,21.576556825622973,0.0001618862152099,0.0979729741811752,0,0,0
1843,66820.99296510915,2011-01-04 05:11:45,270.1233915516364,2,8,0.5499359965324402,3.8030331134796143,5.184962149937535,5.953011685594595,20.81893384220316,21.576556825622973,0.0001295089750783,0.0979729741811752,0,0,0
1844,66851.00595003735,2011-01-04 05:12:15,300.1363763846047,2,8,0.5499359965324402,3.807889699935913,5.189548259658224,5.953011685594595,20.836386168877493,21.576556825622973,9.713172767078504e-05,0.0979729741811752,0,0,0
1845,66881.02102743063,2011-01-04 05:12:45,330.15145375782726,2,8,0.5501165986061096,3.812746286392212,5.194134739564011,5.953011685594595,20.85386211559943,21.576556825622973,0.0001618862152099,0.0979729741811752,0,0,0
1846,66911.03635395481,2011-01-04 05:13:15,360.16678029704804,2,8,0.5499359965324402,3.817279100418091,5.198721206652432,5.953011685594595,20.871359650241583,21.576556825622973,9.713172767078504e-05,0.0979729741811752,0,0,0
1847,66941.05333393492,2011-01-04 05:13:45,390.1837602871773,2,8,0.5501165986061096,3.8218119144439697,5.203307918249686,5.953011685594595,20.888878768278268,21.576556825622973,0.0001295089750783,0.0979729741811752,0,0,0
1848,66971.06665086557,2011-01-04 05:14:15,420.19707718274776,2,8,0.5501165986061096,3.8260209560394287,5.207894034088561,5.953011685594595,20.9064156335219,21.576556825622973,0.0001295089750783,0.0979729741811752,0,0,0
1849,67001.0818250551,2011-01-04 05:14:45,450.2122513822912,2,8,0.5501165986061096,3.830229997634888,5.212480515241404,5.953011685594595,20.923973569819008,21.576556825622973,9.713172767078504e-05,0.0979729741811752,0,0,0
1850,67031.09702868298,2011-01-04 05:15:15,480.2274550252166,2,8,0.5499359965324402,3.8342769145965576,5.217066936569855,5.953011685594595,20.94155060239039,21.576556825622973,6.47544875391759e-05,0.0979729741811752,0,0,0
1851,67061.11223071188,2011-01-04 05:15:45,510.242657039082,2,8,0.5501165986061096,3.838809728622437,5.22165330817867,5.953011685594595,20.95914670559937,21.576556825622973,0.0001295089750783,0.0979729741811752,0,0,0
1852,67091.12741658051,2011-01-04 05:16:15,540.2578428976835,2,8,0.550297200679779,3.8428568840026855,5.226239733869468,5.953011685594595,20.97676223362503,21.576556825622973,0.0001295089750783,0.0979729741811752,0,0,0
1853,67121.14261536632,2011-01-04 05:16:45,570.273041708566,2,8,0.5499359965324402,3.847065925598145,5.230826121319931,5.953011685594595,20.994396696119622,21.576556825622973,0.0001295089750783,0.0979729741811752,0,0,0
1854,67151.15792619139,2011-01-04 05:17:15,600.2883525235973,2,8,0.550297200679779,3.8514368534088135,5.235412563916551,5.953011685594595,21.01205049348252,21.576556825622973,0.0001295089750783,0.0979729741811752,0,0,0
1855,67181.17300929388,2011-01-04 05:17:45,630.3034356411364,2,8,0.5499359965324402,3.855322122573853,5.239998977373396,5.953011685594595,21.029723259715325,21.576556825622973,0.0001295089750783,0.0979729741811752,0,0,0
1856,67211.18818580419,2011-01-04 05:18:15,660.318612121364,2,8,0.5499359965324402,3.8593692779541016,5.244585384338087,5.953011685594595,21.047414969241903,21.576556825622973,6.47544875391759e-05,0.0979729741811752,0,0,0
1857,67241.20339781798,2011-01-04 05:18:45,690.3338241702396,2,8,0.5501165986061096,3.863578319549561,5.249171838232462,5.953011685594595,21.06512564483777,21.576556825622973,0.0001295089750783,0.0979729741811752,0,0,0
1858,67271.21857606761,2011-01-04 05:19:15,720.3490023847897,2,8,0.5501165986061096,3.8674635887146,5.253758189808139,5.953011685594595,21.082854335941995,21.576556825622973,0.0001295089750783,0.0979729741811752,0,0,0
1859,67301.23376716427,2011-01-04 05:19:45,750.3641935165334,2,8,0.5501165986061096,3.8715107440948486,5.258344583159628,5.953011685594595,21.100601304394644,21.576556825622973,0.0001295089750783,0.0979729741811752,0,0,0
1860,67331.24907080643,2011-01-04 05:20:15,780.3794971286128,2,8,0.5501165986061096,3.8752341270446777,5.262930967642315,5.953011685594595,21.118365786890315,21.576556825622973,0.0001618862152099,0.0979729741811752,0,0,0
1861,67361.26413662586,2011-01-04 05:20:45,810.3945629731022,2,8,0.550297200679779,3.878795623779297,5.267517340668266,5.953011685594595,21.136147222277728,21.576556825622973,6.47544875391759e-05,0.0979729741811752,0,0,0
1862,67391.27935625362,2011-01-04 05:21:15,840.4097825958543,2,8,0.5499359965324402,3.882357120513916,5.272103749375666,5.953011685594595,21.153945099573264,21.576556825622973,0.0001295089750783,0.0979729741811752,0,0,0
1863,67421.29452445821,2011-01-04 05:21:45,870.4249508104815,2,8,0.5501165986061096,3.885756731033325,5.276690134570484,5.953011685594595,21.17175855099216,21.576556825622973,9.713172767078504e-05,0.0979729741811752,0,0,0
1864,67451.30997305665,2011-01-04 05:22:15,900.440399393874,2,8,0.5501165986061096,3.8888325691223145,5.28127655145619,5.953011685594595,21.18958697518251,21.576556825622973,9.713172767078504e-05,0.0979729741811752,0,0,0
1865,67481.32488332338,2011-01-04 05:22:45,930.4553096405658,2,8,0.550297200679779,3.891908407211304,5.285862912977374,5.953011685594595,21.20742940450392,21.576556825622973,0.0001295089750783,0.0979729741811752,0,0,0
1866,67511.3401063747,2011-01-04 05:23:15,960.4705327219376,2,8,0.550297200679779,3.894822359085083,5.290449328751324,5.953011685594595,21.225285539600748,21.576556825622973,9.713172767078504e-05,0.0979729741811752,0,0,0
1867,67541.35741935474,2011-01-04 05:23:45,990.4878457069927,2,8,0.5501165986061096,3.8974125385284415,5.295036062505018,5.953011685594595,21.24315522223039,21.576556825622973,9.713172767078504e-05,0.0979729741811752,0,0,0
1868,67571.3706967318,2011-01-04 05:24:15,1020.5011230790586,2,8,0.5501165986061096,3.899840831756592,5.299622181171241,5.953011685594595,21.26103461498672,21.576556825622973,6.47544875391759e-05,0.0979729741811752,0,0,0
1869,67601.38564606592,2011-01-04 05:24:45,1050.516072413168,2,8,0.5499359965324402,3.902431011199951,5.304208509471025,5.953011685594595,21.278926213751685,21.576556825622973,9.713172767078504e-05,0.0979729741811752,0,0,0
1870,67631.40085088176,2011-01-04 05:25:15,1080.531277239042,2,8,0.550297200679779,3.9045355319976807,5.30879488870842,5.953011685594595,21.29682890984416,21.576556825622973,6.47544875391759e-05,0.0979729741811752,0,0,0
1871,67661.41601350244,2011-01-04 05:25:45,1110.5464398296524,2,8,0.5501165986061096,3.90680193901062,5.313381262715796,5.953011685594595,21.314742057941103,21.576556825622973,6.47544875391759e-05,0.0979729741811752,0,0,0
1872,67691.43116825854,2011-01-04 05:26:15,1140.5615945857369,2,8,0.5501165986061096,3.90906834602356,5.317967565974314,5.953011685594595,21.33266502837901,21.576556825622973,9.713172767078504e-05,0.0979729741811752,0,0,0
1873,67721.44650363478,2011-01-04 05:26:45,1170.5769299720073,2,8,0.5501165986061096,3.911010980606079,5.322554696254916,5.953011685594595,21.35060118025391,21.576556825622973,3.237724376958795e-05,0.0979729741811752,0,0,0
1874,67751.4616603307,2011-01-04 05:27:15,1200.5920866629135,2,8,0.550297200679779,3.9131155014038086,5.32714179603544,5.953011685594595,21.36854683966664,21.576556825622973,6.47544875391759e-05,0.0979729741811752,0,0,0
1875,67781.47674998954,2011-01-04 05:27:45,1230.6071763217558,2,8,0.5501165986061096,3.915219783782959,5.331728169218879,5.953011685594595,21.386499153553537,21.576556825622973,3.237724376958795e-05,0.0979729741811752,0,0,0
1876,67811.49193529175,2011-01-04 05:28:15,1260.622361639008,2,8,0.550297200679779,3.917324304580689,5.336314515750075,5.953011685594595,21.40446066131176,21.576556825622973,6.47544875391759e-05,0.0979729741811752,0,0,0
1877,67841.50710554146,2011-01-04 05:28:45,1290.6375318786822,2,8,0.5501165986061096,3.919266939163208,5.340900726276331,5.953011685594595,21.422431015970567,21.576556825622973,3.237724376958795e-05,0.0979729741811752,0,0,0
1878,67871.5222786583,2011-01-04 05:29:15,1320.6527050055524,2,8,0.5499359965324402,3.9213714599609375,5.345487024598439,5.953011685594595,21.44041096222692,21.576556825622973,6.47544875391759e-05,0.0979729741811752,0,0,0
1879,67901.53984321535,2011-01-04 05:29:45,1350.6702696277646,2,8,0.5501165986061096,3.923314094543457,5.350073696324894,5.953011685594595,21.458401560473497,21.576556825622973,6.47544875391759e-05,0.0979729741811752,0,0,0
1880,67931.55277926172,2011-01-04 05:30:15,1380.6832056039668,2,8,0.5501165986061096,3.9254186153411865,5.354659696762052,5.953011685594595,21.476398601538804,21.576556825622973,6.47544875391759e-05,0.0979729741811752,0,0,0
1881,67961.56781061026,2011-01-04 05:30:45,1410.698236937444,2,8,0.550297200679779,3.927361249923706,5.359246017732745,5.953011685594595,21.49440591334622,21.576556825622973,3.237724376958795e-05,0.0979729741811752,0,0,0
1882,67991.58309829765,2011-01-04 05:31:15,1440.7135246198218,2,8,0.5501165986061096,3.929465770721436,5.36383237895411,5.953011685594595,21.51242246336791,21.576556825622973,0.0001295089750783,0.0979729741811752,0,0,0
1883,68021.60004751608,2011-01-04 05:31:45,1470.7304738382586,2,8,0.5499359965324402,3.931246519088745,5.36841895168257,5.953011685594595,21.530448889599125,21.576556825622973,3.237724376958795e-05,0.0979729741811752,0,0,0
1884,68051.61347506242,2011-01-04 05:32:15,1500.7439013996425,2,8,0.5501165986061096,3.9333510398864746,5.373005009775608,5.953011685594595,21.54848235186051,21.576556825622973,9.713172767078504e-05,0.0979729741811752,0,0,0
1885,68081.62849850624,2011-01-04 05:32:45,1530.7589248284185,2,8,0.5499359965324402,3.935131788253784,5.377591281333107,5.953011685594595,21.56652563734876,21.576556825622973,6.47544875391759e-05,0.0979729741811752,0,0,0
1886,68111.64381280995,2011-01-04 05:33:15,1560.7742391421698,2,8,0.5501165986061096,3.937074422836304,5.382177657826841,5.953011685594595,21.58457829048229,21.576556825622973,3.237724376958795e-05,0.0979729741811752,0,0,0
1887,68141.65887007306,2011-01-04 05:33:45,1590.789296400259,2,8,0.5499359965324402,3.9390170574188232,5.38676396348109,5.953011685594595,21.60263969353068,21.576556825622973,3.237724376958795e-05,0.0979729741811752,0,0,0
1888,68171.66042122478,2011-01-04 05:34:15,1620.7908476522257,2,8,0.5501165986061096,3.940959692001343,5.391348204854976,5.953011685594595,21.620701975424936,21.576556825622973,0.0,0.0979729741811752,0,0,0
1889,68201.67359396607,2011-01-04 05:34:45,1650.8040202882569,2,8,0.5501165986061096,3.9429023265838623,5.39593423872373,5.953011685594595,21.638780173316317,21.576556825622973,3.237724376958795e-05,0.0979729741811752,0,0,0
1890,68231.68875531357,2011-01-04 05:35:15,1680.8191816407816,2,8,0.5501165986061096,3.945006847381592,5.400520539665669,5.953011685594595,21.656868375380704,21.576556825622973,6.47544875391759e-05,0.0979729741811752,0,0,0
1891,68261.70393663086,2011-01-04 05:35:45,1710.8343629580647,2,8,0.5501165986061096,3.946787595748901,5.405106843554746,5.953011685594595,21.67496551262206,21.576556825622973,0.0,0.0979729741811752,0,0,0
1892,68291.71913827381,2011-01-04 05:36:16,1740.8495645959931,2,8,0.5501165986061096,3.948892116546631,5.409693142094938,5.953011685594595,21.69307143311213,21.576556825622973,3.237724376958795e-05,0.0979729741811752,0,0,0
1893,68321.73427517539,2011-01-04 05:36:46,1770.8647014975786,2,8,0.5501165986061096,3.9508347511291504,5.414279352669761,5.953011685594595,21.711185941533103,21.576556825622973,6.47544875391759e-05,0.0979729741811752,0,0,0
1894,68351.7494713497,2011-01-04 05:37:16,1800.87989767189,2,8,0.5499359965324402,3.95261549949646,5.418865674765869,5.953011685594595,21.729309762119392,21.576556825622973,6.47544875391759e-05,0.0979729741811752,0,0,0
1895,68381.76464505802,2011-01-04 05:37:46,1830.8950713852216,2,8,0.5501165986061096,3.95455813407898,5.42345201752681,5.953011685594595,21.74744253021992,21.576556825622973,3.237724376958795e-05,0.0979729741811752,0,0,0
1896,68411.7799381589,2011-01-04 05:38:16,1860.9103645161788,2,8,0.5501165986061096,3.956500768661499,5.428037810634683,5.953011685594595,21.76558190491845,21.576556825622973,3.237724376958795e-05,0.0979729741811752,0,0,0
1897,68441.79496072052,2011-01-04 05:38:46,1890.9253870477187,2,8,0.5499359965324402,3.9584434032440186,5.432623288534771,5.953011685594595,21.78372878633205,21.576556825622973,3.237724376958795e-05,0.0979729741811752,0,0,0
1898,68471.81015280964,2011-01-04 05:39:16,1920.9405791318363,2,8,0.5501165986061096,3.960386037826538,5.437209345225566,5.953011685594595,21.801887013151667,21.576556825622973,6.47544875391759e-05,0.0979729741811752,0,0,0
1899,68501.82532262827,2011-01-04 05:39:46,1950.9557489504607,2,8,0.5501165986061096,3.962490558624268,5.441795685787675,5.953011685594595,21.82005531510553,21.576556825622973,9.713172767078504e-05,0.0979729741811752,0,0,0
1900,68531.8410146183,2011-01-04 05:40:16,1980.9714409555352,2,8,0.5499359965324402,3.964271306991577,5.446382130660746,5.953011685594595,21.838232974682697,21.576556825622973,6.47544875391759e-05,0.0979729741811752,0,0,0
1901,68561.85579873064,2011-01-04 05:40:46,2010.986225072874,2,8,0.5501165986061096,3.966375827789306,5.450968406167495,5.953011685594595,21.85641889030113,21.576556825622973,6.47544875391759e-05,0.0979729741811752,0,0,0
1902,68591.87098477971,2011-01-04 05:41:16,2041.001411111925,2,8,0.5501165986061096,3.968156576156616,5.455554814302857,5.953011685594595,21.874614230980647,21.576556825622973,6.47544875391759e-05,0.0979729741811752,0,0,0
1903,68621.88599690031,2011-01-04 05:41:46,2071.0164232275056,2,8,0.5499359965324402,3.970099210739136,5.460141111585692,5.953011685594595,21.892818049090643,21.576556825622973,3.237724376958795e-05,0.0979729741811752,0,0,0
1904,68651.90133538931,2011-01-04 05:42:16,2101.0317617315463,2,8,0.5501165986061096,3.972203731536865,5.464727521190034,5.953011685594595,21.911031337293963,21.576556825622973,9.713172767078504e-05,0.0979729741811752,0,0,0
1905,68681.9163258409,2011-01-04 05:42:46,2131.046752168096,2,8,0.5501165986061096,3.9741463661193848,5.469313917734376,5.953011685594595,21.92925355802033,21.576556825622973,6.47544875391759e-05,0.0979729741811752,0,0,0
1906,68711.93149738382,2011-01-04 05:43:16,2161.061923706006,2,8,0.5501165986061096,3.976089000701904,5.473900296385248,5.953011685594595,21.94748471647912,21.576556825622973,6.47544875391759e-05,0.0979729741811752,0,0,0
1907,68741.94664454597,2011-01-04 05:43:46,2191.077070863152,2,8,0.5501165986061096,3.977869749069214,5.478486628736097,5.953011685594595,21.965724714651977,21.576556825622973,3.237724376958795e-05,0.0979729741811752,0,0,0
1908,68771.96423621058,2011-01-04 05:44:16,2221.0946625377865,2,8,0.5499359965324402,3.979974269866944,5.483073272916824,5.953011685594595,21.983974992047905,21.576556825622973,6.47544875391759e-05,0.0979729741811752,0,0,0
1909,68801.97717428202,2011-01-04 05:44:46,2251.107600624248,2,8,0.550297200679779,3.982240676879883,5.487659158030118,5.953011685594595,22.00223173204882,21.576556825622973,6.47544875391759e-05,0.0979729741811752,0,0,0
1910,68831.99217779115,2011-01-04 05:45:16,2281.1226041133286,2,8,0.5499359965324402,3.9841833114624015,5.492245430081712,5.953011685594595,22.02049928026906,21.576556825622973,6.47544875391759e-05,0.0979729741811752,0,0,0
1911,68862.00734384538,2011-01-04 05:45:46,2311.137770172584,2,8,0.5501165986061096,3.985964059829712,5.496831706363227,5.953011685594595,22.038776053342573,21.576556825622973,0.0,0.0979729741811752,0,0,0
1912,68892.02251883691,2011-01-04 05:46:16,2341.1529451590886,2,8,0.5499359965324402,3.9880685806274414,5.501417954940352,5.953011685594595,22.05706206142561,21.576556825622973,3.237724376958795e-05,0.0979729741811752,0,0,0
1913,68922.0377905595,2011-01-04 05:46:46,2371.1682168967272,2,8,0.5501165986061096,3.990173101425171,5.506004263742327,5.953011685594595,22.07535762783161,21.576556825622973,6.47544875391759e-05,0.0979729741811752,0,0,0
1914,68952.0528402387,2011-01-04 05:47:16,2401.1832665608904,2,8,0.5499359965324402,3.992277622222901,5.510590464747321,5.953011685594595,22.093662271208405,21.576556825622973,6.47544875391759e-05,0.0979729741811752,0,0,0
1915,68982.0679936314,2011-01-04 05:47:46,2431.198419953577,2,8,0.5501165986061096,3.994381904602051,5.515176694877067,5.953011685594595,22.11197664269695,21.576556825622973,6.47544875391759e-05,0.0979729741811752,0,0,0
1916,69012.08318351001,2011-01-04 05:48:16,2461.21360985726,2,8,0.5497553944587708,3.99648642539978,5.519762917329352,5.953011685594595,22.13030064750215,21.576556825622973,6.47544875391759e-05,0.0979729741811752,0,0,0
1917,69042.09831614095,2011-01-04 05:48:46,2491.228742463139,2,8,0.5501165986061096,3.9985909461975098,5.524349129065504,5.953011685594595,22.148634376046648,21.576556825622973,3.237724376958795e-05,0.0979729741811752,0,0,0
1918,69072.11347197974,2011-01-04 05:49:16,2521.2438983069346,2,8,0.5499359965324402,4.000695705413818,5.528935363933354,5.953011685594595,22.16697789798545,21.576556825622973,3.24249267578125e-05,0.0979729741811752,0,0,0
1919,69102.12863828462,2011-01-04 05:49:46,2551.259064601777,2,8,0.5499359965324402,4.002962112426758,5.533521592442021,5.953011685594595,22.185331355364852,21.576556825622973,6.47544875391759e-05,0.0979729741811752,0,0,0
1920,69132.14380612329,2011-01-04 05:50:16,2581.27423244548,2,8,0.5499359965324402,4.004904747009277,5.538107798382702,5.953011685594595,22.203694721162968,21.576556825622973,0.0,0.0979729741811752,0,0,0
1921,69162.15895882426,2011-01-04 05:50:46,2611.2893851414296,2,8,0.5501165986061096,4.007494926452637,5.542693962390547,5.953011685594595,22.222068059638023,21.576556825622973,9.71794142969884e-05,0.0979729741811752,0,0,0
1922,69192.17413974555,2011-01-04 05:51:16,2641.304566162976,2,8,0.5501165986061096,4.009599208831787,5.547280252460249,5.953011685594595,22.240452153400405,21.576556825622973,6.47544875391759e-05,0.0979729741811752,0,0,0
1923,69222.18942146306,2011-01-04 05:51:46,2671.319847805299,2,8,0.5501165986061096,4.012027740478516,5.551866499833322,5.953011685594595,22.258846422515028,21.576556825622973,9.71794142969884e-05,0.0979729741811752,0,0,0
1924,69252.2044494933,2011-01-04 05:52:16,2701.3348758205066,2,8,0.5497553944587708,4.013970375061035,5.556452692891474,5.953011685594595,22.27725103930923,21.576556825622973,3.24249267578125e-05,0.0979729741811752,0,0,0
1925,69282.21973799774,2011-01-04 05:52:46,2731.35016431992,2,8,0.5501165986061096,4.0165605545043945,5.561038952933513,5.953011685594595,22.295666569931537,21.576556825622973,6.47544875391759e-05,0.0979729741811752,0,0,0
1926,69312.23474512588,2011-01-04 05:53:16,2761.3651714480707,2,8,0.550297200679779,4.018988609313965,5.565625213225217,5.953011685594595,22.31409286780566,21.576556825622973,6.47544875391759e-05,0.0979729741811752,0,0,0
1927,69342.24991970637,2011-01-04 05:53:46,2791.380346053626,2,8,0.5499359965324402,4.021255016326904,5.570211519072544,5.953011685594595,22.332530173778025,21.576556825622973,6.47544875391759e-05,0.0979729741811752,0,0,0
1928,69372.26709451705,2011-01-04 05:54:16,2821.397520934483,2,8,0.5499359965324402,4.023845195770264,5.574798063181583,5.953011685594595,22.350979541700244,21.576556825622973,6.47544875391759e-05,0.0979729741811752,0,0,0
1929,69402.28045448498,2011-01-04 05:54:46,2851.4108808121778,2,8,0.5501165986061096,4.026111602783203,5.579384058366041,5.953011685594595,22.36943780881261,21.576556825622973,6.47544875391759e-05,0.0979729741811752,0,0,0
1930,69432.29540291683,2011-01-04 05:55:16,2881.425829244039,2,8,0.5499359965324402,4.028540134429932,5.583970241367858,5.953011685594595,22.387908044343902,21.576556825622973,6.47544875391759e-05,0.0979729741811752,0,0,0
1931,69462.31053914175,2011-01-04 05:55:46,2911.4409654639257,2,8,0.5501165986061096,4.031130313873291,5.58855654032018,5.953011685594595,22.40639000678296,21.576556825622973,6.47544875391759e-05,0.0979729741811752,0,0,0
1932,69492.32592167553,2011-01-04 05:56:16,2941.456348027777,2,8,0.5501165986061096,4.033558368682861,5.593142800737083,5.953011685594595,22.424883272692437,21.576556825622973,3.23295607813634e-05,0.0979729741811752,0,0,0
1933,69522.34108947912,2011-01-04 05:56:46,2971.471515836392,2,8,0.5501165986061096,4.036148548126221,5.597729045742846,5.953011685594595,22.443388050293617,21.576556825622973,6.47544875391759e-05,0.0979729741811752,0,0,0
1934,69552.35599842756,2011-01-04 05:57:16,3001.4864247497608,2,8,0.5499359965324402,4.038576602935791,5.602315284311104,5.953011685594595,22.46190453065871,21.576556825622973,6.47544875391759e-05,0.0979729741811752,0,0,0
1935,69582.37116789533,2011-01-04 05:57:46,3031.5015942175114,2,8,0.5497553944587708,4.04116678237915,5.606901567286957,5.953011685594595,22.480432920423997,21.576556825622973,3.23295607813634e-05,0.0979729741811752,0,0,0
1936,69612.3863185161,2011-01-04 05:58:16,3061.5167448483144,2,8,0.5501165986061096,4.043919086456299,5.611487830557786,5.953011685594595,22.498973120358663,21.576556825622973,9.71794142969884e-05,0.0979729741811752,0,0,0
1937,69642.40160056946,2011-01-04 05:58:46,3091.532026911688,2,8,0.5501165986061096,4.046509265899658,5.616074098717696,5.953011685594595,22.51752530781365,21.576556825622973,9.71794142969884e-05,0.0979729741811752,0,0,0
1938,69672.41660387308,2011-01-04 05:59:16,3121.547030195256,2,8,0.5499359965324402,4.0489373207092285,5.620660391428414,5.953011685594595,22.53608975026731,21.576556825622973,3.23295607813634e-05,0.0979729741811752,0,0,0
1939,69702.43177876934,2011-01-04 05:59:46,3151.5622051165983,2,8,0.5501165986061096,4.051689624786377,5.625246714373373,5.953011685594595,22.55466650725863,21.576556825622973,3.24249267578125e-05,0.0979729741811752,0,0,0
1940,69732.4469339114,2011-01-04 06:00:16,3181.5773602385943,2,8,0.5501165986061096,4.054603576660156,5.629833006192099,5.953011685594595,22.573255532133626,21.576556825622973,9.71794142969884e-05,0.0979729741811752,0,0,0
1941,69762.46206494837,2011-01-04 06:00:46,3211.592491270551,2,8,0.550297200679779,4.0573554039001465,5.634419343100446,5.953011685594595,22.591857219722627,21.576556825622973,9.70840483205393e-05,0.0979729741811752,0,0,0
1942,69792.47721904781,2011-01-04 06:01:16,3241.60764537,2,8,0.5501165986061096,4.060107707977295,5.63900563409736,5.953011685594595,22.61047135108987,21.576556825622973,9.71794142969884e-05,0.0979729741811752,0,0,0
1943,69822.49236414481,2011-01-04 06:01:46,3271.622790472022,2,8,0.5501165986061096,4.062697887420654,5.64359192752862,5.953011685594595,22.6290978354149,21.576556825622973,3.24249267578125e-05,0.0979729741811752,0,0,0
1944,69852.50990848147,2011-01-04 06:02:16,3301.6403348036647,2,8,0.5501165986061096,4.065611839294434,5.648178596390669,5.953011685594595,22.64773873395833,21.576556825622973,6.47544875391759e-05,0.0979729741811752,0,0,0
1945,69882.52279157587,2011-01-04 06:02:46,3331.653217918119,2,8,0.5499359965324402,4.068363666534424,5.652764429901096,5.953011685594595,22.66638916389501,21.576556825622973,6.47544875391759e-05,0.0979729741811752,0,0,0
1946,69912.5378061576,2011-01-04 06:03:16,3361.668232479796,2,8,0.5501165986061096,4.071115970611572,5.65735070849839,5.953011685594595,22.68505447929517,21.576556825622973,3.24249267578125e-05,0.0979729741811752,0,0,0
1947,69942.55296719435,2011-01-04 06:03:46,3391.683393511521,2,8,0.5499359965324402,4.074029922485352,5.661936933947811,5.953011685594595,22.70373272982444,21.576556825622973,6.47544875391759e-05,0.0979729741811752,0,0,0
1948,69972.57008373982,2011-01-04 06:04:16,3421.700510067013,2,8,0.5501165986061096,4.076943874359131,5.666523475987196,5.953011685594595,22.72242550945184,21.576556825622973,6.47544875391759e-05,0.0979729741811752,0,0,0
1949,70002.5833002151,2011-01-04 06:04:46,3451.7137265423057,2,8,0.5501165986061096,4.080019474029541,5.671109494017434,5.953011685594595,22.74112955083327,21.576556825622973,9.70840483205393e-05,0.0979729741811752,0,0,0
1950,70032.59840507683,2011-01-04 06:05:16,3481.728831399025,2,8,0.5501165986061096,4.08293342590332,5.675695754129271,5.953011685594595,22.75984806705985,21.576556825622973,6.47544875391759e-05,0.0979729741811752,0,0,0
1951,70062.6135745496,2011-01-04 06:05:46,3511.7440008968506,2,8,0.5501165986061096,4.0858473777771,5.680281924090046,5.953011685594595,22.778579913145897,21.576556825622973,6.47544875391759e-05,0.0979729741811752,0,0,0
1952,70092.62870730084,2011-01-04 06:06:16,3541.75913362303,2,8,0.5501165986061096,4.088923454284668,5.684868151538711,5.953011685594595,22.797325891450512,21.576556825622973,3.24249267578125e-05,0.0979729741811752,0,0,0
1953,70122.64396484812,2011-01-04 06:06:46,3571.774391195364,2,8,0.5499359965324402,4.091999053955078,5.68945442466109,5.953011685594595,22.816086038368223,21.576556825622973,6.47544875391759e-05,0.0979729741811752,0,0,0
1954,70152.65898520924,2011-01-04 06:07:16,3601.7894115364447,2,8,0.5501165986061096,4.095075130462647,5.694040671755358,5.953011685594595,22.83486015809093,21.576556825622973,9.71794142969884e-05,0.0979729741811752,0,0,0
1955,70182.67355139344,2011-01-04 06:07:46,3631.803977409852,2,8,0.5501165986061096,4.098312854766846,5.698626842539722,5.953011685594595,22.853648279187507,21.576556825622973,0.0001295089750783,0.0979729741811752,0,0,0
1956,70212.67366798979,2011-01-04 06:08:16,3661.804094332027,2,8,0.5501165986061096,4.101550579071045,5.703210877502387,5.953011685594595,22.872442113745898,21.576556825622973,9.71794142969884e-05,0.0979729741811752,0,0,0
1957,70242.68893411844,2011-01-04 06:08:47,3691.8193604556745,2,8,0.5501165986061096,4.104626178741455,5.707797127991844,5.953011685594595,22.891259445679623,21.576556825622973,9.70840483205393e-05,0.0979729741811752,0,0,0
1958,70272.70403892003,2011-01-04 06:09:17,3721.834465332444,2,8,0.550297200679779,4.107863903045654,5.71238338338557,5.953011685594595,22.91009141224013,21.576556825622973,9.70840483205393e-05,0.0979729741811752,0,0,0
1959,70302.71908147147,2011-01-04 06:09:47,3751.8495077886414,2,8,0.5501165986061096,4.110939979553223,5.716969631813618,5.953011685594595,22.928938073041618,21.576556825622973,6.47544875391759e-05,0.0979729741811752,0,0,0
1960,70332.73433362028,2011-01-04 06:10:17,3781.8647599725473,2,8,0.5499359965324402,4.114339351654053,5.721555937412351,5.953011685594595,22.94779985795958,21.576556825622973,0.0001295089750783,0.0979729741811752,0,0,0
1961,70362.74936176582,2011-01-04 06:10:47,3811.879788082991,2,8,0.5501165986061096,4.117577075958252,5.726142052237409,5.953011685594595,22.96667592641839,21.576556825622973,9.71794142969884e-05,0.0979729741811752,0,0,0
1962,70392.76461409508,2011-01-04 06:11:17,3841.8950404523584,2,8,0.5501165986061096,4.120976448059082,5.73072829070293,5.953011685594595,22.985567690003137,21.576556825622973,0.0001295089750783,0.0979729741811752,0,0,0
1963,70422.77965316785,2011-01-04 06:11:47,3871.9100795150994,2,8,0.5501165986061096,4.124214172363281,5.735314491700016,5.953011685594595,23.00447451740193,21.576556825622973,9.70840483205393e-05,0.0979729741811752,0,0,0
1964,70452.79478948298,2011-01-04 06:12:17,3901.92521580516,2,8,0.550297200679779,4.1277756690979,5.739900718068171,5.953011685594595,23.02339696527144,21.576556825622973,0.0001295089750783,0.0979729741811752,0,0,0
1965,70482.81014905452,2011-01-04 06:12:47,3931.940575406784,2,8,0.5501165986061096,4.1310133934021,5.744486980538619,5.953011685594595,23.0423351067773,21.576556825622973,9.70840483205393e-05,0.0979729741811752,0,0,0
1966,70512.82521123989,2011-01-04 06:13:17,3961.95563758714,2,8,0.5501165986061096,4.134574890136719,5.749073188465929,5.953011685594595,23.06128874851272,21.576556825622973,0.0001295089750783,0.0979729741811752,0,0,0
1967,70542.84020477918,2011-01-04 06:13:47,3991.9706311013606,2,8,0.5501165986061096,4.137812614440918,5.753659345789821,5.953011685594595,23.080257910297608,21.576556825622973,6.47544875391759e-05,0.0979729741811752,0,0,0
1968,70572.85547363463,2011-01-04 06:14:17,4021.985899981878,2,8,0.5499359965324402,4.141374111175537,5.758245590851061,5.953011685594595,23.09924332194249,21.576556825622973,9.70840483205393e-05,0.0979729741811752,0,0,0
1969,70602.87243437176,2011-01-04 06:14:47,4052.002860819273,2,8,0.550297200679779,4.145259380340576,5.76283211592986,5.953011685594595,23.11824598498302,21.576556825622973,0.0001618385285837,0.0979729741811752,0,0,0
1970,70632.88572410967,2011-01-04 06:15:17,4082.016150456908,2,8,0.550297200679779,4.1486592292785645,5.767418056551987,5.953011685594595,23.137262636487204,21.576556825622973,0.0001295089750783,0.0979729741811752,0,0,0
1971,70662.90079186893,2011-01-04 06:15:47,4112.03121821617,2,8,0.5501165986061096,4.1520586013793945,5.772004266855818,5.953011685594595,23.156296706640106,21.576556825622973,9.70840483205393e-05,0.0979729741811752,0,0,0
1972,70692.91591406385,2011-01-04 06:16:17,4142.0463404111015,2,8,0.5501165986061096,4.155782222747803,5.776590481649511,5.953011685594595,23.17534724269095,21.576556825622973,9.71794142969884e-05,0.0979729741811752,0,0,0
1973,70722.93335823086,2011-01-04 06:16:47,4172.06378465329,2,8,0.5501165986061096,4.159343719482422,5.781177084218043,5.953011685594595,23.194415968287966,21.576556825622973,9.71794142969884e-05,0.0979729741811752,0,0,0
1974,70752.94617837337,2011-01-04 06:17:17,4202.076604720611,2,8,0.5499359965324402,4.162905216217041,5.785762935029939,5.953011685594595,23.213498218414426,21.576556825622973,9.71794142969884e-05,0.0979729741811752,0,0,0
1975,70782.96150068204,2011-01-04 06:17:47,4232.091927024276,2,8,0.5501165986061096,4.166628360748291,5.790349173171356,5.953011685594595,23.23259890771678,21.576556825622973,9.70840483205393e-05,0.0979729741811752,0,0,0
1976,70812.9765216998,2011-01-04 06:18:17,4262.106948021993,2,8,0.5501165986061096,4.170351982116699,5.794935324785889,5.953011685594595,23.251716110796472,21.576556825622973,9.71794142969884e-05,0.0979729741811752,0,0,0
1977,70842.99169856099,2011-01-04 06:18:47,4292.122124978408,2,8,0.5499359965324402,4.173913478851318,5.799521436344419,5.953011685594595,23.270850148295025,21.576556825622973,6.47544875391759e-05,0.0979729741811752,0,0,0
1978,70873.00677446053,2011-01-04 06:19:17,4322.13720078272,2,8,0.5501165986061096,4.177798748016357,5.804107549348813,5.953011685594595,23.29000124200689,21.576556825622973,0.0001295089750783,0.0979729741811752,0,0,0
1979,70903.02191238468,2011-01-04 06:19:47,4352.152338706854,2,8,0.5499359965324402,4.181521892547607,5.808693662524035,5.953011685594595,23.30916959839424,21.576556825622973,9.70840483205393e-05,0.0979729741811752,0,0,0
1980,70933.037048785,2011-01-04 06:20:17,4382.1674751322535,2,8,0.5499359965324402,4.185245513916016,5.813279861834096,5.953011685594595,23.328355675349023,21.576556825622973,9.71794142969884e-05,0.0979729741811752,0,0,0
1981,70963.0522007792,2011-01-04 06:20:47,4412.182627121441,2,8,0.5499359965324402,4.189130783081055,5.817865979301904,5.953011685594595,23.34755884561712,21.576556825622973,0.0001295089750783,0.0979729741811752,0,0,0
1982,70993.0673279365,2011-01-04 06:21:17,4442.197754283753,2,8,0.5499359965324402,4.193016052246094,5.822452070588371,5.953011685594595,23.366779470837717,21.576556825622973,0.0001295089750783,0.0979729741811752,0,0,0
1983,71023.08246350978,2011-01-04 06:21:47,4472.212889857029,2,8,0.5499359965324402,4.196739196777344,5.827038123444549,5.953011685594595,23.386017535441933,21.576556825622973,6.47544875391759e-05,0.0979729741811752,0,0,0
1984,71047.3636456067,2011-01-04 06:22:11,4496.494072054196,2,8,0.5499359965324402,4.200138568878174,5.830748119709427,5.953011685594595,23.40159359838209,21.576556825622973,0.0001618385285837,0.0979729741811752,0,0,0
1985,71077.37816684709,2011-01-04 06:22:41,30.01541655356427,3,8,0.0,4.106568813323975,5.830748119709427,5.953011685594595,23.40159359838209,21.576556825622973,-0.0004532813909463,0.0979729741811752,0,0,0
1986,71107.39562281851,2011-01-04 06:23:11,60.032872519972855,3,8,0.0,4.0945892333984375,5.830748119709427,5.953011685594595,23.40159359838209,21.576556825622973,-0.0002590179501567,0.0979729741811752,0,0,0
1987,71137.40846947712,2011-01-04 06:23:41,90.04571909335574,3,8,0.0,4.087628364562988,5.830748119709427,5.953011685594595,23.40159359838209,21.576556825622973,-0.0001942634553415,0.0979729741811752,0,0,0
1988,71167.37657945312,2011-01-04 06:24:11,120.01382907939788,3,8,0.0,4.08293342590332,5.830748119709427,5.953011685594595,23.40159359838209,21.576556825622973,-0.0001295089750783,0.0979729741811752,0,0,0
1989,71167.3779515427,2011-01-04 06:24:11,2.842083346e-06,4,8,1.0139212608337402,4.199814796447754,5.830748120509885,5.953011685594595,23.40159360174387,21.576556825622973,0.0,0.0979729741811752,0,0,0
1990,71168.08124149767,2011-01-04 06:24:12,0.703292937397822,4,8,0.9637118577957152,4.199976921081543,5.830939834381255,5.953011685594595,23.40239875385556,21.576556825622973,3.24249267578125e-05,0.0979729741811752,0,0,0
1991,71169.9248840973,2011-01-04 06:24:14,2.546935446805886,4,8,0.9136831164360046,4.199814796447754,5.831419557847364,5.953011685594595,23.40441348668238,21.576556825622973,0.0,0.0979729741811752,0,0,0
1992,71172.784082309,2011-01-04 06:24:17,5.406133628427774,4,8,0.8634737133979797,4.199814796447754,5.83212411521264,5.953011685594595,23.40737245726596,21.576556825622973,0.0,0.0979729741811752,0,0,0
1993,71176.64595614687,2011-01-04 06:24:21,9.268007481338104,4,8,0.8132643103599548,4.199653148651123,5.833022468527978,5.953011685594595,23.41114536258909,21.576556825622973,0.0,0.0979729741811752,0,0,0
1994,71181.83094818742,2011-01-04 06:24:26,14.452999511860328,4,8,0.7632355690002441,4.199814796447754,5.834156655946736,5.953011685594595,23.41590873134209,21.576556825622973,0.0,0.0979729741811752,0,0,0
1995,71188.52051661025,2011-01-04 06:24:33,21.14256793971128,4,8,0.7132067680358887,4.199976921081543,5.835526379135875,5.953011685594595,23.42166129882235,21.576556825622973,6.47544875391759e-05,0.0979729741811752,0,0,0
1996,71197.18996195558,2011-01-04 06:24:41,29.812013295058453,4,8,0.663178026676178,4.199653148651123,5.837181205844308,5.953011685594595,23.428611249718045,21.576556825622973,-3.23295607813634e-05,0.0979729741811752,0,0,0
1997,71209.25223806412,2011-01-04 06:24:53,41.874289378528026,4,8,0.6129686236381531,4.199814796447754,5.839315803592135,5.953011685594595,23.43757615432585,21.576556825622973,0.0,0.0979729741811752,0,0,0
1998,71227.29895071487,2011-01-04 06:25:11,59.92100207440082,4,8,0.5629398822784424,4.199814796447754,5.84225523058963,5.953011685594595,23.449921176132197,21.576556825622973,0.0,0.0979729741811752,0,0,0
1999,71257.42345175555,2011-01-04 06:25:42,90.04550308499645,4,8,0.5129110813140869,4.199814796447754,5.846737815193794,5.953011685594595,23.468747178048424,21.576556825622973,0.0,0.0979729741811752,0,0,0
2000,71315.01639728171,2011-01-04 06:26:39,147.63844861616644,4,8,0.4628823399543762,4.199814796447754,5.854506240312187,5.953011685594595,23.50137307526676,21.576556825622973,0.0,0.0979729741811752,0,0,0
2001,71411.46769558439,2011-01-04 06:28:16,244.08974689880927,4,8,0.4128535687923431,4.199814796447754,5.86620634121475,5.953011685594595,23.550511299246537,21.576556825622973,0.0,0.0979729741811752,0,0,0
2002,71537.26454315025,2011-01-04 06:30:21,369.8865944696783,4,8,0.36282479763031,4.199814796447754,5.879741184509132,5.953011685594595,23.60735519933939,21.576556825622973,0.0,0.0979729741811752,0,0,0
2003,71689.22877022735,2011-01-04 06:32:53,521.8508215417656,4,8,0.312796026468277,4.199814796447754,5.89398186244272,5.953011685594595,23.667163475810995,21.576556825622973,0.0,0.0979729741811752,0,0,0
2004,71873.92901956956,2011-01-04 06:35:58,706.5510709040224,4,8,0.2627672553062439,4.199814796447754,5.908722008764594,5.953011685594595,23.72906939780053,21.576556825622973,-3.24249267578125e-05,0.0979729741811752,0,0,0
2005,72104.11264452366,2011-01-04 06:39:48,936.7346958631512,4,8,0.2127384841442108,4.199814796447754,5.923877320269098,5.953011685594595,23.792718854764825,21.576556825622973,0.0,0.0979729741811752,0,0,0
2006,72403.88909874651,2011-01-04 06:44:48,1236.5111500659336,4,8,0.1627097129821777,4.199653148651123,5.939440899198094,5.953011685594595,23.8580829757878,21.576556825622973,0.0,0.0979729741811752,0,0,0
2007,72839.02252025511,2011-01-04 06:52:03,1671.644571569527,4,8,0.1126809492707252,4.199653148651123,5.955920907994259,5.953011685594595,23.92729592665639,21.576556825622973,-3.23295607813634e-05,0.0979729741811752,0,0,0
2008,73597.74454310899,2011-01-04 07:04:42,2430.3665944434592,4,8,0.0624715648591518,4.199814796447754,5.97385628478332,5.953011685594595,24.002621268407243,21.576556825622973,0.0,0.0979729741811752,0,0,0
2009,73912.86435586232,2011-01-04 07:09:57,2745.4864071967827,4,8,0.0498289167881011,4.199653148651123,5.978787978199483,5.953011685594595,24.02333338385921,21.576556825622973,-3.23295607813634e-05,0.0979729741811752,0,0,0
2010,73942.87902121933,2011-01-04 07:10:27,30.015346985178443,5,8,0.0,4.191073417663574,5.978787978199483,5.953011685594595,24.02333338385921,21.576556825622973,-3.23295607813634e-05,0.0979729741811752,0,0,0
2011,73972.87856169984,2011-01-04 07:10:57,60.01488748573368,5,8,0.0,4.189454555511475,5.978787978199483,5.953011685594595,24.02333338385921,21.576556825622973,-6.47544875391759e-05,0.0979729741811752,0,0,0
2012,73973.06637365639,2011-01-04 07:10:57,0.18762789143712,6,8,-1.9243103452026844e-05,4.189778327941895,5.978787978199483,5.953011686597524,24.02333338385921,21.576556829825023,0.0,0.10130325704813,0,0,0
2013,73977.89431178874,2011-01-04 07:11:02,5.015566114007218,6,8,0.0005225847125984,4.1892924308776855,5.978788759126398,5.953011686680705,24.02333665567043,21.576556830173537,-9.71794142969884e-05,0.10130325704813,0,0,0
2014,74007.90991607607,2011-01-04 07:11:32,30.015135914124432,7,8,-1.099568486213684,3.99308705329895,5.978788759126398,5.962180321202489,24.02333665567043,21.613396464852062,-0.001068401383236,0.10130325704813,0,0,0
2015,74037.92694452697,2011-01-04 07:12:02,60.032164355007865,7,8,-1.099929690361023,3.959576606750488,5.978788759126398,5.971349475386263,24.02333665567043,21.649848405862425,-0.0008094310760498,0.10130325704813,0,0,0
2016,74067.9402341646,2011-01-04 07:12:32,90.04545409790555,7,8,-1.099568486213684,3.935941219329834,5.978788759126398,5.98051742355936,24.02333665567043,21.68603680311537,-0.0005504131549969,0.10130325704813,0,0,0
2017,74097.9553101193,2011-01-04 07:13:02,120.06052994733028,7,8,-1.099568486213684,3.9178099632263184,5.978788759126398,5.989685919355811,24.02333665567043,21.722038374031488,-0.0004532813909463,0.10130325704813,0,0,0
2018,74127.9704396826,2011-01-04 07:13:32,150.0756595006015,7,8,-1.0997490882873535,3.902592897415161,5.978788759126398,5.998854471366094,24.02333665567043,21.757888386549137,-0.0004209041653666,0.10130325704813,0,0,0
2019,74157.98553996792,2011-01-04 07:14:02,180.09075982101547,7,8,-1.099568486213684,3.889318227767944,5.978788759126398,6.008022616467525,24.02333665567043,21.79360633938384,-0.0003561496851034,0.10130325704813,0,0,0
2020,74188.00065834333,2011-01-04 07:14:32,210.1058781713656,7,8,-1.099568486213684,3.876529216766357,5.978788759126398,6.017190341705399,24.02333665567043,21.829204062308488,-0.0003561496851034,0.10130325704813,0,0,0
2021,74218.015810924,2011-01-04 07:15:02,240.12103074701565,7,8,-1.099929690361023,3.86487340927124,5.978788759126398,6.026358201098676,24.02333665567043,21.86469110585317,-0.0003237724304199,0.10130325704813,0,0,0
2022,74248.031105278,2011-01-04 07:15:32,270.13632520628335,7,8,-1.099568486213684,3.853541374206543,5.978788759126398,6.035525923452437,24.02333665567043,21.90007183231081,-0.0003237724304199,0.10130325704813,0,0,0
2023,74278.04613081201,2011-01-04 07:16:03,300.1513506450693,7,8,-1.099568486213684,3.8428568840026855,5.978788759126398,6.044693602601562,24.02333665567043,21.935350333466133,-0.0002590179501567,0.10130325704813,0,0,0
2024,74308.06128685632,2011-01-04 07:16:33,330.16650667933925,7,8,-1.0997490882873535,3.832010746002197,5.978788759126398,6.053861291659334,24.02333665567043,21.97053032551957,-0.0002589702489785,0.10130325704813,0,0,0
2025,74338.07634192896,2011-01-04 07:17:03,360.18156175198186,7,8,-1.099568486213684,3.82197380065918,5.978788759126398,6.063029167097793,24.02333665567043,22.00561564627124,-0.0002590179501567,0.10130325704813,0,0,0
2026,74368.09148597837,2011-01-04 07:17:33,390.19670580138194,7,8,-1.0997490882873535,3.811774969100952,5.978788759126398,6.072197590813475,24.02333665567043,22.040610017425127,-0.0002913951757363,0.10130325704813,0,0,0
2027,74398.106655802,2011-01-04 07:18:03,420.2118756250193,7,8,-1.099568486213684,3.8020617961883545,5.978788759126398,6.081365947857746,24.02333665567043,22.075513461041343,-0.0002590179501567,0.10130325704813,0,0,0
2028,74428.12186261281,2011-01-04 07:18:33,450.2270824508776,7,8,-1.0997490882873535,3.792510509490967,5.978788759126398,6.090534299398706,24.02333665567043,22.110328755832896,-0.0002913951757363,0.10130325704813,0,0,0
2029,74458.13686751542,2011-01-04 07:19:03,480.2420873384434,7,8,-1.0997490882873535,3.783282995223999,5.978788759126398,6.09970259031156,24.02333665567043,22.14505802972237,-0.0002590179501567,0.10130325704813,0,0,0
2030,74488.15201853219,2011-01-04 07:19:33,510.2572383802709,7,8,-1.0997490882873535,3.774379253387451,5.978788759126398,6.108870961082489,24.02333665567043,22.17970417019263,-0.0002266406954731,0.10130325704813,0,0,0
2031,74518.16931585321,2011-01-04 07:20:03,540.2745356812363,7,8,-1.099568486213684,3.765637397766113,5.978788759126398,6.11803993307978,24.02333665567043,22.21427111241316,-0.0002266406954731,0.10130325704813,0,0,0
2032,74548.18240276558,2011-01-04 07:20:33,570.2876226086554,7,8,-1.0997490882873535,3.757057428359986,5.978788759126398,6.12720760354019,24.02333665567043,22.248753460740893,-0.0002266406954731,0.10130325704813,0,0,0
2033,74578.19739313697,2011-01-04 07:21:03,600.3026129650051,7,8,-1.099568486213684,3.748801469802856,5.978788759126398,6.136375915975336,24.02333665567043,22.283161038575283,-0.0001942634553415,0.10130325704813,0,0,0
2034,74608.21266012779,2011-01-04 07:21:33,630.3178799608254,7,8,-1.099568486213684,3.740869045257568,5.978788759126398,6.145544342541766,24.02333665567043,22.3174937514468,-0.0001618862152099,0.10130325704813,0,0,0
2035,74638.22767876461,2011-01-04 07:22:03,660.3328986126962,7,8,-1.0997490882873535,3.732612848281861,5.978788759126398,6.154712642924764,24.02333665567043,22.35175238992637,-0.0002590179501567,0.10130325704813,0,0,0
2036,74668.242797526,2011-01-04 07:22:33,690.3480174743206,7,8,-1.0993878841400146,3.725166082382202,5.978788759126398,6.16388067714026,24.02333665567043,22.385938493108835,-0.0001942634553415,0.10130325704813,0,0,0
2037,74698.25793116444,2011-01-04 07:23:03,720.3631510125235,7,8,-1.099568486213684,3.717395544052124,5.978788759126398,6.173048700923371,24.02333665567043,22.42005460542979,-0.0001942634553415,0.10130325704813,0,0,0
2038,74728.2730847025,2011-01-04 07:23:33,750.3783045305222,7,8,-1.0997490882873535,3.710110664367676,5.978788759126398,6.182217055692104,24.02333665567043,22.454103132490964,-0.0001942634553415,0.10130325704813,0,0,0
2039,74758.29058367609,2011-01-04 07:24:03,780.3958035943427,7,8,-1.0997490882873535,3.7026638984680176,5.978788759126398,6.191386079764181,24.02333665567043,22.48808637757752,-0.0001942634553415,0.10130325704813,0,0,0
2040,74788.30333915242,2011-01-04 07:24:33,810.4085589754465,7,8,-1.099568486213684,3.6955409049987793,5.978788759126398,6.20055368444737,24.02333665567043,22.52199793108505,-0.0001295089750783,0.10130325704813,0,0,0
2041,74818.31846287118,2011-01-04 07:25:03,840.4236826941764,7,8,-1.0997490882873535,3.688417911529541,5.978788759126398,6.209722028095914,24.02333665567043,22.555847314076715,-0.0002266406954731,0.10130325704813,0,0,0
2042,74848.33359853465,2011-01-04 07:25:33,870.4388183626885,7,8,-1.099568486213684,3.681618690490722,5.978788759126398,6.218890406448731,24.02333665567043,22.58963262299479,-0.0001618862152099,0.10130325704813,0,0,0
2043,74878.34886876354,2011-01-04 07:26:03,900.4540886116166,7,8,-1.0997490882873535,3.674819469451904,5.978788759126398,6.22805878902423,24.02333665567043,22.623354921812968,-0.0001618862152099,0.10130325704813,0,0,0
2044,74908.3638813954,2011-01-04 07:26:33,930.4691012384712,7,8,-1.0997490882873535,3.668020486831665,5.978788759126398,6.23722720171084,24.02333665567043,22.65701570207498,-0.0001942634553415,0.10130325704813,0,0,0
2045,74938.37898352032,2011-01-04 07:27:03,960.4842033483452,7,8,-1.099568486213684,3.6615450382232666,5.978788759126398,6.246395616962451,24.02333665567043,22.690615255855707,-0.0001295089750783,0.10130325704813,0,0,0
2046,74968.3942478545,2011-01-04 07:27:33,990.4994676975692,7,8,-1.099568486213684,3.654907703399658,5.978788759126398,6.255564066030772,24.02333665567043,22.724155174377,-0.0001942634553415,0.10130325704813,0,0,0
2047,74998.40940143265,2011-01-04 07:28:03,1020.5146212506556,7,8,-1.0993878841400146,3.6485941410064697,5.978788759126398,6.264732502666498,24.02333665567043,22.7576361484244,-0.0001618862152099,0.10130325704813,0,0,0
2048,75028.42437339817,2011-01-04 07:28:33,1050.529593221182,7,8,-1.099568486213684,3.642280578613281,5.978788759126398,6.27390072970729,24.02333665567043,22.791057819193057,-0.0001942634553415,0.10130325704813,0,0,0
2049,75058.44004236582,2011-01-04 07:29:03,1080.5452622941025,7,8,-1.0997490882873535,3.6359670162200928,5.978788759126398,6.283069276784856,24.02333665567043,22.824423872285667,-0.0001942634553415,0.10130325704813,0,0,0
2050,75088.45464748704,2011-01-04 07:29:33,1110.5598673351274,7,8,-1.099568486213684,3.630139112472534,5.978788759126398,6.292237517850606,24.02333665567043,22.85773298034721,-0.0001295089750783,0.10130325704813,0,0,0
2051,75118.471850899,2011-01-04 07:30:03,1140.5770707420802,7,8,-1.0997490882873535,3.6241493225097656,5.978788759126398,6.301406538709871,24.02333665567043,22.890989928214346,-0.0001942634553415,0.10130325704813,0,0,0
2052,75148.4850376051,2011-01-04 07:30:33,1170.5902574481786,7,8,-1.099568486213684,3.618483304977417,5.978788759126398,6.310574265557382,24.02333665567043,22.924187973897112,-9.713172767078504e-05,0.10130325704813,0,0,0
2053,75178.50005267304,2011-01-04 07:31:03,1200.6052725010795,7,8,-1.0997490882873535,3.612493515014648,5.978788759126398,6.319742564272306,24.02333665567043,22.957334920219573,-0.0001618862152099,0.10130325704813,0,0,0
2054,75208.51530448101,2011-01-04 07:31:33,1230.6205243240847,7,8,-1.0997490882873535,3.6069893836975098,5.978788759126398,6.328910949698671,24.02333665567043,22.990430511406608,-0.0001295089750783,0.10130325704813,0,0,0
2055,75238.53031812541,2011-01-04 07:32:03,1260.6355379484253,7,8,-1.099568486213684,3.601485252380371,5.978788759126398,6.338079283338724,24.02333665567043,23.023474793461112,-0.0001295089750783,0.10130325704813,0,0,0
2056,75268.54557442457,2011-01-04 07:32:33,1290.6507942525989,7,8,-1.0997490882873535,3.5959811210632324,5.978788759126398,6.347247661165841,24.02333665567043,23.056469184417544,-0.0001295089750783,0.10130325704813,0,0,0
2057,75298.56057350767,2011-01-04 07:33:03,1320.6657933607607,7,8,-1.0997490882873535,3.5908010005950928,5.978788759126398,6.356416005888539,24.02333665567043,23.089414014089986,-0.0001295089750783,0.10130325704813,0,0,0
2058,75328.57572794796,2011-01-04 07:33:33,1350.680947801058,7,8,-1.0997490882873535,3.585458755493164,5.978788759126398,6.365584445452784,24.02333665567043,23.12231162916988,-0.0001618862152099,0.10130325704813,0,0,0
2059,75358.59086450368,2011-01-04 07:34:03,1380.696084331719,7,8,-1.0993878841400146,3.580764055252075,5.978788759126398,6.374752737737324,24.02333665567043,23.155163001129104,-9.713172767078504e-05,0.10130325704813,0,0,0
2060,75388.60626718769,2011-01-04 07:34:33,1410.7114870207286,7,8,-1.0997490882873535,3.5760693550109863,5.978788759126398,6.383921176353296,24.02333665567043,23.187970385976907,-6.47544875391759e-05,0.10130325704813,0,0,0
2061,75418.6210960766,2011-01-04 07:35:03,1440.7263158996268,7,8,-1.0997490882873535,3.5712127685546875,5.978788759126398,6.393089442170874,24.02333665567043,23.22073387884006,-0.0001618862152099,0.10130325704813,0,0,0
2062,75448.63622677774,2011-01-04 07:35:33,1470.7414466007588,7,8,-1.099568486213684,3.5668418407440186,5.978788759126398,6.402257847369595,24.02333665567043,23.25345560795333,-9.713172767078504e-05,0.10130325704813,0,0,0
2063,75478.65137358401,2011-01-04 07:36:03,1500.7565934120423,7,8,-1.0997490882873535,3.56230902671814,5.978788759126398,6.411426207816413,24.02333665567043,23.28613605901607,-9.713172767078504e-05,0.10130325704813,0,0,0
2064,75508.6666246401,2011-01-04 07:36:33,1530.7718444931984,7,8,-1.0997490882873535,3.5580999851226807,5.978788759126398,6.420594638911823,24.02333665567043,23.31877719328731,-9.713172767078504e-05,0.10130325704813,0,0,0
2065,75538.68163807898,2011-01-04 07:37:03,1560.786857902002,7,8,-1.099568486213684,3.553729057312012,5.978788759126398,6.42976302500113,24.02333665567043,23.35137915501932,-0.0001295089750783,0.10130325704813,0,0,0
2066,75568.69675625389,2011-01-04 07:37:33,1590.8019760769148,7,8,-1.099568486213684,3.5496819019317627,5.978788759126398,6.438931413226069,24.02333665567043,23.383942581783607,-9.713172767078504e-05,0.10130325704813,0,0,0
2067,75598.71189738101,2011-01-04 07:38:03,1620.817117229094,7,8,-1.0997490882873535,3.545472860336304,5.978788759126398,6.44809982954394,24.02333665567043,23.41646807978602,-0.0001295089750783,0.10130325704813,0,0,0
2068,75628.72701765616,2011-01-04 07:38:33,1650.832237479179,7,8,-1.0997490882873535,3.5414257049560547,5.978788759126398,6.45726826304992,24.02333665567043,23.448956265761872,-0.0001618862152099,0.10130325704813,0,0,0
2069,75658.74214693876,2011-01-04 07:39:03,1680.8473667617754,7,8,-1.0997490882873535,3.5373785495758057,5.978788759126398,6.466436671145621,24.02333665567043,23.48140759886996,-0.0001295089750783,0.10130325704813,0,0,0
2070,75688.75737061661,2011-01-04 07:39:33,1710.8625905348715,7,8,-1.0997490882873535,3.5333313941955566,5.978788759126398,6.475605096717903,24.02333665567043,23.51382242547441,-0.0001295089750783,0.10130325704813,0,0,0
2071,75718.77439286707,2011-01-04 07:40:03,1740.8796126900893,7,8,-1.0997490882873535,3.5296080112457275,5.978788759126398,6.484774113551318,24.02333665567043,23.546203230655497,-9.713172767078504e-05,0.10130325704813,0,0,0
2072,75748.7875649868,2011-01-04 07:40:33,1770.8927848348962,7,8,-1.099568486213684,3.5258846282958984,5.978788759126398,6.493941902038846,24.02333665567043,23.57854407161998,-3.237724376958795e-05,0.10130325704813,0,0,0
2073,75778.80267415429,2011-01-04 07:41:03,1800.9078939973472,7,8,-1.099568486213684,3.5218374729156494,5.978788759126398,6.503110275160433,24.02333665567043,23.61085184510054,-6.47544875391759e-05,0.10130325704813,0,0,0
2074,75808.81794784177,2011-01-04 07:41:33,1830.9231677149205,7,8,-1.0997490882873535,3.5179522037506104,5.978788759126398,6.512278700974902,24.02333665567043,23.64312510594168,-0.0001295089750783,0.10130325704813,0,0,0
2075,75838.83530884652,2011-01-04 07:42:03,1860.9405286695303,7,8,-1.0997490882873535,3.5140669345855717,5.978788759126398,6.521447757950678,24.02333665567043,23.675365054706425,-0.0001295089750783,0.10130325704813,0,0,0
2076,75868.84808421243,2011-01-04 07:42:33,1890.9533040605045,7,8,-1.099568486213684,3.5103437900543213,5.978788759126398,6.530615392718263,24.02333665567043,23.70756448077721,-9.713172767078504e-05,0.10130325704813,0,0,0
2077,75898.86321235215,2011-01-04 07:43:03,1920.9684321802035,7,8,-1.099568486213684,3.5062966346740723,5.978788759126398,6.539783820491603,24.02333665567043,23.73973073088912,-0.0001618862152099,0.10130325704813,0,0,0
2078,75928.87834432648,2011-01-04 07:43:33,1950.983564154508,7,8,-1.0997490882873535,3.502411365509033,5.978788759126398,6.548952193249468,24.02333665567043,23.77186039973354,-9.713172767078504e-05,0.10130325704813,0,0,0
2079,75958.89538555422,2011-01-04 07:44:03,1981.0006055276224,7,8,-1.0997490882873535,3.498202323913574,5.978788759126398,6.558121182164376,24.02333665567043,23.80395482494269,-0.0001618862152099,0.10130325704813,0,0,0
2080,75988.90865846518,2011-01-04 07:44:33,2011.013878293208,7,8,-1.0997490882873535,3.494155168533325,5.978788759126398,6.5672890325284,24.02333665567043,23.83600771091928,-9.713172767078504e-05,0.10130325704813,0,0,0
2081,76018.92374037972,2011-01-04 07:45:03,2041.028960202736,7,8,-1.099568486213684,3.489784240722656,5.978788759126398,6.576457426547877,24.02333665567043,23.86802314150661,-0.0001295089750783,0.10130325704813,0,0,0
2082,76048.93900602718,2011-01-04 07:45:33,2071.0442258652333,7,8,-1.099929690361023,3.4850895404815674,5.978788759126398,6.585625847325607,24.02333665567043,23.899997548211942,-0.0001295089750783,0.10130325704813,0,0,0
2083,76078.9540256665,2011-01-04 07:46:03,2101.05924551459,7,8,-1.0997490882873535,3.4803948402404785,5.978788759126398,6.594794249645967,24.02333665567043,23.931929344060755,-0.0001618862152099,0.10130325704813,0,0,0
2084,76108.96913486905,2011-01-04 07:46:33,2131.0743546920785,7,8,-1.0997490882873535,3.47521448135376,5.978788759126398,6.603962607797823,24.02333665567043,23.9638162556494,-0.0001942634553415,0.10130325704813,0,0,0
2085,76138.98429910377,2011-01-04 07:47:03,2161.089519032049,7,8,-1.099568486213684,3.470034122467041,5.978788759126398,6.613131018743352,24.02333665567043,23.9956555150158,-0.0001295089750783,0.10130325704813,0,0,0
2086,76168.999467559,2011-01-04 07:47:33,2191.104687407076,7,8,-1.0997490882873535,3.4642062187194824,5.978788759126398,6.622299391905206,24.02333665567043,24.02744282430216,-0.0001295089750783,0.10130325704813,0,0,0
2087,76199.01454056131,2011-01-04 07:48:04,2221.119760389355,7,8,-1.099568486213684,3.457730770111084,5.978788759126398,6.631467772397407,24.02333665567043,24.05917417632105,-0.0001942634553415,0.10130325704813,0,0,0
2088,76229.02966874116,2011-01-04 07:48:34,2251.134888564191,7,8,-1.0993878841400146,3.450769662857056,5.978788759126398,6.640636168193077,24.02333665567043,24.09084425810947,-0.0001942634553415,0.10130325704813,0,0,0
2089,76259.04479710147,2011-01-04 07:49:04,2281.1500169244887,7,8,-1.0997490882873535,3.4426753520965576,5.978788759126398,6.649804556997169,24.02333665567043,24.12244540174171,-0.0002266406954731,0.10130325704813,0,0,0
2090,76289.05994447415,2011-01-04 07:49:34,2311.165164302184,7,8,-1.0997490882873535,3.4336097240448,5.978788759126398,6.658972994929984,24.02333665567043,24.15396892049987,-0.0002590179501567,0.10130325704813,0,0,0
2091,76319.07696024847,2011-01-04 07:50:04,2341.1821801617107,7,8,-1.099568486213684,3.4230873584747314,5.978788759126398,6.668141987852361,24.02333665567043,24.18540508635473,-0.0002913951757363,0.10130325704813,0,0,0
2092,76349.0902190743,2011-01-04 07:50:34,2371.195438897329,7,8,-1.0993878841400146,3.4107840061187744,5.978788759126398,6.677309891773542,24.02333665567043,24.216732407454003,-0.0003237724304199,0.10130325704813,0,0,0
2093,76379.10537161487,2011-01-04 07:51:04,2401.2105914629537,7,8,-1.099568486213684,3.395566701889038,5.978788759126398,6.686478331385717,24.02333665567043,24.24793524699228,-0.0003885269106831,0.10130325704813,0,0,0
2094,76409.12046211581,2011-01-04 07:51:34,2431.2256819638947,7,8,-1.099929690361023,3.3769497871398926,5.978788759126398,6.695646713977464,24.02333665567043,24.278985247063428,-0.0005180359003134,0.10130325704813,0,0,0
2095,76439.1358258728,2011-01-04 07:52:04,2461.241045720873,7,8,-1.0997490882873535,3.353961944580078,5.978788759126398,6.704815189793027,24.02333665567043,24.30984589829551,-0.0006799221155233,0.10130325704813,0,0,0
2096,76469.15085522634,2011-01-04 07:52:34,2491.256075069404,7,8,-1.099568486213684,3.3244988918304443,5.978788759126398,6.713983564364822,24.02333665567043,24.340466506481857,-0.0008741855854168,0.10130325704813,0,0,0
2097,76499.16585500115,2011-01-04 07:53:04,2521.2710748291897,7,8,-1.0993878841400146,3.2867794036865234,5.978788759126398,6.723151908358668,24.02333665567043,24.37078096924583,-0.0011008263099938,0.10130325704813,0,0,0
2098,76529.18098384266,2011-01-04 07:53:34,2551.2862036656747,7,8,-1.099929690361023,3.2367568016052246,5.978788759126398,6.732320308380244,24.02333665567043,24.400696551757544,-0.0014893531333655,0.10130325704813,0,0,0
2099,76559.19613504488,2011-01-04 07:54:04,2581.301354862889,7,8,-1.0997490882873535,3.16973614692688,5.978788759126398,6.741488771977421,24.02333665567043,24.43008201119917,-0.0020397664047777,0.10130325704813,0,0,0
2100,76589.2112684277,2011-01-04 07:54:34,2611.316488250717,7,8,-1.099568486213684,3.075680494308472,5.978788759126398,6.750657202408041,24.02333665567043,24.45873799360399,-0.0029139518737792,0.10130325704813,0,0,0
2101,76619.2263673396,2011-01-04 07:55:04,2641.3315872528456,7,8,-1.099568486213684,2.929335832595825,5.978788759126398,6.759825580005964,24.02333665567043,24.486321625572543,-0.0047917841002345,0.10130325704813,0,0,0
2102,76646.05405524754,2011-01-04 07:55:31,2668.159275070561,7,8,-1.099929690361023,2.7290830612182617,5.978788759126398,6.768020301356182,24.02333665567043,24.509550064902204,-0.0066697122529149,0.10130325704813,0,0,0
2103,76649.53835971138,2011-01-04 07:55:34,2671.643579529365,7,8,-1.0997490882873535,2.699781894683838,5.978788759126398,6.769084631278074,24.02333665567043,24.512439314436705,-0.0067667961120605,0.10130325704813,0,0,0
2104,76709.55048893616,2011-01-04 07:56:34,60.01456967866066,8,8,0.0,3.4839563369750977,5.978788759126398,6.769084631278074,24.02333665567043,24.512439314436705,0.0014245987404137,0.10130325704813,0,0,0
2105,76709.73637393613,2011-01-04 07:56:34,0.187523421064808,9,8,-1.9243103452026844e-05,3.4842801094055176,5.978788759126398,6.769084632280444,24.02333665567043,24.512439317929243,0.0,0.1002209857106208,0,0,0
2106,76714.56439008794,2011-01-04 07:56:39,5.015539577871002,9,8,0.0005225847125984,3.4926981925964355,5.978789609963191,6.769084632447329,24.02333962431731,24.512439318510715,0.0012303352123126,0.1002209857106208,0,0,0
