Data_Point,Test_Time(s),Date_Time,Step_Time(s),Step_Index,Cycle_Index,Current(A),Voltage(V),Charge_Capacity(Ah),Discharge_Capacity(Ah),Charge_Energy(Wh),Discharge_Energy(Wh),dV/dt(V/s),Internal_Resistance(Ohm),Is_FC_Data,AC_Impedance(Ohm),ACI_Phase_Angle(Deg)
11948,459119.75377748505,2011-01-08 18:10:53,30.01515259570005,1,48,0.0,3.581411600112915,35.79897794178086,36.53527891779602,144.63502652573035,130.92656290022163,0.0007446765666827,0.1005837768316268,0,0,0
11949,459149.7691597834,2011-01-08 18:11:23,60.0305348838644,1,48,0.0,3.603104114532471,35.79897794178086,36.53527891779602,144.63502652573035,130.92656290022163,0.0004856586456298,0.1005837768316268,0,0,0
11950,459179.78404716303,2011-01-08 18:11:53,90.0454222485271,1,48,0.0,3.618645191192627,35.79897794178086,36.53527891779602,144.63502652573035,130.92656290022163,0.0003561496851034,0.1005837768316268,0,0,0
11951,459209.75229786977,2011-01-08 18:12:23,120.01367295528856,1,48,0.0,3.630624771118164,35.79897794178086,36.53527891779602,144.63502652573035,130.92656290022163,0.0002913951757363,0.1005837768316268,0,0,0
11952,459239.7681853755,2011-01-08 18:12:53,30.015263512137945,2,48,0.5499359965324402,3.756733655929565,35.80356454114148,36.53527891779602,144.6521579557678,130.92656290022163,0.0009388923645019,0.1005837768316268,0,0,0
11953,459269.7833036858,2011-01-08 18:13:23,60.03038180233813,2,48,0.5499359965324402,3.782149791717529,35.808151062837304,36.53527891779602,144.66945134916978,130.92656290022163,0.0005504131549969,0.1005837768316268,0,0,0
11954,459299.7983377912,2011-01-08 18:13:53,90.04541591273636,2,48,0.5499359965324402,3.797205209732056,35.812737614453454,36.53527891779602,144.68683547148285,130.92656290022163,0.0002913951757363,0.1005837768316268,0,0,0
11955,459329.8135924963,2011-01-08 18:14:23,120.06067063296216,2,48,0.5501165986061096,3.807727813720703,35.81732421710652,36.53527891779602,144.70427684150752,130.92656290022163,0.0002590179501567,0.1005837768316268,0,0,0
11956,459359.8286092284,2011-01-08 18:14:53,150.0756873399858,2,48,0.5501165986061096,3.816145896911621,35.82191078377989,36.53527891779602,144.7217604459391,130.92656290022163,0.0001942634553415,0.1005837768316268,0,0,0
11957,459389.8437316991,2011-01-08 18:15:23,180.0908098206299,2,48,0.5499359965324402,3.823430776596069,35.826497324687395,36.53527891779602,144.7392798772959,130.92656290022163,0.0001942634553415,0.1005837768316268,0,0,0
11958,459419.8589019939,2011-01-08 18:15:53,210.1059801354915,2,48,0.5501165986061096,3.8300681114196777,35.831083846449594,36.53527891779602,144.7568312973034,130.92656290022163,0.0001942634553415,0.1005837768316268,0,0,0
11959,459449.8742115106,2011-01-08 18:16:23,240.1212896222123,2,48,0.5501165986061096,3.836219549179077,35.83567040773206,36.53527891779602,144.77441259452266,130.92656290022163,0.0001618862152099,0.1005837768316268,0,0,0
11960,459479.88915864425,2011-01-08 18:16:53,270.1362367608501,2,48,0.5499359965324402,3.8422093391418457,35.84025688103711,36.53527891779602,144.79202155668375,130.92656290022163,0.0001618862152099,0.1005837768316268,0,0,0
11961,459509.9042914607,2011-01-08 18:17:23,300.151369587279,2,48,0.550297200679779,3.8478753566741934,35.84484339955884,36.53527891779602,144.8096571988628,130.92656290022163,0.0001295089750783,0.1005837768316268,0,0,0
11962,459539.91943134967,2011-01-08 18:17:53,330.1665094662852,2,48,0.5501165986061096,3.853217601776123,35.849429967177706,36.53527891779602,144.8273182147282,130.92656290022163,0.0001295089750783,0.1005837768316268,0,0,0
11963,459569.9368251362,2011-01-08 18:18:23,360.183903342947,2,48,0.5501165986061096,3.858397960662842,35.85401685251625,36.53527891779602,144.84500454911984,130.92656290022163,0.0001295089750783,0.1005837768316268,0,0,0
11964,459599.9497162355,2011-01-08 18:18:53,390.19679435709,2,48,0.5501165986061096,3.863416433334351,35.85860311131913,36.53527891779602,144.86271162176956,130.92656290022163,0.0001618862152099,0.1005837768316268,0,0,0
11965,459629.96487397904,2011-01-08 18:19:23,420.21195212067,2,48,0.5499359965324402,3.86811113357544,35.8631896361477,36.53527891779602,144.8804420669792,130.92656290022163,0.0001295089750783,0.1005837768316268,0,0,0
11966,459659.9799932667,2011-01-08 18:19:53,450.22707138830623,2,48,0.5501165986061096,3.872805833816528,35.86777617429143,36.53527891779602,144.8981943243569,130.92656290022163,9.713172767078504e-05,0.1005837768316268,0,0,0
11967,459689.9951570102,2011-01-08 18:20:23,480.24223513179,2,48,0.5501165986061096,3.8773386478424072,35.87236272474677,36.53527891779602,144.91596769381448,130.92656290022163,0.0001295089750783,0.1005837768316268,0,0,0
11968,459720.0104000564,2011-01-08 18:20:53,510.25747818794525,2,48,0.5499359965324402,3.881871461868286,35.87694931468766,36.53527891779602,144.93376175183835,130.92656290022163,0.0001295089750783,0.1005837768316268,0,0,0
11969,459750.0254098009,2011-01-08 18:21:23,540.2724879225917,2,48,0.5501165986061096,3.886080503463745,35.881535850877526,36.53527891779602,144.95157548706453,130.92656290022163,0.0001295089750783,0.1005837768316268,0,0,0
11970,459780.0405576399,2011-01-08 18:21:53,570.2876357614361,2,48,0.550297200679779,3.890289545059204,35.88612243156053,36.53527891779602,144.96940871163022,130.92656290022163,0.0001295089750783,0.1005837768316268,0,0,0
11971,459810.05570990976,2011-01-08 18:22:24,600.3027880313243,2,48,0.5501165986061096,3.894336700439453,35.89070903462272,36.53527891779602,144.98726091403054,130.92656290022163,0.0001295089750783,0.1005837768316268,0,0,0
11972,459840.070851072,2011-01-08 18:22:54,630.3179291935285,2,48,0.5501165986061096,3.898060083389282,35.895295605727334,36.53527891779602,145.00513059362734,130.92656290022163,6.47544875391759e-05,0.1005837768316268,0,0,0
11973,459870.0859763095,2011-01-08 18:23:24,660.333054426031,2,48,0.5497553944587708,3.9014596939086914,35.89988212767918,36.53527891779602,145.0230173789402,130.92656290022163,3.237724376958795e-05,0.1005837768316268,0,0,0
11974,459900.1011351056,2011-01-08 18:23:54,690.3482132322096,2,48,0.5501165986061096,3.905183076858521,35.90446870805469,36.53527891779602,145.04092104622,130.92656290022163,6.47544875391759e-05,0.1005837768316268,0,0,0
11975,459930.1162716012,2011-01-08 18:24:24,720.3633497177582,2,48,0.5501165986061096,3.90842080116272,35.90905532807412,36.53527891779602,145.05884065834442,130.92656290022163,3.237724376958795e-05,0.1005837768316268,0,0,0
11976,459960.131408187,2011-01-08 18:24:54,750.3784863185941,2,48,0.550297200679779,3.911820411682129,35.91364189724092,36.53527891779602,145.07677515344565,130.92656290022163,9.713172767078504e-05,0.1005837768316268,0,0,0
11977,459990.14653387567,2011-01-08 18:25:24,780.3936119972085,2,48,0.550297200679779,3.914896011352539,35.91822845021136,36.53527891779602,145.09472392769422,130.92656290022163,6.47544875391759e-05,0.1005837768316268,0,0,0
11978,460020.1616731782,2011-01-08 18:25:54,810.4087513098028,2,48,0.5501165986061096,3.9178099632263184,35.92281500560217,36.53527891779602,145.1126863656918,130.92656290022163,6.47544875391759e-05,0.1005837768316268,0,0,0
11979,460050.1768444154,2011-01-08 18:26:24,840.4239225569881,2,48,0.550297200679779,3.920562028884888,35.927401567242896,36.53527891779602,145.13066200289586,130.92656290022163,6.47544875391759e-05,0.1005837768316268,0,0,0
11980,460080.1921224086,2011-01-08 18:26:54,870.4392005452049,2,48,0.550297200679779,3.923314094543457,35.93198812635054,36.53527891779602,145.1486502979311,130.92656290022163,6.47544875391759e-05,0.1005837768316268,0,0,0
11981,460110.2070920433,2011-01-08 18:27:24,900.4541701648723,2,48,0.5501165986061096,3.925904273986816,35.9365747384511,36.53527891779602,145.1666509695963,130.92656290022163,6.47544875391759e-05,0.1005837768316268,0,0,0
11982,460140.2223588988,2011-01-08 18:27:54,930.4694370353808,2,48,0.5501165986061096,3.928332567214966,35.94116135328626,36.53527891779602,145.18466337219104,130.92656290022163,3.237724376958795e-05,0.1005837768316268,0,0,0
11983,460170.2373606886,2011-01-08 18:28:24,960.4844388502884,2,48,0.5501165986061096,3.930922746658325,35.94574798618494,36.53527891779602,145.20268739933366,130.92656290022163,9.713172767078504e-05,0.1005837768316268,0,0,0
11984,460200.25249777065,2011-01-08 18:28:54,990.4995758872112,2,48,0.550297200679779,3.9333510398864746,35.95033465129384,36.53527891779602,145.2207227418937,130.92656290022163,9.713172767078504e-05,0.1005837768316268,0,0,0
11985,460230.2676395694,2011-01-08 18:29:24,1020.514717706052,2,48,0.550297200679779,3.935779333114624,35.95492129039848,36.53527891779602,145.23876899589723,130.92656290022163,9.713172767078504e-05,0.1005837768316268,0,0,0
11986,460260.28278876166,2011-01-08 18:29:54,1050.529866903282,2,48,0.550297200679779,3.938207626342773,35.95950796312423,36.53527891779602,145.25682617652947,130.92656290022163,0.0001295089750783,0.1005837768316268,0,0,0
11987,460290.30006878456,2011-01-08 18:30:24,1080.5471469061354,2,48,0.5499359965324402,3.940312147140503,35.96409489737791,36.53527891779602,145.27489518209785,130.92656290022163,3.237724376958795e-05,0.1005837768316268,0,0,0
11988,460320.3130992964,2011-01-08 18:30:54,1110.560177412937,2,48,0.5501165986061096,3.942740440368652,35.96868126928332,36.53527891779602,145.29297257870326,130.92656290022163,6.47544875391759e-05,0.1005837768316268,0,0,0
11989,460350.32819150656,2011-01-08 18:31:24,1140.5752696231375,2,48,0.5501165986061096,3.9451687335968018,35.973267968420366,36.53527891779602,145.31106182730258,130.92656290022163,9.713172767078504e-05,0.1005837768316268,0,0,0
11990,460380.343353606,2011-01-08 18:31:54,1170.5904317225238,2,48,0.550297200679779,3.9472732543945312,35.97785471321089,36.53527891779602,145.32916169377955,130.92656290022163,3.237724376958795e-05,0.1005837768316268,0,0,0
11991,460410.35871114745,2011-01-08 18:32:24,1200.605789264012,2,48,0.5501165986061096,3.949539661407471,35.98244136201461,36.53527891779602,145.34727148902843,130.92656290022163,9.713172767078504e-05,0.1005837768316268,0,0,0
11992,460440.3736171887,2011-01-08 18:32:54,1230.6206953052222,2,48,0.5501165986061096,3.95180606842041,35.9870280066654,36.53527891779602,145.36539153763545,130.92656290022163,6.47544875391759e-05,0.1005837768316268,0,0,0
11993,460470.38878759375,2011-01-08 18:33:24,1260.6358657153212,2,48,0.5501165986061096,3.9540724754333496,35.99161474088619,36.53527891779602,145.38352217218193,130.92656290022163,9.713172767078504e-05,0.1005837768316268,0,0,0
11994,460500.4038932324,2011-01-08 18:33:54,1290.6509713489777,2,48,0.5501165986061096,3.956176996231079,35.99620140444795,36.53527891779602,145.4016626856431,130.92656290022163,6.47544875391759e-05,0.1005837768316268,0,0,0
11995,460530.4190464947,2011-01-08 18:34:24,1320.666124611339,2,48,0.5501165986061096,3.9582815170288086,36.00078808364403,36.53527891779602,145.41981322415523,130.92656290022163,3.237724376958795e-05,0.1005837768316268,0,0,0
11996,460560.4341696471,2011-01-08 18:34:54,1350.681247773682,2,48,0.550297200679779,3.960547924041748,36.00537477941116,36.53527891779602,145.4379738752568,130.92656290022163,6.47544875391759e-05,0.1005837768316268,0,0,0
11997,460590.4493130699,2011-01-08 18:35:24,1380.6963911864957,2,48,0.5504778623580933,3.9626524448394775,36.00996145523028,36.53527891779602,145.4561444204244,130.92656290022163,9.713172767078504e-05,0.1005837768316268,0,0,0
11998,460620.4644570242,2011-01-08 18:35:54,1410.7115351556956,2,48,0.5501165986061096,3.964918851852417,36.014548093141144,36.53527891779602,145.47432473027925,130.92656290022163,6.47544875391759e-05,0.1005837768316268,0,0,0
11999,460650.4796050083,2011-01-08 18:36:24,1440.7266831248648,2,48,0.5501165986061096,3.966861486434937,36.01913448022086,36.53527891779602,145.4925138850105,130.92656290022163,0.0,0.1005837768316268,0,0,0
12000,460680.4947454337,2011-01-08 18:36:54,1470.7418235552452,2,48,0.5499359965324402,3.969127893447876,36.02372042679222,36.53527891779602,145.51071099829906,130.92656290022163,6.47544875391759e-05,0.1005837768316268,0,0,0
12001,460710.50990479626,2011-01-08 18:37:24,1500.7569829178103,2,48,0.5501165986061096,3.971070528030396,36.028306637800064,36.53527891779602,145.52891899128213,130.92656290022163,3.237724376958795e-05,0.1005837768316268,0,0,0
12002,460740.5250339184,2011-01-08 18:37:54,1530.772112034995,2,48,0.550297200679779,3.973336935043335,36.03289339294943,36.53527891779602,145.54713899222529,130.92656290022163,9.713172767078504e-05,0.1005837768316268,0,0,0
12003,460770.5401911557,2011-01-08 18:38:24,1560.7872692772758,2,48,0.5501165986061096,3.9752795696258554,36.037480108950845,36.53527891779602,145.56536853154617,130.92656290022163,0.0,0.1005837768316268,0,0,0
12004,460800.5554470188,2011-01-08 18:38:54,1590.8025251403496,2,48,0.5501165986061096,3.977545976638794,36.042066845429645,36.53527891779602,145.58360783382346,130.92656290022163,3.237724376958795e-05,0.1005837768316268,0,0,0
12005,460830.5705696448,2011-01-08 18:39:24,1620.8176477813938,2,48,0.5499359965324402,3.979650497436523,36.04665346201422,36.53527891779602,145.60185588295707,130.92656290022163,6.47544875391759e-05,0.1005837768316268,0,0,0
12006,460860.58570635086,2011-01-08 18:39:54,1650.8327844874918,2,48,0.5501165986061096,3.981755018234253,36.051239967493686,36.53527891779602,145.6201135362604,130.92656290022163,6.47544875391759e-05,0.1005837768316268,0,0,0
12007,460890.6007367822,2011-01-08 18:40:24,1680.847814903683,2,48,0.5501165986061096,3.9838595390319824,36.055826533714935,36.53527891779602,145.63838112894263,130.92656290022163,3.237724376958795e-05,0.1005837768316268,0,0,0
12008,460920.6161175765,2011-01-08 18:40:54,1710.8631957281996,2,48,0.5501165986061096,3.985964059829712,36.0604131049733,36.53527891779602,145.6566583536925,130.92656290022163,6.47544875391759e-05,0.1005837768316268,0,0,0
12009,460950.6310023197,2011-01-08 18:41:24,1740.8780804362411,2,48,0.5501165986061096,3.9880685806274414,36.06499969106599,36.53527891779602,145.67494533322193,130.92656290022163,6.47544875391759e-05,0.1005837768316268,0,0,0
12010,460980.6462893755,2011-01-08 18:41:54,1770.893367512107,2,48,0.5501165986061096,3.990173101425171,36.06958628087688,36.53527891779602,145.69324187369594,130.92656290022163,3.237724376958795e-05,0.1005837768316268,0,0,0
12011,461010.6612818321,2011-01-08 18:42:24,1800.908359953654,2,48,0.5501165986061096,3.9924395084381104,36.074172808590376,36.53527891779602,145.71154793318237,130.92656290022163,6.47544875391759e-05,0.1005837768316268,0,0,0
12012,461040.6765391688,2011-01-08 18:42:54,1830.923617285388,2,48,0.5499359965324402,3.994381904602051,36.07875943710291,36.53527891779602,145.7298641859463,130.92656290022163,6.47544875391759e-05,0.1005837768316268,0,0,0
12013,461070.6915511641,2011-01-08 18:43:24,1860.9386292856816,2,48,0.5501165986061096,3.9966483116149902,36.08334604010986,36.53527891779602,145.74819012573084,130.92656290022163,6.47544875391759e-05,0.1005837768316268,0,0,0
12014,461100.706717103,2011-01-08 18:43:54,1890.953795254712,2,48,0.5501165986061096,3.99875283241272,36.08793265256696,36.53527891779602,145.76652592799945,130.92656290022163,6.47544875391759e-05,0.1005837768316268,0,0,0
12015,461130.7218404008,2011-01-08 18:44:24,1920.9689185223167,2,48,0.5501165986061096,4.000857353210449,36.09251929103048,36.53527891779602,145.78487167067132,130.92656290022163,3.23295607813634e-05,0.1005837768316268,0,0,0
12016,461160.7371021985,2011-01-08 18:44:54,1950.98418033522,2,48,0.5501165986061096,4.003123760223389,36.09710585867046,36.53527891779602,145.80322714091827,130.92656290022163,3.23295607813634e-05,0.1005837768316268,0,0,0
12017,461190.75212560233,2011-01-08 18:45:24,1980.999203718884,2,48,0.550297200679779,4.005390167236328,36.10169308087542,36.53527891779602,145.8215953089977,130.92656290022163,9.70840483205393e-05,0.1005837768316268,0,0,0
12018,461220.7672447296,2011-01-08 18:45:54,2011.0143228461704,2,48,0.550297200679779,4.007656574249268,36.10628041632498,36.53527891779602,145.83997416701564,130.92656290022163,9.70840483205393e-05,0.1005837768316268,0,0,0
12019,461250.78240184666,2011-01-08 18:46:24,2041.029479963139,2,48,0.550297200679779,4.009761333465576,36.11086779389602,36.53527891779602,145.8583633875558,130.92656290022163,6.47544875391759e-05,0.1005837768316268,0,0,0
12020,461280.7975506027,2011-01-08 18:46:54,2071.044628724282,2,48,0.550297200679779,4.012027740478516,36.11545514520816,36.53527891779602,145.87676273548945,130.92656290022163,3.24249267578125e-05,0.1005837768316268,0,0,0
12021,461310.81269876735,2011-01-08 18:47:24,2101.0597769089886,2,48,0.550297200679779,4.014294147491455,36.120041969452046,36.53527891779602,145.89517027348597,130.92656290022163,9.71794142969884e-05,0.1005837768316268,0,0,0
12022,461340.8278863102,2011-01-08 18:47:54,2131.07496451695,2,48,0.5499359965324402,4.0165605545043945,36.12462857760431,36.53527891779602,145.91358734802594,130.92656290022163,9.71794142969884e-05,0.1005837768316268,0,0,0
12023,461370.8429877584,2011-01-08 18:48:24,2161.0900658799624,2,48,0.5501165986061096,4.018826961517334,36.12921523021768,36.53527891779602,145.93201516844832,130.92656290022163,6.47544875391759e-05,0.1005837768316268,0,0,0
12024,461400.8582271654,2011-01-08 18:48:54,2191.105305297048,2,48,0.5501165986061096,4.021093368530273,36.13380182328556,36.53527891779602,145.95045325590465,130.92656290022163,3.24249267578125e-05,0.1005837768316268,0,0,0
12025,461430.87335380143,2011-01-08 18:49:24,2221.120431938061,2,48,0.550297200679779,4.023683547973633,36.13838840874067,36.53527891779602,145.96890211428502,130.92656290022163,9.71794142969884e-05,0.1005837768316268,0,0,0
12026,461460.88837702974,2011-01-08 18:49:54,2251.135455146288,2,48,0.5501165986061096,4.025949954986572,36.14297494270617,36.53527891779602,145.98736161878494,130.92656290022163,6.47544875391759e-05,0.1005837768316268,0,0,0
12027,461490.9059488298,2011-01-08 18:50:24,2281.153026956414,2,48,0.5501165986061096,4.028378009796143,36.14756196839994,36.53527891779602,146.0058340744974,130.92656290022163,6.47544875391759e-05,0.1005837768316268,0,0,0
12028,461520.91867610585,2011-01-08 18:50:54,2311.165754247509,2,48,0.550297200679779,4.030644416809082,36.15214816667828,36.53527891779602,146.02431418842008,130.92656290022163,0.0,0.1005837768316268,0,0,0
12029,461550.9337858549,2011-01-08 18:51:24,2341.1808639914098,2,48,0.5501165986061096,4.033234596252441,36.15673470454326,36.53527891779602,146.04280681478198,130.92656290022163,6.47544875391759e-05,0.1005837768316268,0,0,0
12030,461580.9490019788,2011-01-08 18:51:54,2371.1960801004043,2,48,0.5501165986061096,4.035662651062012,36.161321306816106,36.53527891779602,146.06131096409842,130.92656290022163,3.23295607813634e-05,0.1005837768316268,0,0,0
12031,461610.96420668944,2011-01-08 18:52:24,2401.2112848210154,2,48,0.5499359965324402,4.03809118270874,36.16590788484452,36.53527891779602,146.07982638360318,130.92656290022163,6.47544875391759e-05,0.1005837768316268,0,0,0
12032,461640.9792037675,2011-01-08 18:52:54,2431.2262818840804,2,48,0.5501165986061096,4.04035758972168,36.17049441808338,36.53527891779602,146.0983530908998,130.92656290022163,0.0,0.1005837768316268,0,0,0
12033,461670.9943505788,2011-01-08 18:53:24,2461.241428690352,2,48,0.5499359965324402,4.04310941696167,36.175080914204855,36.53527891779602,146.11689124506276,130.92656290022163,9.70840483205393e-05,0.1005837768316268,0,0,0
12034,461701.0096181661,2011-01-08 18:53:54,2491.2566963077206,2,48,0.5501165986061096,4.045699596405029,36.17966748713543,36.53527891779602,146.13544146585147,130.92656290022163,3.23295607813634e-05,0.1005837768316268,0,0,0
12035,461731.02464894817,2011-01-08 18:54:25,2521.2717270948365,2,48,0.5501165986061096,4.048289775848389,36.18425397835415,36.53527891779602,146.1540033001207,130.92656290022163,3.23295607813634e-05,0.1005837768316268,0,0,0
12036,461761.03977733856,2011-01-08 18:54:55,2551.286855465159,2,48,0.5501165986061096,4.050718307495117,36.18884053088976,36.53527891779602,146.17257732910554,130.92656290022163,3.24249267578125e-05,0.1005837768316268,0,0,0
12037,461791.0549098793,2011-01-08 18:55:25,2581.301988000864,2,48,0.5501165986061096,4.053470134735107,36.19342705802724,36.53527891779602,146.19116333429608,130.92656290022163,3.23295607813634e-05,0.1005837768316268,0,0,0
12038,461821.0700721792,2011-01-08 18:55:55,2611.3171503007497,2,48,0.5501165986061096,4.056384086608887,36.198013590726575,36.53527891779602,146.2097616777824,130.92656290022163,6.47544875391759e-05,0.1005837768316268,0,0,0
12039,461851.0851594471,2011-01-08 18:56:25,2641.3322375636203,2,48,0.5501165986061096,4.059136390686035,36.20260010274194,36.53527891779602,146.22837240147854,130.92656290022163,9.71794142969884e-05,0.1005837768316268,0,0,0
12040,461881.10040541546,2011-01-08 18:56:55,2671.347483572134,2,48,0.5499359965324402,4.0615644454956055,36.20718668830607,36.53527891779602,146.24699580657588,130.92656290022163,6.47544875391759e-05,0.1005837768316268,0,0,0
12041,461911.1155063073,2011-01-08 18:57:25,2701.362584428884,2,48,0.5501165986061096,4.064640522003174,36.21177318647578,36.53527891779602,146.26563140205567,130.92656290022163,9.71794142969884e-05,0.1005837768316268,0,0,0
12042,461941.13069943903,2011-01-08 18:57:55,2731.3777775806625,2,48,0.550297200679779,4.067392349243164,36.21635967007753,36.53527891779602,146.28427975500315,130.92656290022163,6.47544875391759e-05,0.1005837768316268,0,0,0
12043,461971.1458079949,2011-01-08 18:58:25,2761.392886136602,2,48,0.5499359965324402,4.0701446533203125,36.22094616685088,36.53527891779602,146.3029410660664,130.92656290022163,6.47544875391759e-05,0.1005837768316268,0,0,0
12044,462001.1610617628,2011-01-08 18:58:55,2791.408139894429,2,48,0.5501165986061096,4.073220252990723,36.22553268879555,36.53527891779602,146.32161552992704,130.92656290022163,0.0001295089750783,0.1005837768316268,0,0,0
12045,462031.1761424944,2011-01-08 18:59:25,2821.423220706222,2,48,0.5501165986061096,4.075972557067871,36.23011922313676,36.53527891779602,146.34030326385735,130.92656290022163,9.71794142969884e-05,0.1005837768316268,0,0,0
12046,462061.1912170005,2011-01-08 18:59:55,2851.438295117061,2,48,0.5499359965324402,4.078724384307861,36.2347057288032,36.53527891779602,146.35900420099998,130.92656290022163,6.47544875391759e-05,0.1005837768316268,0,0,0
12047,462091.2063746287,2011-01-08 19:00:25,2881.4534527553287,2,48,0.5501165986061096,4.08180046081543,36.23929235428405,36.53527891779602,146.37771903307927,130.92656290022163,9.71794142969884e-05,0.1005837768316268,0,0,0
12048,462121.2214967184,2011-01-08 19:00:55,2911.4685748500106,2,48,0.5501165986061096,4.084714412689209,36.243878841422735,36.53527891779602,146.39644680418,130.92656290022163,9.71794142969884e-05,0.1005837768316268,0,0,0
12049,462151.2368050823,2011-01-08 19:01:25,2941.483883304158,2,48,0.5499359965324402,4.087628364562988,36.24846532923745,36.53527891779602,146.4151881650275,130.92656290022163,6.47544875391759e-05,0.1005837768316268,0,0,0
12050,462181.2517758298,2011-01-08 19:01:55,2971.4988539513865,2,48,0.550297200679779,4.090866088867188,36.25305183891447,36.53527891779602,146.43394339025875,130.92656290022163,9.71794142969884e-05,0.1005837768316268,0,0,0
12051,462211.2690621484,2011-01-08 19:02:25,3001.516140295043,2,48,0.5501165986061096,4.093780040740967,36.25763864893677,36.53527891779602,146.45271371986212,130.92656290022163,9.71794142969884e-05,0.1005837768316268,0,0,0
12052,462241.2820535026,2011-01-08 19:02:55,3031.529131624202,2,48,0.5501165986061096,4.096855640411377,36.262224866280185,36.53527891779602,146.4714956784831,130.92656290022163,9.70840483205393e-05,0.1005837768316268,0,0,0
12053,462271.2973418516,2011-01-08 19:03:25,3061.544419983266,2,48,0.5499359965324402,4.099931716918945,36.26681142607506,36.53527891779602,146.4902932761387,130.92656290022163,6.47544875391759e-05,0.1005837768316268,0,0,0
12054,462301.3124548938,2011-01-08 19:03:55,3091.5595330354117,2,48,0.5501165986061096,4.1031694412231445,36.27139793233301,36.53527891779602,146.50910493680414,130.92656290022163,9.71794142969884e-05,0.1005837768316268,0,0,0
12055,462331.3276973635,2011-01-08 19:04:25,3121.574775505105,2,48,0.5501165986061096,4.106245040893555,36.27598442346848,36.53527891779602,146.5279310326274,130.92656290022163,6.47544875391759e-05,0.1005837768316268,0,0,0
12056,462361.3426409883,2011-01-08 19:04:55,3151.589719129985,2,48,0.5499359965324402,4.109482765197754,36.28057096926992,36.53527891779602,146.54677203128009,130.92656290022163,9.70840483205393e-05,0.1005837768316268,0,0,0
12057,462391.3577472235,2011-01-08 19:05:25,3181.604825365141,2,48,0.5499359965324402,4.112720489501953,36.28515748471645,36.53527891779602,146.56562759234498,130.92656290022163,6.47544875391759e-05,0.1005837768316268,0,0,0
12058,462421.3728895136,2011-01-08 19:05:55,3211.619967655156,2,48,0.5499359965324402,4.115796089172363,36.28974403796323,36.53527891779602,146.58449815861997,130.92656290022163,3.23295607813634e-05,0.1005837768316268,0,0,0
12059,462451.3880461945,2011-01-08 19:06:25,3241.635124310975,2,48,0.5499359965324402,4.119195938110352,36.29433053538782,36.53527891779602,146.6033835145483,130.92656290022163,9.71794142969884e-05,0.1005837768316268,0,0,0
12060,462481.40317020885,2011-01-08 19:06:55,3271.650248320429,2,48,0.5501165986061096,4.122595310211182,36.29891707686079,36.53527891779602,146.62228416205352,130.92656290022163,9.70840483205393e-05,0.1005837768316268,0,0,0
12061,462511.4183421128,2011-01-08 19:07:25,3301.6654202693635,2,48,0.5501165986061096,4.125833034515381,36.30350351276313,36.53527891779602,146.64119950148103,130.92656290022163,9.70840483205393e-05,0.1005837768316268,0,0,0
12062,462541.4334593352,2011-01-08 19:07:55,3331.680537476865,2,48,0.5499359965324402,4.129232883453369,36.30809005518404,36.53527891779602,146.6601307443917,130.92656290022163,6.47544875391759e-05,0.1005837768316268,0,0,0
12063,462571.4486277102,2011-01-08 19:08:25,3361.6957058518924,2,48,0.550297200679779,4.132794380187988,36.31267667522838,36.53527891779602,146.67907781828842,130.92656290022163,0.0001295089750783,0.1005837768316268,0,0,0
12064,462601.4641448896,2011-01-08 19:08:55,3391.711223031247,2,48,0.5501165986061096,4.136032104492188,36.31726331231612,36.53527891779602,146.69804050665172,130.92656290022163,6.47544875391759e-05,0.1005837768316268,0,0,0
12065,462631.4788770324,2011-01-08 19:09:25,3421.7259551489865,2,48,0.5499359965324402,4.139431476593018,36.32184981792442,36.53527891779602,146.71701840793352,130.92656290022163,6.47544875391759e-05,0.1005837768316268,0,0,0
12066,462661.4940125606,2011-01-08 19:09:55,3451.7410906771493,2,48,0.550297200679779,4.142992973327637,36.32643642226699,36.53527891779602,146.73601259484747,130.92656290022163,9.70840483205393e-05,0.1005837768316268,0,0,0
12067,462691.50916499086,2011-01-08 19:10:25,3481.756243107437,2,48,0.5501165986061096,4.146554470062256,36.33102295934714,36.53527891779602,146.75502261947827,130.92656290022163,9.70840483205393e-05,0.1005837768316268,0,0,0
12068,462721.5244907933,2011-01-08 19:10:55,3511.771568924859,2,48,0.5501165986061096,4.150115966796875,36.33560950364722,36.53527891779602,146.774048907168,130.92656290022163,9.70840483205393e-05,0.1005837768316268,0,0,0
12069,462751.5394539568,2011-01-08 19:11:25,3541.786532073398,2,48,0.550297200679779,4.153515815734863,36.34019600709116,36.53527891779602,146.79309125056642,130.92656290022163,9.71794142969884e-05,0.1005837768316268,0,0,0
12070,462781.5546061064,2011-01-08 19:11:55,3571.801684248049,2,48,0.550297200679779,4.157238960266113,36.34478252803287,36.53527891779602,146.81214995977302,130.92656290022163,9.70840483205393e-05,0.1005837768316268,0,0,0
12071,462811.5697212588,2011-01-08 19:12:25,3601.816799405441,2,48,0.5501165986061096,4.1609625816345215,36.34936895337797,36.53527891779602,146.83122476570475,130.92656290022163,0.0001295089750783,0.1005837768316268,0,0,0
12072,462841.5852445836,2011-01-08 19:12:55,3631.8323227150745,2,48,0.5501165986061096,4.164361953735352,36.35395557653331,36.53527891779602,146.85031701746365,130.92656290022163,6.47544875391759e-05,0.1005837768316268,0,0,0
12073,462871.5999850069,2011-01-08 19:13:25,3661.8470631284895,2,48,0.5501165986061096,4.167923450469971,36.35854206616278,36.53527891779602,146.86942531177652,130.92656290022163,9.70840483205393e-05,0.1005837768316268,0,0,0
12074,462901.6151856173,2011-01-08 19:13:55,3691.8622638240695,2,48,0.5499359965324402,4.171647071838379,36.36312862308067,36.53527891779602,146.88855073443494,130.92656290022163,0.0001295089750783,0.1005837768316268,0,0,0
12075,462931.6302914966,2011-01-08 19:14:25,3721.8773696331614,2,48,0.5501165986061096,4.175370216369629,36.36771514436375,36.53527891779602,146.90769292624407,130.92656290022163,9.70840483205393e-05,0.1005837768316268,0,0,0
12076,462961.6455736351,2011-01-08 19:14:55,3751.892651771723,2,48,0.550297200679779,4.179255485534668,36.372301697332894,36.53527891779602,146.9268523524638,130.92656290022163,9.70840483205393e-05,0.1005837768316268,0,0,0
12077,462991.6605658311,2011-01-08 19:15:25,3781.907643977683,2,48,0.5499359965324402,4.182816982269287,36.376888220509365,36.53527891779602,146.94602895639974,130.92656290022163,9.70840483205393e-05,0.1005837768316268,0,0,0
12078,463021.6756830636,2011-01-08 19:15:55,3811.922761180172,2,48,0.5499359965324402,4.186702251434326,36.38147476006039,36.53527891779602,146.96522297070453,130.92656290022163,0.0001295089750783,0.1005837768316268,0,0,0
12079,463051.690832301,2011-01-08 19:16:25,3841.937910437552,2,48,0.5501165986061096,4.190587520599365,36.38606127193607,36.53527891779602,146.98443433918493,130.92656290022163,9.70840483205393e-05,0.1005837768316268,0,0,0
12080,463081.7059682902,2011-01-08 19:16:55,3871.953046431877,2,48,0.550297200679779,4.194472789764404,36.390647777111525,36.53527891779602,147.00366323350696,130.92656290022163,0.0001295089750783,0.1005837768316268,0,0,0
12081,463111.7210995077,2011-01-08 19:17:25,3901.968177629245,2,48,0.5501165986061096,4.198358058929443,36.39523431890976,36.53527891779602,147.02290991520286,130.92656290022163,0.0001295089750783,0.1005837768316268,0,0,0
12082,463124.4240224854,2011-01-08 19:17:38,3914.67110063196,2,48,0.5501165986061096,4.200138568878174,36.39717543251053,36.53527891779602,147.03106086521132,130.92656290022163,0.0001295089750783,0.1005837768316268,0,0,0
12083,463154.4250927806,2011-01-08 19:18:08,30.01531866960733,3,48,0.0,4.102521896362305,36.39717543251053,36.53527891779602,147.03106086521132,130.92656290022163,-0.0004532813909463,0.1005837768316268,0,0,0
12084,463184.44028757646,2011-01-08 19:18:38,60.03051345044573,3,48,0.0,4.090218544006348,36.39717543251053,36.53527891779602,147.03106086521132,130.92656290022163,-0.0002590179501567,0.1005837768316268,0,0,0
12085,463214.4554574603,2011-01-08 19:19:08,90.045683344258,3,48,0.0,4.0824480056762695,36.39717543251053,36.53527891779602,147.03106086521132,130.92656290022163,-0.0001618385285837,0.1005837768316268,0,0,0
12086,463244.42347040446,2011-01-08 19:19:38,120.01369628342948,3,48,0.0,4.077429294586182,36.39717543251053,36.53527891779602,147.03106086521132,130.92656290022163,-0.0001295089750783,0.1005837768316268,0,0,0
12087,463244.4267771368,2011-01-08 19:19:38,0.015625132638268,4,48,1.021145582199097,4.199814796447754,36.39717990615734,36.53527891779602,147.03107965369938,130.92656290022163,0.0,0.1005837768316268,0,0,0
12088,463245.2237914968,2011-01-08 19:19:39,0.81263951772109,4,48,0.9705750346183776,4.199653148651123,36.3973989954049,36.53527891779602,147.03199978000617,130.92656290022163,-3.23295607813634e-05,0.1005837768316268,0,0,0
12089,463247.1142336303,2011-01-08 19:19:41,2.703081621117246,4,48,0.9201850295066832,4.199976921081543,36.39789430555593,36.53527891779602,147.03407996364243,130.92656290022163,3.24249267578125e-05,0.1005837768316268,0,0,0
12090,463249.9601188018,2011-01-08 19:19:44,5.548966892871465,4,48,0.869795024394989,4.199814796447754,36.398600612181816,36.53527891779602,147.03704629102234,130.92656290022163,3.23295607813634e-05,0.1005837768316268,0,0,0
12091,463253.86426851415,2011-01-08 19:19:48,9.45311653004411,4,48,0.8195856809616089,4.199653148651123,36.39951533842826,36.53527891779602,147.04088793660833,130.92656290022163,-3.23295607813634e-05,0.1005837768316268,0,0,0
12092,463258.91092739085,2011-01-08 19:19:53,14.499775381720596,4,48,0.7695568799972534,4.199653148651123,36.40062798608776,36.53527891779602,147.04556083154702,130.92656290022163,-3.23295607813634e-05,0.1005837768316268,0,0,0
12093,463265.5671430183,2011-01-08 19:19:59,21.15599103419291,4,48,0.7195281386375427,4.199976921081543,36.40200291513178,36.53527891779602,147.0513352682092,130.92656290022163,3.24249267578125e-05,0.1005837768316268,0,0,0
12094,463274.2077015688,2011-01-08 19:20:08,29.796549579721766,4,48,0.6691381335258484,4.199653148651123,36.403666966316536,36.53527891779602,147.05832397253144,130.92656290022163,-3.23295607813634e-05,0.1005837768316268,0,0,0
12095,463286.207367714,2011-01-08 19:20:20,41.79621572997316,4,48,0.618748128414154,4.199653148651123,36.40580994639614,36.53527891779602,147.06732405503604,130.92656290022163,-3.23295607813634e-05,0.1005837768316268,0,0,0
12096,463304.066464388,2011-01-08 19:20:38,59.65531238394152,4,48,0.5687193870544434,4.199814796447754,36.40874725935662,36.53527891779602,147.07966020869026,130.92656290022163,0.0,0.1005837768316268,0,0,0
12097,463334.237823263,2011-01-08 19:21:08,89.82667128381505,4,48,0.5186905860900879,4.199653148651123,36.4132840994145,36.53527891779602,147.09871407630635,130.92656290022163,-3.23295607813634e-05,0.1005837768316268,0,0,0
12098,463392.0650186918,2011-01-08 19:22:06,147.65386668273237,4,48,0.4686618447303772,4.199976921081543,36.42117274373641,36.53527891779602,147.1318448612741,130.92656290022163,3.24249267578125e-05,0.1005837768316268,0,0,0
12099,463489.73531240126,2011-01-08 19:23:44,245.3241604171165,4,48,0.4186330735683441,4.199814796447754,36.43317086224605,36.53527891779602,147.1822346466605,130.92656290022163,0.0,0.1005837768316268,0,0,0
12100,463616.8270179216,2011-01-08 19:25:51,372.4158659173633,4,48,0.368604302406311,4.199653148651123,36.44704540354225,36.53527891779602,147.24050504082544,130.92656290022163,-3.23295607813634e-05,0.1005837768316268,0,0,0
12101,463769.7307944299,2011-01-08 19:28:24,525.3196424508004,4,48,0.3185755312442779,4.199653148651123,36.4616237256947,36.53527891779602,147.3017312326774,130.92656290022163,-3.23295607813634e-05,0.1005837768316268,0,0,0
12102,463955.2277797784,2011-01-08 19:31:29,710.8166277892594,4,48,0.2685467600822449,4.199814796447754,36.476727770512376,36.53527891779602,147.36516537557617,130.92656290022163,0.0,0.1005837768316268,0,0,0
12103,464184.0053597958,2011-01-08 19:35:18,939.5942078167895,4,48,0.2185179889202118,4.199814796447754,36.492158935762525,36.53527891779602,147.42997338064228,130.92656290022163,-3.24249267578125e-05,0.1005837768316268,0,0,0
12104,464480.79740948434,2011-01-08 19:40:15,1236.3862575002313,4,48,0.1684892177581787,4.199653148651123,36.5080320519853,36.53527891779602,147.49663743687435,130.92656290022163,-3.23295607813634e-05,0.1005837768316268,0,0,0
12105,464909.558409944,2011-01-08 19:47:23,1665.1472580350255,4,48,0.118460439145565,4.199653148651123,36.52495344581877,36.53527891779602,147.5677040541672,130.92656290022163,-3.23295607813634e-05,0.1005837768316268,0,0,0
12106,465668.98149527627,2011-01-08 20:00:03,2424.5703432670653,4,48,0.0684316754341125,4.199653148651123,36.54411431618958,36.53527891779602,147.64817568487433,130.92656290022163,0.0,0.1005837768316268,0,0,0
12107,466167.8639500307,2011-01-08 20:08:22,2923.452798036645,4,48,0.0498289167881011,4.199814796447754,36.55226612686303,36.53527891779602,147.68241170574782,130.92656290022163,0.0,0.1005837768316268,0,0,0
12108,466197.8825473543,2011-01-08 20:08:52,30.014943394305806,5,48,0.0,4.190749645233154,36.55226612686303,36.53527891779602,147.68241170574782,130.92656290022163,-6.47544875391759e-05,0.1005837768316268,0,0,0
12109,466227.88205425616,2011-01-08 20:09:22,60.01445029612265,5,48,0.0,4.1892924308776855,36.55226612686303,36.53527891779602,147.68241170574782,130.92656290022163,-3.24249267578125e-05,0.1005837768316268,0,0,0
12110,466228.07439208415,2011-01-08 20:09:22,0.187620147135939,6,48,-1.9243103452026844e-05,4.1892924308776855,36.55226612686303,36.53527891879891,147.68241170574782,130.926562904423,0.0,0.10283113270998,0,0,0
12111,466232.9023117705,2011-01-08 20:09:27,5.015539848545607,6,48,0.0007031940040178,4.1892924308776855,36.55226697780802,36.53527891896529,147.68241527070938,130.92656290512002,-3.24249267578125e-05,0.10283113270998,0,0,0
12112,466261.0942885834,2011-01-08 20:09:55,28.20280502791573,7,48,-1.099929690361023,3.989201784133911,36.55226697780802,36.543893783176216,147.68241527070938,130.96115080952202,-0.0012626647949218,0.10283113270998,0,0,0
12113,466291.1092733457,2011-01-08 20:10:25,58.217789755236126,7,48,-1.0997490882873535,3.95132040977478,36.55226697780802,36.55306211862101,147.68241527070938,130.99754257198651,-0.0008418083307333,0.10283113270998,0,0,0
12114,466321.1245379055,2011-01-08 20:10:55,88.23305431999754,7,48,-1.099568486213684,3.924447298049927,36.55226697780802,36.56223054650302,147.68241527070938,131.0336406002866,-0.0005827903514727,0.10283113270998,0,0,0
12115,466351.1396840602,2011-01-08 20:11:25,118.2482004846695,7,48,-1.0997490882873535,3.903240442276001,36.55226697780802,36.57139894554848,147.68241527070938,131.06952078108895,-0.0005180359003134,0.10283113270998,0,0,0
12116,466381.1549043946,2011-01-08 20:11:55,148.26342080917055,7,48,-1.099568486213684,3.885756731033325,36.55226697780802,36.58056740761318,147.68241527070938,131.10522455035698,-0.0003885269106831,0.10283113270998,0,0,0
12117,466411.1698547162,2011-01-08 20:12:25,178.27837113074122,7,48,-1.099568486213684,3.869729995727539,36.55226697780802,36.58973573347114,147.68241527070938,131.1407754172261,-0.0004532813909463,0.10283113270998,0,0,0
12118,466441.1850478379,2011-01-08 20:12:55,208.29356425244453,7,48,-1.0997490882873535,3.855645895004273,36.55226697780802,36.59890418466254,147.68241527070938,131.1761903240897,-0.0003237724304199,0.10283113270998,0,0,0
12119,466471.2001496019,2011-01-08 20:13:25,238.30866600643145,7,48,-1.099568486213684,3.842371225357056,36.55226697780802,36.60807259392734,147.68241527070938,131.2114785282223,-0.0003237724304199,0.10283113270998,0,0,0
12120,466501.2173954496,2011-01-08 20:13:55,268.32591205465934,7,48,-1.099568486213684,3.829744338989258,36.55226697780802,36.617241635444266,147.68241527070938,131.24665026229536,-0.0003237724304199,0.10283113270998,0,0,0
12121,466531.2304276657,2011-01-08 20:14:25,298.33894408024616,7,48,-1.0997490882873535,3.817440986633301,36.55226697780802,36.626409463367295,147.68241527070938,131.2817040218888,-0.0003561496851034,0.10283113270998,0,0,0
12122,466561.2455503068,2011-01-08 20:14:55,328.35406672129,7,48,-1.099568486213684,3.806108951568604,36.55226697780802,36.63557781693643,147.68241527070938,131.31665116268752,-0.0002913951757363,0.10283113270998,0,0,0
12123,466591.2606735644,2011-01-08 20:15:25,358.3691899738579,7,48,-1.0993878841400146,3.794938802719116,36.55226697780802,36.64474615343489,147.68241527070938,131.35149361188417,-0.0002266406954731,0.10283113270998,0,0,0
12124,466621.2758293781,2011-01-08 20:15:55,388.38434578757824,7,48,-1.0997490882873535,3.783930540084839,36.55226697780802,36.65391448340587,147.68241527070938,131.38623559680016,-0.0002913951757363,0.10283113270998,0,0,0
12125,466651.2910726998,2011-01-08 20:16:25,418.3995891294456,7,48,-1.099568486213684,3.773569822311402,36.55226697780802,36.66308297516447,147.68241527070938,131.42088059793147,-0.0002590179501567,0.10283113270998,0,0,0
12126,466681.30610419874,2011-01-08 20:16:55,448.4146206233227,7,48,-1.099568486213684,3.763370990753174,36.55226697780802,36.67225134300049,147.68241527070938,131.45543116591514,-0.0002590179501567,0.10283113270998,0,0,0
12127,466711.3212244689,2011-01-08 20:17:25,478.4297408784201,7,48,-1.0997490882873535,3.753657817840576,36.55226697780802,36.681419729984384,147.68241527070938,131.48989105961354,-0.0002590179501567,0.10283113270998,0,0,0
12128,466741.3363778516,2011-01-08 20:17:56,508.4448942610815,7,48,-1.099568486213684,3.7442686557769775,36.55226697780802,36.69058823736633,147.68241527070938,131.52426311828071,-0.0002590179501567,0.10283113270998,0,0,0
12129,466771.3514995753,2011-01-08 20:18:26,538.4600159848392,7,48,-1.0993878841400146,3.73520302772522,36.55226697780802,36.69975672200286,147.68241527070938,131.5585496486813,-0.0001942634553415,0.10283113270998,0,0,0
12130,466801.3667433282,2011-01-08 20:18:56,568.4752599332181,7,48,-1.0997490882873535,3.726137399673462,36.55226697780802,36.70892518580632,147.68241527070938,131.5927533721702,-0.0002590179501567,0.10283113270998,0,0,0
12131,466831.3817885764,2011-01-08 20:19:26,598.490304985888,7,48,-1.0993878841400146,3.717557430267334,36.55226697780802,36.71809356911628,147.68241527070938,131.62687611369694,-0.0002266406954731,0.10283113270998,0,0,0
12132,466861.3969283802,2011-01-08 20:19:56,628.5054447897066,7,48,-1.0993878841400146,3.709139347076416,36.55226697780802,36.72726203828867,147.68241527070938,131.6609206751207,-0.0002266406954731,0.10283113270998,0,0,0
12133,466891.4120853067,2011-01-08 20:20:26,658.5206017412628,7,48,-1.0997490882873535,3.700883150100708,36.55226697780802,36.73643052692464,147.68241527070938,131.6948889586453,-0.0001618862152099,0.10283113270998,0,0,0
12134,466921.42723107536,2011-01-08 20:20:56,688.5357474898979,7,48,-1.0997490882873535,3.692626953125,36.55226697780802,36.745598992504775,147.68241527070938,131.72878226922168,-0.0002266406954731,0.10283113270998,0,0,0
12135,466951.4423358619,2011-01-08 20:21:26,718.5508522964927,7,48,-1.099568486213684,3.685018301010132,36.55226697780802,36.7547674622946,147.68241527070938,131.7626026670021,-0.0001942634553415,0.10283113270998,0,0,0
12136,466981.4574845078,2011-01-08 20:21:56,748.5660009122738,7,48,-1.099568486213684,3.677085876464844,36.55226697780802,36.76393595158266,147.68241527070938,131.79635192024762,-0.0002266406954731,0.10283113270998,0,0,0
12137,467011.4728531119,2011-01-08 20:22:26,778.581369526358,7,48,-1.099568486213684,3.6696393489837646,36.55226697780802,36.77310453467997,147.68241527070938,131.8300316266557,-0.0002266406954731,0.10283113270998,0,0,0
12138,467041.4877614487,2011-01-08 20:22:56,808.5962778582774,7,48,-1.0997490882873535,3.662030696868897,36.55226697780802,36.78227297530702,147.68241527070938,131.86364199914595,-0.0002266406954731,0.10283113270998,0,0,0
12139,467071.5028912376,2011-01-08 20:23:26,838.6114076521483,7,48,-1.099568486213684,3.654907703399658,36.55226697780802,36.791441392671246,147.68241527070938,131.8971847219209,-0.0001618862152099,0.10283113270998,0,0,0
12140,467101.5182095664,2011-01-08 20:23:56,868.6267260961936,7,48,-1.0997490882873535,3.64762282371521,36.55226697780802,36.8006099641818,147.68241527070938,131.93066180485795,-0.0002266406954731,0.10283113270998,0,0,0
12141,467131.533167888,2011-01-08 20:24:26,898.6416842923902,7,48,-1.099568486213684,3.640823602676392,36.55226697780802,36.80977832686183,147.68241527070938,131.9640728813592,-0.0001618862152099,0.10283113270998,0,0,0
12142,467161.5483428644,2011-01-08 20:24:56,928.65685926887,7,48,-1.099568486213684,3.6338624954223633,36.55226697780802,36.81894680404859,147.68241527070938,131.99742074015353,-0.0001618862152099,0.10283113270998,0,0,0
12143,467191.5634599816,2011-01-08 20:25:26,958.6719763861472,7,48,-1.099568486213684,3.627063274383545,36.55226697780802,36.8281151703007,147.68241527070938,132.0307056893182,-0.0001618862152099,0.10283113270998,0,0,0
12144,467221.58086627926,2011-01-08 20:25:56,988.6893826937908,7,48,-1.0997490882873535,3.620425939559937,36.55226697780802,36.837284260342415,147.68241527070938,132.0639318488814,-0.0001942634553415,0.10283113270998,0,0,0
12145,467251.59373648657,2011-01-08 20:26:26,1018.702252896064,7,48,-1.099568486213684,3.614112377166748,36.55226697780802,36.8464520628042,147.68241527070938,132.09709314826878,-0.0001295089750783,0.10283113270998,0,0,0
12146,467281.6090162191,2011-01-08 20:26:56,1048.717532648678,7,48,-1.099568486213684,3.6076369285583496,36.55226697780802,36.85562057966104,147.68241527070938,132.1301982444146,-0.0001295089750783,0.10283113270998,0,0,0
12147,467311.6241988296,2011-01-08 20:27:26,1078.7327152641967,7,48,-1.0997490882873535,3.601323366165161,36.55226697780802,36.86478904509298,147.68241527070938,132.16324551195615,-0.0001618862152099,0.10283113270998,0,0,0
12148,467341.6391618929,2011-01-08 20:27:56,1108.7476783024615,7,48,-1.099568486213684,3.5953335762023926,36.55226697780802,36.873957427542656,147.68241527070938,132.19623601956314,-0.0001618862152099,0.10283113270998,0,0,0
12149,467371.65441144526,2011-01-08 20:28:26,1138.7629278748573,7,48,-1.0997490882873535,3.589344024658203,36.55226697780802,36.883125954018645,147.68241527070938,132.2291723753418,-0.0001618862152099,0.10283113270998,0,0,0
12150,467401.66943111975,2011-01-08 20:28:56,1168.7779475292268,7,48,-1.099929690361023,3.5836780071258545,36.55226697780802,36.89229440969936,147.68241527070938,132.26205492854885,-0.0001295089750783,0.10283113270998,0,0,0
12151,467431.6845753997,2011-01-08 20:29:26,1198.793091814214,7,48,-1.0997490882873535,3.578011989593506,36.55226697780802,36.90146287607471,147.68241527070938,132.29488523581972,-0.0001295089750783,0.10283113270998,0,0,0
12152,467461.6997192636,2011-01-08 20:29:56,1228.8082356731393,7,48,-1.099568486213684,3.572507858276367,36.55226697780802,36.91063136627908,147.68241527070938,132.32766489610992,-0.0001618862152099,0.10283113270998,0,0,0
12153,467491.7148451127,2011-01-08 20:30:26,1258.8233615271909,7,48,-1.0997490882873535,3.5671656131744385,36.55226697780802,36.9197998139617,147.68241527070938,132.36039477526367,-0.0001295089750783,0.10283113270998,0,0,0
12154,467521.7300459136,2011-01-08 20:30:56,1288.8385623480829,7,48,-1.099568486213684,3.5621471405029297,36.55226697780802,36.928968310426974,147.68241527070938,132.39307633261228,-9.713172767078504e-05,0.10283113270998,0,0,0
12155,467551.7451392415,2011-01-08 20:31:26,1318.8536556710571,7,48,-1.0997490882873535,3.556804895401001,36.55226697780802,36.93813669443662,147.68241527070938,132.42571124387328,-0.0001618862152099,0.10283113270998,0,0,0
12156,467581.76027230354,2011-01-08 20:31:56,1348.8687887180356,7,48,-1.0997490882873535,3.551948308944702,36.55226697780802,36.94730514785638,147.68241527070938,132.45829989543788,-0.0001295089750783,0.10283113270998,0,0,0
12157,467611.7753950098,2011-01-08 20:32:26,1378.8839114192294,7,48,-1.099568486213684,3.5472536087036133,36.55226697780802,36.95647361692317,147.68241527070938,132.4908437169638,-9.713172767078504e-05,0.10283113270998,0,0,0
12158,467641.79053515947,2011-01-08 20:32:56,1408.8990515638975,7,48,-1.0997490882873535,3.5422351360321045,36.55226697780802,36.9656420830564,147.68241527070938,132.52334303461717,-0.0001618862152099,0.10283113270998,0,0,0
12159,467671.8058346162,2011-01-08 20:33:26,1438.9143510657327,7,48,-1.0993878841400146,3.537540435791016,36.55226697780802,36.97481062518816,147.68241527070938,132.5557995362526,-0.0001618862152099,0.10283113270998,0,0,0
12160,467701.82083636586,2011-01-08 20:33:56,1468.9293527703662,7,48,-1.0997490882873535,3.5330076217651367,36.55226697780802,36.98397908712513,147.68241527070938,132.5882137202534,-0.0001618862152099,0.10283113270998,0,0,0
12161,467731.8362268294,2011-01-08 20:34:26,1498.9447432790184,7,48,-1.099929690361023,3.528474807739258,36.55226697780802,36.99314764955231,147.68241527070938,132.62058636553496,-0.0001295089750783,0.10283113270998,0,0,0
12162,467761.8512207496,2011-01-08 20:34:56,1528.9597371842133,7,48,-1.0997490882873535,3.524103879928589,36.55226697780802,37.0023160789626,147.68241527070938,132.65291769637415,-0.0001618862152099,0.10283113270998,0,0,0
12163,467791.86637310975,2011-01-08 20:35:26,1558.9748895493385,7,48,-1.099568486213684,3.51973295211792,36.55226697780802,37.01148458789254,147.68241527070938,132.68520931771727,-0.0001295089750783,0.10283113270998,0,0,0
12164,467821.8813832353,2011-01-08 20:35:56,1588.9898996448842,7,48,-1.099568486213684,3.515685796737671,36.55226697780802,37.02065299294605,147.68241527070938,132.7174606766604,-9.713172767078504e-05,0.10283113270998,0,0,0
12165,467851.8969119284,2011-01-08 20:36:26,1619.005428373022,7,48,-1.099568486213684,3.511315107345581,36.55226697780802,37.029821625527504,147.68241527070938,132.74967310248203,-6.47544875391759e-05,0.10283113270998,0,0,0
12166,467881.9116572492,2011-01-08 20:36:56,1649.0201736585798,7,48,-1.0997490882873535,3.506782293319702,36.55226697780802,37.03898996159912,147.68241527070938,132.7818452454262,-0.0001295089750783,0.10283113270998,0,0,0
12167,467911.9268058047,2011-01-08 20:37:26,1679.0353222192232,7,48,-1.099568486213684,3.502411365509033,36.55226697780802,37.04815848006901,147.68241527070938,132.81397806140788,-0.0001295089750783,0.10283113270998,0,0,0
12168,467941.9420809608,2011-01-08 20:37:56,1709.0505973753818,7,48,-1.0997490882873535,3.4980404376983643,36.55226697780802,37.05732705637059,147.68241527070938,132.8460709625527,-0.0001295089750783,0.10283113270998,0,0,0
12169,467971.9571959278,2011-01-08 20:38:26,1739.065712342299,7,48,-1.099568486213684,3.4936695098876958,36.55226697780802,37.06649551803597,147.68241527070938,132.8781228489825,-0.0001295089750783,0.10283113270998,0,0,0
12170,468001.9722155522,2011-01-08 20:38:56,1769.0807319615813,7,48,-1.099568486213684,3.4891366958618164,36.55226697780802,37.07566406008812,147.68241527070938,132.91013422225186,-0.0001618862152099,0.10283113270998,0,0,0
12171,468031.9875185827,2011-01-08 20:39:26,1799.0960350072487,7,48,-1.099568486213684,3.484603881835937,36.55226697780802,37.08483263502693,147.68241527070938,132.94210394481382,-0.0001618862152099,0.10283113270998,0,0,0
12172,468062.00279109227,2011-01-08 20:39:56,1829.1113076120484,7,48,-1.099568486213684,3.4797472953796387,36.55226697780802,37.09400121838642,147.68241527070938,132.97403030137437,-0.0001295089750783,0.10283113270998,0,0,0
12173,468092.0176268032,2011-01-08 20:40:26,1859.1261432076867,7,48,-1.0997490882873535,3.47472882270813,36.55226697780802,37.10316959631356,147.68241527070938,133.00591087316133,-9.713172767078504e-05,0.10283113270998,0,0,0
12174,468122.032766602,2011-01-08 20:40:56,1889.141283006493,7,48,-1.099568486213684,3.469386577606201,36.55226697780802,37.11233807431259,147.68241527070938,133.0377443580825,-0.0001295089750783,0.10283113270998,0,0,0
12175,468152.0479161802,2011-01-08 20:41:26,1919.1564326047223,7,48,-1.0997490882873535,3.4637205600738525,36.55226697780802,37.12150657807866,147.68241527070938,133.06952831715392,-0.0001618862152099,0.10283113270998,0,0,0
12176,468182.0630667658,2011-01-08 20:41:56,1949.171583175376,7,48,-1.0997490882873535,3.458054542541504,36.55226697780802,37.130675021727896,147.68241527070938,133.1012599884482,-0.0001618862152099,0.10283113270998,0,0,0
12177,468212.07815567794,2011-01-08 20:42:26,1979.1866720923688,7,48,-1.099568486213684,3.4517409801483154,36.55226697780802,37.13984352106053,147.68241527070938,133.1329365501548,-0.0001618862152099,0.10283113270998,0,0,0
12178,468242.09342735534,2011-01-08 20:42:56,2009.2019437848944,7,48,-1.0997490882873535,3.444941759109497,36.55226697780802,37.14901205606331,147.68241527070938,133.16455390458117,-0.0002266406954731,0.10283113270998,0,0,0
12179,468272.1084340323,2011-01-08 20:43:26,2039.2169504468827,7,48,-1.0997490882873535,3.437494993209839,36.55226697780802,37.1581805402669,147.68241527070938,133.1961060734544,-0.0002590179501567,0.10283113270998,0,0,0
12180,468302.1238686509,2011-01-08 20:43:56,2069.232385085521,7,48,-1.0997490882873535,3.42940092086792,36.55226697780802,37.167349198969895,147.68241527070938,133.2275876168049,-0.0002266406954731,0.10283113270998,0,0,0
12181,468332.13885032566,2011-01-08 20:44:26,2099.247366760233,7,48,-1.099929690361023,3.420011520385742,36.55226697780802,37.17651768101094,147.68241527070938,133.25898866074306,-0.0002913951757363,0.10283113270998,0,0,0
12182,468362.1538744813,2011-01-08 20:44:56,2129.2623908907585,7,48,-1.099568486213684,3.4094889163970947,36.55226697780802,37.185686207662926,147.68241527070938,133.29029836169684,-0.0002590179501567,0.10283113270998,0,0,0
12183,468392.1690246359,2011-01-08 20:45:26,2159.2775410553995,7,48,-1.099568486213684,3.396699905395508,36.55226697780802,37.1948547331802,147.68241527070938,133.32150077741315,-0.0003561496851034,0.10283113270998,0,0,0
12184,468422.186395851,2011-01-08 20:45:56,2189.294912350782,7,48,-1.0997490882873535,3.3814826011657715,36.55226697780802,37.204023935357554,147.68241527070938,133.35257839086373,-0.0004532813909463,0.10283113270998,0,0,0
12185,468452.1992832211,2011-01-08 20:46:26,2219.307799630618,7,48,-1.0997490882873535,3.363189458847046,36.55226697780802,37.213191733816245,147.68241527070938,133.38349805071917,-0.0005180359003134,0.10283113270998,0,0,0
12186,468482.2144153859,2011-01-08 20:46:56,2249.3229317953974,7,48,-1.0993878841400146,3.3406875133514404,36.55226697780802,37.22236021926321,147.68241527070938,133.414233795285,-0.0006475448608398,0.10283113270998,0,0,0
12187,468512.2297043013,2011-01-08 20:47:26,2279.3382207308982,7,48,-1.0997490882873535,3.3121955394744877,36.55226697780802,37.23152876097466,147.68241527070938,133.44473721633798,-0.0008741855854168,0.10283113270998,0,0,0
12188,468542.24470206606,2011-01-08 20:47:56,2309.353218495713,7,48,-1.099568486213684,3.275771141052246,36.55226697780802,37.24069712807228,147.68241527070938,133.4749452104924,-0.0010684489971026,0.10283113270998,0,0,0
12189,468572.2598765314,2011-01-08 20:48:26,2339.3683929458807,7,48,-1.0997490882873535,3.227691173553467,36.55226697780802,37.249865594041005,147.68241527070938,133.50476942491724,-0.0014245987404137,0.10283113270998,0,0,0
12190,468602.27496876667,2011-01-08 20:48:56,2369.3834852011946,7,48,-1.099568486213684,3.1630988121032715,36.55226697780802,37.2590340984318,147.68241527070938,133.53408312619842,-0.0019750117789953,0.10283113270998,0,0,0
12191,468632.2901043148,2011-01-08 20:49:26,2399.398620729356,7,48,-1.0997490882873535,3.0716333389282227,36.55226697780802,37.26820260359108,147.68241527070938,133.56269036769268,-0.0028491974808275,0.10283113270998,0,0,0
12192,468662.3052647651,2011-01-08 20:49:57,2429.4137812197323,7,48,-1.0997490882873535,2.9332211017608643,36.55226697780802,37.277371137345,147.68241527070938,133.59026689189315,-0.0044680116698145,0.10283113270998,0,0,0
12193,468691.3203984761,2011-01-08 20:50:26,2458.4289148805487,7,48,-1.0997490882873535,2.732968330383301,36.55226697780802,37.28623423877279,147.68241527070938,133.6154220227137,-0.006119298748672,0.10283113270998,0,0,0
12194,468695.617442908,2011-01-08 20:50:30,2462.725959342515,7,48,-1.0997490882873535,2.699781894683838,36.55226697780802,37.287546833275606,147.68241527070938,133.6189876065643,-0.0062163830734789,0.10283113270998,0,0,0
12195,468755.6296309495,2011-01-08 20:51:30,60.01461007433912,8,48,0.0,3.5412638187408447,36.55226697780802,37.287546833275606,147.68241527070938,133.6189876065643,0.0013598442310467,0.10283113270998,0,0,0
12196,468755.83147048025,2011-01-08 20:51:30,0.187417522132083,9,48,-1.9243103452026844e-05,3.5414257049560547,36.55226697780802,37.28754683427741,147.68241527070938,133.61898761011213,0.0,0.10130325704813,0,0,0
12197,468760.6597758328,2011-01-08 20:51:35,5.015722874703106,9,48,0.0007031940040178,3.549196243286133,36.55226779092424,37.28754683444439,147.68241815407492,133.61898761070347,0.0011332035064697,0.10130325704813,0,0,0
