Data_Point,Test_Time(s),Date_Time,Step_Time(s),Step_Index,Cycle_Index,Current(A),Voltage(V),Charge_Capacity(Ah),Discharge_Capacity(Ah),Charge_Energy(Wh),Discharge_Energy(Wh),dV/dt(V/s),Internal_Resistance(Ohm),Is_FC_Data,AC_Impedance(Ohm),ACI_Phase_Angle(Deg)
9702,371757.1574628703,2011-01-07 17:54:39,30.0012006230914,1,39,0.0,3.582221031188965,29.014602720710965,29.75393902061991,117.18131449359768,106.6640723978974,0.0007770538213662,0.1004928275942802,0,0,0
9703,371787.1703212682,2011-01-07 17:55:09,60.014059025957,1,39,0.0,3.60342788696289,29.014602720710965,29.75393902061991,117.18131449359768,106.6640723978974,0.0004856586456298,0.1004928275942802,0,0,0
9704,371817.18566312565,2011-01-07 17:55:39,90.02940105378019,1,39,0.0,3.618968963623047,29.014602720710965,29.75393902061991,117.18131449359768,106.6640723978974,0.0003885269106831,0.1004928275942802,0,0,0
9705,371847.1693589062,2011-01-07 17:56:09,120.01309665396836,1,39,0.0,3.630462884902954,29.014602720710965,29.75393902061991,117.18131449359768,106.6640723978974,0.0002590179501567,0.1004928275942802,0,0,0
9706,371877.1896454303,2011-01-07 17:56:40,30.01507598476202,2,39,0.5501165986061096,3.757057428359986,29.01918855260682,29.75393902061991,117.19844523937208,106.6640723978974,0.0009065151098184,0.1004928275942802,0,0,0
9707,371907.2049194686,2011-01-07 17:57:10,60.03035003817206,2,39,0.5497553944587708,3.782149791717529,29.023774340508115,29.75393902061991,117.2157370607937,106.6640723978974,0.0004532813909463,0.1004928275942802,0,0,0
9708,371937.21993017074,2011-01-07 17:57:40,90.04536072017953,2,39,0.5501165986061096,3.797528982162476,29.02836064525848,29.75393902061991,117.23312132616005,106.6640723978974,0.0002913951757363,0.1004928275942802,0,0,0
9709,371967.235116305,2011-01-07 17:58:10,120.06054685948055,2,39,0.5499359965324402,3.807889699935913,29.032947240651897,29.75393902061991,117.25056412378495,106.6640723978974,0.0002266406954731,0.1004928275942802,0,0,0
9710,371997.25032681,2011-01-07 17:58:40,150.07575738455844,2,39,0.5501165986061096,3.816469669342041,29.03753393102049,29.75393902061991,117.26804995924348,106.6640723978974,0.0001942634553415,0.1004928275942802,0,0,0
9711,372027.2653209508,2011-01-07 17:59:10,180.09075151531508,2,39,0.5499359965324402,3.823754549026489,29.042120495262896,29.75393902061991,117.28557159937272,106.6640723978974,0.0001618862152099,0.1004928275942802,0,0,0
9712,372057.2804901078,2011-01-07 17:59:40,210.10592066727844,2,39,0.5501165986061096,3.8307156562805176,29.04670709051018,29.75393902061991,117.30312602721725,106.6640723978974,0.0001618862152099,0.1004928275942802,0,0,0
9713,372087.29570661776,2011-01-07 18:00:10,240.12113719231007,2,39,0.5501165986061096,3.837028980255127,29.05129369878548,29.75393902061991,117.32071067685186,106.6640723978974,0.0001295089750783,0.1004928275942802,0,0,0
9714,372117.3107136657,2011-01-07 18:00:40,270.13614423524785,2,39,0.5501165986061096,3.8431806564331055,29.0558803417882,29.75393902061991,117.33832397526776,106.6640723978974,0.0001618862152099,0.1004928275942802,0,0,0
9715,372147.3258712037,2011-01-07 18:01:10,300.1513017782782,2,39,0.5501165986061096,3.848846673965454,29.06046694018233,29.75393902061991,117.35596399519854,106.6640723978974,0.0001295089750783,0.1004928275942802,0,0,0
9716,372177.3410149975,2011-01-07 18:01:40,330.16644565725346,2,39,0.550297200679779,3.8543508052825928,29.065053559068065,29.75393902061991,117.37362971343488,106.6640723978974,0.0001618862152099,0.1004928275942802,0,0,0
9717,372207.3562682691,2011-01-07 18:02:10,360.1816988236065,2,39,0.5501165986061096,3.859531164169312,29.069640213120927,29.75393902061991,117.39131999765382,106.6640723978974,0.0001942634553415,0.1004928275942802,0,0,0
9718,372237.3713108055,2011-01-07 18:02:40,390.19674137002994,2,39,0.550297200679779,3.86454963684082,29.074226800266818,29.75393902061991,117.4090334293506,106.6640723978974,0.0001618862152099,0.1004928275942802,0,0,0
9719,372267.3865827788,2011-01-07 18:03:10,420.2120133532805,2,39,0.5501165986061096,3.869244337081909,29.07881339159477,29.75393902061991,117.42676935726423,106.6640723978974,0.0001295089750783,0.1004928275942802,0,0,0
9720,372297.4037464216,2011-01-07 18:03:40,450.22917806880224,2,39,0.5501165986061096,3.874100923538208,29.08340043074424,29.75393902061991,117.4445289050708,106.6640723978974,0.0001295089750783,0.1004928275942802,0,0,0
9721,372327.416681691,2011-01-07 18:04:10,480.2421122505321,2,39,0.5499359965324402,3.878471851348877,29.08798673554273,29.75393902061991,117.46230680336016,106.6640723978974,9.713172767078504e-05,0.1004928275942802,0,0,0
9722,372357.4318285675,2011-01-07 18:04:40,510.257259116953,2,39,0.5501165986061096,3.883004665374756,29.092573380403287,29.75393902061991,117.48010678632411,106.6640723978974,9.713172767078504e-05,0.1004928275942802,0,0,0
9723,372387.44694795547,2011-01-07 18:05:10,540.2723785099016,2,39,0.550297200679779,3.8875374794006343,29.097160034073823,29.75393902061991,117.49792692251114,106.6640723978974,0.0001295089750783,0.1004928275942802,0,0,0
9724,372417.4622882239,2011-01-07 18:05:40,570.2877188034023,2,39,0.5499359965324402,3.891584634780884,29.10174673116043,29.75393902061991,117.51576688598432,106.6640723978974,0.0001295089750783,0.1004928275942802,0,0,0
9725,372447.4772169616,2011-01-07 18:06:10,600.3026475161171,2,39,0.5501165986061096,3.895469903945923,29.10633339898251,29.75393902061991,117.53362573815065,106.6640723978974,0.0001295089750783,0.1004928275942802,0,0,0
9726,372477.4923680687,2011-01-07 18:06:40,630.3177986581943,2,39,0.5499359965324402,3.899517059326172,29.110920083875808,29.75393902061991,117.5515028163655,106.6640723978974,9.713172767078504e-05,0.1004928275942802,0,0,0
9727,372507.50748503045,2011-01-07 18:07:10,660.3329155849965,2,39,0.5499359965324402,3.903078556060791,29.115506723184524,29.75393902061991,117.56939723478936,106.6640723978974,6.47544875391759e-05,0.1004928275942802,0,0,0
9728,372537.5226296914,2011-01-07 18:07:40,690.3480602459206,2,39,0.5501165986061096,3.90680193901062,29.120093322277285,29.75393902061991,117.58730824361513,106.6640723978974,6.47544875391759e-05,0.1004928275942802,0,0,0
9729,372567.5377538011,2011-01-07 18:08:10,720.3631843556249,2,39,0.5501165986061096,3.9103634357452393,29.124679965171893,29.75393902061991,117.6052354508335,106.6640723978974,9.713172767078504e-05,0.1004928275942802,0,0,0
9730,372597.5529089531,2011-01-07 18:08:40,750.3783395177211,2,39,0.5501165986061096,3.9136011600494394,29.12926663659087,29.75393902061991,117.6231779974134,106.6640723978974,0.0001295089750783,0.1004928275942802,0,0,0
9731,372627.56807234586,2011-01-07 18:09:10,780.3935029103302,2,39,0.5501165986061096,3.916514873504639,29.13385334407777,29.75393902061991,117.64113532521084,106.6640723978974,6.47544875391759e-05,0.1004928275942802,0,0,0
9732,372657.58318109234,2011-01-07 18:09:40,810.4086116567445,2,39,0.550297200679779,3.919590711593628,29.138439995385564,29.75393902061991,117.65910635853764,106.6640723978974,9.713172767078504e-05,0.1004928275942802,0,0,0
9733,372687.59832044994,2011-01-07 18:10:10,840.4237510244764,2,39,0.5501165986061096,3.922342777252197,29.14302667737377,29.75393902061991,117.67709079549788,106.6640723978974,6.47544875391759e-05,0.1004928275942802,0,0,0
9734,372717.61355361645,2011-01-07 18:10:40,870.4389841859712,2,39,0.5499359965324402,3.925094842910767,29.147613343523524,29.75393902061991,117.69508783894912,106.6640723978974,3.237724376958795e-05,0.1004928275942802,0,0,0
9735,372747.6285664087,2011-01-07 18:11:10,900.4539969682131,2,39,0.5501165986061096,3.927846908569336,29.15219998463284,29.75393902061991,117.71309701333712,106.6640723978974,9.713172767078504e-05,0.1004928275942802,0,0,0
9736,372777.64383950987,2011-01-07 18:11:40,930.4692700792746,2,39,0.5501165986061096,3.930275201797485,29.156786622643647,29.75393902061991,117.7311179822938,106.6640723978974,6.47544875391759e-05,0.1004928275942802,0,0,0
9737,372807.6589589428,2011-01-07 18:12:10,960.4843894972856,2,39,0.550297200679779,3.9328653812408447,29.1613732950804,29.75393902061991,117.74915061193428,106.6640723978974,9.713172767078504e-05,0.1004928275942802,0,0,0
9738,372837.6739726223,2011-01-07 18:12:40,990.4994031767636,2,39,0.5499359965324402,3.935131788253784,29.16595993839423,29.75393902061991,117.76719430032465,106.6640723978974,3.237724376958795e-05,0.1004928275942802,0,0,0
9739,372867.6891203558,2011-01-07 18:13:10,1020.5145509103456,2,39,0.5501165986061096,3.9375600814819336,29.17054668189577,29.75393902061991,117.78524938159526,106.6640723978974,3.237724376958795e-05,0.1004928275942802,0,0,0
9740,372897.70427742775,2011-01-07 18:13:40,1050.5297080022517,2,39,0.5501165986061096,3.939826488494873,29.175133320714053,29.75393902061991,117.80331488545032,106.6640723978974,6.47544875391759e-05,0.1004928275942802,0,0,0
9741,372927.71964549547,2011-01-07 18:14:10,1080.545076064962,2,39,0.5501165986061096,3.9422547817230233,29.179720032585458,29.75393902061991,117.82139139509891,106.6640723978974,6.47544875391759e-05,0.1004928275942802,0,0,0
9742,372957.7346440422,2011-01-07 18:14:40,1110.560074727012,2,39,0.5501165986061096,3.944521188735962,29.184306635970263,29.75393902061991,117.8394781090912,106.6640723978974,6.47544875391759e-05,0.1004928275942802,0,0,0
9743,372987.7496773055,2011-01-07 18:15:10,1140.5751078649866,2,39,0.5501165986061096,3.946787595748901,29.188893328263298,29.75393902061991,117.85757565581488,106.6640723978974,6.47544875391759e-05,0.1004928275942802,0,0,0
9744,373017.7649364668,2011-01-07 18:15:40,1170.5903670413184,2,39,0.550297200679779,3.949054002761841,29.193480047467062,29.75393902061991,117.87568366150518,106.6640723978974,9.713172767078504e-05,0.1004928275942802,0,0,0
9745,373047.7800394439,2011-01-07 18:16:10,1200.6054700183536,2,39,0.5501165986061096,3.9514822959899902,29.198066733572684,29.75393902061991,117.89380184843276,106.6640723978974,0.0001295089750783,0.1004928275942802,0,0,0
9746,373077.7950450933,2011-01-07 18:16:40,1230.6204756728307,2,39,0.5499359965324402,3.95358681678772,29.20265341866371,29.75393902061991,117.91193028006992,106.6640723978974,6.47544875391759e-05,0.1004928275942802,0,0,0
9747,373107.8102110423,2011-01-07 18:17:10,1260.6356416218114,2,39,0.5501165986061096,3.955853223800659,29.20724012086827,29.75393902061991,117.93006902627472,106.6640723978974,9.713172767078504e-05,0.1004928275942802,0,0,0
9748,373137.8253264052,2011-01-07 18:17:40,1290.6507569546409,2,39,0.5501165986061096,3.9579577445983887,29.21182682623608,29.75393902061991,117.94821789711315,106.6640723978974,3.237724376958795e-05,0.1004928275942802,0,0,0
9749,373167.8404548808,2011-01-07 18:18:10,1320.665885440251,2,39,0.550297200679779,3.960224151611328,29.21641352242917,29.75393902061991,117.9663768978686,106.6640723978974,6.47544875391759e-05,0.1004928275942802,0,0,0
9750,373197.85558134125,2011-01-07 18:18:40,1350.6810119158515,2,39,0.550297200679779,3.9623286724090576,29.221000182252887,29.75393902061991,117.98454584494978,106.6640723978974,6.47544875391759e-05,0.1004928275942802,0,0,0
9751,373227.870853876,2011-01-07 18:19:10,1380.6962844554891,2,39,0.550297200679779,3.964756965637207,29.22558693555641,29.75393902061991,118.00272517257194,106.6640723978974,0.0001295089750783,0.1004928275942802,0,0,0
9752,373257.8860929923,2011-01-07 18:19:40,1410.7115236470129,2,39,0.5501165986061096,3.966699600219727,29.23017363652045,29.75393902061991,118.02091422264286,106.6640723978974,6.47544875391759e-05,0.1004928275942802,0,0,0
9753,373287.9009849684,2011-01-07 18:20:10,1440.7264155179062,2,39,0.5501165986061096,3.968804121017456,29.23476029031079,29.75393902061991,118.03911298619734,106.6640723978974,6.47544875391759e-05,0.1004928275942802,0,0,0
9754,373317.9161374338,2011-01-07 18:20:40,1470.7415680133563,2,39,0.550297200679779,3.9709086418151855,29.23934705556953,29.75393902061991,118.05732205839914,106.6640723978974,3.237724376958795e-05,0.1004928275942802,0,0,0
9755,373347.93128848064,2011-01-07 18:21:10,1500.7567190301213,2,39,0.550297200679779,3.973013162612915,29.24393385521621,29.75393902061991,118.07554105754436,106.6640723978974,3.237724376958795e-05,0.1004928275942802,0,0,0
9756,373377.9466097618,2011-01-07 18:21:40,1530.7720403312874,2,39,0.5501165986061096,3.9752795696258554,29.248520627668725,29.75393902061991,118.0937697063903,106.6640723978974,6.47544875391759e-05,0.1004928275942802,0,0,0
9757,373407.96153475024,2011-01-07 18:22:10,1560.78696529967,2,39,0.5499359965324402,3.977222204208374,29.253107369178785,29.75393902061991,118.11200799678278,106.6640723978974,3.237724376958795e-05,0.1004928275942802,0,0,0
9758,373437.9766581181,2011-01-07 18:22:40,1590.8020886725378,2,39,0.550297200679779,3.979650497436523,29.257694086215807,29.75393902061991,118.1302555375488,106.6640723978974,6.47544875391759e-05,0.1004928275942802,0,0,0
9759,373467.9918009444,2011-01-07 18:23:10,1620.817231493877,2,39,0.5501165986061096,3.981593132019043,29.26228073723859,29.75393902061991,118.14851301480016,106.6640723978974,6.47544875391759e-05,0.1004928275942802,0,0,0
9760,373498.00923145737,2011-01-07 18:23:40,1650.834662117123,2,39,0.5501165986061096,3.983697652816773,29.266867764047102,29.75393902061991,118.16678167591256,106.6640723978974,3.237724376958795e-05,0.1004928275942802,0,0,0
9761,373528.0220960056,2011-01-07 18:24:10,1680.847526590117,2,39,0.5501165986061096,3.985640287399292,29.271454069062106,29.75393902061991,118.1850571726517,106.6640723978974,3.237724376958795e-05,0.1004928275942802,0,0,0
9762,373558.0372029324,2011-01-07 18:24:40,1710.8626334819087,2,39,0.5501165986061096,3.9880685806274414,29.276040740264108,29.75393902061991,118.2033438799542,106.6640723978974,6.47544875391759e-05,0.1004928275942802,0,0,0
9763,373588.0523352526,2011-01-07 18:25:10,1740.8777658070885,2,39,0.5501165986061096,3.990173101425171,29.28062737800612,29.75393902061991,118.22164011107812,106.6640723978974,6.47544875391759e-05,0.1004928275942802,0,0,0
9764,373618.0674421243,2011-01-07 18:25:40,1770.8928727038929,2,39,0.5499359965324402,3.992277622222901,29.28521399745824,29.75393902061991,118.23994602185108,106.6640723978974,6.47544875391759e-05,0.1004928275942802,0,0,0
9765,373648.08272455866,2011-01-07 18:26:10,1800.9081551281656,2,39,0.550297200679779,3.994381904602051,29.289801369257905,29.75393902061991,118.25826474296468,106.6640723978974,6.47544875391759e-05,0.1004928275942802,0,0,0
9766,373678.097734965,2011-01-07 18:26:40,1830.9231655194485,2,39,0.5501165986061096,3.99648642539978,29.294388647796424,29.75393902061991,118.27659284903667,106.6640723978974,6.47544875391759e-05,0.1004928275942802,0,0,0
9767,373708.1128725082,2011-01-07 18:27:10,1860.9383030626327,2,39,0.550297200679779,3.9985909461975098,29.298975921178343,29.75393902061991,118.29493076869088,106.6640723978974,6.47544875391759e-05,0.1004928275942802,0,0,0
9768,373738.1280103221,2011-01-07 18:27:41,1890.953440906567,2,39,0.5499359965324402,4.000857353210449,29.30356321881817,29.75393902061991,118.3132785232156,106.6640723978974,6.47544875391759e-05,0.1004928275942802,0,0,0
9769,373768.143268586,2011-01-07 18:28:11,1920.968699170625,2,39,0.5501165986061096,4.002962112426758,29.30814982908427,29.75393902061991,118.3316334131591,106.6640723978974,6.47544875391759e-05,0.1004928275942802,0,0,0
9770,373798.15827113285,2011-01-07 18:28:41,1950.9837016822696,2,39,0.5499359965324402,4.004904747009277,29.312736350384167,29.75393902061991,118.3499978208956,106.6640723978974,3.24249267578125e-05,0.1004928275942802,0,0,0
9771,373828.1734127562,2011-01-07 18:29:11,1980.9988433106355,2,39,0.5501165986061096,4.007332801818848,29.31732290504404,29.75393902061991,118.36837236041804,106.6640723978974,6.47544875391759e-05,0.1004928275942802,0,0,0
9772,373858.1887204183,2011-01-07 18:29:41,2011.0141510931087,2,39,0.5499359965324402,4.009599208831787,29.32190950575697,29.75393902061991,118.38675716845324,106.6640723978974,9.70840483205393e-05,0.1004928275942802,0,0,0
9773,373888.2036782336,2011-01-07 18:30:11,2041.0291087930689,2,39,0.5499359965324402,4.011541843414307,29.326496045924788,29.75393902061991,118.40515187779738,106.6640723978974,3.23295607813634e-05,0.1004928275942802,0,0,0
9774,373918.2188541523,2011-01-07 18:30:41,2071.044284706885,2,39,0.550297200679779,4.013970375061035,29.3310826344964,29.75393902061991,118.42355707637716,106.6640723978974,6.47544875391759e-05,0.1004928275942802,0,0,0
9775,373948.2339732847,2011-01-07 18:31:11,2101.059403864246,2,39,0.5501165986061096,4.016236782073975,29.335669247071056,29.75393902061991,118.4419727198032,106.6640723978974,3.24249267578125e-05,0.1004928275942802,0,0,0
9776,373978.2491074194,2011-01-07 18:31:41,2131.074537978885,2,39,0.5501165986061096,4.018341064453125,29.34025585853919,29.75393902061991,118.46039879839046,106.6640723978974,3.23295607813634e-05,0.1004928275942802,0,0,0
9777,374008.2643589216,2011-01-07 18:32:11,2161.0897894911163,2,39,0.550297200679779,4.020931243896484,29.344842476283286,29.75393902061991,118.47883528399788,106.6640723978974,3.23295607813634e-05,0.1004928275942802,0,0,0
9778,374038.2793490524,2011-01-07 18:32:41,2191.104779611879,2,39,0.5501165986061096,4.023036003112793,29.3494290160877,29.75393902061991,118.49728216278034,106.6640723978974,3.24249267578125e-05,0.1004928275942802,0,0,0
9779,374068.2944933524,2011-01-07 18:33:11,2221.1199239018783,2,39,0.5501165986061096,4.025464057922363,29.35401566672365,29.75393902061991,118.51574017270096,106.6640723978974,6.47544875391759e-05,0.1004928275942802,0,0,0
9780,374098.3096463741,2011-01-07 18:33:41,2251.135076953716,2,39,0.5501165986061096,4.027892589569092,29.3586022569967,29.75393902061991,118.53420877143805,106.6640723978974,9.71794142969884e-05,0.1004928275942802,0,0,0
9781,374128.32475868944,2011-01-07 18:34:11,2281.150189264012,2,39,0.5501165986061096,4.030158996582031,29.36318881245831,29.75393902061991,118.552688142027,106.6640723978974,3.24249267578125e-05,0.1004928275942802,0,0,0
9782,374158.339936087,2011-01-07 18:34:41,2311.1653666665384,2,39,0.5501165986061096,4.032587051391602,29.367775400562504,29.75393902061991,118.57117869004531,106.6640723978974,6.47544875391759e-05,0.1004928275942802,0,0,0
9783,374188.3550254551,2011-01-07 18:35:11,2341.1804560045803,2,39,0.550297200679779,4.035015106201172,29.37236202945476,29.75393902061991,118.58968056418249,106.6640723978974,6.47544875391759e-05,0.1004928275942802,0,0,0
9784,374218.3723667557,2011-01-07 18:35:41,2371.1977973202443,2,39,0.550297200679779,4.0374436378479,29.37694890218956,29.75393902061991,118.60819466774755,106.6640723978974,3.24249267578125e-05,0.1004928275942802,0,0,0
9785,374248.3853029374,2011-01-07 18:36:11,2401.210733511984,2,39,0.5501165986061096,4.04003381729126,29.38153522215344,29.75393902061991,118.62671795229532,106.6640723978974,9.71794142969884e-05,0.1004928275942802,0,0,0
9786,374278.4004248416,2011-01-07 18:36:41,2431.225855426216,2,39,0.5499359965324402,4.042623996734619,29.38612182032756,29.75393902061991,118.64525382716144,106.6640723978974,3.24249267578125e-05,0.1004928275942802,0,0,0
9787,374308.4155742594,2011-01-07 18:37:11,2461.2410048339707,2,39,0.5501165986061096,4.0452141761779785,29.390708313281284,29.75393902061991,118.66380098034053,106.6640723978974,9.71794142969884e-05,0.1004928275942802,0,0,0
9788,374338.4309424976,2011-01-07 18:37:41,2491.256373047056,2,39,0.5499359965324402,4.047642230987549,29.39529487381025,29.75393902061991,118.68236013438954,106.6640723978974,3.23295607813634e-05,0.1004928275942802,0,0,0
9789,374368.4458592154,2011-01-07 18:38:11,2521.271289764876,2,39,0.550297200679779,4.050232410430908,29.399881386234537,29.75393902061991,118.70093098431832,106.6640723978974,3.23295607813634e-05,0.1004928275942802,0,0,0
9790,374398.4609646687,2011-01-07 18:38:41,2551.2863952431444,2,39,0.5501165986061096,4.052984714508057,29.40446787095918,29.75393902061991,118.71951363845078,106.6640723978974,6.47544875391759e-05,0.1004928275942802,0,0,0
9791,374428.47609831207,2011-01-07 18:39:11,2581.301528891622,2,39,0.5499359965324402,4.055412769317627,29.409054459390347,29.75393902061991,118.73810888452373,106.6640723978974,3.23295607813634e-05,0.1004928275942802,0,0,0
9792,374458.49124676245,2011-01-07 18:39:41,2611.316677311916,2,39,0.550297200679779,4.058326721191406,29.41364098565355,29.75393902061991,118.75671610331928,106.6640723978974,6.47544875391759e-05,0.1004928275942802,0,0,0
9793,374488.5063676491,2011-01-07 18:40:11,2641.331798223649,2,39,0.550297200679779,4.060755252838135,29.41822760412952,29.75393902061991,118.77533609639237,106.6640723978974,3.24249267578125e-05,0.1004928275942802,0,0,0
9794,374518.5215103451,2011-01-07 18:40:41,2671.3469409347144,2,39,0.5501165986061096,4.063830852508545,29.42281413673844,29.75393902061991,118.79396795054696,106.6640723978974,9.70840483205393e-05,0.1004928275942802,0,0,0
9795,374548.5367634664,2011-01-07 18:41:11,2701.36219402588,2,39,0.5499359965324402,4.066421031951904,29.42740071634949,29.75393902061991,118.8126127020511,106.6640723978974,0.0001295089750783,0.1004928275942802,0,0,0
9796,374578.5518059276,2011-01-07 18:41:41,2731.377236497116,2,39,0.5501165986061096,4.069173336029053,29.4319872234016,29.75393902061991,118.83126993969236,106.6640723978974,6.47544875391759e-05,0.1004928275942802,0,0,0
9797,374608.5669039624,2011-01-07 18:42:11,2761.392334521808,2,39,0.5501165986061096,4.072248935699463,29.43657373342724,29.75393902061991,118.84994006756168,106.6640723978974,9.70840483205393e-05,0.1004928275942802,0,0,0
9798,374638.5820383927,2011-01-07 18:42:41,2791.407468952235,2,39,0.5501165986061096,4.075001239776611,29.441160260955108,29.75393902061991,118.86862329231184,106.6640723978974,9.71794142969884e-05,0.1004928275942802,0,0,0
9799,374668.59717825166,2011-01-07 18:43:11,2821.422608811191,2,39,0.5499359965324402,4.077753067016602,29.44574679910377,29.75393902061991,118.88731976086903,106.6640723978974,3.23295607813634e-05,0.1004928275942802,0,0,0
9800,374698.61232996016,2011-01-07 18:43:41,2851.43776051968,2,39,0.550297200679779,4.08082914352417,29.450333379074557,29.75393902061991,118.90602979002009,106.6640723978974,9.71794142969884e-05,0.1004928275942802,0,0,0
9801,374728.6275710565,2011-01-07 18:44:11,2881.453001641013,2,39,0.5501165986061096,4.083743095397949,29.45491994324652,29.75393902061991,118.92475305231648,106.6640723978974,9.71794142969884e-05,0.1004928275942802,0,0,0
9802,374758.64257194905,2011-01-07 18:44:41,2911.468002513572,2,39,0.5501165986061096,4.0866570472717285,29.45950644002761,29.75393902061991,118.94348959542546,106.6640723978974,6.47544875391759e-05,0.1004928275942802,0,0,0
9803,374788.65775277006,2011-01-07 18:45:11,2941.483183344644,2,39,0.5501165986061096,4.089570999145508,29.464092969709597,29.75393902061991,118.96223986831434,106.6640723978974,6.47544875391759e-05,0.1004928275942802,0,0,0
9804,374818.67286744126,2011-01-07 18:45:41,2971.4982980007862,2,39,0.5501165986061096,4.092646598815918,29.46867941884291,29.75393902061991,118.98100357039704,106.6640723978974,6.47544875391759e-05,0.1004928275942802,0,0,0
9805,374848.6882611429,2011-01-07 18:46:11,3001.5136917224468,2,39,0.5499359965324402,4.095560550689697,29.473265916851386,29.75393902061991,118.99978130752874,106.6640723978974,6.47544875391759e-05,0.1004928275942802,0,0,0
9806,374878.70324383007,2011-01-07 18:46:41,3031.5286743996576,2,39,0.550297200679779,4.0987982749938965,29.47785239313816,29.75393902061991,119.01857299367208,106.6640723978974,9.70840483205393e-05,0.1004928275942802,0,0,0
9807,374908.7182890331,2011-01-07 18:47:11,3061.543719592677,2,39,0.5501165986061096,4.101874351501465,29.48243891151117,29.75393902061991,119.03737904206186,106.6640723978974,9.71794142969884e-05,0.1004928275942802,0,0,0
9808,374938.7334050477,2011-01-07 18:47:41,3091.5588356072053,2,39,0.5499359965324402,4.104949951171875,29.4870254579764,29.75393902061991,119.05619933890992,106.6640723978974,9.70840483205393e-05,0.1004928275942802,0,0,0
9809,374968.74875936616,2011-01-07 18:48:11,3121.574189925661,2,39,0.5501165986061096,4.108349800109863,29.491612049426728,29.75393902061991,119.07503424932608,106.6640723978974,0.0001295089750783,0.1004928275942802,0,0,0
9810,374998.76368367794,2011-01-07 18:48:41,3151.589114252444,2,39,0.5501165986061096,4.111425399780273,29.496198477873968,29.75393902061991,119.09388304919982,106.6640723978974,0.0001295089750783,0.1004928275942802,0,0,0
9811,375028.77891382686,2011-01-07 18:49:11,3181.604344411456,2,39,0.550297200679779,4.114663124084473,29.500785044183303,29.75393902061991,119.11274704663688,106.6640723978974,9.70840483205393e-05,0.1004928275942802,0,0,0
9812,375058.7939552906,2011-01-07 18:49:41,3211.6193858501188,2,39,0.5501165986061096,4.117738723754883,29.5053715049348,29.75393902061991,119.13162544476656,106.6640723978974,6.47544875391759e-05,0.1004928275942802,0,0,0
9813,375088.809186407,2011-01-07 18:50:11,3241.634617001604,2,39,0.5501165986061096,4.120976448059082,29.50995805702824,29.75393902061991,119.15051922834915,106.6640723978974,3.23295607813634e-05,0.1004928275942802,0,0,0
9814,375118.8241875552,2011-01-07 18:50:41,3271.6496181097505,2,39,0.550297200679779,4.12437629699707,29.5145446098182,29.75393902061991,119.16942810354398,106.6640723978974,9.71794142969884e-05,0.1004928275942802,0,0,0
9815,375148.8393334744,2011-01-07 18:51:11,3301.6647640488604,2,39,0.5499359965324402,4.1276140213012695,29.519131150741785,29.75393902061991,119.18835216710772,106.6640723978974,6.47544875391759e-05,0.1004928275942802,0,0,0
9816,375178.85448006506,2011-01-07 18:51:41,3331.6799106145318,2,39,0.5501165986061096,4.1310133934021,29.52371769013374,29.75393902061991,119.2072915046941,106.6640723978974,6.47544875391759e-05,0.1004928275942802,0,0,0
9817,375208.8696212072,2011-01-07 18:52:11,3361.695051776736,2,39,0.5499359965324402,4.134089469909668,29.52830426092888,29.75393902061991,119.22624643614782,106.6640723978974,3.24249267578125e-05,0.1004928275942802,0,0,0
9818,375238.8847346854,2011-01-07 18:52:41,3391.7101652599554,2,39,0.5499359965324402,4.137812614440918,29.5328907829755,29.75393902061991,119.24521673332843,106.6640723978974,6.47544875391759e-05,0.1004928275942802,0,0,0
9819,375268.8998756069,2011-01-07 18:53:11,3421.725306156498,2,39,0.5501165986061096,4.141212463378906,29.537477318629136,29.75393902061991,119.26420283052404,106.6640723978974,9.71794142969884e-05,0.1004928275942802,0,0,0
9820,375298.9150155412,2011-01-07 18:53:41,3451.740446115704,2,39,0.550297200679779,4.144935607910156,29.542063869295145,29.75393902061991,119.283204937132,106.6640723978974,0.0001295089750783,0.1004928275942802,0,0,0
9821,375328.93016732985,2011-01-07 18:54:11,3481.7555978793303,2,39,0.550297200679779,4.148497104644775,29.546650348363546,29.75393902061991,119.30222307389572,106.6640723978974,0.0001295089750783,0.1004928275942802,0,0,0
9822,375358.94532758463,2011-01-07 18:54:41,3511.7707581491563,2,39,0.5501165986061096,4.151896953582764,29.55123685596667,29.75393902061991,119.321257425431,106.6640723978974,6.47544875391759e-05,0.1004928275942802,0,0,0
9823,375388.9604076496,2011-01-07 18:55:11,3541.785838209075,2,39,0.5501165986061096,4.155296325683594,29.555823398146284,29.75393902061991,119.34030815491724,106.6640723978974,0.0001295089750783,0.1004928275942802,0,0,0
9824,375418.976155589,2011-01-07 18:55:41,3571.8015863290047,2,39,0.5499359965324402,4.158857822418213,29.560410004961263,29.75393902061991,119.35937549728447,106.6640723978974,9.70840483205393e-05,0.1004928275942802,0,0,0
9825,375448.9773340169,2011-01-07 18:56:11,3601.802764586353,2,39,0.5501165986061096,4.162743091583252,29.564994391087065,29.75393902061991,119.37845005750776,106.6640723978974,0.0001295089750783,0.1004928275942802,0,0,0
9826,375478.9902062392,2011-01-07 18:56:41,3631.815636833724,2,39,0.5499359965324402,4.16614294052124,29.569580541179132,29.75393902061991,119.39754857087522,106.6640723978974,6.47544875391759e-05,0.1004928275942802,0,0,0
9827,375509.0053177826,2011-01-07 18:57:11,3661.830748331997,2,39,0.550297200679779,4.16986608505249,29.57416705699788,29.75393902061991,119.41666534149148,106.6640723978974,9.70840483205393e-05,0.1004928275942802,0,0,0
9828,375539.020579014,2011-01-07 18:57:41,3691.8460095985374,2,39,0.5501165986061096,4.173589706420898,29.57875355608933,29.75393902061991,119.43579893707872,106.6640723978974,9.71794142969884e-05,0.1004928275942802,0,0,0
9829,375569.0356348134,2011-01-07 18:58:11,3721.8610653879664,2,39,0.5501165986061096,4.177312850952148,29.583340103256425,29.75393902061991,119.45494983284114,106.6640723978974,9.70840483205393e-05,0.1004928275942802,0,0,0
9830,375599.0507148934,2011-01-07 18:58:41,3751.876145467936,2,39,0.5501165986061096,4.181036472320557,29.58792659536961,29.75393902061991,119.47411771478431,106.6640723978974,9.71794142969884e-05,0.1004928275942802,0,0,0
9831,375629.0658556947,2011-01-07 18:59:11,3781.8912862441775,2,39,0.5501165986061096,4.184921741485596,29.59251310951666,29.75393902061991,119.4933031154876,106.6640723978974,6.47544875391759e-05,0.1004928275942802,0,0,0
9832,375659.0811206805,2011-01-07 18:59:41,3811.906551265077,2,39,0.5501165986061096,4.188807010650635,29.59709964768001,29.75393902061991,119.51250600112004,106.6640723978974,9.71794142969884e-05,0.1004928275942802,0,0,0
9833,375689.096153593,2011-01-07 19:00:12,3841.921584232626,2,39,0.5499359965324402,4.192530155181885,29.601686090398516,29.75393902061991,119.5317260871427,106.6640723978974,6.47544875391759e-05,0.1004928275942802,0,0,0
9834,375719.1112604296,2011-01-07 19:00:42,3871.9366909940927,2,39,0.5499359965324402,4.196415424346924,29.60627205062248,29.75393902061991,119.55096164230063,106.6640723978974,9.71794142969884e-05,0.1004928275942802,0,0,0
9835,375746.8295494345,2011-01-07 19:01:09,3899.654979993985,2,39,0.550297200679779,4.200138568878174,29.61050675174641,29.75393902061991,119.56873957600936,106.6640723978974,0.0001618385285837,0.1004928275942802,0,0,0
9836,375776.8536218663,2011-01-07 19:01:39,30.01758882753941,3,39,0.0,4.101064682006836,29.61050675174641,29.75393902061991,119.56873957600936,106.6640723978974,-0.0004532813909463,0.1004928275942802,0,0,0
9837,375806.8664468257,2011-01-07 19:02:09,60.03041389231623,3,39,0.0,4.088275909423828,29.61050675174641,29.75393902061991,119.56873957600936,106.6640723978974,-0.0002913475036621,0.1004928275942802,0,0,0
9838,375836.8814689814,2011-01-07 19:02:39,90.04543594766959,3,39,0.0,4.08050537109375,29.61050675174641,29.75393902061991,119.56873957600936,106.6640723978974,-0.0001618385285837,0.1004928275942802,0,0,0
9839,375866.85199492367,2011-01-07 19:03:09,120.01596201031802,3,39,0.0,4.075486660003662,29.61050675174641,29.75393902061991,119.56873957600936,106.6640723978974,-0.0001295089750783,0.1004928275942802,0,0,0
9840,375866.85813087627,2011-01-07 19:03:10,0.015635102486196,4,39,1.0229517221450806,4.199814796447754,29.610511194511545,29.75393902061991,119.56875823480011,106.6640723978974,0.0,0.1004928275942802,0,0,0
9841,375867.576859464,2011-01-07 19:03:10,0.7343637053117,4,39,0.9722005128860474,4.199814796447754,29.610708892288795,29.75393902061991,119.56958853029366,106.6640723978974,0.0,0.1004928275942802,0,0,0
9842,375869.4362197119,2011-01-07 19:03:12,2.593723928097721,4,39,0.9216299057006836,4.199814796447754,29.61119697941144,29.75393902061991,119.57163839987328,106.6640723978974,0.0,0.1004928275942802,0,0,0
9843,375872.27991181257,2011-01-07 19:03:15,5.437416028794843,4,39,0.8710592985153198,4.199653148651123,29.61190403678199,29.75393902061991,119.57460790055136,106.6640723978974,0.0,0.1004928275942802,0,0,0
9844,375876.15485372505,2011-01-07 19:03:19,9.312357946343196,4,39,0.8208498954772949,4.199814796447754,29.61281356335282,29.75393902061991,119.57842773732352,106.6640723978974,0.0,0.1004928275942802,0,0,0
9845,375881.2797767402,2011-01-07 19:03:24,14.4372809563836,4,39,0.7708211541175842,4.199814796447754,29.61394519443023,29.75393902061991,119.5831803815444,106.6640723978974,-3.24249267578125e-05,0.1004928275942802,0,0,0
9846,375887.8735403278,2011-01-07 19:03:31,21.031044574169467,4,39,0.7207923531532288,4.199814796447754,29.61530939412904,29.75393902061991,119.58890977120352,106.6640723978974,0.0,0.1004928275942802,0,0,0
9847,375896.5451587993,2011-01-07 19:03:39,29.702663050603043,4,39,0.6707636117935181,4.199814796447754,29.616982798446365,29.75393902061991,119.59593775797754,106.6640723978974,0.0,0.1004928275942802,0,0,0
9848,375908.5137137057,2011-01-07 19:03:51,41.67121793199975,4,39,0.6205542087554932,4.199814796447754,29.61912492954725,29.75393902061991,119.6049343166846,106.6640723978974,0.0,0.1004928275942802,0,0,0
9849,375926.1071513858,2011-01-07 19:04:09,59.26465564213887,4,39,0.5705254673957825,4.199814796447754,29.62202725921788,29.75393902061991,119.6171235649324,106.6640723978974,0.0,0.1004928275942802,0,0,0
9850,375956.02854543633,2011-01-07 19:04:39,89.1860496576082,4,39,0.520496666431427,4.199653148651123,29.626542552769784,29.75393902061991,119.63608698324862,106.6640723978974,-6.47544875391759e-05,0.1004928275942802,0,0,0
9851,376013.8870914656,2011-01-07 19:05:37,147.0445957019803,4,39,0.470106691122055,4.199653148651123,29.63446457793041,29.75393902061991,119.66935805519948,106.6640723978974,-3.23295607813634e-05,0.1004928275942802,0,0,0
9852,376113.4947297588,2011-01-07 19:07:16,246.65223397506097,4,39,0.4200779497623443,4.199814796447754,29.646747667382936,29.75393902061991,119.7209448413319,106.6640723978974,-3.24249267578125e-05,0.1004928275942802,0,0,0
9853,376243.8988314546,2011-01-07 19:09:27,377.0563356708258,4,39,0.3698685467243194,4.199814796447754,29.6610407210685,29.75393902061991,119.78097318322196,106.6640723978974,0.0,0.1004928275942802,0,0,0
9854,376401.3962620373,2011-01-07 19:12:04,534.5537662535858,4,39,0.3198397755622864,4.199814796447754,29.67610992370065,29.75393902061991,119.84426120373476,106.6640723978974,0.0,0.1004928275942802,0,0,0
9855,376590.8150528066,2011-01-07 19:15:14,723.9725570429378,4,39,0.2698110044002533,4.199814796447754,29.69158996003291,29.75393902061991,119.90927460684485,106.6640723978974,0.0,0.1004928275942802,0,0,0
9856,376822.0768592909,2011-01-07 19:19:05,955.234363532188,4,39,0.2197822481393814,4.199653148651123,29.70728450810379,29.75393902061991,119.9751889232473,106.6640723978974,-3.23295607813634e-05,0.1004928275942802,0,0,0
9857,377128.5718401042,2011-01-07 19:24:11,1261.729344315448,4,39,0.1697534769773483,4.199653148651123,29.723797603129608,29.75393902061991,120.04454098099916,106.6640723978974,-6.47544875391759e-05,0.1004928275942802,0,0,0
9858,377563.76792230754,2011-01-07 19:31:26,1696.9254265288102,4,39,0.1197247058153152,4.199814796447754,29.741134150364022,29.75393902061991,120.11735138599984,106.6640723978974,-3.24249267578125e-05,0.1004928275942802,0,0,0
9859,378338.3494153861,2011-01-07 19:44:21,2471.506919717604,4,39,0.0696959346532821,4.199814796447754,29.76099789659517,29.75393902061991,120.20077560222995,106.6640723978974,3.23295607813634e-05,0.1004928275942802,0,0,0
9860,378883.4806991579,2011-01-07 19:53:26,3016.638203379191,4,39,0.0498289167881011,4.199814796447754,29.770001054118744,29.75393902061991,120.2385872433387,106.6640723978974,0.0,0.1004928275942802,0,0,0
9861,378913.506801426,2011-01-07 19:53:56,30.0152554019248,5,39,0.0,4.190587520599365,29.770001054118744,29.75393902061991,120.2385872433387,106.6640723978974,-6.47544875391759e-05,0.1004928275942802,0,0,0
9862,378943.5061668702,2011-01-07 19:54:26,60.014620836160894,5,39,0.0,4.188807010650635,29.770001054118744,29.75393902061991,120.2385872433387,106.6640723978974,-9.70840483205393e-05,0.1004928275942802,0,0,0
9863,378943.68978845695,2011-01-07 19:54:27,0.187423998272618,6,39,-1.9243103452026844e-05,4.189130783081055,29.770001054118744,29.75393902162175,120.2385872433387,106.66407240209423,0.0,0.1043562516570091,0,0,0
9864,378948.5178446386,2011-01-07 19:54:32,5.015480179832815,6,39,0.0003419754502829,4.188968658447266,29.77000189071253,29.75393902170577,120.23859074803696,106.6640724024462,-6.47544875391759e-05,0.1043562516570091,0,0,0
9865,378974.7035179628,2011-01-07 19:54:58,26.17377689048089,7,39,-1.1001102924346924,3.988878011703491,29.77000189071253,29.761934042685088,120.23859074803696,106.69616299868927,-0.0013274193042889,0.1043562516570091,0,0,0
9866,379004.71632111794,2011-01-07 19:55:28,56.186580055677226,7,39,-1.0997490882873535,3.9497015476226807,29.77000189071253,29.771101673226823,120.23859074803696,106.73254393908977,-0.0009065627818927,0.1043562516570091,0,0,0
9867,379034.73145849566,2011-01-07 19:55:58,86.20171739836208,7,39,-1.099568486213684,3.921695232391357,29.77000189071253,29.780270015295923,120.23859074803696,106.76862123584372,-0.0006475448608398,0.1043562516570091,0,0,0
9868,379064.7466099686,2011-01-07 19:56:28,116.21686888630126,7,39,-1.0997490882873535,3.9000027179718018,29.77000189071253,29.789438297012776,120.23859074803696,106.80447355126176,-0.0005180359003134,0.1043562516570091,0,0,0
9869,379094.7619491443,2011-01-07 19:56:58,146.23220806201613,7,39,-1.0997490882873535,3.882033348083496,29.77000189071253,29.798606681955853,120.23859074803696,106.84014671712684,-0.0004209041653666,0.1043562516570091,0,0,0
9870,379124.7768956564,2011-01-07 19:57:28,176.24715457409235,7,39,-1.099568486213684,3.86616849899292,29.77000189071253,29.80777489153186,120.23859074803696,106.87566466231328,-0.0004209041653666,0.1043562516570091,0,0,0
9871,379154.7920043577,2011-01-07 19:57:58,206.2622632703816,7,39,-1.0997490882873535,3.8514368534088135,29.77000189071253,29.81694323785689,120.23859074803696,106.91104280407946,-0.0003885269106831,0.1043562516570091,0,0,0
9872,379184.8071225527,2011-01-07 19:58:28,236.2773814553194,7,39,-1.099568486213684,3.8380002975463863,29.77000189071253,29.82611161755848,120.23859074803696,106.94629219228752,-0.0003561496851034,0.1043562516570091,0,0,0
9873,379214.82226931374,2011-01-07 19:58:58,266.2925282214905,7,39,-1.099568486213684,3.825211524963379,29.77000189071253,29.835279968965416,120.23859074803696,106.98142135196444,-0.0003561496851034,0.1043562516570091,0,0,0
9874,379244.83738695737,2011-01-07 19:59:28,296.3076458650791,7,39,-1.099568486213684,3.813070058822632,29.77000189071253,29.84444840642129,120.23859074803696,107.0164364619934,-0.0002913951757363,0.1043562516570091,0,0,0
9875,379274.8525218239,2011-01-07 19:59:58,326.32278073159256,7,39,-1.0997490882873535,3.8012523651123047,29.77000189071253,29.85361669154337,120.23859074803696,107.05134103858028,-0.0003237724304199,0.1043562516570091,0,0,0
9876,379304.8676644096,2011-01-07 20:00:28,356.33792332235726,7,39,-1.0997490882873535,3.7900822162628174,29.77000189071253,29.862784964407656,120.23859074803696,107.08614096303218,-0.0002913951757363,0.1043562516570091,0,0,0
9877,379334.88280082,2011-01-07 20:00:58,386.3530597277059,7,39,-1.099929690361023,3.77939772605896,29.77000189071253,29.87195330009975,120.23859074803696,107.12083992967408,-0.0002913951757363,0.1043562516570091,0,0,0
9878,379364.8979477416,2011-01-07 20:01:28,416.3682066693143,7,39,-1.0997490882873535,3.768875122070313,29.77000189071253,29.88112164785701,120.23859074803696,107.15544134562032,-0.0002913951757363,0.1043562516570091,0,0,0
9879,379394.9130567286,2011-01-07 20:01:58,446.38331563627816,7,39,-1.0997490882873535,3.758676290512085,29.77000189071253,29.890289970616,120.23859074803696,107.18994912635983,-0.0002913951757363,0.1043562516570091,0,0,0
9880,379424.92819551984,2011-01-07 20:02:28,476.3984544325858,7,39,-1.099568486213684,3.7489633560180655,29.77000189071253,29.89945833703913,120.23859074803696,107.22436637927142,-0.0002913951757363,0.1043562516570091,0,0,0
9881,379454.9433548624,2011-01-07 20:02:58,506.41361377008855,7,39,-1.0997490882873535,3.7395739555358887,29.77000189071253,29.908626686018103,120.23859074803696,107.25869554526034,-0.0002590179501567,0.1043562516570091,0,0,0
9882,379484.9586055927,2011-01-07 20:03:28,536.4288645053826,7,39,-1.099568486213684,3.730508327484131,29.77000189071253,29.91779508559815,120.23859074803696,107.2929398268846,-0.0002266406954731,0.1043562516570091,0,0,0
9883,379514.97360546776,2011-01-07 20:03:58,566.4438644055184,7,39,-1.099568486213684,3.721604585647583,29.77000189071253,29.926963363565505,120.23859074803696,107.32710133593848,-0.0002266406954731,0.1043562516570091,0,0,0
9884,379544.9888640526,2011-01-07 20:04:28,596.459122980351,7,39,-1.099568486213684,3.712862730026245,29.77000189071253,29.93613173048195,120.23859074803696,107.36118213179272,-0.0002590179501567,0.1043562516570091,0,0,0
9885,379575.00389982713,2011-01-07 20:04:58,626.4741587649219,7,39,-1.0997490882873535,3.704444646835327,29.77000189071253,29.94530004761573,120.23859074803696,107.39518437095349,-0.0002266406954731,0.1043562516570091,0,0,0
9886,379605.0193919741,2011-01-07 20:05:28,656.4896509068756,7,39,-1.0997490882873535,3.696350336074829,29.77000189071253,29.95446850934298,120.23859074803696,107.42911093890586,-0.0002266406954731,0.1043562516570091,0,0,0
9887,379635.0341272647,2011-01-07 20:05:58,686.5043861724606,7,39,-1.099568486213684,3.688256025314331,29.77000189071253,29.963636814077898,120.23859074803696,107.46296196936652,-0.0001942634553415,0.1043562516570091,0,0,0
9888,379665.0492908328,2011-01-07 20:06:28,716.5195497405072,7,39,-1.0997490882873535,3.679999828338623,29.77000189071253,29.9728052441402,120.23859074803696,107.49674019085164,-0.0002913951757363,0.1043562516570091,0,0,0
9889,379695.06440812553,2011-01-07 20:06:58,746.5346670332212,7,39,-1.0997490882873535,3.672553062438965,29.77000189071253,29.98197360987627,120.23859074803696,107.53044699578462,-0.0002266406954731,0.1043562516570091,0,0,0
9890,379725.079665362,2011-01-07 20:07:28,776.5499242847559,7,39,-1.0997490882873535,3.664944648742676,29.77000189071253,29.99114197582422,120.23859074803696,107.5640837578617,-0.0002266406954731,0.1043562516570091,0,0,0
9891,379755.0946759688,2011-01-07 20:07:58,806.5649348815509,7,39,-1.0997490882873535,3.657659769058228,29.77000189071253,30.00031033496296,120.23859074803696,107.59765184534324,-0.0001942634553415,0.1043562516570091,0,0,0
9892,379785.109815918,2011-01-07 20:08:28,836.5800748507819,7,39,-1.099568486213684,3.650536775588989,29.77000189071253,30.009478692889765,120.23859074803696,107.63115337700376,-0.0001618862152099,0.1043562516570091,0,0,0
9893,379815.1249418873,2011-01-07 20:08:58,866.5952007950585,7,39,-1.099568486213684,3.643251895904541,29.77000189071253,30.018647032357887,120.23859074803696,107.66458884035924,-0.0001942634553415,0.1043562516570091,0,0,0
9894,379845.14009324,2011-01-07 20:09:28,896.6103521526728,7,39,-1.0993878841400146,3.6366145610809326,29.77000189071253,30.02781531679016,120.23859074803696,107.6979599871204,-0.0001618862152099,0.1043562516570091,0,0,0
9895,379875.15521397634,2011-01-07 20:09:58,926.6254728889694,7,39,-1.0997490882873535,3.629329681396485,29.77000189071253,30.03698362704172,120.23859074803696,107.73126773775796,-0.0002266406954731,0.1043562516570091,0,0,0
9896,379905.17032904347,2011-01-07 20:10:28,956.6405879761868,7,39,-1.0997490882873535,3.622692346572876,29.77000189071253,30.046151968452687,120.23859074803696,107.76451332338875,-0.0001942634553415,0.1043562516570091,0,0,0
9897,379935.1854784311,2011-01-07 20:10:58,986.6557373388292,7,39,-1.099568486213684,3.6162168979644775,29.77000189071253,30.055320375802506,120.23859074803696,107.7976977753652,-0.0001618862152099,0.1043562516570091,0,0,0
9898,379965.2005924657,2011-01-07 20:11:28,1016.670851373423,7,39,-1.0997490882873535,3.609741449356079,29.77000189071253,30.06448871101816,120.23859074803696,107.83082256536444,-0.0001618862152099,0.1043562516570091,0,0,0
9899,379995.2158475168,2011-01-07 20:11:58,1046.686106469586,7,39,-1.099568486213684,3.6035897731781006,29.77000189071253,30.07365707329509,120.23859074803696,107.8638894331895,-0.0001618862152099,0.1043562516570091,0,0,0
9900,380025.2308287103,2011-01-07 20:12:28,1076.7010876380364,7,39,-1.0997490882873535,3.597438097000122,29.77000189071253,30.08282513352513,120.23859074803696,107.89689812436669,-0.0001295089750783,0.1043562516570091,0,0,0
9901,380055.2461559011,2011-01-07 20:12:58,1106.716414833894,7,39,-1.099568486213684,3.5912866592407227,29.77000189071253,30.09199319395795,120.23859074803696,107.92985062908528,-0.0001618862152099,0.1043562516570091,0,0,0
9902,380085.2610868894,2011-01-07 20:13:28,1136.7313458122553,7,39,-1.099568486213684,3.585296869277954,29.77000189071253,30.101161161631925,120.23859074803696,107.96274735177914,-0.0001618862152099,0.1043562516570091,0,0,0
9903,380115.2761587841,2011-01-07 20:13:58,1166.7464177268732,7,39,-1.099568486213684,3.5794689655303955,29.77000189071253,30.11032927316027,120.23859074803696,107.9955909405442,-0.0001295089750783,0.1043562516570091,0,0,0
9904,380145.29134494846,2011-01-07 20:14:28,1196.7616038611618,7,39,-1.099568486213684,3.573802947998047,29.77000189071253,30.119497586355955,120.23859074803696,108.02838276543216,-0.0001942634553415,0.1043562516570091,0,0,0
9905,380175.3094169652,2011-01-07 20:14:58,1226.7796759631697,7,39,-1.0997490882873535,3.5681369304656982,29.77000189071253,30.12866681556932,120.23859074803696,108.061127210711,-0.0002266406954731,0.1043562516570091,0,0,0
9906,380205.32171807415,2011-01-07 20:15:28,1256.791977192387,7,39,-1.099568486213684,3.563118457794189,29.77000189071253,30.13783424845397,120.23859074803696,108.0938155212864,-0.0001295089750783,0.1043562516570091,0,0,0
9907,380235.3368573416,2011-01-07 20:15:58,1286.8071163495945,7,39,-1.099568486213684,3.5580999851226807,29.77000189071253,30.147002496738004,120.23859074803696,108.12645947785664,-9.713172767078504e-05,0.1043562516570091,0,0,0
9908,380265.35191964736,2011-01-07 20:16:28,1316.822178555014,7,39,-1.0997490882873535,3.552919626235962,29.77000189071253,30.15617075156065,120.23859074803696,108.159056295603,-0.0001295089750783,0.1043562516570091,0,0,0
9909,380295.3670649498,2011-01-07 20:16:58,1346.8373238575373,7,39,-1.0997490882873535,3.547901153564453,29.77000189071253,30.16533899870349,120.23859074803696,108.191607062712,-0.0001618862152099,0.1043562516570091,0,0,0
9910,380325.3821846937,2011-01-07 20:17:28,1376.8524436013604,7,39,-1.099568486213684,3.5430445671081543,29.77000189071253,30.17450725275105,120.23859074803696,108.2241132785296,-0.0001618862152099,0.1043562516570091,0,0,0
9911,380355.397326683,2011-01-07 20:17:58,1406.8675855956385,7,39,-1.099568486213684,3.5385117530822754,29.77000189071253,30.183675530689747,120.23859074803696,108.25657530532328,-9.713172767078504e-05,0.1043562516570091,0,0,0
9912,380385.4125148122,2011-01-07 20:18:28,1436.882773825149,7,39,-1.099568486213684,3.533655166625977,29.77000189071253,30.192843909897523,120.23859074803696,108.28899402056146,-0.0001295089750783,0.1043562516570091,0,0,0
9913,380415.4275672633,2011-01-07 20:18:59,1466.8978261960578,7,39,-1.0997490882873535,3.528960466384888,29.77000189071253,30.202012360942653,120.23859074803696,108.32137097650552,-0.0001295089750783,0.1043562516570091,0,0,0
9914,380445.44268059614,2011-01-07 20:19:29,1496.9129395038403,7,39,-1.099568486213684,3.524427652359009,29.77000189071253,30.211181355422507,120.23859074803696,108.35370818611484,-0.0001618862152099,0.1043562516570091,0,0,0
9915,380475.4578116832,2011-01-07 20:19:59,1526.9280705909343,7,39,-1.0997490882873535,3.51989483833313,29.77000189071253,30.2203502272118,120.23859074803696,108.38600330939346,-0.0001618862152099,0.1043562516570091,0,0,0
9916,380505.4729882787,2011-01-07 20:20:29,1556.9432471864493,7,39,-1.0997490882873535,3.515685796737671,29.77000189071253,30.22951929996238,120.23859074803696,108.41825822683867,-9.713172767078504e-05,0.1043562516570091,0,0,0
9917,380535.4881039675,2011-01-07 20:20:59,1586.958362875166,7,39,-1.0997490882873535,3.511153221130371,29.77000189071253,30.23868835405759,120.23859074803696,108.45047292527111,-0.0001294612884521,0.1043562516570091,0,0,0
9918,380565.50331183086,2011-01-07 20:21:29,1616.97357075866,7,39,-1.0997490882873535,3.506782293319702,29.77000189071253,30.247857375307103,120.23859074803696,108.48264664329048,-6.47544875391759e-05,0.1043562516570091,0,0,0
9919,380595.5183550391,2011-01-07 20:21:59,1646.9886139567077,7,39,-1.0997490882873535,3.5022494792938232,29.77000189071253,30.257026259111864,120.23859074803696,108.5147789003684,-9.713172767078504e-05,0.1043562516570091,0,0,0
9920,380625.5335010032,2011-01-07 20:22:29,1677.0037599158672,7,39,-1.0997490882873535,3.4977166652679443,29.77000189071253,30.26619442853456,120.23859074803696,108.5468684821422,-0.0001942634553415,0.1043562516570091,0,0,0
9921,380655.54866716266,2011-01-07 20:22:59,1707.01892607036,7,39,-1.0997490882873535,3.4933457374572754,29.77000189071253,30.275362634732343,120.23859074803696,108.57891714053832,-0.0001295089750783,0.1043562516570091,0,0,0
9922,380685.5640301828,2011-01-07 20:23:29,1737.0342890955149,7,39,-1.0997490882873535,3.4886510372161865,29.77000189071253,30.284530882237107,120.23859074803696,108.61092386516243,-0.0001295089750783,0.1043562516570091,0,0,0
9923,380715.5789243745,2011-01-07 20:23:59,1767.0491832871926,7,39,-1.099568486213684,3.4839563369750977,29.77000189071253,30.29369902569693,120.23859074803696,108.64288683676573,-0.0001295089750783,0.1043562516570091,0,0,0
9924,380745.5941906736,2011-01-07 20:24:29,1797.064449606327,7,39,-1.099568486213684,3.479099750518799,29.77000189071253,30.302867213784623,120.23859074803696,108.67480565424177,-9.713172767078504e-05,0.1043562516570091,0,0,0
9925,380775.6092061676,2011-01-07 20:24:59,1827.079465080277,7,39,-1.099568486213684,3.4742431640625,29.77000189071253,30.312035288244445,120.23859074803696,108.7066795840727,-9.713172767078504e-05,0.1043562516570091,0,0,0
9926,380805.624326538,2011-01-07 20:25:29,1857.0945854456493,7,39,-1.099568486213684,3.469062805175781,29.77000189071253,30.321203412347263,120.23859074803696,108.73850793875812,-0.0001618862152099,0.1043562516570091,0,0,0
9927,380835.63958810526,2011-01-07 20:25:59,1887.1098471081773,7,39,-1.099568486213684,3.4635586738586426,29.77000189071253,30.33037165262806,120.23859074803696,108.77028813513742,-0.0001618862152099,0.1043562516570091,0,0,0
9928,380865.6547228214,2011-01-07 20:26:29,1917.1249818443664,7,39,-1.099568486213684,3.457892656326294,29.77000189071253,30.33953982674814,120.23859074803696,108.80201673505438,-0.0001618862152099,0.1043562516570091,0,0,0
9929,380895.6718901284,2011-01-07 20:26:59,1947.1421490510968,7,39,-1.099568486213684,3.4519028663635254,29.77000189071253,30.348708612681197,120.23859074803696,108.83369420343016,-0.0001618862152099,0.1043562516570091,0,0,0
9930,380925.6848682645,2011-01-07 20:27:29,1977.1551271723367,7,39,-1.0993878841400146,3.445427417755127,29.77000189071253,30.35787616803905,120.23859074803696,108.86530993486176,-0.0001942634553415,0.1043562516570091,0,0,0
9931,380955.6999925448,2011-01-07 20:27:59,2007.1702514574783,7,39,-1.0993878841400146,3.438466310501098,29.77000189071253,30.36704429479646,120.23859074803696,108.89686522603316,-0.0001618862152099,0.1043562516570091,0,0,0
9932,380985.7151402432,2011-01-07 20:28:29,2037.1853991509608,7,39,-1.0997490882873535,3.4305341243743896,29.77000189071253,30.376212485143903,120.23859074803696,108.92835401098095,-0.0002265930233988,0.1043562516570091,0,0,0
9933,381015.7304953186,2011-01-07 20:28:59,2067.2007542263027,7,39,-1.099568486213684,3.4222779273986816,29.77000189071253,30.38538075452332,120.23859074803696,108.95976891310306,-0.0002266406954731,0.1043562516570091,0,0,0
9934,381045.7454242368,2011-01-07 20:29:29,2097.2156831545544,7,39,-1.0997490882873535,3.412726640701294,29.77000189071253,30.394548920233525,120.23859074803696,108.9911022279384,-0.0002590179501567,0.1043562516570091,0,0,0
9935,381075.7605292188,2011-01-07 20:29:59,2127.230788126562,7,39,-1.099568486213684,3.4017183780670166,29.77000189071253,30.40371709597,120.23859074803696,109.02234145718086,-0.0003237724304199,0.1043562516570091,0,0,0
9936,381105.7756721605,2011-01-07 20:30:29,2157.2459310682007,7,39,-1.0997490882873535,3.38876748085022,29.77000189071253,30.41288523715489,120.23859074803696,109.0534708932644,-0.0003561496851034,0.1043562516570091,0,0,0
9937,381135.7908107312,2011-01-07 20:30:59,2187.2610696439588,7,39,-1.0993878841400146,3.3732264041900635,29.77000189071253,30.42205341535059,120.23859074803696,109.08446995457123,-0.0004209041653666,0.1043562516570091,0,0,0
9938,381165.8059359587,2011-01-07 20:31:29,2217.2761948714488,7,39,-1.099568486213684,3.354285717010498,29.77000189071253,30.43122165429262,120.23859074803696,109.11531221881528,-0.0005827903514727,0.1043562516570091,0,0,0
9939,381195.82109948166,2011-01-07 20:31:59,2247.2913583943828,7,39,-1.0997490882873535,3.330812454223633,29.77000189071253,30.44038985135644,120.23859074803696,109.1459624032,-0.0007122993702068,0.1043562516570091,0,0,0
9940,381225.8362255413,2011-01-07 20:32:29,2277.3064844589594,7,39,-1.0997490882873535,3.30134916305542,29.77000189071253,30.449558073087115,120.23859074803696,109.17637144270412,-0.0008741855854168,0.1043562516570091,0,0,0
9941,381255.85137613193,2011-01-07 20:32:59,2307.321635074725,7,39,-1.0993878841400146,3.263629913330078,29.77000189071253,30.458726263613737,120.23859074803696,109.2064731167892,-0.0011332035064697,0.1043562516570091,0,0,0
9942,381285.8665985116,2011-01-07 20:33:29,2337.3368574443225,7,39,-1.0997490882873535,3.21441650390625,29.77000189071253,30.46789444329547,120.23859074803696,109.23618000269975,-0.0014893531333655,0.1043562516570091,0,0,0
9943,381315.88162560447,2011-01-07 20:33:59,2367.3518845272065,7,39,-1.099568486213684,3.1472339630126958,29.77000189071253,30.47706256792097,120.23859074803696,109.26535959007327,-0.0020721436012536,0.1043562516570091,0,0,0
9944,381345.89675029565,2011-01-07 20:34:29,2397.3670092283846,7,39,-1.0997490882873535,3.051721334457397,29.77000189071253,30.48623087161842,120.23859074803696,109.29380530395156,-0.0030110836960375,0.1043562516570091,0,0,0
9945,381375.91188939766,2011-01-07 20:34:59,2427.382148330454,7,39,-1.0997490882873535,2.906186103820801,29.77000189071253,30.495399127451677,120.23859074803696,109.321167146274,-0.0046623228117823,0.1043562516570091,0,0,0
9946,381404.3645790249,2011-01-07 20:35:27,2455.834837967704,7,39,-1.099568486213684,2.7060954570770264,29.77000189071253,30.50409013644528,120.23859074803696,109.34559214034276,-0.0061516286805272,0.1043562516570091,0,0,0
9947,381405.1614071307,2011-01-07 20:35:28,2456.631666043447,7,39,-1.0997490882873535,2.699943780899048,29.77000189071253,30.504333529948507,120.23859074803696,109.34625004713848,-0.0061840056441724,0.1043562516570091,0,0,0
9948,381465.1656494471,2011-01-07 20:36:28,60.01462482109257,8,39,0.0,3.5459585189819336,29.77000189071253,30.504333529948507,120.23859074803696,109.34625004713848,0.0012950897216796,0.1043562516570091,0,0,0
9949,381465.3593018997,2011-01-07 20:36:29,0.187420820352263,9,39,0.0007031940040178,3.546606063842773,29.770001927321747,30.504333529948507,120.23859087787544,109.34625004713848,0.0,0.10130325704813,0,0,0
9950,381470.1874456695,2011-01-07 20:36:34,5.015564615271908,9,39,0.0007031940040178,3.554052829742432,29.77000277691205,30.504333530032604,120.23859389450776,109.34625004743695,0.0011332035064697,0.10130325704813,0,0,0
