Data_Point,Test_Time(s),Date_Time,Step_Time(s),Step_Index,Cycle_Index,Current(A),Voltage(V),Charge_Capacity(Ah),Discharge_Capacity(Ah),Charge_Energy(Wh),Discharge_Energy(Wh),dV/dt(V/s),Internal_Resistance(Ohm),Is_FC_Data,AC_Impedance(Ohm),ACI_Phase_Angle(Deg)
422,14949.953417733874,2011-01-03 14:47:08,30.015258700144976,1,3,0.0,3.4564356803894043,0.925134268539239,1.754010736612871,3.713387634069179,6.386139534010246,0.0009065627818927,0.0954576581716537,0,0,0
423,14979.968697556664,2011-01-03 14:47:38,60.03053853797156,1,3,0.0,3.4852514266967773,0.925134268539239,1.754010736612871,3.713387634069179,6.386139534010246,0.0006799221155233,0.0954576581716537,0,0,0
424,15009.984033855208,2011-01-03 14:48:08,90.04587491170301,1,3,0.0,3.506620407104492,0.925134268539239,1.754010736612871,3.713387634069179,6.386139534010246,0.0004532813909463,0.0954576581716537,0,0,0
425,15039.952389739105,2011-01-03 14:48:38,120.0142307053734,1,3,0.0,3.523941993713379,0.925134268539239,1.754010736612871,3.713387634069179,6.386139534010246,0.0004532813909463,0.0954576581716537,0,0,0
426,15069.967471926368,2011-01-03 14:49:08,30.015156710956536,2,3,0.5499359965324402,3.663811445236206,0.929720809306599,1.754010736612871,3.730055735692825,6.386139534010246,0.0012950897216796,0.0954576581716537,0,0,0
427,15099.982855748354,2011-01-03 14:49:38,60.03054046276876,2,3,0.5499359965324402,3.7020163536071777,0.93430736419269,1.754010736612871,3.746953863595928,6.386139534010246,0.0008418083307333,0.0954576581716537,0,0,0
428,15129.99805207304,2011-01-03 14:50:08,90.04573676239242,2,3,0.5499359965324402,3.7285656929016113,0.938893898978889,1.754010736612871,3.763997277599124,6.386139534010246,0.0006151676061563,0.0954576581716537,0,0,0
429,15160.013420391388,2011-01-03 14:50:38,120.06110510078966,2,3,0.5501165986061096,3.7483158111572266,0.943480411982725,1.754010736612871,3.781145893366019,6.386139534010246,0.0004532813909463,0.0954576581716537,0,0,0
430,15190.028594179908,2011-01-03 14:51:08,150.07627886925877,2,3,0.5501165986061096,3.762723445892334,0.948066834781653,1.754010736612871,3.798372301816563,6.386139534010246,0.0003237724304199,0.0954576581716537,0,0,0
431,15220.044248250437,2011-01-03 14:51:38,180.09193294981338,2,3,0.5501165986061096,3.7719509601593018,0.952653387283838,1.754010736612871,3.815652985829828,6.386139534010246,0.0001618862152099,0.0954576581716537,0,0,0
432,15250.061531616671,2011-01-03 14:52:08,210.10921632106167,2,3,0.5499359965324402,3.77826452255249,0.95723940872633,1.754010736612871,3.832966676691159,6.386139534010246,0.0001295089750783,0.0954576581716537,0,0,0
433,15280.074421959142,2011-01-03 14:52:38,240.1221066785681,2,3,0.5497553944587708,3.783282995223999,0.96182468801138,1.754010736612871,3.850303635483996,6.386139534010246,6.47544875391759e-05,0.0954576581716537,0,0,0
434,15310.089728247893,2011-01-03 14:53:08,270.13741294726856,2,3,0.5501165986061096,3.7884633541107178,0.966411097003297,1.754010736612871,3.8676675121967,6.386139534010246,0.0001942634553415,0.0954576581716537,0,0,0
435,15340.105033383768,2011-01-03 14:53:38,300.1527180981832,2,3,0.5501165986061096,3.7926723957061768,0.970997586291968,1.754010736612871,3.885052445003137,6.386139534010246,0.0001295089750783,0.0954576581716537,0,0,0
436,15370.12031978796,2011-01-03 14:54:08,330.16800458257507,2,3,0.5501165986061096,3.796881437301636,0.97558407231829,1.754010736612871,3.90245713207695,6.386139534010246,0.0001295089750783,0.0954576581716537,0,0,0
437,15400.135572232515,2011-01-03 14:54:38,360.1832569318918,2,3,0.5501165986061096,3.800766706466675,0.980170557303681,1.754010736612871,3.919880812238407,6.386139534010246,6.47544875391759e-05,0.0954576581716537,0,0,0
438,15430.150851328492,2011-01-03 14:55:08,390.19853602285696,2,3,0.5501165986061096,3.804975748062134,0.98475708086393,1.754010736612871,3.937322816820704,6.386139534010246,0.0001295089750783,0.0954576581716537,0,0,0
439,15460.166282759135,2011-01-03 14:55:38,420.213967478562,2,3,0.5501165986061096,3.808537244796753,0.989343632893702,1.754010736612871,3.954782745162471,6.386139534010246,6.47544875391759e-05,0.0954576581716537,0,0,0
440,15490.181424963936,2011-01-03 14:56:08,450.2291096583023,2,3,0.5501165986061096,3.812584400177002,0.993930078332319,1.754010736612871,3.972259561985804,6.386139534010246,0.0001295089750783,0.0954576581716537,0,0,0
441,15520.196700902045,2011-01-03 14:56:38,480.2443855964094,2,3,0.5501165986061096,3.816307783126831,0.998516574099695,1.754010736612871,3.989754020643326,6.386139534010246,9.713172767078504e-05,0.0954576581716537,0,0,0
442,15550.211997697132,2011-01-03 14:57:08,510.2596824165613,2,3,0.5501165986061096,3.82003116607666,1.003103106160817,1.754010736612871,4.007265637891065,6.386139534010246,0.0001295089750783,0.0954576581716537,0,0,0
443,15580.22726663279,2011-01-03 14:57:38,540.2749513271539,2,3,0.5501165986061096,3.823754549026489,1.00768953102997,1.754010736612871,4.024793860533253,6.386139534010246,9.713172767078504e-05,0.0954576581716537,0,0,0
444,15610.244483733872,2011-01-03 14:58:08,570.2921684583115,2,3,0.5499359965324402,3.827316045761109,1.012276360047638,1.754010736612871,4.042340738890455,6.386139534010246,6.47544875391759e-05,0.0954576581716537,0,0,0
445,15640.257899686325,2011-01-03 14:58:38,600.3055843856997,2,3,0.5501165986061096,3.831201314926148,1.016862603966998,1.754010736612871,4.059902688415073,6.386139534010246,6.47544875391759e-05,0.0954576581716537,0,0,0
446,15670.273114868003,2011-01-03 14:59:08,630.3207995673833,2,3,0.5501165986061096,3.835086345672608,1.021449100231112,1.754010736612871,4.077483109052981,6.386139534010246,0.0001295089750783,0.0954576581716537,0,0,0
447,15700.288407176917,2011-01-03 14:59:38,660.3360918712792,2,3,0.5499359965324402,3.8386478424072266,1.026035592071154,1.754010736612871,4.095081251980149,6.386139534010246,6.47544875391759e-05,0.0954576581716537,0,0,0
448,15730.303723355311,2011-01-03 15:00:08,690.3514080546901,2,3,0.5501165986061096,3.842694997787476,1.030622017006402,1.754010736612871,4.112696741418908,6.386139534010246,9.713172767078504e-05,0.0954576581716537,0,0,0
449,15760.319109533171,2011-01-03 15:00:38,720.3667942726488,2,3,0.5501165986061096,3.846580266952514,1.035208533071808,1.754010736612871,4.130330026215558,6.386139534010246,9.713172767078504e-05,0.0954576581716537,0,0,0
450,15790.334242429775,2011-01-03 15:01:08,750.3819271241404,2,3,0.550297200679779,3.850303649902344,1.039794999319641,1.754010736612871,4.147980535501617,6.386139534010246,9.713172767078504e-05,0.0954576581716537,0,0,0
451,15820.349551224772,2011-01-03 15:01:38,780.3972359492119,2,3,0.5499359965324402,3.854027032852173,1.044381512294723,1.754010736612871,4.165648362920012,6.386139534010246,9.713172767078504e-05,0.0954576581716537,0,0,0
452,15850.36481529831,2011-01-03 15:02:08,810.4125000026991,2,3,0.5501165986061096,3.857588529586792,1.048967967813636,1.754010736612871,4.183332824809715,6.386139534010246,6.47544875391759e-05,0.0954576581716537,0,0,0
453,15880.38036108396,2011-01-03 15:02:38,840.428045793362,2,3,0.5499359965324402,3.860988140106201,1.053554559003559,1.754010736612871,4.201034184851671,6.386139534010246,9.713172767078504e-05,0.0954576581716537,0,0,0
454,15910.395371901306,2011-01-03 15:03:08,870.4430566056942,2,3,0.5499359965324402,3.8643877506256095,1.05814110076448,1.754010736612871,4.218751285137173,6.386139534010246,6.47544875391759e-05,0.0954576581716537,0,0,0
455,15940.410779136644,2011-01-03 15:03:38,900.458463846047,2,3,0.5501165986061096,3.86778736114502,1.062727615580798,1.754010736612871,4.23648364513779,6.386139534010246,6.47544875391759e-05,0.0954576581716537,0,0,0
456,15970.426171269344,2011-01-03 15:04:08,930.4738559937844,2,3,0.5501165986061096,3.8710250854492183,1.067314170265364,1.754010736612871,4.254231034952948,6.386139534010246,9.713172767078504e-05,0.0954576581716537,0,0,0
457,16000.441609156078,2011-01-03 15:04:38,960.4892938704926,2,3,0.5501165986061096,3.874100923538208,1.071900676810359,1.754010736612871,4.271992412399465,6.386139534010246,9.713172767078504e-05,0.0954576581716537,0,0,0
458,16030.456500465572,2011-01-03 15:05:08,990.504185169962,2,3,0.550297200679779,3.8770148754119873,1.076487103061141,1.754010736612871,4.289766968733781,6.386139534010246,9.713172767078504e-05,0.0954576581716537,0,0,0
459,16060.471781215674,2011-01-03 15:05:38,1020.5194659200624,2,3,0.5501165986061096,3.8797669410705566,1.081073642096833,1.754010736612871,4.307554826727465,6.386139534010246,9.713172767078504e-05,0.0954576581716537,0,0,0
460,16090.487078862883,2011-01-03 15:06:08,1050.5347635672754,2,3,0.5501165986061096,3.882195234298706,1.085660149825359,1.754010736612871,4.325354744277442,6.386139534010246,6.47544875391759e-05,0.0954576581716537,0,0,0
461,16120.50233895149,2011-01-03 15:06:38,1080.5500236408434,2,3,0.5501165986061096,3.884623527526856,1.090246622666402,1.754010736612871,4.343166061894243,6.386139534010246,6.47544875391759e-05,0.0954576581716537,0,0,0
462,16150.51757628338,2011-01-03 15:07:08,1110.565261002807,2,3,0.5499359965324402,3.886889934539795,1.094833118749251,1.754010736612871,4.360988460641218,6.386139534010246,6.47544875391759e-05,0.0954576581716537,0,0,0
463,16180.532888542008,2011-01-03 15:07:38,1140.5805732564238,2,3,0.550297200679779,3.8891563415527344,1.099419715146336,1.754010736612871,4.378821752762971,6.386139534010246,3.237724376958795e-05,0.0954576581716537,0,0,0
464,16210.550130189267,2011-01-03 15:08:08,1170.5978148886456,2,3,0.550297200679779,3.891584634780884,1.104006636741707,1.754010736612871,4.396666363688436,6.386139534010246,9.713172767078504e-05,0.0954576581716537,0,0,0
465,16240.563642211157,2011-01-03 15:08:38,1200.6113269305808,2,3,0.5501165986061096,3.8935272693634033,1.108592902776768,1.754010736612871,4.414518127203165,6.386139534010246,9.713172767078504e-05,0.0954576581716537,0,0,0
466,16270.5787716341,2011-01-03 15:09:08,1230.626456333477,2,3,0.5501165986061096,3.895308017730713,1.113179476953118,1.754010736612871,4.43238024084093,6.386139534010246,6.47544875391759e-05,0.0954576581716537,0,0,0
467,16300.594178734103,2011-01-03 15:09:38,1260.6418634535305,2,3,0.5501165986061096,3.8974125385284415,1.11776601397373,1.754010736612871,4.450251160855745,6.386139534010246,9.713172767078504e-05,0.0954576581716537,0,0,0
468,16330.611726138404,2011-01-03 15:10:08,1290.6594109280052,2,3,0.5499359965324402,3.899355173110962,1.122352847402994,1.754010736612871,4.468132168650114,6.386139534010246,6.47544875391759e-05,0.0954576581716537,0,0,0
469,16360.624761577496,2011-01-03 15:10:38,1320.6724462969248,2,3,0.550297200679779,3.901135921478272,1.126939012759713,1.754010736612871,4.486019395463455,6.386139534010246,3.237724376958795e-05,0.0954576581716537,0,0,0
470,16390.639935175543,2011-01-03 15:11:08,1350.6876198749192,2,3,0.550297200679779,3.903078556060791,1.131525495959429,1.754010736612871,4.503916503778632,6.386139534010246,6.47544875391759e-05,0.0954576581716537,0,0,0
471,16420.655186913333,2011-01-03 15:11:38,1380.7028716277491,2,3,0.5499359965324402,3.9048593044281006,1.136111940365272,1.754010736612871,4.521822055184106,6.386139534010246,6.47544875391759e-05,0.0954576581716537,0,0,0
472,16450.672911373913,2011-01-03 15:12:08,1410.7205960783028,2,3,0.5499359965324402,3.90664005279541,1.140698786249423,1.754010736612871,4.539737542006965,6.386139534010246,0.0,0.0954576581716537,0,0,0
473,16480.685761546265,2011-01-03 15:12:38,1440.7334462506556,2,3,0.5501165986061096,3.9085826873779297,1.145284875503099,1.754010736612871,4.557658557365488,6.386139534010246,6.47544875391759e-05,0.0954576581716537,0,0,0
474,16510.70104898303,2011-01-03 15:13:08,1470.748733697446,2,3,0.5501165986061096,3.9103634357452393,1.149871309688752,1.754010736612871,4.575589308977405,6.386139534010246,3.237724376958795e-05,0.0954576581716537,0,0,0
475,16540.716321753243,2011-01-03 15:13:38,1500.764006447608,2,3,0.5499359965324402,3.912144184112549,1.154457854062937,1.754010736612871,4.593528744599642,6.386139534010246,0.0,0.0954576581716537,0,0,0
476,16570.731630277565,2011-01-03 15:14:08,1530.77931497193,2,3,0.5499359965324402,3.9139246940612793,1.159044425205888,1.754010736612871,4.611476563099995,6.386139534010246,3.237724376958795e-05,0.0954576581716537,0,0,0
477,16600.746907584085,2011-01-03 15:14:38,1560.7945922834604,2,3,0.5501165986061096,3.915705442428589,1.163630884448003,1.754010736612871,4.629432130671722,6.386139534010246,3.237724376958795e-05,0.0954576581716537,0,0,0
478,16630.762180534744,2011-01-03 15:15:08,1590.8098652240967,2,3,0.5499359965324402,3.917648077011109,1.168217341970336,1.754010736612871,4.647395776983869,6.386139534010246,6.47544875391759e-05,0.0954576581716537,0,0,0
479,16660.77745642273,2011-01-03 15:15:38,1620.8251411170918,2,3,0.5501165986061096,3.919428825378418,1.172803842738445,1.754010736612871,4.665367775378018,6.386139534010246,6.47544875391759e-05,0.0954576581716537,0,0,0
480,16690.792883542625,2011-01-03 15:16:09,1650.8405682670657,2,3,0.5499359965324402,3.921209573745728,1.177390397318041,1.754010736612871,4.683348129863473,6.386139534010246,6.47544875391759e-05,0.0954576581716537,0,0,0
481,16720.808045140762,2011-01-03 15:16:39,1680.8557298351277,2,3,0.550297200679779,3.922828435897827,1.181976869677082,1.754010736612871,4.701336323596123,6.386139534010246,3.237724376958795e-05,0.0954576581716537,0,0,0
482,16750.823442691966,2011-01-03 15:17:09,1710.8711274113946,2,3,0.550297200679779,3.9246091842651367,1.186563431757106,1.754010736612871,4.719333019532615,6.386139534010246,3.237724376958795e-05,0.0954576581716537,0,0,0
483,16780.838615553173,2011-01-03 15:17:39,1740.8863002575647,2,3,0.5501165986061096,3.9263899326324463,1.191149918763311,1.754010736612871,4.737337502447664,6.386139534010246,6.47544875391759e-05,0.0954576581716537,0,0,0
484,16810.85586718532,2011-01-03 15:18:09,1770.9035519097597,2,3,0.5499359965324402,3.928170680999756,1.195736756482251,1.754010736612871,4.755351485938112,6.386139534010246,3.237724376958795e-05,0.0954576581716537,0,0,0
485,16840.869168306577,2011-01-03 15:18:39,1800.9168530009408,2,3,0.5499359965324402,3.929789543151856,1.200322940131519,1.754010736612871,4.77337099545198,6.386139534010246,3.237724376958795e-05,0.0954576581716537,0,0,0
486,16870.884516895752,2011-01-03 15:19:09,1830.9322016803417,2,3,0.550297200679779,3.931732177734375,1.20490951228421,1.754010736612871,4.791400149467378,6.386139534010246,6.47544875391759e-05,0.0954576581716537,0,0,0
487,16900.899731596237,2011-01-03 15:19:39,1860.9474162906013,2,3,0.5501165986061096,3.933512926101685,1.209495986188405,1.754010736612871,4.809436954318127,6.386139534010246,6.47544875391759e-05,0.0954576581716537,0,0,0
488,16930.915030962737,2011-01-03 15:20:09,1890.962715667124,2,3,0.5501165986061096,3.935455560684204,1.214082500724911,1.754010736612871,4.827482019066062,6.386139534010246,9.713172767078504e-05,0.0954576581716537,0,0,0
489,16960.93055345533,2011-01-03 15:20:39,1920.978238179771,2,3,0.550297200679779,3.937074422836304,1.218669141725622,1.754010736612871,4.845535606789449,6.386139534010246,6.47544875391759e-05,0.0954576581716537,0,0,0
490,16990.94529807924,2011-01-03 15:21:09,1950.992982773605,2,3,0.5501165986061096,3.938855171203613,1.223253304246913,1.754010736612871,4.863587583115159,6.386139534010246,9.713172767078504e-05,0.0954576581716537,0,0,0
491,17020.961020735707,2011-01-03 15:21:39,1981.0087054551343,2,3,0.5501165986061096,3.940635919570923,1.227842182288581,1.754010736612871,4.88166620707764,6.386139534010246,6.47544875391759e-05,0.0954576581716537,0,0,0
492,17050.97616734148,2011-01-03 15:22:09,2011.023852040856,2,3,0.550297200679779,3.942416667938232,1.232428691472066,1.754010736612871,4.899743668740492,6.386139534010246,6.47544875391759e-05,0.0954576581716537,0,0,0
493,17080.991564371383,2011-01-03 15:22:39,2041.0392491058485,2,3,0.5501165986061096,3.944197416305542,1.237015232344007,1.754010736612871,4.917829392910847,6.386139534010246,6.47544875391759e-05,0.0954576581716537,0,0,0
494,17111.00674307716,2011-01-03 15:23:09,2071.0544277765352,2,3,0.550297200679779,3.945978164672852,1.241601785372114,1.754010736612871,4.935923331262349,6.386139534010246,6.47544875391759e-05,0.0954576581716537,0,0,0
495,17141.022144297505,2011-01-03 15:23:39,2101.069829021947,2,3,0.5501165986061096,3.947597026824951,1.246188346049432,1.754010736612871,4.954025374932009,6.386139534010246,3.237724376958795e-05,0.0954576581716537,0,0,0
496,17171.039705466115,2011-01-03 15:24:09,2131.0873901755144,2,3,0.5501165986061096,3.9493777751922607,1.250775170166627,1.754010736612871,4.972136636619023,6.386139534010246,6.47544875391759e-05,0.0954576581716537,0,0,0
497,17201.0527190357,2011-01-03 15:24:39,2161.1004037551284,2,3,0.550297200679779,3.95132040977478,1.255361343444782,1.754010736612871,4.990253573620016,6.386139534010246,6.47544875391759e-05,0.0954576581716537,0,0,0
498,17231.06788962625,2011-01-03 15:25:09,2191.1155743456766,2,3,0.5501165986061096,3.95310115814209,1.25994786662934,1.754010736612871,5.008380092439745,6.386139534010246,9.713172767078504e-05,0.0954576581716537,0,0,0
499,17261.08327856599,2011-01-03 15:25:39,2221.130963300456,2,3,0.5501165986061096,3.95504379272461,1.264534406982713,1.754010736612871,5.026515065922918,6.386139534010246,3.237724376958795e-05,0.0954576581716537,0,0,0
500,17291.098462690272,2011-01-03 15:26:09,2251.146147389648,2,3,0.5501165986061096,3.956824541091919,1.269120933135536,1.754010736612871,5.044658528635846,6.386139534010246,6.47544875391759e-05,0.0954576581716537,0,0,0
501,17321.113720122255,2011-01-03 15:26:39,2281.1614048216325,2,3,0.5501165986061096,3.958605289459229,1.273707441075892,1.754010736612871,5.062810341936425,6.386139534010246,6.47544875391759e-05,0.0954576581716537,0,0,0
502,17351.129133527975,2011-01-03 15:27:09,2311.1768182323635,2,3,0.5499359965324402,3.960547924041748,1.278293887237901,1.754010736612871,5.080970621290022,6.386139534010246,3.237724376958795e-05,0.0954576581716537,0,0,0
503,17381.144277421987,2011-01-03 15:27:39,2341.1919621163515,2,3,0.5501165986061096,3.962490558624268,1.282880329766975,1.754010736612871,5.099139704935448,6.386139534010246,9.713172767078504e-05,0.0954576581716537,0,0,0
504,17411.16149388147,2011-01-03 15:28:09,2371.209178590873,2,3,0.5501165986061096,3.964595079421997,1.287467100204122,1.754010736612871,5.117318935928219,6.386139534010246,9.713172767078504e-05,0.0954576581716537,0,0,0
505,17441.17487345826,2011-01-03 15:28:39,2401.2225581776893,2,3,0.5499359965324402,3.966375827789306,1.292053306511058,1.754010736612871,5.13550491912437,6.386139534010246,6.47544875391759e-05,0.0954576581716537,0,0,0
506,17471.190107897943,2011-01-03 15:29:09,2431.237792592307,2,3,0.5499359965324402,3.968318462371826,1.296639829587336,1.754010736612871,5.153701209337295,6.386139534010246,3.237724376958795e-05,0.0954576581716537,0,0,0
507,17501.205848188358,2011-01-03 15:29:39,2461.253532972948,2,3,0.5501165986061096,3.970422983169556,1.301226318366175,1.754010736612871,5.171906525618846,6.386139534010246,6.47544875391759e-05,0.0954576581716537,0,0,0
508,17531.220705117164,2011-01-03 15:30:09,2491.268389816543,2,3,0.550297200679779,3.972527503967285,1.305812640872089,1.754010736612871,5.190120467775616,6.386139534010246,9.713172767078504e-05,0.0954576581716537,0,0,0
509,17561.235907501956,2011-01-03 15:30:39,2521.28359219632,2,3,0.5501165986061096,3.9744701385498047,1.310399075136857,1.754010736612871,5.208344244819175,6.386139534010246,9.713172767078504e-05,0.0954576581716537,0,0,0
510,17591.25118327465,2011-01-03 15:31:09,2551.2988679940777,2,3,0.5501165986061096,3.976574659347534,1.314985481510499,1.754010736612871,5.226577439170892,6.386139534010246,6.47544875391759e-05,0.0954576581716537,0,0,0
511,17621.26643098741,2011-01-03 15:31:39,2581.314115691801,2,3,0.5501165986061096,3.978679180145264,1.319572489623232,1.754010736612871,5.244822405065168,6.386139534010246,9.713172767078504e-05,0.0954576581716537,0,0,0
512,17651.281909771074,2011-01-03 15:32:09,2611.329594465437,2,3,0.550297200679779,3.980945587158203,1.32415953809591,1.754010736612871,5.263077603556718,6.386139534010246,9.713172767078504e-05,0.0954576581716537,0,0,0
513,17681.297078782685,2011-01-03 15:32:39,2641.3447634770505,2,3,0.5501165986061096,3.9830501079559326,1.328746586668494,1.754010736612871,5.281342735823577,6.386139534010246,6.47544875391759e-05,0.0954576581716537,0,0,0
514,17711.312439762743,2011-01-03 15:33:09,2671.36012468267,2,3,0.5501165986061096,3.985316514968872,1.333333641098836,1.754010736612871,5.299617800707603,6.386139534010246,9.713172767078504e-05,0.0954576581716537,0,0,0
515,17741.327456264255,2011-01-03 15:33:39,2701.3751409836827,2,3,0.5501165986061096,3.987582921981812,1.337919973546689,1.754010736612871,5.317900006353291,6.386139534010246,0.0001295089750783,0.0954576581716537,0,0,0
516,17771.342709220084,2011-01-03 15:34:09,2731.390393939511,2,3,0.5501165986061096,3.989525556564331,1.342506202704659,1.754010736612871,5.336191896860425,6.386139534010246,3.237724376958795e-05,0.0954576581716537,0,0,0
517,17801.358190239316,2011-01-03 15:34:39,2761.405874973781,2,3,0.5499359965324402,3.9917919635772714,1.347092428104643,1.754010736612871,5.354493999078619,6.386139534010246,3.237724376958795e-05,0.0954576581716537,0,0,0
518,17831.373147813963,2011-01-03 15:35:09,2791.420832508328,2,3,0.5501165986061096,3.994058132171631,1.351678606185684,1.754010736612871,5.372806338459587,6.386139534010246,6.470680091297254e-05,0.0954576581716537,0,0,0
519,17861.388440082774,2011-01-03 15:35:39,2821.436124802199,2,3,0.5499359965324402,3.9963245391845694,1.356264741860537,1.754010736612871,5.391129050732411,6.386139534010246,6.47544875391759e-05,0.0954576581716537,0,0,0
520,17891.40391126248,2011-01-03 15:36:09,2851.4515959869213,2,3,0.5501165986061096,3.9985909461975098,1.360850979521069,1.754010736612871,5.409462868261059,6.386139534010246,3.237724376958795e-05,0.0954576581716537,0,0,0
521,17921.419149251007,2011-01-03 15:36:39,2881.4668339654218,2,3,0.5501165986061096,4.001019477844238,1.365437122403091,1.754010736612871,5.42780702629451,6.386139534010246,9.71794142969884e-05,0.0954576581716537,0,0,0
522,17951.434191807457,2011-01-03 15:37:09,2911.48187650182,2,3,0.5499359965324402,4.003447532653809,1.370023236762528,1.754010736612871,5.446161998302288,6.386139534010246,3.23295607813634e-05,0.0954576581716537,0,0,0
523,17981.449540171066,2011-01-03 15:37:39,2941.497224885484,2,3,0.5501165986061096,4.005876064300537,1.374609360499608,1.754010736612871,5.464527947632411,6.386139534010246,6.47544875391759e-05,0.0954576581716537,0,0,0
524,18011.466626882182,2011-01-03 15:38:09,2971.51431160662,2,3,0.5501165986061096,4.0084662437438965,1.379195803728209,1.754010736612871,5.48290633655114,6.386139534010246,9.71794142969884e-05,0.0954576581716537,0,0,0
525,18041.480004875026,2011-01-03 15:38:39,3001.5276895944507,2,3,0.5499359965324402,4.010894298553467,1.383781683544633,1.754010736612871,5.501293529759145,6.386139534010246,9.70840483205393e-05,0.0954576581716537,0,0,0
526,18071.495133701486,2011-01-03 15:39:09,3031.5428184309358,2,3,0.550297200679779,4.013160705566406,1.38836781178701,1.754010736612871,5.519693022860745,6.386139534010246,6.47544875391759e-05,0.0954576581716537,0,0,0
527,18101.510471649137,2011-01-03 15:39:39,3061.5581563685646,2,3,0.5499359965324402,4.015913009643555,1.3929539637647,1.754010736612871,5.538104073881579,6.386139534010246,9.71794142969884e-05,0.0954576581716537,0,0,0
528,18131.52557045578,2011-01-03 15:40:09,3091.573255150144,2,3,0.5499359965324402,4.018341064453125,1.397540057683624,1.754010736612871,5.556526449842761,6.386139534010246,9.70840483205393e-05,0.0954576581716537,0,0,0
529,18161.54078372269,2011-01-03 15:40:39,3121.588468432092,2,3,0.5501165986061096,4.0207695960998535,1.402126225781964,1.754010736612871,5.574960666009496,6.386139534010246,6.47544875391759e-05,0.0954576581716537,0,0,0
530,18191.55601394185,2011-01-03 15:41:09,3151.603698641229,2,3,0.5499359965324402,4.023359775543213,1.40671232254847,1.754010736612871,5.59340634123244,6.386139534010246,6.47544875391759e-05,0.0954576581716537,0,0,0
531,18221.571230958107,2011-01-03 15:41:39,3181.6189156624973,2,3,0.5501165986061096,4.025949954986572,1.411298417733224,1.754010736612871,5.611863837168526,6.386139534010246,9.71794142969884e-05,0.0954576581716537,0,0,0
532,18251.589015002188,2011-01-03 15:42:09,3211.6366997316386,2,3,0.5499359965324402,4.0287017822265625,1.415884942587792,1.754010736612871,5.630335128958621,6.386139534010246,6.47544875391759e-05,0.0954576581716537,0,0,0
533,18281.60175228318,2011-01-03 15:42:39,3241.649437007619,2,3,0.5501165986061096,4.031291961669922,1.420470698801923,1.754010736612871,5.648815369642529,6.386139534010246,9.70840483205393e-05,0.0954576581716537,0,0,0
534,18311.617037369087,2011-01-03 15:43:09,3271.664722098538,2,3,0.5501165986061096,4.033882141113281,1.425056845764638,1.754010736612871,5.667309381025319,6.386139534010246,3.23295607813634e-05,0.0954576581716537,0,0,0
535,18341.6321227222,2011-01-03 15:43:39,3301.6798074466365,2,3,0.5499359965324402,4.036633968353272,1.429642977452157,1.754010736612871,5.685815627065995,6.386139534010246,6.47544875391759e-05,0.0954576581716537,0,0,0
536,18371.649221578577,2011-01-03 15:44:09,3331.696906303017,2,3,0.5499359965324402,4.039224147796631,1.434229402964796,1.754010736612871,5.704335468716828,6.386139534010246,0.0,0.0954576581716537,0,0,0
537,18401.662553611877,2011-01-03 15:44:39,3361.7102383313027,2,3,0.5501165986061096,4.04213809967041,1.438815243942845,1.754010736612871,5.722865358325465,6.386139534010246,9.70840483205393e-05,0.0954576581716537,0,0,0
538,18431.67791786008,2011-01-03 15:45:09,3391.725602579505,2,3,0.5501165986061096,4.044890403747559,1.443401366293127,1.754010736612871,5.741409065632073,6.386139534010246,9.71794142969884e-05,0.0954576581716537,0,0,0
539,18461.692979589312,2011-01-03 15:45:39,3421.740664288689,2,3,0.5499359965324402,4.047480583190918,1.447987473562542,1.754010736612871,5.759965485455431,6.386139534010246,6.47544875391759e-05,0.0954576581716537,0,0,0
540,18491.70821591369,2011-01-03 15:46:09,3451.755900633116,2,3,0.5501165986061096,4.050556182861328,1.452573593111874,1.754010736612871,5.778534847176613,6.386139534010246,9.70840483205393e-05,0.0954576581716537,0,0,0
541,18521.72353876372,2011-01-03 15:46:39,3481.771223473117,2,3,0.5501165986061096,4.053470134735107,1.457159678093635,1.754010736612871,5.797117080156006,6.386139534010246,0.0001295089750783,0.0954576581716537,0,0,0
542,18551.738650417377,2011-01-03 15:47:09,3511.7863351217648,2,3,0.5499359965324402,4.056060314178467,1.461745807952223,1.754010736612871,5.815712730007326,6.386139534010246,6.47544875391759e-05,0.0954576581716537,0,0,0
543,18581.75382543897,2011-01-03 15:47:39,3541.801510158395,2,3,0.5501165986061096,4.059136390686035,1.466331880419392,1.754010736612871,5.834321370160079,6.386139534010246,9.71794142969884e-05,0.0954576581716537,0,0,0
544,18611.77106316646,2011-01-03 15:48:10,3571.818747885885,2,3,0.5499359965324402,4.061888217926025,1.470918233221043,1.754010736612871,5.852944268506863,6.386139534010246,6.47544875391759e-05,0.0954576581716537,0,0,0
545,18641.7844346982,2011-01-03 15:48:40,3601.8321193975758,2,3,0.5501165986061096,4.064964294433594,1.475503975250671,1.754010736612871,5.871578101453201,6.386139534010246,9.71794142969884e-05,0.0954576581716537,0,0,0
546,18671.79946475349,2011-01-03 15:49:10,3631.8471494679047,2,3,0.5497553944587708,4.067716121673584,1.480089993394685,1.754010736612871,5.890226678953561,6.386139534010246,3.23295607813634e-05,0.0954576581716537,0,0,0
547,18701.814717022604,2011-01-03 15:49:40,3661.862401747047,2,3,0.5501165986061096,4.070953845977783,1.48467605294157,1.754010736612871,5.908889204018489,6.386139534010246,6.47544875391759e-05,0.0954576581716537,0,0,0
548,18731.829897016592,2011-01-03 15:50:10,3691.877581715969,2,3,0.5497553944587708,4.073706150054932,1.489262132186136,1.754010736612871,5.92756558101898,6.386139534010246,3.24249267578125e-05,0.0954576581716537,0,0,0
549,18761.84507945667,2011-01-03 15:50:40,3721.892764171088,2,3,0.5499359965324402,4.076943874359131,1.493848235169211,1.754010736612871,5.946256065465065,6.386139534010246,9.71794142969884e-05,0.0954576581716537,0,0,0
550,18791.860286352705,2011-01-03 15:51:10,3751.907971052084,2,3,0.5501165986061096,4.080019474029541,1.49843430594806,1.754010736612871,5.964960561283839,6.386139534010246,9.70840483205393e-05,0.0954576581716537,0,0,0
551,18821.87561152853,2011-01-03 15:51:40,3781.923296242944,2,3,0.5499359965324402,4.083095550537109,1.503020405671055,1.754010736612871,5.983679316646889,6.386139534010246,6.47544875391759e-05,0.0954576581716537,0,0,0
552,18851.890919962625,2011-01-03 15:52:10,3811.938604662004,2,3,0.5501165986061096,4.08649492263794,1.507606471097218,1.754010736612871,6.002412273720314,6.386139534010246,0.0001295089750783,0.0954576581716537,0,0,0
553,18881.90603091454,2011-01-03 15:52:40,3841.953715638977,2,3,0.5501165986061096,4.089570999145508,1.51219246888081,1.754010736612871,6.021159440723108,6.386139534010246,9.71794142969884e-05,0.0954576581716537,0,0,0
554,18911.92112016236,2011-01-03 15:53:10,3871.968804891808,2,3,0.5501165986061096,4.092808723449707,1.516778528616375,1.754010736612871,6.039921405693778,6.386139534010246,9.71794142969884e-05,0.0954576581716537,0,0,0
555,18941.936309203888,2011-01-03 15:53:40,3901.983993903267,2,3,0.5501165986061096,4.095884323120117,1.521364569497329,1.754010736612871,6.058697945020151,6.386139534010246,6.47544875391759e-05,0.0954576581716537,0,0,0
556,18971.951642885917,2011-01-03 15:54:10,3931.999327600327,2,3,0.5499359965324402,4.099122047424316,1.525950629938415,1.754010736612871,6.077489406145964,6.386139534010246,9.70840483205393e-05,0.0954576581716537,0,0,0
557,19001.966705362007,2011-01-03 15:54:40,3962.014390066397,2,3,0.5501165986061096,4.102359771728516,1.530536673873177,1.754010736612871,6.096295753771982,6.386139534010246,9.70840483205393e-05,0.0954576581716537,0,0,0
558,19031.98204224701,2011-01-03 15:55:10,3992.0297269564144,2,3,0.5499359965324402,4.105597496032715,1.53512275847706,1.754010736612871,6.115117337672222,6.386139534010246,6.47544875391759e-05,0.0954576581716537,0,0,0
559,19061.99710978071,2011-01-03 15:55:40,4022.0447944851016,2,3,0.5499359965324402,4.108997344970703,1.539708833845363,1.754010736612871,6.13395408037626,6.386139534010246,9.71794142969884e-05,0.0954576581716537,0,0,0
560,19092.01469825237,2011-01-03 15:56:10,4052.0623830469785,2,3,0.5499359965324402,4.112396717071533,1.544295324420855,1.754010736612871,6.152807931466366,6.386139534010246,6.47544875391759e-05,0.0954576581716537,0,0,0
561,19122.027534740613,2011-01-03 15:56:40,4082.075219470063,2,3,0.5501165986061096,4.115796089172363,1.548881060490754,1.754010736612871,6.17167407692615,6.386139534010246,0.0001295089750783,0.0954576581716537,0,0,0
562,19152.042714529085,2011-01-03 15:57:10,4112.090399228461,2,3,0.5501165986061096,4.119357585906982,1.553467098098544,1.754010736612871,6.190557115587869,6.386139534010246,0.0001295089750783,0.0954576581716537,0,0,0
563,19182.057876703657,2011-01-03 15:57:40,4142.105561433111,2,3,0.5499359965324402,4.122757434844971,1.558053263422086,1.754010736612871,6.209456423679322,6.386139534010246,9.71794142969884e-05,0.0954576581716537,0,0,0
564,19212.07517355851,2011-01-03 15:58:10,4172.122858267914,2,3,0.5501165986061096,4.12599515914917,1.562639759792967,1.754010736612871,6.22837287494199,6.386139534010246,6.47544875391759e-05,0.0954576581716537,0,0,0
565,19242.08827284674,2011-01-03 15:58:40,4202.13595755614,2,3,0.5501165986061096,4.129556655883789,1.567225683359068,1.754010736612871,6.247302926010317,6.386139534010246,9.71794142969884e-05,0.0954576581716537,0,0,0
566,19272.10347501599,2011-01-03 15:59:10,4232.151159730404,2,3,0.5501165986061096,4.133118152618408,1.571811883947991,1.754010736612871,6.266250141353667,6.386139534010246,6.47544875391759e-05,0.0954576581716537,0,0,0
567,19302.118684438323,2011-01-03 15:59:40,4262.166369157748,2,3,0.5501165986061096,4.136679649353027,1.576398151669656,1.754010736612871,6.285213812194737,6.386139534010246,0.0001295089750783,0.0954576581716537,0,0,0
568,19332.13389844708,2011-01-03 16:00:10,4292.181583156483,2,3,0.5501165986061096,4.140079021453857,1.580984444246095,1.754010736612871,6.304193922142352,6.386139534010246,6.47544875391759e-05,0.0954576581716537,0,0,0
569,19362.149062125405,2011-01-03 16:00:40,4322.196746814754,2,3,0.5501165986061096,4.1439642906188965,1.585570693184592,1.754010736612871,6.323190296567669,6.386139534010246,0.0001295089750783,0.0954576581716537,0,0,0
570,19392.16426166811,2011-01-03 16:01:10,4352.211946362473,2,3,0.5501165986061096,4.147525787353516,1.59015688170657,1.754010736612871,6.342203229371083,6.386139534010246,0.0001295089750783,0.0954576581716537,0,0,0
571,19422.179643620435,2011-01-03 16:01:40,4382.227328339863,2,3,0.5499359965324402,4.151087284088135,1.594743127027595,1.754010736612871,6.36123299685906,6.386139534010246,9.70840483205393e-05,0.0954576581716537,0,0,0
572,19452.194658041764,2011-01-03 16:02:10,4412.242342731114,2,3,0.5499359965324402,4.154810905456543,1.599329239023703,1.754010736612871,6.380278891860964,6.386139534010246,6.47544875391759e-05,0.0954576581716537,0,0,0
573,19482.20985038151,2011-01-03 16:02:40,4442.257535100945,2,3,0.5499359965324402,4.158534049987793,1.60391533758354,1.754010736612871,6.399341567299071,6.386139534010246,9.70840483205393e-05,0.0954576581716537,0,0,0
574,19512.22517885556,2011-01-03 16:03:10,4472.272863585012,2,3,0.5501165986061096,4.162095546722412,1.608501543658734,1.754010736612871,6.418421605567961,6.386139534010246,9.70840483205393e-05,0.0954576581716537,0,0,0
575,19542.240252760137,2011-01-03 16:03:40,4502.287937504627,2,3,0.5497553944587708,4.165657043457031,1.613087738711016,1.754010736612871,6.437518639542048,6.386139534010246,6.47544875391759e-05,0.0954576581716537,0,0,0
576,19572.25543485436,2011-01-03 16:04:10,4532.303119558746,2,3,0.5501165986061096,4.169704437255859,1.617673877201555,1.754010736612871,6.456632600728136,6.386139534010246,9.71794142969884e-05,0.0954576581716537,0,0,0
577,19602.27074376464,2011-01-03 16:04:40,4562.318428453993,2,3,0.5501165986061096,4.173589706420898,1.6222600557616,1.754010736612871,6.475764037651555,6.386139534010246,0.0001619339018361,0.0954576581716537,0,0,0
578,19632.28581586472,2011-01-03 16:05:10,4592.333500584148,2,3,0.5501165986061096,4.177312850952148,1.626846292478681,1.754010736612871,6.494913085715152,6.386139534010246,0.0001295089750783,0.0954576581716537,0,0,0
579,19662.301095757684,2011-01-03 16:05:40,4622.348780557312,2,3,0.5499359965324402,4.180874347686768,1.6314325105901,1.754010736612871,6.514079485473874,6.386139534010246,6.47544875391759e-05,0.0954576581716537,0,0,0
580,19692.316214764676,2011-01-03 16:06:10,4652.3638994590365,2,3,0.5501165986061096,4.184759616851807,1.636018634895833,1.754010736612871,6.533263005449683,6.386139534010246,6.47544875391759e-05,0.0954576581716537,0,0,0
581,19722.33166091199,2011-01-03 16:06:40,4682.379345641444,2,3,0.5501165986061096,4.188644886016846,1.640604851708181,1.754010736612871,6.552464536616363,6.386139534010246,9.70840483205393e-05,0.0954576581716537,0,0,0
582,19752.346616476632,2011-01-03 16:07:10,4712.394301170995,2,3,0.5501165986061096,4.192692279815674,1.645191002316705,1.754010736612871,6.571683654159649,6.386139534010246,0.0001295089750783,0.0954576581716537,0,0,0
583,19782.361893943547,2011-01-03 16:07:40,4742.409578657964,2,3,0.5499359965324402,4.196415424346924,1.649777225160519,1.754010736612871,6.590920967391152,6.386139534010246,6.47544875391759e-05,0.0954576581716537,0,0,0
584,19808.11140575491,2011-01-03 16:08:06,4768.159090469323,2,3,0.550297200679779,4.200138568878174,1.653711643994076,1.754010736612871,6.607438616931754,6.386139534010246,0.0001295089750783,0.0954576581716537,0,0,0
585,19838.127443096928,2011-01-03 16:08:36,30.015178259662544,3,3,0.0,4.111749172210693,1.653711643994076,1.754010736612871,6.607438616931754,6.386139534010246,-0.0003885269106831,0.0954576581716537,0,0,0
586,19868.142872607787,2011-01-03 16:09:06,60.030607815632806,3,3,0.0,4.100903034210205,1.653711643994076,1.754010736612871,6.607438616931754,6.386139534010246,-0.0002265930233988,0.0954576581716537,0,0,0
587,19898.15781405725,2011-01-03 16:09:36,90.04554921997904,3,3,0.0,4.0945892333984375,1.653711643994076,1.754010736612871,6.607438616931754,6.386139534010246,-0.0001619339018361,0.0954576581716537,0,0,0
588,19928.126135846167,2011-01-03 16:10:06,120.0138710088991,3,3,0.0,4.090542316436768,1.653711643994076,1.754010736612871,6.607438616931754,6.386139534010246,-6.47544875391759e-05,0.0954576581716537,0,0,0
589,19928.126786718203,2011-01-03 16:10:06,2.636571147e-06,4,3,0.989719569683075,4.199814796447754,1.653711644718928,1.754010736612871,6.607438619975997,6.386139534010246,0.0,0.0954576581716537,0,0,0
590,19928.95486455296,2011-01-03 16:10:07,0.828080506415991,4,3,0.939149022102356,4.199814796447754,1.653931880017568,1.754010736612871,6.608363546821055,6.386139534010246,0.0,0.0954576581716537,0,0,0
591,19930.970473916685,2011-01-03 16:10:09,2.843689875150375,4,3,0.8891202211380005,4.199814796447754,1.654442530603154,1.754010736612871,6.610508137856211,6.386139534010246,0.0,0.0954576581716537,0,0,0
592,19934.03292933288,2011-01-03 16:10:12,5.906145261266541,4,3,0.8389108777046204,4.199653148651123,1.655176409074071,1.754010736612871,6.613590216127257,6.386139534010246,-3.23295607813634e-05,0.0954576581716537,0,0,0
593,19938.26722584765,2011-01-03 16:10:16,10.140441776041827,4,3,0.788520872592926,4.199653148651123,1.656132349716246,1.754010736612871,6.617604937720326,6.386139534010246,0.0,0.0954576581716537,0,0,0
594,19943.829646591657,2011-01-03 16:10:22,15.702862520049973,4,3,0.7384920716285706,4.199814796447754,1.657310587397672,1.754010736612871,6.622553228936496,6.386139534010246,0.0,0.0954576581716537,0,0,0
595,19951.09542200461,2011-01-03 16:10:29,22.968637963077207,4,3,0.6884633302688599,4.199814796447754,1.658748384343804,1.754010736612871,6.628591617413171,6.386139534010246,0.0,0.0954576581716537,0,0,0
596,19960.829525234967,2011-01-03 16:10:39,32.702741183410964,4,3,0.6384345293045044,4.199814796447754,1.660538894649573,1.754010736612871,6.636111324356534,6.386139534010246,-3.24249267578125e-05,0.0954576581716537,0,0,0
597,19974.422981340183,2011-01-03 16:10:52,46.29619727860206,4,3,0.5884057879447937,4.199653148651123,1.662849689898066,1.754010736612871,6.645816081888792,6.386139534010246,0.0,0.0954576581716537,0,0,0
598,19995.610364292697,2011-01-03 16:11:14,67.48358034138931,4,3,0.5383769869804382,4.199653148651123,1.666154599094228,1.754010736612871,6.65969590001885,6.386139534010246,-3.23295607813634e-05,0.0954576581716537,0,0,0
599,20032.92209731693,2011-01-03 16:11:51,104.79531324531912,4,3,0.4883482456207275,4.199653148651123,1.671451457481261,1.754010736612871,6.681941369728719,6.386139534010246,0.0,0.0954576581716537,0,0,0
600,20101.81172601846,2011-01-03 16:13:00,173.6849419769271,4,3,0.4383194744586944,4.199976921081543,1.680279393140064,1.754010736612871,6.719016536091329,6.386139534010246,6.47544875391759e-05,0.0954576581716537,0,0,0
601,20202.71895780345,2011-01-03 16:14:41,274.5921737418643,4,3,0.3882907032966614,4.199814796447754,1.691840179131253,1.754010736612871,6.767569029893457,6.386139534010246,0.0,0.0954576581716537,0,0,0
602,20329.433402724248,2011-01-03 16:16:47,401.30661865264193,4,3,0.3382619321346283,4.199814796447754,1.704610685887726,1.754010736612871,6.821202070058044,6.386139534010246,0.0,0.0954576581716537,0,0,0
603,20481.68121589515,2011-01-03 16:19:20,553.5544318536198,4,3,0.2880525588989258,4.199814796447754,1.717839966900576,1.754010736612871,6.876761877046018,6.386139534010246,0.0,0.0954576581716537,0,0,0
604,20669.78793367485,2011-01-03 16:22:28,741.6611496232919,4,3,0.237843170762062,4.199653148651123,1.731560321079869,1.754010736612871,6.934384112752037,6.386139534010246,0.0,0.0954576581716537,0,0,0
605,20909.659218563345,2011-01-03 16:26:28,981.532434521808,4,3,0.187814399600029,4.199814796447754,1.745694993949798,1.754010736612871,6.993746366347883,6.386139534010246,0.0,0.0954576581716537,0,0,0
606,21234.76372563211,2011-01-03 16:31:53,1306.6369415905797,4,3,0.1377856284379959,4.199653148651123,1.76028534001899,1.754010736612871,7.055021923576738,6.386139534010246,-3.23295607813634e-05,0.0954576581716537,0,0,0
607,21732.22491381304,2011-01-03 16:40:10,1804.098129746445,4,3,0.0877568647265434,4.199653148651123,1.77564034624024,1.754010736612871,7.119509413172846,6.386139534010246,-3.23295607813634e-05,0.0954576581716537,0,0,0
608,22433.511015263197,2011-01-03 16:51:52,2505.3842311965977,4,3,0.0498289167881011,4.199653148651123,1.78871657981533,1.754010736612871,7.174426601090572,6.386139534010246,0.0,0.0954576581716537,0,0,0
609,22463.52531686701,2011-01-03 16:52:22,30.01314105732749,5,3,0.0,4.191397190093994,1.78871657981533,1.754010736612871,7.174426601090572,6.386139534010246,-3.23295607813634e-05,0.0954576581716537,0,0,0
610,22493.524842495503,2011-01-03 16:52:52,60.01266668581695,5,3,0.0,4.1901021003723145,1.78871657981533,1.754010736612871,7.174426601090572,6.386139534010246,0.0,0.0954576581716537,0,0,0
611,22493.71254599192,2011-01-03 16:52:52,0.187582067229094,6,3,-1.9243103452026844e-05,4.1901021003723145,1.78871657981533,1.754010737615555,7.174426601090572,6.386139538211593,0.0,0.0994127541780471,0,0,0
612,22498.54045364831,2011-01-03 16:52:57,5.015489733643851,6,3,0.0007031940040178,4.1901021003723145,1.788717345732679,1.754010737698626,7.174429810389149,6.386139538559669,0.0,0.0994127541780471,0,0,0
613,22528.55580861969,2011-01-03 16:53:27,30.01514743784509,7,3,-1.099568486213684,4.003123760223389,1.788717345732679,1.763179969465552,7.174429810389149,6.423056377740116,-0.0010037422180175,0.0994127541780471,0,0,0
614,22558.57096476424,2011-01-03 16:53:57,60.03030355231501,7,3,-1.099568486213684,3.973660707473755,1.788717345732679,1.772349142280052,7.174429810389149,6.459617489220404,-0.0006475448608398,0.0994127541780471,0,0,0
615,22588.586127570383,2011-01-03 16:54:27,90.04546638352508,7,3,-1.099568486213684,3.95245361328125,1.788717345732679,1.781518320039104,7.174429810389149,6.495950052533641,-0.0005180359003134,0.0994127541780471,0,0,0
616,22618.603245709823,2011-01-03 16:54:57,120.06258450291496,7,3,-1.099568486213684,3.936264991760254,1.788717345732679,1.790688037594781,7.174429810389149,6.532116302665286,-0.0003885269106831,0.0994127541780471,0,0,0
617,22648.61659245479,2011-01-03 16:55:27,150.07593124787934,7,3,-1.099568486213684,3.922666549682617,1.788717345732679,1.799856575043427,7.174429810389149,6.568141881761416,-0.0003237724304199,0.0994127541780471,0,0,0
618,22678.63161815924,2011-01-03 16:55:57,180.09095695733984,7,3,-1.099568486213684,3.9103634357452393,1.788717345732679,1.809025695249776,7.174429810389149,6.604051070853175,-0.0003237724304199,0.0994127541780471,0,0,0
619,22708.64681207793,2011-01-03 16:56:27,210.10615087101692,7,3,-1.0997490882873535,3.898707628250122,1.788717345732679,1.818194877840222,7.174429810389149,6.639851305888437,-0.0002913951757363,0.0994127541780471,0,0,0
620,22738.662009480297,2011-01-03 16:56:57,240.12134836862643,7,3,-1.0997490882873535,3.887861251831055,1.788717345732679,1.82736398848981,7.174429810389149,6.675548752138414,-0.0002590179501567,0.0994127541780471,0,0,0
621,22768.67738799907,2011-01-03 16:57:27,270.1367268021839,7,3,-1.099568486213684,3.877176761627197,1.788717345732679,1.836533225895862,7.174429810389149,6.711147988676238,-0.0002913951757363,0.0994127541780471,0,0,0
622,22798.692287077927,2011-01-03 16:57:57,300.1516258660045,7,3,-1.0997490882873535,3.86681604385376,1.788717345732679,1.845702252076381,7.174429810389149,6.746650457386627,-0.0002590179501567,0.0994127541780471,0,0,0
623,22828.707565241584,2011-01-03 16:58:27,330.1669040296585,7,3,-1.099929690361023,3.856617212295532,1.788717345732679,1.854871364681262,7.174429810389149,6.782059878822081,-0.0003237724304199,0.0994127541780471,0,0,0
624,22858.722852131985,2011-01-03 16:58:57,360.1821909501373,7,3,-1.0997490882873535,3.847065925598145,1.788717345732679,1.864040516533668,7.174429810389149,6.817378649650257,-0.0002590179501567,0.0994127541780471,0,0,0
625,22888.73803367984,2011-01-03 16:59:27,390.19737247794507,7,3,-1.0997490882873535,3.837352752685547,1.788717345732679,1.873209595590972,7.174429810389149,6.852608295204608,-0.0002913951757363,0.0994127541780471,0,0,0
626,22918.75297510925,2011-01-03 16:59:57,420.2123139274038,7,3,-1.0997490882873535,3.827963590621948,1.788717345732679,1.882378628011092,7.174429810389149,6.887750132324187,-0.0002913951757363,0.0994127541780471,0,0,0
627,22948.76821857141,2011-01-03 17:00:27,450.22755737453343,7,3,-1.0997490882873535,3.818736076354981,1.788717345732679,1.89154778486171,7.174429810389149,6.922806818642675,-0.0002266406954731,0.0994127541780471,0,0,0
628,22978.78327142854,2011-01-03 17:00:57,480.2426102416792,7,3,-1.0997490882873535,3.8095085620880127,1.788717345732679,1.900716890362253,7.174429810389149,6.957778876696262,-0.0002590179501567,0.0994127541780471,0,0,0
629,23008.79855217864,2011-01-03 17:01:27,510.2578910118296,7,3,-1.099929690361023,3.800604820251465,1.788717345732679,1.90988602745742,7.174429810389149,6.992668521399224,-0.0002590179501567,0.0994127541780471,0,0,0
630,23038.813583637428,2011-01-03 17:01:57,540.2729224305191,7,3,-1.099929690361023,3.791862964630127,1.788717345732679,1.919055118774225,7.174429810389149,7.027477736120952,-0.0002590179501567,0.0994127541780471,0,0,0
631,23068.82873960152,2011-01-03 17:02:27,570.2880783896018,7,3,-1.099568486213684,3.783606767654419,1.788717345732679,1.928224263018621,7.174429810389149,7.062208522196168,-0.0002266406954731,0.0994127541780471,0,0,0
632,23098.8439181068,2011-01-03 17:02:57,600.3032568948764,7,3,-1.0997490882873535,3.775350570678711,1.788717345732679,1.937393399829432,7.174429810389149,7.096862306671778,-0.0001942634553415,0.0994127541780471,0,0,0
633,23128.859100612044,2011-01-03 17:03:27,630.3184394251828,7,3,-1.0997490882873535,3.767256259918213,1.788717345732679,1.946562565191605,7.174429810389149,7.131441059436106,-0.0001942634553415,0.0994127541780471,0,0,0
634,23158.87422591973,2011-01-03 17:03:57,660.3335647078103,7,3,-1.099929690361023,3.759323835372925,1.788717345732679,1.955731743464607,7.174429810389149,7.165947107066642,-0.0002266406954731,0.0994127541780471,0,0,0
635,23188.889383959,2011-01-03 17:04:27,690.3487227470773,7,3,-1.099929690361023,3.751553535461426,1.788717345732679,1.964900937120314,7.174429810389149,7.200381441501532,-0.0001942634553415,0.0994127541780471,0,0,0
636,23218.90703833992,2011-01-03 17:04:57,720.3663773284956,7,3,-1.099929690361023,3.7439448833465576,1.788717345732679,1.97407086967957,7.174429810389149,7.234748140764636,-0.0001942634553415,0.0994127541780471,0,0,0
637,23248.91972033813,2011-01-03 17:05:27,750.3790591412444,7,3,-1.0997490882873535,3.7364981174468994,1.788717345732679,1.983239307947424,7.174429810389149,7.269040498370728,-0.0002266406954731,0.0994127541780471,0,0,0
638,23278.934878327276,2011-01-03 17:05:57,780.3942171253739,7,3,-1.0997490882873535,3.729213237762451,1.788717345732679,1.992408510460586,7.174429810389149,7.303268357053367,-0.0002266406954731,0.0994127541780471,0,0,0
639,23308.950032902907,2011-01-03 17:06:27,810.4093717010087,7,3,-1.0997490882873535,3.722090244293213,1.788717345732679,2.00157762432852,7.174429810389149,7.337430059898406,-0.0001942634553415,0.0994127541780471,0,0,0
640,23338.96711049629,2011-01-03 17:06:57,840.4264494096825,7,3,-1.099568486213684,3.7152910232543945,1.788717345732679,2.01074732374766,7.174429810389149,7.371528876838861,-0.0001618862152099,0.0994127541780471,0,0,0
641,23368.98036114676,2011-01-03 17:07:27,870.4396999749376,7,3,-1.0997490882873535,3.708329916000366,1.788717345732679,2.019915872906421,7.174429810389149,7.405559440381031,-0.0001618862152099,0.0994127541780471,0,0,0
642,23398.995523165944,2011-01-03 17:07:57,900.4548619690613,7,3,-1.099568486213684,3.701530694961548,1.788717345732679,2.02908499410667,7.174429810389149,7.439530046953832,-0.0001618862152099,0.0994127541780471,0,0,0
643,23429.010798903557,2011-01-03 17:08:27,930.4701377066688,7,3,-1.099568486213684,3.69489336013794,1.788717345732679,2.038254191647021,7.174429810389149,7.473439457779575,-0.0001618862152099,0.0994127541780471,0,0,0
644,23459.025850838378,2011-01-03 17:08:57,960.4851896364788,7,3,-1.099568486213684,3.688256025314331,1.788717345732679,2.047423345028438,7.174429810389149,7.507287734533921,-0.0001942634553415,0.0994127541780471,0,0,0
645,23489.04111702217,2011-01-03 17:09:27,990.5004558252876,7,3,-1.0997490882873535,3.6817805767059326,1.788717345732679,2.056592549810499,7.174429810389149,7.541076333422319,-0.0001618862152099,0.0994127541780471,0,0,0
646,23519.05615531299,2011-01-03 17:09:57,1020.5154941211172,7,3,-1.099929690361023,3.675467014312744,1.788717345732679,2.065761675970455,7.174429810389149,7.574805645174017,-0.0001618862152099,0.0994127541780471,0,0,0
647,23549.07134096608,2011-01-03 17:10:27,1050.5306797792189,7,3,-1.0997490882873535,3.669153690338135,1.788717345732679,2.074930874513272,7.174429810389149,7.608477026420838,-0.0001618862152099,0.0994127541780471,0,0,0
648,23579.086556734223,2011-01-03 17:10:58,1080.5458956125267,7,3,-1.0997490882873535,3.663002014160156,1.788717345732679,2.084100016356161,7.174429810389149,7.642091033831405,-0.0001618862152099,0.0994127541780471,0,0,0
649,23609.10172645761,2011-01-03 17:11:28,1110.561065436164,7,3,-1.0997490882873535,3.6568503379821777,1.788717345732679,2.093269216450064,7.174429810389149,7.675649404499585,-0.0001618862152099,0.0994127541780471,0,0,0
650,23639.11680006645,2011-01-03 17:11:58,1140.5761388595424,7,3,-1.0997490882873535,3.650860548019409,1.788717345732679,2.102438335760871,7.174429810389149,7.709152309005335,-0.0001942634553415,0.0994127541780471,0,0,0
651,23669.13211195416,2011-01-03 17:12:28,1170.591450777322,7,3,-1.0997490882873535,3.6448707580566406,1.788717345732679,2.111607450788678,7.174429810389149,7.742600178067391,-0.0001942634553415,0.0994127541780471,0,0,0
652,23699.14712179908,2011-01-03 17:12:58,1200.6064606172308,7,3,-1.099568486213684,3.639042854309082,1.788717345732679,2.120776526929664,7.174429810389149,7.775993406224458,-0.0001295089750783,0.0994127541780471,0,0,0
653,23729.16227151761,2011-01-03 17:13:28,1230.621610305685,7,3,-1.0997490882873535,3.633376836776733,1.788717345732679,2.129945670310117,7.174429810389149,7.809334199490178,-0.0001618862152099,0.0994127541780471,0,0,0
654,23759.17744239387,2011-01-03 17:13:58,1260.6367811819457,7,3,-1.0997490882873535,3.6277108192443848,1.788717345732679,2.139114817599942,7.174429810389149,7.842623452963436,-0.0001618862152099,0.0994127541780471,0,0,0
655,23789.19259510485,2011-01-03 17:14:28,1290.6519338929331,7,3,-1.099929690361023,3.622368574142456,1.788717345732679,2.148283981412866,7.174429810389149,7.875861956580771,-0.0001295089750783,0.0994127541780471,0,0,0
656,23819.20998076604,2011-01-03 17:14:58,1320.6693197796817,7,3,-1.0997490882873535,3.616864442825317,1.788717345732679,2.157453790671812,7.174429810389149,7.909053143281187,-0.0001618862152099,0.0994127541780471,0,0,0
657,23849.223153863222,2011-01-03 17:15:28,1350.682492656313,7,3,-1.099568486213684,3.6118459701538086,1.788717345732679,2.166622280879075,7.174429810389149,7.942191423830086,-0.0001295089750783,0.0994127541780471,0,0,0
658,23879.238093573345,2011-01-03 17:15:58,1380.6974323714487,7,3,-1.0997490882873535,3.60666561126709,1.788717345732679,2.175791373989411,7.174429810389149,7.975284762001191,-0.0001618862152099,0.0994127541780471,0,0,0
659,23909.253347135684,2011-01-03 17:16:28,1410.712685938801,7,3,-1.099568486213684,3.601809024810791,1.788717345732679,2.184960494162802,7.174429810389149,8.008332176831187,-0.0001295089750783,0.0994127541780471,0,0,0
660,23939.26839383245,2011-01-03 17:16:58,1440.7277326255437,7,3,-1.0997490882873535,3.5967905521392822,1.788717345732679,2.194129576945815,7.174429810389149,8.041334555633911,-0.0001618862152099,0.0994127541780471,0,0,0
661,23969.283571971817,2011-01-03 17:17:28,1470.7429107649064,7,3,-1.0997490882873535,3.5924196243286133,1.788717345732679,2.203298694852941,7.174429810389149,8.074293421671465,-9.713172767078504e-05,0.0994127541780471,0,0,0
662,23999.298732407056,2011-01-03 17:17:58,1500.758071200145,7,3,-1.0997490882873535,3.5877251625061035,1.788717345732679,2.212467860796285,7.174429810389149,8.107209892537949,-0.0001295089750783,0.0994127541780471,0,0,0
663,24029.31398623505,2011-01-03 17:18:28,1530.7733250532094,7,3,-1.0997490882873535,3.583030462265014,1.788717345732679,2.221637074397078,7.174429810389149,8.14008486759634,-0.0001295089750783,0.0994127541780471,0,0,0
664,24059.33138466808,2011-01-03 17:18:58,1560.790723501265,7,3,-1.0997490882873535,3.578821420669556,1.788717345732679,2.230806938613614,7.174429810389149,8.172921687484127,-9.713172767078504e-05,0.0994127541780471,0,0,0
665,24089.34417007902,2011-01-03 17:19:28,1590.803508892162,7,3,-1.099929690361023,3.5746123790740967,1.788717345732679,2.239975369467846,7.174429810389149,8.205714324919878,-9.713172767078504e-05,0.0994127541780471,0,0,0
666,24119.35934084,2011-01-03 17:19:58,1620.8186796330856,7,3,-1.0997490882873535,3.5707271099090576,1.788717345732679,2.249144442371655,7.174429810389149,8.238471013239167,-6.47544875391759e-05,0.0994127541780471,0,0,0
667,24149.3744809997,2011-01-03 17:20:28,1650.8338197877786,7,3,-1.099929690361023,3.5663561820983887,1.788717345732679,2.258313626247886,7.174429810389149,8.271190942849762,-0.0001295089750783,0.0994127541780471,0,0,0
668,24179.38966377562,2011-01-03 17:20:58,1680.8490025887595,7,3,-1.099568486213684,3.562794685363769,1.788717345732679,2.267482793000757,7.174429810389149,8.303874330001786,-6.47544875391759e-05,0.0994127541780471,0,0,0
669,24209.404790266257,2011-01-03 17:21:28,1710.8641290543353,7,3,-1.099929690361023,3.5587475299835205,1.788717345732679,2.276651891324996,7.174429810389149,8.33652268051143,-9.713172767078504e-05,0.0994127541780471,0,0,0
670,24239.41995635057,2011-01-03 17:21:58,1740.8792951336409,7,3,-1.099568486213684,3.5551860332489014,1.788717345732679,2.285821045904873,7.174429810389149,8.36913621468277,-6.47544875391759e-05,0.0994127541780471,0,0,0
671,24269.43523222352,2011-01-03 17:22:28,1770.8945710166106,7,3,-1.099568486213684,3.5513007640838623,1.788717345732679,2.294990208655287,7.174429810389149,8.401715348130452,-6.47544875391759e-05,0.0994127541780471,0,0,0
672,24299.45026905069,2011-01-03 17:22:58,1800.90960784378,7,3,-1.099929690361023,3.547577381134033,1.788717345732679,2.304159304330267,7.174429810389149,8.43426002757491,-0.0001295089750783,0.0994127541780471,0,0,0
673,24329.465399696684,2011-01-03 17:23:28,1830.924738484762,7,3,-1.099568486213684,3.543692111968994,1.788717345732679,2.313328432706389,7.174429810389149,8.466770504114342,-9.713172767078504e-05,0.0994127541780471,0,0,0
674,24359.480558116906,2011-01-03 17:23:58,1860.939896930041,7,3,-1.099568486213684,3.539968729019165,1.788717345732679,2.322497514854478,7.174429810389149,8.499246110499438,-6.47544875391759e-05,0.0994127541780471,0,0,0
675,24389.495764727224,2011-01-03 17:24:28,1890.9551035403624,7,3,-1.099929690361023,3.536083459854126,1.788717345732679,2.331666631054911,7.174429810389149,8.531687289558636,-0.0001295089750783,0.0994127541780471,0,0,0
676,24419.51296803894,2011-01-03 17:24:58,1920.972306827015,7,3,-1.099929690361023,3.532198190689087,1.788717345732679,2.340836353898027,7.174429810389149,8.564095768579485,-0.0001295089750783,0.0994127541780471,0,0,0
677,24449.526051322275,2011-01-03 17:25:28,1950.985390110352,7,3,-1.0997490882873535,3.528636693954468,1.788717345732679,2.350004815050425,7.174429810389149,8.59646520418401,-9.713172767078504e-05,0.0994127541780471,0,0,0
678,24479.541297761865,2011-01-03 17:25:58,1981.000636645177,7,3,-1.099568486213684,3.5250751972198486,1.788717345732679,2.359173890173395,7.174429810389149,8.628802238593977,-6.47544875391759e-05,0.0994127541780471,0,0,0
679,24509.55634305012,2011-01-03 17:26:28,2011.0156818381968,7,3,-1.0997490882873535,3.5208661556243896,1.788717345732679,2.368342907588728,7.174429810389149,8.661103952038143,-0.0001295089750783,0.0994127541780471,0,0,0
680,24539.57151408678,2011-01-03 17:26:58,2041.0308528748576,7,3,-1.099929690361023,3.5168190002441406,1.788717345732679,2.377511986760241,7.174429810389149,8.69336980544309,-0.0001295089750783,0.0994127541780471,0,0,0
681,24569.58677144859,2011-01-03 17:27:28,2071.04611024168,7,3,-1.099929690361023,3.5129337310791016,1.788717345732679,2.386681083898389,7.174429810389149,8.725599241185066,-9.713172767078504e-05,0.0994127541780471,0,0,0
682,24599.601817939845,2011-01-03 17:27:58,2101.0611567529845,7,3,-1.0997490882873535,3.5087249279022217,1.788717345732679,2.395850108598216,7.174429810389149,8.75779058693534,-0.0001295089750783,0.0994127541780471,0,0,0
683,24629.61696086645,2011-01-03 17:28:28,2131.076299654523,7,3,-1.0997490882873535,3.5045158863067627,1.788717345732679,2.405019195741839,7.174429810389149,8.789942976271558,-9.713172767078504e-05,0.0994127541780471,0,0,0
684,24659.63209764773,2011-01-03 17:28:58,2161.091436445834,7,3,-1.0997490882873535,3.499983072280884,1.788717345732679,2.414188200497228,7.174429810389149,8.822054581190335,-9.713172767078504e-05,0.0994127541780471,0,0,0
685,24689.64763130315,2011-01-03 17:29:28,2191.1069701162896,7,3,-1.0997490882873535,3.495288372039795,1.788717345732679,2.423357333983483,7.174429810389149,8.854124526678396,-9.713172767078504e-05,0.0994127541780471,0,0,0
686,24719.662387535995,2011-01-03 17:29:58,2221.121726329082,7,3,-1.099568486213684,3.490108013153076,1.788717345732679,2.432526269195781,7.174429810389149,8.886148509835605,-9.713172767078504e-05,0.0994127541780471,0,0,0
687,24749.67751825216,2011-01-03 17:30:28,2251.1368570402387,7,3,-1.0997490882873535,3.484603881835937,1.788717345732679,2.441695288893138,7.174429810389149,8.918124574397574,-0.0001618862152099,0.0994127541780471,0,0,0
688,24779.692915718155,2011-01-03 17:30:58,2281.152254536306,7,3,-1.099568486213684,3.478614091873169,1.788717345732679,2.4508643799932,7.174429810389149,8.950048288916458,-0.0001618862152099,0.0994127541780471,0,0,0
689,24809.707971652944,2011-01-03 17:31:28,2311.1673104761094,7,3,-1.099568486213684,3.4721386432647705,1.788717345732679,2.460033347167519,7.174429810389149,8.98191447180448,-0.0001618862152099,0.0994127541780471,0,0,0
690,24839.72296759321,2011-01-03 17:31:58,2341.182306381289,7,3,-1.0997490882873535,3.465015649795532,1.788717345732679,2.469202267256474,7.174429810389149,9.013718500150867,-0.0001942634553415,0.0994127541780471,0,0,0
691,24869.73809433949,2011-01-03 17:32:28,2371.197433132577,7,3,-1.0997490882873535,3.457083225250244,1.788717345732679,2.4783712696708182,7.174429810389149,9.045453421400008,-0.0001942634553415,0.0994127541780471,0,0,0
692,24899.75337917978,2011-01-03 17:32:58,2401.2127180681086,7,3,-1.0997490882873535,3.4478557109832764,1.788717345732679,2.487540357600858,7.174429810389149,9.077109970928952,-0.0002590179501567,0.0994127541780471,0,0,0
693,24929.768382939536,2011-01-03 17:33:28,2431.227721727613,7,3,-1.0997490882873535,3.437171220779419,1.788717345732679,2.496709309400327,7.174429810389149,9.108675501264736,-0.0003237724304199,0.0994127541780471,0,0,0
694,24959.78357702364,2011-01-03 17:33:58,2461.242915826753,7,3,-1.0997490882873535,3.424706220626831,1.788717345732679,2.505878346314802,7.174429810389149,9.14013566448502,-0.0003561496851034,0.0994127541780471,0,0,0
695,24989.79867673754,2011-01-03 17:34:28,2491.25801553063,7,3,-1.099568486213684,3.4096508026123047,1.788717345732679,2.515047320394871,7.174429810389149,9.171470055131453,-0.0004532813909463,0.0994127541780471,0,0,0
696,25019.8158150272,2011-01-03 17:34:58,2521.275153840341,7,3,-1.0997490882873535,3.391357660293579,1.788717345732679,2.524216942901534,7.174429810389149,9.202654485983627,-0.0005504131549969,0.0994127541780471,0,0,0
697,25049.82902477573,2011-01-03 17:35:28,2551.288363563805,7,3,-1.0997490882873535,3.368693590164185,1.788717345732679,2.533385359111462,7.174429810389149,9.23364854006801,-0.0006799221155233,0.0994127541780471,0,0,0
698,25079.844097046232,2011-01-03 17:35:58,2581.3034358593723,7,3,-1.0997490882873535,3.3400399684906006,1.788717345732679,2.542554370300727,7.174429810389149,9.264410101368531,-0.0008094310760498,0.0994127541780471,0,0,0
699,25109.859386026845,2011-01-03 17:36:28,2611.3187248299605,7,3,-1.0997490882873535,3.3026442527771,1.788717345732679,2.551723359676245,7.174429810389149,9.294870961983223,-0.0011008263099938,0.0994127541780471,0,0,0
700,25139.876692876613,2011-01-03 17:36:58,2641.3360317699494,7,3,-1.0997490882873535,3.2535929679870605,1.788717345732679,2.560892937991081,7.174429810389149,9.324940907077789,-0.0014893531333655,0.0994127541780471,0,0,0
701,25169.8895205128,2011-01-03 17:37:28,2671.348859330948,7,3,-1.1001102924346924,3.1873817443847656,1.788717345732679,2.570061165524399,7.174429810389149,9.354483909574633,-0.0020397186744958,0.0994127541780471,0,0,0
702,25199.904670502,2011-01-03 17:37:58,2701.364009290077,7,3,-1.0997490882873535,3.094944953918457,1.788717345732679,2.579230174951996,7.174429810389149,9.383312172966248,-0.0028815746773034,0.0994127541780471,0,0,0
703,25229.919818065155,2011-01-03 17:38:28,2731.3791568732845,7,3,-1.0997490882873535,2.9486002922058105,1.788717345732679,2.588399195249819,7.174429810389149,9.411081043901618,-0.0048889159224927,0.0994127541780471,0,0,0
704,25256.388171370705,2011-01-03 17:38:55,2757.8475101788304,7,3,-1.0997490882873535,2.748347520828247,1.788717345732679,2.596484761247347,7.174429810389149,9.434152949314123,-0.0067020892165601,0.0994127541780471,0,0,0
705,25262.216150878863,2011-01-03 17:39:01,2763.675489671952,7,3,-1.099568486213684,2.699781894683838,1.788717345732679,2.598265084265061,7.174429810389149,9.43900285150618,-0.0067020417191088,0.0994127541780471,0,0,0
706,25322.231385891984,2011-01-03 17:40:01,60.01475989774515,8,3,0.0,3.4517409801483154,1.788717345732679,2.598265084265061,7.174429810389149,9.43900285150618,0.0015541076427325,0.0994127541780471,0,0,0
707,25322.420372358418,2011-01-03 17:40:01,0.187663620484901,9,3,-1.9243103452026844e-05,3.4519028663635254,1.788717349437097,2.598265084265061,7.174429823176137,9.43900285150618,3.237724376958795e-05,0.0986045151948928,0,0,0
708,25327.24816223126,2011-01-03 17:40:06,5.015453488309325,9,3,0.0003419754502829,3.460968494415283,1.78871807333925,2.59826508451488,7.174432325728506,9.439002852369198,0.0013274669181555,0.0986045151948928,0,0,0
