Data_Point,Test_Time(s),Date_Time,Step_Time(s),Step_Index,Cycle_Index,Current(A),Voltage(V),Charge_Capacity(Ah),Discharge_Capacity(Ah),Charge_Energy(Wh),Discharge_Energy(Wh),dV/dt(V/s),Internal_Resistance(Ohm),Is_FC_Data,AC_Impedance(Ohm),ACI_Phase_Angle(Deg)
14577,528968.2737410384,2010-12-12 15:30:36,30.015118949077124,1,49,0.0,3.4290771484375,43.72784945242239,43.71159789074711,175.38787109277084,158.41223369717054,0.0007770538213662,0.0916610211133956,0,0,0
14578,528998.288812775,2010-12-12 15:31:06,60.03019061549317,1,49,0.0,3.453683614730835,43.72784945242239,43.71159789074711,175.38787109277084,158.41223369717054,0.0006151676061563,0.0916610211133956,0,0,0
14579,529028.3039475385,2010-12-12 15:31:36,90.04532538393619,1,49,0.0,3.4724624156951904,43.72784945242239,43.71159789074711,175.38787109277084,158.41223369717054,0.0004532813909463,0.0916610211133956,0,0,0
14580,529058.2721684285,2010-12-12 15:32:06,120.01354627900967,1,49,0.0,3.487517833709717,43.72784945242239,43.71159789074711,175.38787109277084,158.41223369717054,0.0004209041653666,0.0916610211133956,0,0,0
14581,529088.2625675397,2010-12-12 15:32:36,30.015103490609324,2,49,0.550297200679779,3.640176057815552,43.732436811802,43.71159789074711,175.40442103218064,158.41223369717054,0.0014245987404137,0.0916610211133956,0,0,0
14582,529118.2776654515,2010-12-12 15:33:06,60.0302014223857,2,49,0.550297200679779,3.681942462921143,43.73702413364965,43.71159789074711,175.42122150498784,158.41223369717054,0.0009713172912597,0.0916610211133956,0,0,0
14583,529148.2927873479,2010-12-12 15:33:36,90.04532331378468,2,49,0.5499359965324402,3.711567640304565,43.74161143060023,43.71159789074711,175.43818304682114,158.41223369717054,0.0006799221155233,0.0916610211133956,0,0,0
14584,529178.3097525764,2010-12-12 15:34:06,120.06228861744418,2,49,0.5501165986061096,3.73455548286438,43.74619908944656,43.71159789074711,175.45526618948202,158.41223369717054,0.0005180359003134,0.0916610211133956,0,0,0
14585,529208.3229781438,2010-12-12 15:34:36,150.0755141097269,2,49,0.550297200679779,3.752686738967896,43.75078604883248,43.71159789074711,175.47244005480326,158.41223369717054,0.0004532813909463,0.0916610211133956,0,0,0
14586,529238.3381962195,2010-12-12 15:35:06,180.090732175452,2,49,0.5501165986061096,3.765313625335693,43.75537338008819,43.71159789074711,175.4896857000383,158.41223369717054,0.0002590179501567,0.0916610211133956,0,0,0
14587,529268.3531647644,2010-12-12 15:35:36,210.1057007152414,2,49,0.5499359965324402,3.7737317085266113,43.759960652054325,43.71159789074711,175.50697920369717,158.41223369717054,0.0001942634553415,0.0916610211133956,0,0,0
14588,529298.3684051206,2010-12-12 15:36:06,240.12094115664752,2,49,0.5501165986061096,3.77988338470459,43.764547925077295,43.71159789074711,175.52430524326755,158.41223369717054,0.0001618862152099,0.0916610211133956,0,0,0
14589,529328.3833584375,2010-12-12 15:36:36,270.1358944083932,2,49,0.5501165986061096,3.7850637435913086,43.76913514657733,43.71159789074711,175.54165632099122,158.41223369717054,0.0001618862152099,0.0916610211133956,0,0,0
14590,529358.3984806247,2010-12-12 15:37:07,300.1510166456528,2,49,0.5501165986061096,3.789596557617188,43.7737224628743,43.71159789074711,175.55903019091505,158.41223369717054,9.713172767078504e-05,0.0916610211133956,0,0,0
14591,529388.4137277426,2010-12-12 15:37:37,330.16626377871086,2,49,0.5504778623580933,3.794291257858277,43.7783098374303,43.71159789074711,175.57642519073522,158.41223369717054,0.0001618862152099,0.0916610211133956,0,0,0
14592,529418.4286951246,2010-12-12 15:38:07,360.1812310904443,2,49,0.5501165986061096,3.798338413238525,43.78289711233547,43.71159789074711,175.59383963019394,158.41223369717054,9.713172767078504e-05,0.0916610211133956,0,0,0
14593,529448.4437948407,2010-12-12 15:38:37,390.1963307916238,2,49,0.550297200679779,3.8023855686187744,43.78748445739766,43.71159789074711,175.61127333921127,158.41223369717054,9.713172767078504e-05,0.0916610211133956,0,0,0
14594,529478.4589319802,2010-12-12 15:39:07,420.2114680412411,2,49,0.5501165986061096,3.806432723999024,43.792071768984286,43.71159789074711,175.62872519612168,158.41223369717054,0.0001295089750783,0.0916610211133956,0,0,0
14595,529508.4739990801,2010-12-12 15:39:37,450.2265350510693,2,49,0.5501165986061096,3.810156106948853,43.79665906925197,43.71159789074711,175.6461947802343,158.41223369717054,0.0001295089750783,0.0916610211133956,0,0,0
14596,529538.4892370354,2010-12-12 15:40:07,480.2417730012762,2,49,0.550297200679779,3.814041376113892,43.8012464434612,43.71159789074711,175.6636820667581,158.41223369717054,0.0001295089750783,0.0916610211133956,0,0,0
14597,529568.5042013847,2010-12-12 15:40:37,510.25673735063793,2,49,0.5501165986061096,3.817602872848511,43.80583377002486,43.71159789074711,175.68118647990576,158.41223369717054,6.47544875391759e-05,0.0916610211133956,0,0,0
14598,529598.5193301633,2010-12-12 15:41:07,540.2718661241628,2,49,0.550297200679779,3.82132625579834,43.81042100007909,43.71159789074711,175.6987073203984,158.41223369717054,6.47544875391759e-05,0.0916610211133956,0,0,0
14599,529628.5344144311,2010-12-12 15:41:37,570.2869504019618,2,49,0.5501165986061096,3.825049638748169,43.81500839212091,43.71159789074711,175.71624557180394,158.41223369717054,9.713172767078504e-05,0.0916610211133956,0,0,0
14600,529658.5495623923,2010-12-12 15:42:07,600.3020983632347,2,49,0.550297200679779,3.828611135482788,43.819595738689486,43.71159789074711,175.73380048189588,158.41223369717054,9.713172767078504e-05,0.0916610211133956,0,0,0
14601,529688.5646519783,2010-12-12 15:42:37,630.3171879492429,2,49,0.5501165986061096,3.832334518432617,43.824183003226565,43.71159789074711,175.7513719320448,158.41223369717054,0.0001295089750783,0.0916610211133956,0,0,0
14602,529718.5797282512,2010-12-12 15:43:07,660.332264222122,2,49,0.5501165986061096,3.835895776748657,43.82877028943468,43.71159789074711,175.76896034456536,158.41223369717054,6.47544875391759e-05,0.0916610211133956,0,0,0
14603,529748.5948395212,2010-12-12 15:43:37,690.3473755622646,2,49,0.5501165986061096,3.839781045913696,43.83335754223162,43.71159789074711,175.7865657125909,158.41223369717054,9.713172767078504e-05,0.0916610211133956,0,0,0
14604,529778.6118310802,2010-12-12 15:44:07,720.3643671413093,2,49,0.5499359965324402,3.8431806564331055,43.83794510941101,43.71159789074711,175.80418942430163,158.41223369717054,3.237724376958795e-05,0.0916610211133956,0,0,0
14605,529808.625260911,2010-12-12 15:44:37,750.3777969570431,2,49,0.5501165986061096,3.8472278118133545,43.842532125001576,43.71159789074711,175.8218280748696,158.41223369717054,9.713172767078504e-05,0.0916610211133956,0,0,0
14606,529838.6401514967,2010-12-12 15:45:07,780.3926874626475,2,49,0.5501165986061096,3.8507893085479736,43.847119387020754,43.71159789074711,175.83948471396104,158.41223369717054,6.47544875391759e-05,0.0916610211133956,0,0,0
14607,529868.6553257935,2010-12-12 15:45:37,810.4078618496796,2,49,0.5501165986061096,3.8545126914978023,43.85170677682283,43.71159789074711,175.85715867036814,158.41223369717054,9.713172767078504e-05,0.0916610211133956,0,0,0
14608,529898.6727926203,2010-12-12 15:46:07,840.42532867636,2,49,0.550297200679779,3.858074188232422,43.85629444035584,43.71159789074711,175.87485025390566,158.41223369717054,9.713172767078504e-05,0.0916610211133956,0,0,0
14609,529928.6876690107,2010-12-12 15:46:37,870.440205051802,2,49,0.550297200679779,3.861635684967041,43.860881690918895,43.71159789074711,175.8925563694075,158.41223369717054,9.713172767078504e-05,0.0916610211133956,0,0,0
14610,529958.7005740757,2010-12-12 15:47:07,900.4531100415264,2,49,0.5501165986061096,3.86487340927124,43.8654686382629,43.71159789074711,175.91027708047878,158.41223369717054,6.47544875391759e-05,0.0916610211133956,0,0,0
14611,529988.7157646379,2010-12-12 15:47:37,930.468300578748,2,49,0.550297200679779,3.8682730197906494,43.87005592094639,43.71159789074711,175.92801428456792,158.41223369717054,9.713172767078504e-05,0.0916610211133956,0,0,0
14612,530018.7308274874,2010-12-12 15:48:07,960.4833634532856,2,49,0.550297200679779,3.871348857879639,43.87464316893891,43.71159789074711,175.94576607038707,158.41223369717054,9.713172767078504e-05,0.0916610211133956,0,0,0
14613,530048.7458923218,2010-12-12 15:48:37,990.4984282726632,2,49,0.5501165986061096,3.874262809753418,43.87923048612191,43.71159789074711,175.9635322679744,158.41223369717054,6.47544875391759e-05,0.0916610211133956,0,0,0
14614,530078.7611425124,2010-12-12 15:49:07,1020.5136784533048,2,49,0.550297200679779,3.8773386478424072,43.883817820449934,43.71159789074711,175.9813119943379,158.41223369717054,9.713172767078504e-05,0.0916610211133956,0,0,0
14615,530108.7761239694,2010-12-12 15:49:37,1050.5286599353003,2,49,0.5501165986061096,3.8797669410705566,43.88840514281348,43.71159789074711,175.99910448884089,158.41223369717054,3.237724376958795e-05,0.0916610211133956,0,0,0
14616,530138.7912336654,2010-12-12 15:50:07,1080.5437696864892,2,49,0.550297200679779,3.882519006729126,43.89299250803228,43.71159789074711,176.01690922606875,158.41223369717054,6.47544875391759e-05,0.0916610211133956,0,0,0
14617,530168.8062809111,2010-12-12 15:50:37,1110.5588168669726,2,49,0.550297200679779,3.8849472999572754,43.89757978653418,43.71159789074711,176.03472503611303,158.41223369717054,9.713172767078504e-05,0.0916610211133956,0,0,0
14618,530198.8214479999,2010-12-12 15:51:07,1140.5739839658688,2,49,0.5501165986061096,3.887213706970215,43.90216712232785,43.71159789074711,176.05255188756524,158.41223369717054,3.237724376958795e-05,0.0916610211133956,0,0,0
14619,530228.8365613201,2010-12-12 15:51:37,1170.589097270901,2,49,0.5501165986061096,3.889318227767944,43.90675450508128,43.71159789074711,176.07038917869895,158.41223369717054,3.237724376958795e-05,0.0916610211133956,0,0,0
14620,530258.851666961,2010-12-12 15:52:07,1200.6042029268988,2,49,0.5501165986061096,3.891584634780884,43.91134192742774,43.71159789074711,176.08823631276795,158.41223369717054,6.47544875391759e-05,0.0916610211133956,0,0,0
14621,530288.8667472138,2010-12-12 15:52:37,1230.6192831796818,2,49,0.5497553944587708,3.893365383148194,43.91592930790152,43.71159789074711,176.10609257946385,158.41223369717054,3.237724376958795e-05,0.0916610211133956,0,0,0
14622,530318.8818592607,2010-12-12 15:53:07,1260.6343952265831,2,49,0.550297200679779,3.895146131515503,43.92051666785773,43.71159789074711,176.1239574709529,158.41223369717054,3.237724376958795e-05,0.0916610211133956,0,0,0
14623,530348.8971212658,2010-12-12 15:53:37,1290.6496572867868,2,49,0.5501165986061096,3.8970887660980233,43.92510401370341,43.71159789074711,176.14183067871946,158.41223369717054,3.237724376958795e-05,0.0916610211133956,0,0,0
14624,530378.9120841064,2010-12-12 15:54:07,1320.6646200722569,2,49,0.5501165986061096,3.898869514465332,43.92969132718802,43.71159789074711,176.15971207030483,158.41223369717054,6.47544875391759e-05,0.0916610211133956,0,0,0
14625,530408.9134045985,2010-12-12 15:54:37,1350.6659406395916,2,49,0.5501165986061096,3.900488376617432,43.93427656685689,43.71159789074711,176.1775934171893,158.41223369717054,3.237724376958795e-05,0.0916610211133956,0,0,0
14626,530438.9267962142,2010-12-12 15:55:07,1380.6793321700538,2,49,0.5501165986061096,3.902269124984741,43.93886355308322,43.71159789074711,176.19548944262084,158.41223369717054,3.237724376958795e-05,0.0916610211133956,0,0,0
14627,530468.9418806925,2010-12-12 15:55:37,1410.6944166433395,2,49,0.5501165986061096,3.904049873352051,43.943450895100725,43.71159789074711,176.21339461283608,158.41223369717054,6.47544875391759e-05,0.0916610211133956,0,0,0
14628,530498.9570915804,2010-12-12 15:56:07,1440.7096276214272,2,49,0.550297200679779,3.9056687355041504,43.9480382989402,43.71159789074711,176.2313076281253,158.41223369717054,3.237724376958795e-05,0.0916610211133956,0,0,0
14629,530528.9720562606,2010-12-12 15:56:37,1470.7245922264249,2,49,0.550297200679779,3.90728759765625,43.95262556904427,43.71159789074711,176.24922767650588,158.41223369717054,6.47544875391759e-05,0.0916610211133956,0,0,0
14630,530558.9870714966,2010-12-12 15:57:07,1500.7396074624162,2,49,0.550297200679779,3.9089064598083496,43.95721288680088,43.71159789074711,176.2671554364828,158.41223369717054,3.237724376958795e-05,0.0916610211133956,0,0,0
14631,530589.0022110017,2010-12-12 15:57:37,1530.7547469676465,2,49,0.550297200679779,3.910687208175659,43.96180020514734,43.71159789074711,176.28509069358046,158.41223369717054,3.237724376958795e-05,0.0916610211133956,0,0,0
14632,530619.0172784628,2010-12-12 15:58:07,1560.769814428597,2,49,0.5501165986061096,3.912144184112549,43.96638751652565,43.71159789074711,176.30303335556894,158.41223369717054,3.237724376958795e-05,0.0916610211133956,0,0,0
14633,530649.0324289904,2010-12-12 15:58:37,1590.784964961269,2,49,0.5501165986061096,3.913762807846069,43.9709748484244,43.71159789074711,176.3209835761135,158.41223369717054,3.23295607813634e-05,0.0916610211133956,0,0,0
14634,530679.0475270876,2010-12-12 15:59:07,1620.8000631486816,2,49,0.550297200679779,3.915543556213379,43.97556218781315,43.71159789074711,176.33894134024106,158.41223369717054,6.47544875391759e-05,0.0916610211133956,0,0,0
14635,530709.0625909446,2010-12-12 15:59:37,1650.8151269104271,2,49,0.5501165986061096,3.9171624183654794,43.98014954269734,43.71159789074711,176.35690647094214,158.41223369717054,6.47544875391759e-05,0.0916610211133956,0,0,0
14636,530739.0776973023,2010-12-12 16:00:07,1680.8302332731837,2,49,0.5499359965324402,3.918781280517578,43.984736880305086,43.71159789074711,176.37487908152707,158.41223369717054,6.47544875391759e-05,0.0916610211133956,0,0,0
14637,530769.0929377888,2010-12-12 16:00:37,1710.8454737296272,2,49,0.5501165986061096,3.920238256454468,43.98932427465712,43.71159789074711,176.39285941517443,158.41223369717054,3.237724376958795e-05,0.0916610211133956,0,0,0
14638,530799.1080510787,2010-12-12 16:01:07,1740.8605870296467,2,49,0.550297200679779,3.921857118606568,43.993911624874336,43.71159789074711,176.41084699835577,158.41223369717054,3.237724376958795e-05,0.0916610211133956,0,0,0
14639,530829.123017383,2010-12-12 16:01:37,1770.8755533489104,2,49,0.550297200679779,3.923637866973877,43.9984989152431,43.71159789074711,176.42884179859794,158.41223369717054,3.237724376958795e-05,0.0916610211133956,0,0,0
14640,530859.1383801288,2010-12-12 16:02:07,1800.8909161848908,2,49,0.550297200679779,3.925256729125977,44.00308629144349,43.71159789074711,176.4468444287306,158.41223369717054,3.237724376958795e-05,0.0916610211133956,0,0,0
14641,530889.1534242817,2010-12-12 16:02:37,1830.9059603177907,2,49,0.5501165986061096,3.926875591278076,44.007673565569,43.71159789074711,176.46485414243875,158.41223369717054,6.47544875391759e-05,0.0916610211133956,0,0,0
14642,530919.1683318899,2010-12-12 16:03:07,1860.9208678557795,2,49,0.5501165986061096,3.928494453430176,44.01226085299701,43.71159789074711,176.48287142659544,158.41223369717054,6.47544875391759e-05,0.0916610211133956,0,0,0
14643,530949.1834359519,2010-12-12 16:03:37,1890.9359719228232,2,49,0.5501165986061096,3.930275201797485,44.01684817267572,43.71159789074711,176.5008963670563,158.41223369717054,6.47544875391759e-05,0.0916610211133956,0,0,0
14644,530979.1985690913,2010-12-12 16:04:07,1920.9511050572,2,49,0.5501165986061096,3.931732177734375,44.02143554315558,43.71159789074711,176.51892905015535,158.41223369717054,3.237724376958795e-05,0.0916610211133956,0,0,0
14645,531009.2156281131,2010-12-12 16:04:37,1950.968164159273,2,49,0.550297200679779,3.9333510398864746,44.02602312941519,43.71159789074711,176.53697007936475,158.41223369717054,6.47544875391759e-05,0.0916610211133956,0,0,0
14646,531039.2287699874,2010-12-12 16:05:07,1980.9813059582884,2,49,0.5501165986061096,3.935131788253784,44.030610124192,43.71159789074711,176.55501636379154,158.41223369717054,6.47544875391759e-05,0.0916610211133956,0,0,0
14647,531069.2438619995,2010-12-12 16:05:37,2010.9963979653216,2,49,0.5501165986061096,3.936588764190674,44.03519754859981,43.71159789074711,176.57307190872024,158.41223369717054,3.237724376958795e-05,0.0916610211133956,0,0,0
14648,531099.2589747129,2010-12-12 16:06:07,2041.011510683894,2,49,0.550297200679779,3.938369512557984,44.03978486456046,43.71159789074711,176.59113472057757,158.41223369717054,3.237724376958795e-05,0.0916610211133956,0,0,0
14649,531129.2740825043,2010-12-12 16:06:37,2071.026618470193,2,49,0.5501165986061096,3.940150260925293,44.044372153795166,43.71159789074711,176.60920512549782,158.41223369717054,6.47544875391759e-05,0.0916610211133956,0,0,0
14650,531159.2891606619,2010-12-12 16:07:07,2101.041696627762,2,49,0.5501165986061096,3.941607236862183,44.04895949334004,43.71159789074711,176.62728347966845,158.41223369717054,0.0,0.0916610211133956,0,0,0
14651,531189.3042763278,2010-12-12 16:07:37,2131.0568122936693,2,49,0.550297200679779,3.943549871444702,44.05354685400533,43.71159789074711,176.64536963264496,158.41223369717054,6.47544875391759e-05,0.0916610211133956,0,0,0
14652,531219.319386064,2010-12-12 16:08:07,2161.071922034833,2,49,0.550297200679779,3.945006847381592,44.0581342652655,43.71159789074711,176.66346372678734,158.41223369717054,0.0,0.0916610211133956,0,0,0
14653,531249.334632796,2010-12-12 16:08:37,2191.087168832056,2,49,0.5501165986061096,3.946787595748901,44.06272163271244,43.71159789074711,176.68156539581128,158.41223369717054,3.237724376958795e-05,0.0916610211133956,0,0,0
14654,531279.3497022118,2010-12-12 16:09:07,2221.102238152634,2,49,0.550297200679779,3.948568344116211,44.06730899601315,43.71159789074711,176.69967475816932,158.41223369717054,6.47544875391759e-05,0.0916610211133956,0,0,0
14655,531309.3646830823,2010-12-12 16:09:38,2251.1172190481698,2,49,0.5501165986061096,3.950187206268311,44.07189633335915,43.71159789074711,176.71779190116905,158.41223369717054,6.47544875391759e-05,0.0916610211133956,0,0,0
14656,531339.3799218244,2010-12-12 16:10:08,2281.1324577753103,2,49,0.5501165986061096,3.95196795463562,44.07648370191849,43.71159789074711,176.73591702957373,158.41223369717054,6.47544875391759e-05,0.0916610211133956,0,0,0
14657,531369.3948989806,2010-12-12 16:10:38,2311.147434936553,2,49,0.5501165986061096,3.95358681678772,44.08107104888385,43.71159789074711,176.75404992785738,158.41223369717054,3.237724376958795e-05,0.0916610211133956,0,0,0
14658,531399.4099972233,2010-12-12 16:11:08,2341.1625331640657,2,49,0.5501165986061096,3.955367565155029,44.085658389460576,43.71159789074711,176.77219075029532,158.41223369717054,3.237724376958795e-05,0.0916610211133956,0,0,0
14659,531429.4251226985,2010-12-12 16:11:38,2371.1776586594333,2,49,0.550297200679779,3.957148313522339,44.09024576749651,43.71159789074711,176.7903397120125,158.41223369717054,3.237724376958795e-05,0.0916610211133956,0,0,0
14660,531459.4402528054,2010-12-12 16:12:08,2401.1927887562515,2,49,0.550297200679779,3.958929061889648,44.094833161827005,43.71159789074711,176.8084967118748,158.41223369717054,6.47544875391759e-05,0.0916610211133956,0,0,0
14661,531489.4553184217,2010-12-12 16:12:38,2431.2078543926614,2,49,0.5504778623580933,3.960709810256958,44.09942048256116,43.71159789074711,176.82666152354858,158.41223369717054,3.237724376958795e-05,0.0916610211133956,0,0,0
14662,531519.4705351943,2010-12-12 16:13:08,2461.223071135094,2,49,0.5501165986061096,3.9623286724090576,44.10400787959663,43.71159789074711,176.84483481131716,158.41223369717054,0.0,0.0916610211133956,0,0,0
14663,531549.485526591,2010-12-12 16:13:38,2491.238062541787,2,49,0.550297200679779,3.964271306991577,44.10859518757493,43.71159789074711,176.86301595906963,158.41223369717054,3.237724376958795e-05,0.0916610211133956,0,0,0
14664,531579.5006336505,2010-12-12 16:14:08,2521.253169621327,2,49,0.550297200679779,3.966052055358887,44.113182591022415,43.71159789074711,176.88120575278694,158.41223369717054,6.47544875391759e-05,0.0916610211133956,0,0,0
14665,531609.5176143574,2010-12-12 16:14:38,2551.270150443604,2,49,0.5501165986061096,3.967832803726196,44.117770236579645,43.71159789074711,176.89940483496744,158.41223369717054,6.47544875391759e-05,0.0916610211133956,0,0,0
14666,531639.5308846362,2010-12-12 16:15:08,2581.2834206722114,2,49,0.5499359965324402,3.969775438308716,44.122357286550205,43.71159789074711,176.91761001384577,158.41223369717054,6.47544875391759e-05,0.0916610211133956,0,0,0
14667,531669.5459407589,2010-12-12 16:15:38,2611.2984767297853,2,49,0.5504778623580933,3.9717180728912354,44.126944611274354,43.71159789074711,176.93582475116986,158.41223369717054,6.47544875391759e-05,0.0916610211133956,0,0,0
14668,531699.5610263349,2010-12-12 16:16:08,2641.313562300802,2,49,0.550297200679779,3.973498821258545,44.13153203427147,43.71159789074711,176.95404852818777,158.41223369717054,6.47544875391759e-05,0.0916610211133956,0,0,0
14669,531729.5761407778,2010-12-12 16:16:38,2671.3286767436666,2,49,0.5501165986061096,3.9752795696258554,44.136119466945736,43.71159789074711,176.97228100228944,158.41223369717054,3.237724376958795e-05,0.0916610211133956,0,0,0
14670,531759.5912293813,2010-12-12 16:17:08,2701.343765352242,2,49,0.5501165986061096,3.977384090423584,44.140706833778175,43.71159789074711,176.9905219880596,158.41223369717054,6.47544875391759e-05,0.0916610211133956,0,0,0
14671,531789.6064634168,2010-12-12 16:17:38,2731.3589993826945,2,49,0.5501165986061096,3.9791648387908936,44.14529424807304,43.71159789074711,177.00877158199518,158.41223369717054,3.237724376958795e-05,0.0916610211133956,0,0,0
14672,531819.6214679662,2010-12-12 16:18:08,2761.374003937105,2,49,0.5501165986061096,3.981269359588623,44.14988166041344,43.71159789074711,177.02703049235146,158.41223369717054,6.47544875391759e-05,0.0916610211133956,0,0,0
14673,531849.6389735343,2010-12-12 16:18:38,2791.3915095904035,2,49,0.550297200679779,3.983211994171143,44.154469451594224,43.71159789074711,177.0452999298593,158.41223369717054,6.47544875391759e-05,0.0916610211133956,0,0,0
14674,531879.6540063691,2010-12-12 16:19:08,2821.406542410152,2,49,0.5501165986061096,3.985154628753662,44.159056820750415,43.71159789074711,177.0635768098209,158.41223369717054,3.237724376958795e-05,0.0916610211133956,0,0,0
14675,531909.6667760921,2010-12-12 16:19:38,2851.419312063096,2,49,0.5501165986061096,3.9870972633361816,44.163643884199104,43.71159789074711,177.08186167271603,158.41223369717054,3.237724376958795e-05,0.0916610211133956,0,0,0
14676,531939.6818755227,2010-12-12 16:20:08,2881.434411488589,2,49,0.5501165986061096,3.989363670349121,44.168231349274336,43.71159789074711,177.10015746995862,158.41223369717054,9.713172767078504e-05,0.0916610211133956,0,0,0
14677,531969.6969928127,2010-12-12 16:20:38,2911.44952878355,2,49,0.550297200679779,3.9913063049316406,44.172818724136256,43.71159789074711,177.118462378166,158.41223369717054,6.47544875391759e-05,0.0916610211133956,0,0,0
14678,531999.7120794563,2010-12-12 16:21:08,2941.4646154071866,2,49,0.5501165986061096,3.99341082572937,44.17740607248491,43.71159789074711,177.13677676573064,158.41223369717054,6.47544875391759e-05,0.0916610211133956,0,0,0
14679,532029.7273482082,2010-12-12 16:21:38,2971.4798842442538,2,49,0.550297200679779,3.9956769943237305,44.181993482746776,43.71159789074711,177.15510101625944,158.41223369717054,9.713172767078504e-05,0.0916610211133956,0,0,0
14680,532059.7426116569,2010-12-12 16:22:08,3001.4951476277506,2,49,0.550297200679779,3.99778151512146,44.18658086673171,43.71159789074711,177.17343489722433,158.41223369717054,6.47544875391759e-05,0.0916610211133956,0,0,0
14681,532089.7574185644,2010-12-12 16:22:38,3031.509954530312,2,49,0.5499359965324402,3.99972414970398,44.19116825321187,43.71159789074711,177.1917785606496,158.41223369717054,3.237724376958795e-05,0.0916610211133956,0,0,0
14682,532119.7725289221,2010-12-12 16:23:08,3061.525064983247,2,49,0.5501165986061096,4.001990795135498,44.19575565581406,43.71159789074711,177.2101322347586,158.41223369717054,6.47544875391759e-05,0.0916610211133956,0,0,0
14683,532149.7876421019,2010-12-12 16:23:38,3091.5401780677303,2,49,0.550297200679779,4.004418849945068,44.20034301912417,43.71159789074711,177.2284958537074,158.41223369717054,9.70840483205393e-05,0.0916610211133956,0,0,0
14684,532179.8027186755,2010-12-12 16:24:08,3121.55525464637,2,49,0.5501165986061096,4.006523609161377,44.20493039711033,43.71159789074711,177.24686979878706,158.41223369717054,6.47544875391759e-05,0.0916610211133956,0,0,0
14685,532209.8196664103,2010-12-12 16:24:38,3151.572202471534,2,49,0.5501165986061096,4.008627891540527,44.20951806661911,43.71159789074711,177.265255239758,158.41223369717054,0.0,0.0916610211133956,0,0,0
14686,532239.8329423532,2010-12-12 16:25:08,3181.585478319125,2,49,0.550297200679779,4.011056423187256,44.2141052118948,43.71159789074711,177.28364893696673,158.41223369717054,6.47544875391759e-05,0.0916610211133956,0,0,0
14687,532269.8480645253,2010-12-12 16:25:38,3211.6006004962346,2,49,0.550297200679779,4.013322830200195,44.21869262107604,43.71159789074711,177.30205427950523,158.41223369717054,9.71794142969884e-05,0.0916610211133956,0,0,0
14688,532299.8632736037,2010-12-12 16:26:08,3241.615809574595,2,49,0.5501165986061096,4.015750885009766,44.22328010155773,43.71159789074711,177.32047062205416,158.41223369717054,9.70840483205393e-05,0.0916610211133956,0,0,0
14689,532329.8782665192,2010-12-12 16:26:38,3271.63080248503,2,49,0.5501165986061096,4.017855644226074,44.22786741098602,43.71159789074711,177.3388970276525,158.41223369717054,0.0,0.0916610211133956,0,0,0
14690,532359.8933581553,2010-12-12 16:27:08,3301.64589412114,2,49,0.550297200679779,4.0202836990356445,44.23245478031884,43.71159789074711,177.35733445645835,158.41223369717054,6.47544875391759e-05,0.0916610211133956,0,0,0
14691,532389.9085804515,2010-12-12 16:27:38,3331.661116417393,2,49,0.5501165986061096,4.022550106048584,44.23704215280308,43.71159789074711,177.3757829360207,158.41223369717054,0.0,0.0916610211133956,0,0,0
14692,532419.9238101862,2010-12-12 16:28:08,3361.676346227343,2,49,0.550297200679779,4.025302410125732,44.2416295335923,43.71159789074711,177.39424249498683,158.41223369717054,9.71794142969884e-05,0.0916610211133956,0,0,0
14693,532449.9386850479,2010-12-12 16:28:38,3391.691221104056,2,49,0.550297200679779,4.027730464935303,44.24621690631885,43.71159789074711,177.41271325112342,158.41223369717054,6.47544875391759e-05,0.0916610211133956,0,0,0
14694,532479.9537958317,2010-12-12 16:29:08,3421.7063317925763,2,49,0.5501165986061096,4.029996871948242,44.25080432541625,43.71159789074711,177.43119546141648,158.41223369717054,6.47544875391759e-05,0.0916610211133956,0,0,0
14695,532509.9688828263,2010-12-12 16:29:38,3451.721418792148,2,49,0.5501165986061096,4.032425403594971,44.255391652131394,43.71159789074711,177.449688689731,158.41223369717054,3.24249267578125e-05,0.0916610211133956,0,0,0
14696,532539.9839895249,2010-12-12 16:30:08,3481.7365254907404,2,49,0.5501165986061096,4.035015106201172,44.25997908237463,43.71159789074711,177.4681939180572,158.41223369717054,3.23295607813634e-05,0.0916610211133956,0,0,0
14697,532569.999113747,2010-12-12 16:30:38,3511.751649712939,2,49,0.5501165986061096,4.03776741027832,44.26456643515613,43.71159789074711,177.48671046243774,158.41223369717054,9.71794142969884e-05,0.0916610211133956,0,0,0
14698,532600.0141977341,2010-12-12 16:31:08,3541.7667337000157,2,49,0.550297200679779,4.040195465087891,44.26915382707645,43.71159789074711,177.50523887391705,158.41223369717054,6.47544875391759e-05,0.0916610211133956,0,0,0
14699,532630.02930738,2010-12-12 16:31:38,3571.7818434411784,2,49,0.5501165986061096,4.04278564453125,44.27374120763079,43.71159789074711,177.52377904656996,158.41223369717054,6.47544875391759e-05,0.0916610211133956,0,0,0
14700,532660.044404565,2010-12-12 16:32:08,3601.796940535872,2,49,0.5501165986061096,4.045537948608398,44.2783285757917,43.71159789074711,177.54233112292616,158.41223369717054,9.71794142969884e-05,0.0916610211133956,0,0,0
14701,532690.0595638243,2010-12-12 16:32:38,3631.81209979526,2,49,0.550297200679779,4.048128128051758,44.2829160005964,43.71159789074711,177.5608954902035,158.41223369717054,9.71794142969884e-05,0.0916610211133956,0,0,0
14702,532720.0746189997,2010-12-12 16:33:08,3661.8271549656265,2,49,0.5501165986061096,4.050718307495117,44.28750343119664,43.71159789074711,177.5794720145513,158.41223369717054,6.47544875391759e-05,0.0916610211133956,0,0,0
14703,532750.0897257635,2010-12-12 16:33:38,3691.842261729381,2,49,0.550297200679779,4.053470134735107,44.2920908305747,43.71159789074711,177.59806059185888,158.41223369717054,6.47544875391759e-05,0.0916610211133956,0,0,0
14704,532780.1048526072,2010-12-12 16:34:08,3721.85738862824,2,49,0.550297200679779,4.056222438812256,44.2966783149442,43.71159789074711,177.6166619339335,158.41223369717054,3.24249267578125e-05,0.0916610211133956,0,0,0
14705,532810.1220343445,2010-12-12 16:34:38,3751.874570430648,2,49,0.5501165986061096,4.058812618255615,44.301266057447485,43.71159789074711,177.6352768352568,158.41223369717054,6.47544875391759e-05,0.0916610211133956,0,0,0
14706,532840.135054606,2010-12-12 16:35:08,3781.8875905719233,2,49,0.550297200679779,4.0615644454956055,44.30585315470184,43.71159789074711,177.65390146327957,158.41223369717054,6.47544875391759e-05,0.0916610211133956,0,0,0
14707,532870.1501432898,2010-12-12 16:35:38,3811.9026792556874,2,49,0.5501165986061096,4.064316749572754,44.31044051627431,43.71159789074711,177.67253973444576,158.41223369717054,6.47544875391759e-05,0.0916610211133956,0,0,0
14708,532900.1652716724,2010-12-12 16:36:08,3841.917807638238,2,49,0.5501165986061096,4.067068576812744,44.31502792017157,43.71159789074711,177.69119100969587,158.41223369717054,9.70840483205393e-05,0.0916610211133956,0,0,0
14709,532930.18036191,2010-12-12 16:36:38,3871.932897875868,2,49,0.5501165986061096,4.069982528686523,44.319615317373696,43.71159789074711,177.7098551849086,158.41223369717054,6.47544875391759e-05,0.0916610211133956,0,0,0
14710,532960.1954883377,2010-12-12 16:37:08,3901.9480243787434,2,49,0.5501165986061096,4.072896480560303,44.32420270143096,43.71159789074711,177.72853231706424,158.41223369717054,9.70840483205393e-05,0.0916610211133956,0,0,0
14711,532990.210685752,2010-12-12 16:37:38,3931.963221692828,2,49,0.5501165986061096,4.075648784637451,44.32879006085735,43.71159789074711,177.74722257461758,158.41223369717054,6.47544875391759e-05,0.0916610211133956,0,0,0
14712,533020.2257119252,2010-12-12 16:38:08,3961.9782479612736,2,49,0.550297200679779,4.078562736511231,44.33337745396253,43.71159789074711,177.7659262666894,158.41223369717054,6.47544875391759e-05,0.0916610211133956,0,0,0
14713,533050.2407978922,2010-12-12 16:38:38,3991.993333858101,2,49,0.5501165986061096,4.081314563751221,44.33796490177373,43.71159789074711,177.78464354374918,158.41223369717054,3.23295607813634e-05,0.0916610211133956,0,0,0
14714,533080.2558517944,2010-12-12 16:39:08,4022.008387760311,2,49,0.5499359965324402,4.084390640258789,44.34255236965106,43.71159789074711,177.8033742810582,158.41223369717054,3.24249267578125e-05,0.0916610211133956,0,0,0
14715,533110.2709880465,2010-12-12 16:39:38,4052.023524012447,2,49,0.550297200679779,4.087466239929199,44.3471397208569,43.71159789074711,177.82211808820043,158.41223369717054,9.70840483205393e-05,0.0916610211133956,0,0,0
14716,533140.286120795,2010-12-12 16:40:08,4082.038656760863,2,49,0.550297200679779,4.090542316436768,44.35172705012658,43.71159789074711,177.84087557610636,158.41223369717054,6.47544875391759e-05,0.0916610211133956,0,0,0
14717,533170.3012041756,2010-12-12 16:40:38,4112.053740141429,2,49,0.550297200679779,4.093456268310547,44.35631445474952,43.71159789074711,177.85964722235786,158.41223369717054,6.47544875391759e-05,0.0916610211133956,0,0,0
14718,533200.3162980822,2010-12-12 16:41:08,4142.068834048189,2,49,0.550297200679779,4.096693992614746,44.36090184341435,43.71159789074711,177.87843274908465,158.41223369717054,0.0001295089750783,0.0916610211133956,0,0,0
14719,533230.3314461438,2010-12-12 16:41:39,4172.083982114724,2,49,0.5501165986061096,4.099607944488525,44.365489208167,43.71159789074711,177.89723227190595,158.41223369717054,6.47544875391759e-05,0.0916610211133956,0,0,0
14720,533260.3466834574,2010-12-12 16:42:09,4202.099219478471,2,49,0.5501165986061096,4.102683544158936,44.37007672357642,43.71159789074711,177.91604655595663,158.41223369717054,6.47544875391759e-05,0.0916610211133956,0,0,0
14721,533290.3616878715,2010-12-12 16:42:39,4232.114223822358,2,49,0.5501165986061096,4.105759620666504,44.37466412537911,43.71159789074711,177.93487467207294,158.41223369717054,6.47544875391759e-05,0.0916610211133956,0,0,0
14722,533320.3768822533,2010-12-12 16:43:09,4262.129418209159,2,49,0.5501165986061096,4.108997344970703,44.379251574320975,43.71159789074711,177.95371738682863,158.41223369717054,9.71794142969884e-05,0.0916610211133956,0,0,0
14723,533350.3918428383,2010-12-12 16:43:39,4292.144378789141,2,49,0.5501165986061096,4.112235069274902,44.38383892705722,43.71159789074711,177.97257422780268,158.41223369717054,9.71794142969884e-05,0.0916610211133956,0,0,0
14724,533380.4069535017,2010-12-12 16:44:09,4322.1594894526,2,49,0.550297200679779,4.115472316741943,44.38842624467237,43.71159789074711,177.99144551070304,158.41223369717054,9.70840483205393e-05,0.0916610211133956,0,0,0
14725,533410.4220687365,2010-12-12 16:44:39,4352.174604702471,2,49,0.5501165986061096,4.118548393249512,44.39301363685568,43.71159789074711,178.0103318755484,158.41223369717054,6.47544875391759e-05,0.0916610211133956,0,0,0
14726,533440.42336767,2010-12-12 16:45:09,4382.175903651008,2,49,0.550297200679779,4.121947765350342,44.39759890976339,43.71159789074711,178.0292243827402,158.41223369717054,9.70840483205393e-05,0.0916610211133956,0,0,0
14727,533470.43666458,2010-12-12 16:45:39,4412.189200545974,2,49,0.550297200679779,4.125185489654541,44.40218602460504,43.71159789074711,178.0481395049002,158.41223369717054,9.70840483205393e-05,0.0916610211133956,0,0,0
14728,533500.451744136,2010-12-12 16:46:09,4442.204280102023,2,49,0.550297200679779,4.128585338592529,44.40677343750681,43.71159789074711,178.0670709765714,158.41223369717054,9.71794142969884e-05,0.0916610211133956,0,0,0
14729,533530.4668609299,2010-12-12 16:46:39,4472.219396895736,2,49,0.550297200679779,4.1318230628967285,44.4113608156718,43.71159789074711,178.08601758165227,158.41223369717054,9.71794142969884e-05,0.0916610211133956,0,0,0
14730,533560.4819743552,2010-12-12 16:47:09,4502.234510306031,2,49,0.550297200679779,4.135060787200928,44.41594824936293,43.71159789074711,178.10497976273814,158.41223369717054,6.47544875391759e-05,0.0916610211133956,0,0,0
14731,533590.4972232627,2010-12-12 16:47:39,4532.249759213504,2,49,0.550297200679779,4.138622283935547,44.4205357070028,43.71159789074711,178.1239574856172,158.41223369717054,9.71794142969884e-05,0.0916610211133956,0,0,0
14732,533620.512165883,2010-12-12 16:48:09,4562.264701848832,2,49,0.550297200679779,4.142183780670166,44.42512316309207,43.71159789074711,178.14295083588073,158.41223369717054,0.0001295089750783,0.0916610211133956,0,0,0
14733,533650.527280421,2010-12-12 16:48:39,4592.279816386933,2,49,0.550297200679779,4.145583152770996,44.4297106242663,43.71159789074711,178.16195995239457,158.41223369717054,9.70840483205393e-05,0.0916610211133956,0,0,0
14734,533680.5424034252,2010-12-12 16:49:09,4622.294939391099,2,49,0.550297200679779,4.148983001708984,44.43429803905729,43.71159789074711,178.18098493639857,158.41223369717054,0.0001295089750783,0.0916610211133956,0,0,0
14735,533710.5575065048,2010-12-12 16:49:39,4652.310042455649,2,49,0.550297200679779,4.152382373809815,44.43888539200891,43.71159789074711,178.20002551216666,158.41223369717054,9.70840483205393e-05,0.0916610211133956,0,0,0
14736,533740.5725969529,2010-12-12 16:50:09,4682.325132923853,2,49,0.5501165986061096,4.155943870544434,44.4434727807269,43.71159789074711,178.21908221049702,158.41223369717054,0.0001295089750783,0.0916610211133956,0,0,0
14737,533770.587702238,2010-12-12 16:50:39,4712.340238203915,2,49,0.5501165986061096,4.159343719482422,44.44806011028635,43.71159789074711,178.23815476502733,158.41223369717054,9.71794142969884e-05,0.0916610211133956,0,0,0
14738,533800.6030209943,2010-12-12 16:51:09,4742.355556965217,2,49,0.5501165986061096,4.162905216217041,44.45264756962028,43.71159789074711,178.25724412162742,158.41223369717054,9.71794142969884e-05,0.0916610211133956,0,0,0
14739,533830.6047511058,2010-12-12 16:51:39,4772.357287161899,2,49,0.550297200679779,4.166628360748291,44.457232945424174,43.71159789074711,178.27634108795425,158.41223369717054,9.70840483205393e-05,0.0916610211133956,0,0,0
14740,533860.6174085345,2010-12-12 16:52:09,4802.369944500353,2,49,0.550297200679779,4.17018985748291,44.46181996770737,43.71159789074711,178.29546133254487,158.41223369717054,0.0001295089750783,0.0916610211133956,0,0,0
14741,533890.6191186713,2010-12-12 16:52:39,4832.371654727341,2,49,0.550297200679779,4.173751354217529,44.46640530233231,43.71159789074711,178.3145910822005,158.41223369717054,0.0001295089750783,0.0916610211133956,0,0,0
14742,533920.632167524,2010-12-12 16:53:09,4862.384703544975,2,49,0.550297200679779,4.1774749755859375,44.47099240923114,43.71159789074711,178.33374486023698,158.41223369717054,9.71794142969884e-05,0.0916610211133956,0,0,0
14743,533950.6470791771,2010-12-12 16:53:39,4892.399615143067,2,49,0.5501165986061096,4.181198120117188,44.475579782664205,43.71159789074711,178.35291648067374,158.41223369717054,9.70840483205393e-05,0.0916610211133956,0,0,0
14744,533980.6623415331,2010-12-12 16:54:09,4922.41487748397,2,49,0.550297200679779,4.184921741485596,44.48016726639659,43.71159789074711,178.3721054596905,158.41223369717054,0.0001295089750783,0.0916610211133956,0,0,0
14745,534010.6772905494,2010-12-12 16:54:39,4952.429826500175,2,49,0.550297200679779,4.188644886016846,44.48475463744922,43.71159789074711,178.39131084194318,158.41223369717054,0.0001618385285837,0.0916610211133956,0,0,0
14746,534040.6925310208,2010-12-12 16:55:09,4982.445066971656,2,49,0.5501165986061096,4.192206382751465,44.48934201641761,43.71159789074711,178.41053349537415,158.41223369717054,0.0001295089750783,0.0916610211133956,0,0,0
14747,534070.7075300665,2010-12-12 16:55:39,5012.460066017358,2,49,0.550297200679779,4.196091651916504,44.49392942293282,43.71159789074711,178.42977348837405,158.41223369717054,0.0001295089750783,0.0916610211133956,0,0,0
14748,534100.7244034664,2010-12-12 16:56:09,5042.476939557669,2,49,0.550297200679779,4.199814796447754,44.49851705798844,43.71159789074711,178.44903174821678,158.41223369717054,0.0001295089750783,0.0916610211133956,0,0,0
14749,534102.3163370469,2010-12-12 16:56:11,5044.068873012843,2,49,0.5501165986061096,4.200138568878174,44.49876036884785,43.71159789074711,178.4500536215453,158.41223369717054,0.0001295089750783,0.0916610211133956,0,0,0
14750,534132.3473830089,2010-12-12 16:56:41,30.015225539322856,3,49,0.0,4.112558841705322,44.49876036884785,43.71159789074711,178.4500536215453,158.41223369717054,-0.0003885269106831,0.0916610211133956,0,0,0
14751,534162.3623647215,2010-12-12 16:57:11,60.03020723685479,3,49,0.0,4.101550579071045,44.49876036884785,43.71159789074711,178.4500536215453,158.41223369717054,-0.0001942634553415,0.0916610211133956,0,0,0
14752,534192.377480628,2010-12-12 16:57:41,90.045323158398,3,49,0.0,4.095075130462647,44.49876036884785,43.71159789074711,178.4500536215453,158.41223369717054,-9.70840483205393e-05,0.0916610211133956,0,0,0
14753,534222.3457000143,2010-12-12 16:58:11,120.01354254972952,3,49,0.0,4.090703964233398,44.49876036884785,43.71159789074711,178.4500536215453,158.41223369717054,-9.71794142969884e-05,0.0916610211133956,0,0,0
14754,534222.3636131804,2010-12-12 16:58:11,2.837059914e-06,4,49,1.0126569271087646,4.199814796447754,44.49876036964589,43.71159789074711,178.45005362489695,158.41223369717054,0.0,0.0916610211133956,0,0,0
14755,534223.0489583154,2010-12-12 16:58:11,0.685348012168743,4,49,0.9617251753807068,4.199653148651123,44.498946801224925,43.71159789074711,178.45083659188495,158.41223369717054,-3.23295607813634e-05,0.0916610211133956,0,0,0
14756,534224.877069169,2010-12-12 16:58:13,2.513458865715839,4,49,0.911154568195343,4.199814796447754,44.49942124499135,43.71159789074711,178.45282914441088,158.41223369717054,0.0,0.0916610211133956,0,0,0
14757,534227.6600810119,2010-12-12 16:58:16,5.296470778822686,4,49,0.8607645630836487,4.199491024017334,44.500105110459565,43.71159789074711,178.45570122055688,158.41223369717054,-3.24249267578125e-05,0.0916610211133956,0,0,0
14758,534231.5957005898,2010-12-12 16:58:20,9.232090281585332,4,49,0.810735821723938,4.199814796447754,44.50101751728607,43.71159789074711,178.459533124993,158.41223369717054,3.23295607813634e-05,0.0916610211133956,0,0,0
14759,534236.7224967598,2010-12-12 16:58:25,14.358886526857216,4,49,0.7607070207595825,4.199814796447754,44.50213488549273,43.71159789074711,178.46422583086417,158.41223369717054,3.23295607813634e-05,0.0916610211133956,0,0,0
14760,534243.3768190901,2010-12-12 16:58:32,21.013208781853304,4,49,0.7104976773262024,4.199653148651123,44.50349262422444,43.71159789074711,178.46992801242862,158.41223369717054,-3.23295607813634e-05,0.0916610211133956,0,0,0
14761,534252.2360415295,2010-12-12 16:58:41,29.87243122115418,4,49,0.6604688763618469,4.199653148651123,44.50517694130518,43.71159789074711,178.47700171107306,158.41223369717054,0.0,0.0916610211133956,0,0,0
14762,534264.4546119871,2010-12-12 16:58:53,42.091001678793,4,49,0.6104401350021362,4.199814796447754,44.5073288658464,43.71159789074711,178.4860392440214,158.41223369717054,0.0,0.0916610211133956,0,0,0
14763,534282.4386332121,2010-12-12 16:59:11,60.075022903918594,4,49,0.5602307319641113,4.199653148651123,44.510244265740525,43.71159789074711,178.49828318627203,158.41223369717054,0.0,0.0916610211133956,0,0,0
14764,534312.625659105,2010-12-12 16:59:41,90.26204879681362,4,49,0.5102019906044006,4.199814796447754,44.51471415650085,43.71159789074711,178.51705559421697,158.41223369717054,3.23295607813634e-05,0.0916610211133956,0,0,0
14765,534368.2651739528,2010-12-12 17:00:37,145.9015636445308,4,49,0.4601731896400451,4.199653148651123,44.52217651122326,43.71159789074711,178.5483955731885,158.41223369717054,-6.47544875391759e-05,0.0916610211133956,0,0,0
14766,534459.7636012199,2010-12-12 17:02:08,237.39999091161468,4,49,0.4101444184780121,4.199653148651123,44.533202811216135,43.71159789074711,178.59470348667926,158.41223369717054,-3.23295607813634e-05,0.0916610211133956,0,0,0
14767,534577.5429346511,2010-12-12 17:04:06,355.179324342884,4,49,0.360115647315979,4.199653148651123,44.54578261124632,43.71159789074711,178.64753624708433,158.41223369717054,-6.47544875391759e-05,0.0916610211133956,0,0,0
14768,534717.6515929986,2010-12-12 17:06:26,495.2879827655744,4,49,0.3100868761539459,4.199814796447754,44.55880752361485,43.71159789074711,178.7022382967788,158.41223369717054,3.23295607813634e-05,0.0916610211133956,0,0,0
14769,534886.2563648786,2010-12-12 17:09:15,663.8927546606363,4,49,0.2600581049919128,4.199653148651123,44.57213633802788,43.71159789074711,178.75821662618603,158.41223369717054,0.0,0.0916610211133956,0,0,0
14770,535093.033898458,2010-12-12 17:12:41,870.6702881547543,4,49,0.2098487317562103,4.199653148651123,44.58559284167481,43.71159789074711,178.81473126860644,158.41223369717054,-6.47544875391759e-05,0.0916610211133956,0,0,0
14771,535367.904148809,2010-12-12 17:17:16,1145.5405385008078,4,49,0.1596393585205078,4.199814796447754,44.59962645952753,43.71159789074711,178.8736696842712,158.41223369717054,0.0,0.0916610211133956,0,0,0
14772,535778.3970728323,2010-12-12 17:24:07,1556.03346252405,4,49,0.1096105873584747,4.199814796447754,44.614794619447466,43.71159789074711,178.93737297996051,158.41223369717054,0.0,0.0916610211133956,0,0,0
14773,536551.711789517,2010-12-12 17:37:00,2329.348179208646,4,49,0.0595818199217319,4.199491024017334,44.63236680169987,43.71159789074711,179.01117282253483,158.41223369717054,-6.47544875391759e-05,0.0916610211133956,0,0,0
14774,536800.4731349472,2010-12-12 17:41:09,2578.109524639005,4,49,0.0498289167881011,4.199491024017334,44.636161929051845,43.71159789074711,179.02711157494522,158.41223369717054,-6.47544875391759e-05,0.0916610211133956,0,0,0
14775,536830.4726064294,2010-12-12 17:41:39,30.015101004422544,5,49,0.0,4.191882610321045,44.636161929051845,43.71159789074711,179.02711157494522,158.41223369717054,0.0,0.0916610211133956,0,0,0
14776,536860.4720853487,2010-12-12 17:42:09,60.01457992388752,5,49,0.0,4.190587520599365,44.636161929051845,43.71159789074711,179.02711157494522,158.41223369717054,-3.24249267578125e-05,0.0916610211133956,0,0,0
14777,536860.6607576008,2010-12-12 17:42:09,0.187616852320968,6,49,-1.9243103452026844e-05,4.190425872802734,44.636161929051845,43.711597891749975,179.02711157494522,158.412233701373,0.0,0.0961798131465911,0,0,0
14778,536865.4886588723,2010-12-12 17:42:14,5.015518143996792,6,49,0.0007031940040178,4.190425872802734,44.63616297053848,43.71159789183312,179.02711593930172,158.4122337017214,-3.23295607813634e-05,0.0961798131465911,0,0,0
14779,536895.4894320519,2010-12-12 17:42:44,30.01525546880121,7,49,-1.0997490882873535,4.009922981262207,44.63616297053848,43.72076649495257,179.02711593930172,158.44920494526525,-0.0009389877086505,0.0961798131465911,0,0,0
14780,536925.5043386526,2010-12-12 17:43:14,60.03016205442003,7,49,-1.099568486213684,3.981916904449463,44.63616297053848,43.729935018998944,179.02711593930172,158.4858320583934,-0.0006151676061563,0.0961798131465911,0,0,0
14781,536955.5194383085,2010-12-12 17:43:44,90.04526172552467,7,49,-1.0993878841400146,3.9626524448394775,44.63616297053848,43.73910347774659,179.02711593930172,158.522246410983,-0.0004209041653666,0.0961798131465911,0,0,0
14782,536985.5345527414,2010-12-12 17:44:14,120.06037615836333,7,49,-1.099568486213684,3.9472732543945312,44.63616297053848,43.748271968410016,179.02711593930172,158.5585048133359,-0.0003885269106831,0.0961798131465911,0,0,0
14783,537015.5496660765,2010-12-12 17:44:44,150.07548949848277,7,49,-1.099568486213684,3.9343223571777344,44.63616297053848,43.75744042363617,179.02711593930172,158.59463492564072,-0.0003237724304199,0.0961798131465911,0,0,0
14784,537045.56475463,2010-12-12 17:45:14,180.09057804690903,7,49,-1.0997490882873535,3.9225046634674072,44.63616297053848,43.76660890754167,179.02711593930172,158.63065169118488,-0.0003237724304199,0.0961798131465911,0,0,0
14785,537075.5798861253,2010-12-12 17:45:44,210.10570953719449,7,49,-1.0997490882873535,3.911334753036499,44.63616297053848,43.775777412071605,179.02711593930172,158.66656378848373,-0.0002913951757363,0.0961798131465911,0,0,0
14786,537105.5949912049,2010-12-12 17:46:14,240.12081468192,7,49,-1.099568486213684,3.9009740352630615,44.63616297053848,43.78494591615857,179.02711593930172,158.7023770569312,-0.0002590179501567,0.0961798131465911,0,0,0
14787,537135.6100993319,2010-12-12 17:46:44,270.1359227489175,7,49,-1.0997490882873535,3.890775203704834,44.63616297053848,43.794114442018206,179.02711593930172,158.7380959698697,-0.0002590179501567,0.0961798131465911,0,0,0
14788,537165.6251909932,2010-12-12 17:47:14,300.15101448026434,7,49,-1.099568486213684,3.8809001445770255,44.63616297053848,43.80328291115879,179.02711593930172,158.77372326730662,-0.0002590179501567,0.0961798131465911,0,0,0
14789,537195.6404467076,2010-12-12 17:47:44,330.1662701295146,7,49,-1.0997490882873535,3.8711869716644287,44.63616297053848,43.8124514902475,179.02711593930172,158.80926129442037,-0.0002590179501567,0.0961798131465911,0,0,0
14790,537225.6553966311,2010-12-12 17:48:14,360.1812200329281,7,49,-1.099568486213684,3.861959457397461,44.63616297053848,43.82161991858112,179.02711593930172,158.84471162710017,-0.0002266406954731,0.0961798131465911,0,0,0
14791,537255.6705169636,2010-12-12 17:48:44,390.19634038048525,7,49,-1.0997490882873535,3.852731943130493,44.63616297053848,43.83078846342057,179.02711593930172,158.88007786892507,-0.0002590179501567,0.0961798131465911,0,0,0
14792,537285.685630028,2010-12-12 17:49:14,420.21145342988126,7,49,-1.0997490882873535,3.843666315078736,44.63616297053848,43.83995695258907,179.02711593930172,158.91536122339795,-0.0002590179501567,0.0961798131465911,0,0,0
14793,537315.7007205865,2010-12-12 17:49:45,450.2265440033468,7,49,-1.099568486213684,3.835086345672608,44.63616297053848,43.84912547503004,179.02711593930172,158.9505635237962,-0.0002266406954731,0.0961798131465911,0,0,0
14794,537345.715961083,2010-12-12 17:50:15,480.24178449989006,7,49,-1.099568486213684,3.8265066146850586,44.63616297053848,43.85829409221637,179.02711593930172,158.9856863500482,-0.0001942634553415,0.0961798131465911,0,0,0
14795,537375.7327962528,2010-12-12 17:50:45,510.25861974991614,7,49,-1.0997490882873535,3.8180885314941406,44.63616297053848,43.86746318465659,179.02711593930172,159.0207334196257,-0.0002266406954731,0.0961798131465911,0,0,0
14796,537405.746043384,2010-12-12 17:51:15,540.2718667908218,7,49,-1.099568486213684,3.8099942207336426,44.63616297053848,43.876631138080384,179.02711593930172,159.0557003083556,-0.0001618862152099,0.0961798131465911,0,0,0
14797,537435.7611503232,2010-12-12 17:51:45,570.2869737400378,7,49,-1.0993878841400146,3.8020617961883545,44.63616297053848,43.88579965293904,179.02711593930172,159.09059451354813,-0.0001618862152099,0.0961798131465911,0,0,0
14798,537465.7763363691,2010-12-12 17:52:15,600.3021598763075,7,49,-1.099568486213684,3.793967485427856,44.63616297053848,43.89496824445117,179.02711593930172,159.12541647184133,-0.0002266406954731,0.0961798131465911,0,0,0
14799,537495.7915148715,2010-12-12 17:52:45,630.3173382883559,7,49,-1.099568486213684,3.786682605743408,44.63616297053848,43.90413681691246,179.02711593930172,159.1601679608278,-0.0001618862152099,0.0961798131465911,0,0,0
14800,537525.80659543,2010-12-12 17:53:15,660.3324188468997,7,49,-1.099929690361023,3.77891206741333,44.63616297053848,43.91330539102769,179.02711593930172,159.19485048820374,-0.0002266406954731,0.0961798131465911,0,0,0
14801,537555.8215821651,2010-12-12 17:53:45,690.347405652142,7,49,-1.0997490882873535,3.771789073944092,44.63616297053848,43.92247397930477,179.02711593930172,159.22946566864294,-0.0001942634553415,0.0961798131465911,0,0,0
14802,537585.8366876155,2010-12-12 17:54:15,720.3625110374663,7,49,-1.0997490882873535,3.7646660804748535,44.63616297053848,43.93164245613311,179.02711593930172,159.26401453145132,-0.0001942634553415,0.0961798131465911,0,0,0
14803,537615.8517957528,2010-12-12 17:54:45,750.377619169626,7,49,-1.099568486213684,3.757866859436035,44.63616297053848,43.94081101272335,179.02711593930172,159.2984988398647,-0.0001618862152099,0.0961798131465911,0,0,0
14804,537645.8669024663,2010-12-12 17:55:15,780.3927258832555,7,49,-1.0997490882873535,3.750905990600586,44.63616297053848,43.94997964794606,179.02711593930172,159.3329207654433,-0.0001942634553415,0.0961798131465911,0,0,0
14805,537675.8819385744,2010-12-12 17:55:45,810.4077620814103,7,49,-1.099568486213684,3.744430541992188,44.63616297053848,43.95914821004252,179.02711593930172,159.36728080004323,-0.0001295089750783,0.0961798131465911,0,0,0
14806,537705.8971061494,2010-12-12 17:56:15,840.4229295712792,7,49,-1.0997490882873535,3.737793207168579,44.63616297053848,43.968316869813805,179.02711593930172,159.40158143761306,-0.0001942634553415,0.0961798131465911,0,0,0
14807,537735.912184307,2010-12-12 17:56:45,870.4380077238359,7,49,-1.0997490882873535,3.7313177585601807,44.63616297053848,43.977485463088335,179.02711593930172,159.4358230006832,-0.0002266406954731,0.0961798131465911,0,0,0
14808,537765.9273412206,2010-12-12 17:57:15,900.4531646373861,7,49,-1.099568486213684,3.725327968597412,44.63616297053848,43.98665405533403,179.02711593930172,159.47000673046912,-0.0001618862152099,0.0961798131465911,0,0,0
14809,537795.942579672,2010-12-12 17:57:45,930.4684030988652,7,49,-1.099568486213684,3.7191762924194336,44.63616297053848,43.9958226849969,179.02711593930172,159.50413385851994,-0.0001295089750783,0.0961798131465911,0,0,0
14810,537825.9575761212,2010-12-12 17:58:15,960.4833996333184,7,49,-1.0997490882873535,3.712862730026245,44.63616297053848,44.004991251163965,179.02711593930172,159.53820470628924,-0.0002266406954731,0.0961798131465911,0,0,0
14811,537855.9752541885,2010-12-12 17:58:45,990.5010776956505,7,49,-1.0997490882873535,3.7070348262786874,44.63616297053848,44.0141606303378,179.02711593930172,159.57222364168223,-0.0001618862152099,0.0961798131465911,0,0,0
14812,537885.9886411726,2010-12-12 17:59:15,1020.5144645945874,7,49,-1.099568486213684,3.701206922531128,44.63616297053848,44.02332869808908,179.02711593930172,159.60618361803006,-0.0001295089750783,0.0961798131465911,0,0,0
14813,537915.99034952,2010-12-12 17:59:45,1050.5161730321222,7,49,-1.0997490882873535,3.6955409049987793,44.63616297053848,44.03249319446309,179.02711593930172,159.6400770079789,-0.0001295089750783,0.0961798131465911,0,0,0
14814,537946.002376585,2010-12-12 18:00:15,1080.5281999868905,7,49,-1.0997490882873535,3.689874887466431,44.63616297053848,44.04166089331199,179.02711593930172,159.6739300939139,-0.0001295089750783,0.0961798131465911,0,0,0
14815,537976.017477023,2010-12-12 18:00:45,1110.5433004148786,7,49,-1.0997490882873535,3.684208869934082,44.63616297053848,44.05082943695226,179.02711593930172,159.70773490290037,-0.0001295089750783,0.0961798131465911,0,0,0
14816,538006.034493474,2010-12-12 18:01:15,1140.5603169961405,7,49,-1.0997490882873535,3.678866624832153,44.63616297053848,44.05999861815664,179.02711593930172,159.74149152118025,-0.0001295089750783,0.0961798131465911,0,0,0
14817,538036.047684305,2010-12-12 18:01:45,1170.5735077269203,7,49,-1.099568486213684,3.6735243797302246,44.63616297053848,44.06916661879662,179.02711593930172,159.775194109397,-0.0001295089750783,0.0961798131465911,0,0,0
14818,538066.0629498239,2010-12-12 18:02:15,1200.5887732457306,7,49,-1.0997490882873535,3.668182373046875,44.63616297053848,44.078335219907885,179.02711593930172,159.80885003109262,-0.0001295089750783,0.0961798131465911,0,0,0
14819,538096.0791249361,2010-12-12 18:02:45,1230.604948428204,7,49,-1.099568486213684,3.663163900375366,44.63616297053848,44.0875041080818,179.02711593930172,159.84245892385124,-6.47544875391759e-05,0.0961798131465911,0,0,0
14820,538126.0931494868,2010-12-12 18:03:15,1260.618972978913,7,49,-1.099568486213684,3.6578216552734375,44.63616297053848,44.09667240170399,179.02711593930172,159.87601827631008,-0.0001295089750783,0.0961798131465911,0,0,0
14821,538156.1081123676,2010-12-12 18:03:45,1290.6339357693955,7,49,-1.099568486213684,3.6528031826019287,44.63616297053848,44.10584093294206,179.02711593930172,159.90953216886965,-0.0001295089750783,0.0961798131465911,0,0,0
14822,538186.1233507739,2010-12-12 18:04:15,1320.6491741907748,7,49,-1.0997490882873535,3.64778470993042,44.63616297053848,44.11500957752101,179.02711593930172,159.94300089887287,-0.0001618862152099,0.0961798131465911,0,0,0
14823,538216.1383203412,2010-12-12 18:04:45,1350.6641437430835,7,49,-1.0997490882873535,3.642928123474121,44.63616297053848,44.12417798392819,179.02711593930172,159.97642355202547,-0.0001295089750783,0.0961798131465911,0,0,0
14824,538246.1535629982,2010-12-12 18:05:15,1380.6793864150409,7,49,-1.099568486213684,3.638233423233032,44.63616297053848,44.13334652673231,179.02711593930172,160.00980278312716,-0.0001295089750783,0.0961798131465911,0,0,0
14825,538276.1685708608,2010-12-12 18:05:45,1410.6943942826958,7,49,-1.099568486213684,3.633538722991944,44.63616297053848,44.14251496511046,179.02711593930172,160.043138542985,-0.0001618862152099,0.0961798131465911,0,0,0
14826,538306.183662131,2010-12-12 18:06:15,1440.7094855378575,7,49,-1.0997490882873535,3.629005908966065,44.63616297053848,44.15168350629496,179.02711593930172,160.07643220946304,-0.0001295089750783,0.0961798131465911,0,0,0
14827,538336.1989527723,2010-12-12 18:06:45,1470.724776279434,7,49,-1.099568486213684,3.624634981155396,44.63616297053848,44.16085215761652,179.02711593930172,160.1096844786675,-9.713172767078504e-05,0.0961798131465911,0,0,0
14828,538366.2138783953,2010-12-12 18:07:15,1500.7397018172144,7,49,-1.099568486213684,3.6201021671295166,44.63616297053848,44.170020682839166,179.02711593930172,160.14289550577763,-0.0001295089750783,0.0961798131465911,0,0,0
14829,538396.2289707582,2010-12-12 18:07:45,1530.7547941751202,7,49,-1.099568486213684,3.6158931255340576,44.63616297053848,44.17918927952198,179.02711593930172,160.17606706196824,-9.713172767078504e-05,0.0961798131465911,0,0,0
14830,538426.2441949692,2010-12-12 18:08:15,1560.770018386138,7,49,-1.099568486213684,3.611684083938599,44.63616297053848,44.18835789153944,179.02711593930172,160.20919983684402,-9.713172767078504e-05,0.0961798131465911,0,0,0
14831,538456.2594280875,2010-12-12 18:08:45,1590.785251594545,7,49,-1.099568486213684,3.60747504234314,44.63616297053848,44.19752655603189,179.02711593930172,160.242295115733,-0.0001618862152099,0.0961798131465911,0,0,0
14832,538486.2744365466,2010-12-12 18:09:15,1620.80025996846,7,49,-1.099568486213684,3.603751659393311,44.63616297053848,44.2066950316358,179.02711593930172,160.2753528169684,-9.713172767078504e-05,0.0961798131465911,0,0,0
14833,538516.2893872369,2010-12-12 18:09:45,1650.8152106437944,7,49,-1.099568486213684,3.5998663902282715,44.63616297053848,44.21586345709802,179.02711593930172,160.3083744520305,-6.47544875391759e-05,0.0961798131465911,0,0,0
14834,538546.3046386606,2010-12-12 18:10:15,1680.8304620625172,7,49,-1.099929690361023,3.5958192348480225,44.63616297053848,44.22503212027432,179.02711593930172,160.34136203299948,-0.0001618862152099,0.0961798131465911,0,0,0
14835,538576.3197336601,2010-12-12 18:10:45,1710.8455570670092,7,49,-1.0997490882873535,3.5922577381134038,44.63616297053848,44.234200695782434,179.02711593930172,160.37431528371394,-9.713172767078504e-05,0.0961798131465911,0,0,0
14836,538606.3365344343,2010-12-12 18:11:15,1740.8623579314678,7,49,-1.099568486213684,3.5886964797973637,44.63616297053848,44.24336976221803,179.02711593930172,160.4072371727384,-9.713172767078504e-05,0.0961798131465911,0,0,0
14837,538636.3499495435,2010-12-12 18:11:45,1770.8757730155423,7,49,-1.0997490882873535,3.585296869277954,44.63616297053848,44.2525378866051,179.02711593930172,160.4401232929323,-6.47544875391759e-05,0.0961798131465911,0,0,0
14838,538666.3651831129,2010-12-12 18:12:15,1800.8910066199348,7,49,-1.099568486213684,3.581897258758545,44.63616297053848,44.26170653798327,179.02711593930172,160.4729797729113,-9.713172767078504e-05,0.0961798131465911,0,0,0
14839,538696.380054997,2010-12-12 18:12:45,1830.9058784189888,7,49,-1.099568486213684,3.578497648239136,44.63616297053848,44.27087514146614,179.02711593930172,160.50580511353482,-9.713172767078504e-05,0.0961798131465911,0,0,0
14840,538726.3951557209,2010-12-12 18:13:15,1860.9209791928376,7,49,-1.099568486213684,3.5752599239349365,44.63616297053848,44.28004373293799,179.02711593930172,160.53860005691703,-9.713172767078504e-05,0.0961798131465911,0,0,0
14841,538756.410277978,2010-12-12 18:13:45,1890.9361013950097,7,49,-1.0997490882873535,3.5720221996307373,44.63616297053848,44.28921232322939,179.02711593930172,160.57136505407192,-6.47544875391759e-05,0.0961798131465911,0,0,0
14842,538786.4253575642,2010-12-12 18:14:15,1920.9511809811336,7,49,-1.099568486213684,3.568946361541748,44.63616297053848,44.29838087442903,179.02711593930172,160.60410019197312,-3.237724376958795e-05,0.0961798131465911,0,0,0
14843,538816.4404898415,2010-12-12 18:14:45,1950.96631324334,7,49,-1.0997490882873535,3.565708637237549,44.63616297053848,44.307549405779504,179.02711593930172,160.63680589782257,-3.237724376958795e-05,0.0961798131465911,0,0,0
14844,538846.4557773551,2010-12-12 18:15:15,1980.981600847108,7,49,-1.0997490882873535,3.5624709129333496,44.63616297053848,44.31671797557449,179.02711593930172,160.6694825704456,-9.713172767078504e-05,0.0961798131465911,0,0,0
14845,538876.4708047363,2010-12-12 18:15:45,2010.996628138097,7,49,-1.099568486213684,3.5592331886291504,44.63616297053848,44.32588644381376,179.02711593930172,160.70213048398247,-6.47544875391759e-05,0.0961798131465911,0,0,0
14846,538906.4858048997,2010-12-12 18:16:15,2041.0116283166187,7,49,-1.0997490882873535,3.555995464324951,44.63616297053848,44.33505491522818,179.02711593930172,160.73474894987493,-0.0001295089750783,0.0961798131465911,0,0,0
14847,538936.5008962501,2010-12-12 18:16:45,2071.02671967203,7,49,-1.099568486213684,3.552919626235962,44.63616297053848,44.34422343076461,179.02711593930172,160.76733807217772,-6.47544875391759e-05,0.0961798131465911,0,0,0
14848,538966.5160141867,2010-12-12 18:17:15,2101.041837603575,7,49,-1.0997490882873535,3.5495200157165527,44.63616297053848,44.353391973633,179.02711593930172,160.79989777943896,-0.0001295089750783,0.0961798131465911,0,0,0
14849,538996.5311043342,2010-12-12 18:17:45,2131.0569277509803,7,49,-1.099568486213684,3.5464441776275635,44.63616297053848,44.3625604489613,179.02711593930172,160.83242722605254,-6.47544875391759e-05,0.0961798131465911,0,0,0
14850,539026.5462134286,2010-12-12 18:18:15,2161.0720368304974,7,49,-1.0997490882873535,3.5428826808929443,44.63616297053848,44.37172894726608,179.02711593930172,160.8649261931024,-0.0001295089750783,0.0961798131465911,0,0,0
14851,539056.5614041814,2010-12-12 18:18:45,2191.08722767348,7,49,-1.099568486213684,3.539644956588745,44.63616297053848,44.38089753547661,179.02711593930172,160.8973946098862,-9.713172767078504e-05,0.0961798131465911,0,0,0
14852,539086.5769736817,2010-12-12 18:19:15,2221.102797158698,7,49,-1.0997490882873535,3.536083459854126,44.63616297053848,44.39006622919079,179.02711593930172,160.92983190670012,-9.713172767078504e-05,0.0961798131465911,0,0,0
14853,539116.5915545768,2010-12-12 18:19:45,2251.117377998712,7,49,-1.099568486213684,3.532521963119507,44.63616297053848,44.39923466210998,179.02711593930172,160.96223581814624,-3.237724376958795e-05,0.0961798131465911,0,0,0
14854,539146.6066577266,2010-12-12 18:20:15,2281.1324811284235,7,49,-1.0997490882873535,3.5287985801696777,44.63616297053848,44.408403242184,179.02711593930172,160.99460709696174,-0.0001295089750783,0.0961798131465911,0,0,0
14855,539176.6217552524,2010-12-12 18:20:45,2311.1475786692267,7,49,-1.0997490882873535,3.5250751972198486,44.63616297053848,44.41757189101729,179.02711593930172,161.02694446379638,-6.47544875391759e-05,0.0961798131465911,0,0,0
14856,539206.6388730805,2010-12-12 18:21:15,2341.164696572625,7,49,-1.099568486213684,3.5211899280548096,44.63616297053848,44.42674104858541,179.02711593930172,161.0592481799701,-6.47544875391759e-05,0.0961798131465911,0,0,0
14857,539236.6520133758,2010-12-12 18:21:45,2371.177836882936,7,49,-1.0997490882873535,3.5169808864593506,44.63616297053848,44.435909020953325,179.02711593930172,161.0915111249593,-0.0001295089750783,0.0961798131465911,0,0,0
14858,539266.667076927,2010-12-12 18:22:16,2401.192900348945,7,49,-1.0997490882873535,3.5129337310791016,44.63616297053848,44.44507758788437,179.02711593930172,161.12373799487978,-9.713172767078504e-05,0.0961798131465911,0,0,0
14859,539296.6823218847,2010-12-12 18:22:46,2431.208145301577,7,49,-1.099568486213684,3.5084011554718018,44.63616297053848,44.45424622559626,179.02711593930172,161.15592511497084,-9.713172767078504e-05,0.0961798131465911,0,0,0
14860,539326.6973204893,2010-12-12 18:23:16,2461.2231438911444,7,49,-1.0993878841400146,3.503544569015503,44.63616297053848,44.4634147951524,179.02711593930172,161.18806969221424,-9.713172767078504e-05,0.0961798131465911,0,0,0
14861,539356.7124049125,2010-12-12 18:23:46,2491.2382283293427,7,49,-1.099929690361023,3.498364210128784,44.63616297053848,44.47258338668926,179.02711593930172,161.22016927889055,-0.0001618862152099,0.0961798131465911,0,0,0
14862,539386.727625304,2010-12-12 18:24:16,2521.253448720855,7,49,-1.099568486213684,3.493183851242065,44.63616297053848,44.48175235637305,179.02711593930172,161.252221462381,-9.713172767078504e-05,0.0961798131465911,0,0,0
14863,539416.7426059038,2010-12-12 18:24:46,2551.268429320656,7,49,-1.1001102924346924,3.486708402633667,44.63616297053848,44.49092176373297,179.02711593930172,161.28422204895784,-0.0002266406954731,0.0961798131465911,0,0,0
14864,539446.7578725654,2010-12-12 18:25:16,2581.2836959823094,7,49,-1.0997490882873535,3.4800710678100586,44.63616297053848,44.50009122421305,179.02711593930172,161.31616362380825,-0.0001618862152099,0.0961798131465911,0,0,0
14865,539476.772816539,2010-12-12 18:25:46,2611.2986399559672,7,49,-1.099929690361023,3.4721386432647705,44.63616297053848,44.509260594327976,179.02711593930172,161.3480376462376,-0.0002590179501567,0.0961798131465911,0,0,0
14866,539506.7880502287,2010-12-12 18:26:16,2641.3138736505844,7,49,-1.0997490882873535,3.4633967876434326,44.63616297053848,44.5184297165704,179.02711593930172,161.37983440149026,-0.0001942634553415,0.0961798131465911,0,0,0
14867,539536.803062372,2010-12-12 18:26:46,2671.3288857838543,7,49,-1.0997490882873535,3.452550411224365,44.63616297053848,44.52759828895013,179.02711593930172,161.4115401317679,-0.0002913951757363,0.0961798131465911,0,0,0
14868,539566.818151542,2010-12-12 18:27:16,2701.3439749638524,7,49,-1.0997490882873535,3.4400851726531982,44.63616297053848,44.53676693185292,179.02711593930172,161.4431394414087,-0.0003237724304199,0.0961798131465911,0,0,0
14869,539596.8332560802,2010-12-12 18:27:46,2731.359079482019,7,49,-1.0997490882873535,3.424058675765991,44.63616297053848,44.54593556740013,179.02711593930172,161.4746087526257,-0.0004856586456298,0.0961798131465911,0,0,0
14870,539626.8483357214,2010-12-12 18:28:16,2761.3741591383173,7,49,-1.0997490882873535,3.404308557510376,44.63616297053848,44.55510421365019,179.02711593930172,161.50591583318916,-0.0005827903514727,0.0961798131465911,0,0,0
14871,539656.8634379088,2010-12-12 18:28:46,2791.389261330696,7,49,-1.0997490882873535,3.3784067630767822,44.63616297053848,44.56427285190109,179.02711593930172,161.53701489511857,-0.0007446765666827,0.0961798131465911,0,0,0
14872,539686.8787919529,2010-12-12 18:29:16,2821.404615369785,7,49,-1.099568486213684,3.3437633514404297,44.63616297053848,44.57344162972803,179.02711593930172,161.5678396598959,-0.0010684489971026,0.0961798131465911,0,0,0
14873,539716.8936599324,2010-12-12 18:29:46,2851.4194833242723,7,49,-1.099568486213684,3.296816349029541,44.63616297053848,44.58261018332608,179.02711593930172,161.59829320029783,-0.0014245987404137,0.0961798131465911,0,0,0
14874,539746.9088100591,2010-12-12 18:30:16,2881.4346334709835,7,49,-1.099568486213684,3.231900215148926,44.63616297053848,44.59177881213379,179.02711593930172,161.62823987347497,-0.0020397664047777,0.0961798131465911,0,0,0
14875,539776.9239006075,2010-12-12 18:30:46,2911.4497241196364,7,49,-1.099568486213684,3.139463424682617,44.63616297053848,44.60094738814871,179.02711593930172,161.65747644918147,-0.0029139518737792,0.0961798131465911,0,0,0
14876,539806.9414828614,2010-12-12 18:31:16,2941.467306398615,7,49,-1.099568486213684,2.9947376251220703,44.63616297053848,44.610116798393,179.02711593930172,161.68566062784598,-0.004953718278557,0.0961798131465911,0,0,0
14877,539830.2042102788,2010-12-12 18:31:39,2964.7300336957737,7,49,-1.0997490882873535,2.794646739959717,44.63616297053848,44.61722279968679,179.02711593930172,161.70629159758414,-0.008320951834321,0.0961798131465911,0,0,0
14878,539838.9408487126,2010-12-12 18:31:48,2973.466672234754,7,49,-1.1001102924346924,2.699781894683838,44.63616297053848,44.61989159781502,179.02711593930172,161.71362425807715,-0.00870943069458,0.0961798131465911,0,0,0
14879,539898.9741263614,2010-12-12 18:32:48,60.0144878898644,8,49,0.0,3.3845584392547607,44.63616297053848,44.61989159781502,179.02711593930172,161.71362425807715,0.0013598442310467,0.0961798131465911,0,0,0
14880,539899.1839724026,2010-12-12 18:32:48,0.187616992670222,9,49,-1.9243103452026844e-05,3.3847203254699707,44.63616297053848,44.61989159881789,179.02711593930172,161.7136242614716,0.0,0.0939245000481605,0,0,0
14881,539904.0118865313,2010-12-12 18:32:53,5.015531041090714,9,49,0.0008838032954372,3.3929765224456787,44.63616395672705,44.61989159890104,179.0271192819875,161.71362426175304,0.0011979580158367,0.0939245000481605,0,0,0
