Data_Point,Test_Time(s),Date_Time,Step_Time(s),Step_Index,Cycle_Index,Current(A),Voltage(V),Charge_Capacity(Ah),Discharge_Capacity(Ah),Charge_Energy(Wh),Discharge_Energy(Wh),dV/dt(V/s),Internal_Resistance(Ohm),Is_FC_Data,AC_Impedance(Ohm),ACI_Phase_Angle(Deg)
4317,156447.3356969493,2010-12-08 08:01:11,30.01496173285059,1,15,0.0,3.452874183654785,12.973699334235874,12.963581033243727,52.02808466605542,47.00839959338974,0.0007446765666827,0.0970755815505981,0,0,0
4318,156477.35086615343,2010-12-08 08:01:42,60.0301310322225,1,15,0.0,3.4760239124298096,12.973699334235874,12.963581033243727,52.02808466605542,47.00839959338974,0.0005180359003134,0.0970755815505981,0,0,0
4319,156507.3658785774,2010-12-08 08:02:12,90.04514342614121,1,15,0.0,3.4933457374572754,12.973699334235874,12.963581033243727,52.02808466605542,47.00839959338974,0.0004532813909463,0.0970755815505981,0,0,0
4320,156537.3339342764,2010-12-08 08:02:41,120.01319904994352,1,15,0.0,3.507267951965332,12.973699334235874,12.963581033243727,52.02808466605542,47.00839959338974,0.0003237724304199,0.0970755815505981,0,0,0
4321,156567.3488533938,2010-12-08 08:03:12,30.015028509020524,2,15,0.5501165986061096,3.660411834716797,12.978285738366328,12.963581033243727,52.04473331774656,47.00839959338974,0.0013274669181555,0.0970755815505981,0,0,0
4322,156597.36387099067,2010-12-08 08:03:42,60.03004611591152,2,15,0.5501165986061096,3.699588060379028,12.982872136551311,12.963581033243727,52.06161736990601,47.00839959338974,0.0008741855854168,0.0970755815505981,0,0,0
4323,156627.37890031672,2010-12-08 08:04:12,90.0450754419652,2,15,0.550297200679779,3.7277562618255615,12.987458534003409,12.963581033243727,52.07865255979592,47.00839959338974,0.0006799221155233,0.0970755815505981,0,0,0
4324,156657.39396922127,2010-12-08 08:04:42,120.06014432144606,2,15,0.5499359965324402,3.7489633560180655,12.992044941931418,12.963581033243727,52.09580000699327,47.00839959338974,0.0004856586456298,0.0970755815505981,0,0,0
4325,156687.411302255,2010-12-08 08:05:12,150.0774774554372,2,15,0.5501165986061096,3.765313625335693,12.996631691112018,12.963581033243727,52.11303529384868,47.00839959338974,0.0003885269106831,0.0970755815505981,0,0,0
4326,156717.42402160278,2010-12-08 08:05:42,180.09019672801162,2,15,0.5501165986061096,3.7769694328308105,13.001217787753651,12.963581033243727,52.13033166074424,47.00839959338974,0.0002913951757363,0.0970755815505981,0,0,0
4327,156747.4393497374,2010-12-08 08:06:12,210.1055249378261,2,15,0.5499359965324402,3.784254312515259,13.005804239899648,12.963581033243727,52.14767223005289,47.00839959338974,0.0001618862152099,0.0970755815505981,0,0,0
4328,156777.4540511324,2010-12-08 08:06:42,240.12022625764885,2,15,0.5501165986061096,3.7902441024780273,13.010390659924497,12.963581033243727,52.16504273020934,47.00839959338974,0.0001942634553415,0.0970755815505981,0,0,0
4329,156807.46909230293,2010-12-08 08:07:12,270.1352674281771,2,15,0.5499359965324402,3.795262575149536,13.014977139636567,12.963581033243727,52.18243806421008,47.00839959338974,0.0001295089750783,0.0970755815505981,0,0,0
4330,156837.48410555898,2010-12-08 08:07:42,300.1502806842411,2,15,0.5501165986061096,3.799957275390625,13.019563539170914,12.963581033243727,52.19985547580167,47.00839959338974,0.0001295089750783,0.0970755815505981,0,0,0
4331,156867.4991345392,2010-12-08 08:08:12,330.1653096694467,2,15,0.5501165986061096,3.804490089416504,13.024149954111625,12.963581033243727,52.21729410796528,47.00839959338974,0.0001295089750783,0.0970755815505981,0,0,0
4332,156897.51416401062,2010-12-08 08:08:42,360.18033913584964,2,15,0.550297200679779,3.808861017227173,13.028736405537472,12.963581033243727,52.23475318902587,47.00839959338974,9.713172767078504e-05,0.0970755815505981,0,0,0
4333,156927.52925611788,2010-12-08 08:09:12,390.1954313133066,2,15,0.5501165986061096,3.812908172607422,13.033322874692606,12.963581033243727,52.252231812423446,47.00839959338974,6.47544875391759e-05,0.0970755815505981,0,0,0
4334,156957.54432772918,2010-12-08 08:09:42,420.21050294463527,2,15,0.5501165986061096,3.817117214202881,13.037909254505816,12.963581033243727,52.26972925679977,47.00839959338974,9.713172767078504e-05,0.0970755815505981,0,0,0
4335,156987.5592499888,2010-12-08 08:10:12,450.2254251140338,2,15,0.5499359965324402,3.82100248336792,13.042495657010264,12.963581033243727,52.28724502363448,47.00839959338974,9.713172767078504e-05,0.0970755815505981,0,0,0
4336,157017.5742744227,2010-12-08 08:10:42,480.24044954791344,2,15,0.5501165986061096,3.824725866317749,13.047081991078668,12.963581033243727,52.30477829500715,47.00839959338974,6.47544875391759e-05,0.0970755815505981,0,0,0
4337,157047.58943774717,2010-12-08 08:11:12,510.2556128724172,2,15,0.550297200679779,3.828773021697998,13.051668374059505,12.963581033243727,52.32232918491864,47.00839959338974,0.0001618862152099,0.0970755815505981,0,0,0
4338,157077.60433399706,2010-12-08 08:11:42,540.270509122316,2,15,0.5499359965324402,3.832334518432617,13.0562547192787,12.963581033243727,52.339897131633,47.00839959338974,0.0001295089750783,0.0970755815505981,0,0,0
4339,157107.61948287062,2010-12-08 08:12:12,570.2856579808216,2,15,0.5501165986061096,3.836057662963867,13.060841091062812,12.963581033243727,52.35748202779206,47.00839959338974,0.0001295089750783,0.0970755815505981,0,0,0
4340,157137.63440497484,2010-12-08 08:12:42,600.3005801000952,2,15,0.5501165986061096,3.8396191596984863,13.065427454797693,12.963581033243727,52.37508391094078,47.00839959338974,6.47544875391759e-05,0.0970755815505981,0,0,0
4341,157167.6494373886,2010-12-08 08:13:12,630.3156125138325,2,15,0.5501165986061096,3.843342542648315,13.07001388056698,12.963581033243727,52.392702984149565,47.00839959338974,9.713172767078504e-05,0.0970755815505981,0,0,0
4342,157197.66451903482,2010-12-08 08:13:42,660.3306942302577,2,15,0.5499359965324402,3.8472278118133545,13.074600300731165,12.963581033243727,52.4103389804329,47.00839959338974,9.713172767078504e-05,0.0970755815505981,0,0,0
4343,157227.67963458548,2010-12-08 08:14:12,690.3458096956657,2,15,0.5501165986061096,3.8507893085479736,13.07918676867194,12.963581033243727,52.427992231844776,47.00839959338974,6.47544875391759e-05,0.0970755815505981,0,0,0
4344,157257.6945074271,2010-12-08 08:14:42,720.3606826074886,2,15,0.5501165986061096,3.8546745777130127,13.083773181334925,12.963581033243727,52.44566221505078,47.00839959338974,0.0001295089750783,0.0970755815505981,0,0,0
4345,157287.709822815,2010-12-08 08:15:12,750.3759979202093,2,15,0.5499359965324402,3.858074188232422,13.088359577307008,12.963581033243727,52.46334911196366,47.00839959338974,3.237724376958795e-05,0.0970755815505981,0,0,0
4346,157317.7248298857,2010-12-08 08:15:42,780.3910050660684,2,15,0.5501165986061096,3.861797571182251,13.092945985757709,12.963581033243727,52.48105288896631,47.00839959338974,9.713172767078504e-05,0.0970755815505981,0,0,0
4347,157347.73960882868,2010-12-08 08:16:12,810.4057839589285,2,15,0.5501165986061096,3.86552095413208,13.097532391574164,12.963581033243727,52.498773296098605,47.00839959338974,9.713172767078504e-05,0.0970755815505981,0,0,0
4348,157377.7548035814,2010-12-08 08:16:42,840.4209787617648,2,15,0.5501165986061096,3.869082450866699,13.102118757191414,12.963581033243727,52.51650987582598,47.00839959338974,9.713172767078504e-05,0.0970755815505981,0,0,0
4349,157407.76965819768,2010-12-08 08:17:12,870.4358332978604,2,15,0.5501165986061096,3.8726439476013184,13.106705112844594,12.963581033243727,52.5342624608789,47.00839959338974,9.713172767078504e-05,0.0970755815505981,0,0,0
4350,157437.78489886966,2010-12-08 08:17:42,900.4510740901396,2,15,0.550297200679779,3.8758816719055176,13.11129153118312,12.963581033243727,52.552030912171325,47.00839959338974,9.713172767078504e-05,0.0970755815505981,0,0,0
4351,157467.79971313055,2010-12-08 08:18:12,930.4658883459994,2,15,0.5501165986061096,3.879281282424927,13.115877928204572,12.963581033243727,52.56981449378334,47.00839959338974,9.713172767078504e-05,0.0970755815505981,0,0,0
4352,157497.81485981864,2010-12-08 08:18:42,960.4810349288424,2,15,0.5501165986061096,3.882195234298706,13.120464388333469,12.963581033243727,52.58761294662962,47.00839959338974,6.47544875391759e-05,0.0970755815505981,0,0,0
4353,157527.82977046436,2010-12-08 08:19:12,990.4959455896018,2,15,0.550297200679779,3.8852710723876953,13.12505079428838,12.963581033243727,52.60542527306241,47.00839959338974,9.713172767078504e-05,0.0970755815505981,0,0,0
4354,157557.84493122247,2010-12-08 08:19:42,1020.5111063527316,2,15,0.5499359965324402,3.8880231380462646,13.129637231638808,12.963581033243727,52.623251169740016,47.00839959338974,6.47544875391759e-05,0.0970755815505981,0,0,0
4355,157587.85980800394,2010-12-08 08:20:12,1050.525983114134,2,15,0.550297200679779,3.890775203704834,13.134223581010964,12.963581033243727,52.641089523489306,47.00839959338974,6.47544875391759e-05,0.0970755815505981,0,0,0
4356,157617.87496706282,2010-12-08 08:20:42,1080.541142173023,2,15,0.5499359965324402,3.893203496932984,13.138810018094356,12.963581033243727,52.6589402981671,47.00839959338974,3.237724376958795e-05,0.0970755815505981,0,0,0
4357,157647.8898750018,2010-12-08 08:21:12,1110.5560501120094,2,15,0.5501165986061096,3.895793676376343,13.14339648606104,12.963581033243727,52.67680240380306,47.00839959338974,9.713172767078504e-05,0.0970755815505981,0,0,0
4358,157677.90494327978,2010-12-08 08:21:42,1140.5711184000183,2,15,0.5501165986061096,3.897898197174072,13.14798285818648,12.963581033243727,52.69467472590125,47.00839959338974,3.237724376958795e-05,0.0970755815505981,0,0,0
4359,157707.92025563514,2010-12-08 08:22:12,1170.58643073533,2,15,0.5501165986061096,3.9000027179718018,13.15256929645388,12.963581033243727,52.71255746318055,47.00839959338974,3.237724376958795e-05,0.0970755815505981,0,0,0
4360,157737.93495017308,2010-12-08 08:22:42,1200.6011252833011,2,15,0.5499359965324402,3.9021072387695312,13.157155620143596,12.963581033243727,52.73044923354771,47.00839959338974,3.237724376958795e-05,0.0970755815505981,0,0,0
4361,157767.94999801522,2010-12-08 08:23:12,1230.6161731254315,2,15,0.5501165986061096,3.904049873352051,13.161741965529908,12.963581033243727,52.74835009774762,47.00839959338974,6.47544875391759e-05,0.0970755815505981,0,0,0
4362,157797.96512661834,2010-12-08 08:23:42,1260.6313017185073,2,15,0.5501165986061096,3.9059925079345694,13.166328432260512,12.963581033243727,52.76626004134157,47.00839959338974,6.47544875391759e-05,0.0970755815505981,0,0,0
4363,157827.98002486318,2010-12-08 08:24:12,1290.6461999884327,2,15,0.5499359965324402,3.90744948387146,13.170914827752808,12.963581033243727,52.78417795669521,47.00839959338974,3.237724376958795e-05,0.0970755815505981,0,0,0
4364,157857.99518098476,2010-12-08 08:24:42,1320.6613561150248,2,15,0.5501165986061096,3.9092302322387695,13.17550122993704,12.963581033243727,52.80210380347573,47.00839959338974,0.0,0.0970755815505981,0,0,0
4365,157888.01010573056,2010-12-08 08:25:12,1350.6762809460463,2,15,0.5499359965324402,3.910849094390869,13.180087544631132,12.963581033243727,52.82003704553976,47.00839959338974,3.237724376958795e-05,0.0970755815505981,0,0,0
4366,157918.02526995735,2010-12-08 08:25:42,1380.6914450875834,2,15,0.5499359965324402,3.9124679565429688,13.184673984565093,12.963581033243727,52.83797835056412,47.00839959338974,0.0,0.0970755815505981,0,0,0
4367,157948.0402592387,2010-12-08 08:26:12,1410.7064343639747,2,15,0.5501165986061096,3.914410352706909,13.189260350048698,12.963581033243727,52.85592676754343,47.00839959338974,6.47544875391759e-05,0.0970755815505981,0,0,0
4368,157978.0551838893,2010-12-08 08:26:42,1440.7213590145475,2,15,0.5501165986061096,3.915705442428589,13.193846830689154,12.963581033243727,52.873882950645054,47.00839959338974,3.237724376958795e-05,0.0970755815505981,0,0,0
4369,158008.07021285445,2010-12-08 08:27:12,1470.7363879797033,2,15,0.550297200679779,3.9174861907958975,13.198433266409983,12.963581033243727,52.89184617638595,47.00839959338974,6.47544875391759e-05,0.0970755815505981,0,0,0
4370,158038.08522202537,2010-12-08 08:27:42,1500.7513971506016,2,15,0.5499359965324402,3.918943166732788,13.203019708674155,12.963581033243727,52.90981670341626,47.00839959338974,6.47544875391759e-05,0.0970755815505981,0,0,0
4371,158068.10026120095,2010-12-08 08:28:12,1530.7664363261654,2,15,0.5501165986061096,3.920562028884888,13.207606033756589,12.963581033243727,52.92779397034524,47.00839959338974,6.47544875391759e-05,0.0970755815505981,0,0,0
4372,158098.11753887188,2010-12-08 08:28:42,1560.783714072326,2,15,0.5501165986061096,3.922019004821777,13.212192758242598,12.963581033243727,52.945779927643706,47.00839959338974,0.0,0.0970755815505981,0,0,0
4373,158128.13039717544,2010-12-08 08:29:12,1590.7965723959237,2,15,0.5501165986061096,3.923637866973877,13.216778821729008,12.963581033243727,52.96377048000672,47.00839959338974,3.237724376958795e-05,0.0970755815505981,0,0,0
4374,158158.14533270808,2010-12-08 08:29:42,1620.811507833339,2,15,0.5501165986061096,3.925094842910767,13.221365267855042,12.963581033243727,52.981769783425655,47.00839959338974,0.0,0.0970755815505981,0,0,0
4375,158188.16038577826,2010-12-08 08:30:12,1650.8265608884417,2,15,0.550297200679779,3.926875591278076,13.22595174395068,12.963581033243727,52.99977627121336,47.00839959338974,6.47544875391759e-05,0.0970755815505981,0,0,0
4376,158218.1753861823,2010-12-08 08:30:42,1680.841561292524,2,15,0.5499359965324402,3.928332567214966,13.230538130210208,12.963581033243727,53.01778963182058,47.00839959338974,3.237724376958795e-05,0.0970755815505981,0,0,0
4377,158248.19042642554,2010-12-08 08:31:13,1710.856601550782,2,15,0.5501165986061096,3.9299514293670654,13.235124552641574,12.963581033243727,53.03581038598932,47.00839959338974,3.237724376958795e-05,0.0970755815505981,0,0,0
4378,158278.20557150466,2010-12-08 08:31:43,1740.8717467000574,2,15,0.5501165986061096,3.931570291519165,13.239711026305793,12.963581033243727,53.05383865957956,47.00839959338974,3.237724376958795e-05,0.0970755815505981,0,0,0
4379,158308.22047599003,2010-12-08 08:32:13,1770.8866511152753,2,15,0.5501165986061096,3.9331891536712646,13.24429740919554,12.963581033243727,53.071873852410704,47.00839959338974,6.47544875391759e-05,0.0970755815505981,0,0,0
4380,158338.23568039175,2010-12-08 08:32:43,1800.901855516998,2,15,0.5501165986061096,3.934808015823364,13.248883828520029,12.963581033243727,53.089916509924,47.00839959338974,3.237724376958795e-05,0.0970755815505981,0,0,0
4381,158368.25066307673,2010-12-08 08:33:13,1830.9168381919624,2,15,0.5499359965324402,3.936264991760254,13.253470248969172,12.963581033243727,53.10796657874708,47.00839959338974,3.237724376958795e-05,0.0970755815505981,0,0,0
4382,158398.26556572758,2010-12-08 08:33:43,1860.9317408377767,2,15,0.5499359965324402,3.9378838539123535,13.258056639832288,12.963581033243727,53.12602370095329,47.00839959338974,3.237724376958795e-05,0.0970755815505981,0,0,0
4383,158428.280695268,2010-12-08 08:34:13,1890.94687039826,2,15,0.5501165986061096,3.939664602279663,13.262643057463793,12.963581033243727,53.14408845181013,47.00839959338974,6.47544875391759e-05,0.0970755815505981,0,0,0
4384,158458.29561477076,2010-12-08 08:34:43,1920.9617899010227,2,15,0.5499359965324402,3.9412834644317623,13.267229436940209,12.963581033243727,53.16216048024689,47.00839959338974,9.713172767078504e-05,0.0970755815505981,0,0,0
4385,158488.31076672196,2010-12-08 08:35:13,1950.9769418321748,2,15,0.5501165986061096,3.942740440368652,13.271815926568303,12.963581033243727,53.18024031348726,47.00839959338974,3.237724376958795e-05,0.0970755815505981,0,0,0
4386,158518.32565949822,2010-12-08 08:35:43,1980.9918346284792,2,15,0.5499359965324402,3.944359302520752,13.276402256774698,12.963581033243727,53.19832696787639,47.00839959338974,3.237724376958795e-05,0.0970755815505981,0,0,0
4387,158548.3406865436,2010-12-08 08:36:13,2011.0068616738577,2,15,0.5499359965324402,3.945978164672852,13.280988665525989,12.963581033243727,53.216421424914735,47.00839959338974,3.237724376958795e-05,0.0970755815505981,0,0,0
4388,158578.35574197464,2010-12-08 08:36:43,2041.02191709986,2,15,0.5501165986061096,3.947597026824951,13.285575073043304,12.963581033243727,53.23452325085944,47.00839959338974,6.47544875391759e-05,0.0970755815505981,0,0,0
4389,158608.37085852772,2010-12-08 08:37:13,2071.0370336279125,2,15,0.5499359965324402,3.9493777751922607,13.290161401179509,12.963581033243727,53.2526323135786,47.00839959338974,3.237724376958795e-05,0.0970755815505981,0,0,0
4390,158638.3726312753,2010-12-08 08:37:43,2101.0388064406425,2,15,0.550297200679779,3.9511585235595694,13.294745628767355,12.963581033243727,53.27074077653627,47.00839959338974,6.47544875391759e-05,0.0970755815505981,0,0,0
4391,158668.38516649487,2010-12-08 08:38:13,2131.051341625121,2,15,0.5501165986061096,3.95261549949646,13.29933149940752,12.963581033243727,53.28886333952088,47.00839959338974,0.0,0.0970755815505981,0,0,0
4392,158698.40038242028,2010-12-08 08:38:43,2161.0665575455077,2,15,0.550297200679779,3.9543962478637695,13.303917767534056,12.963581033243727,53.306995106679175,47.00839959338974,6.47544875391759e-05,0.0970755815505981,0,0,0
4393,158728.41521964327,2010-12-08 08:39:13,2191.081394773533,2,15,0.5501165986061096,3.956015110015869,13.308504053289274,12.963581033243727,53.3251345336499,47.00839959338974,6.47544875391759e-05,0.0970755815505981,0,0,0
4394,158758.4302769339,2010-12-08 08:39:43,2221.0964520441253,2,15,0.550297200679779,3.9576339721679688,13.313090540379823,12.963581033243727,53.34328223422224,47.00839959338974,6.47544875391759e-05,0.0970755815505981,0,0,0
4395,158788.44526969397,2010-12-08 08:40:13,2251.111444824236,2,15,0.5501165986061096,3.9594147205352783,13.31767697015034,12.963581033243727,53.361437385813566,47.00839959338974,6.47544875391759e-05,0.0970755815505981,0,0,0
4396,158818.46034783148,2010-12-08 08:40:43,2281.126523046967,2,15,0.5501165986061096,3.961033582687378,13.322263360602904,12.963581033243727,53.37960006363202,47.00839959338974,6.47544875391759e-05,0.0970755815505981,0,0,0
4397,158848.47532170458,2010-12-08 08:41:13,2311.141496804741,2,15,0.5499359965324402,3.962490558624268,13.326849811265587,12.963581033243727,53.397770725038285,47.00839959338974,0.0,0.0970755815505981,0,0,0
4398,158878.49036281492,2010-12-08 08:41:43,2341.156537940182,2,15,0.5499359965324402,3.964271306991577,13.331436200299247,12.963581033243727,53.41594889712204,47.00839959338974,0.0,0.0970755815505981,0,0,0
4399,158908.50537167507,2010-12-08 08:42:13,2371.171546800307,2,15,0.5497553944587708,3.9658901691436768,13.336022613863449,12.963581033243727,53.434134971153966,47.00839959338974,-3.237724376958795e-05,0.0970755815505981,0,0,0
4400,158938.52039980813,2010-12-08 08:42:43,2401.186574938404,2,15,0.5501165986061096,3.9676709175109854,13.340609057011529,12.963581033243727,53.45232900831695,47.00839959338974,6.47544875391759e-05,0.0970755815505981,0,0,0
4401,158968.53544992092,2010-12-08 08:43:13,2431.2016250461725,2,15,0.5501165986061096,3.969451665878296,13.345195508003826,12.963581033243727,53.47053094511432,47.00839959338974,3.237724376958795e-05,0.0970755815505981,0,0,0
4402,158998.55071563524,2010-12-08 08:43:43,2461.216890735407,2,15,0.5501165986061096,3.9712324142456055,13.349781959947387,12.963581033243727,53.48874080691789,47.00839959338974,3.237724376958795e-05,0.0970755815505981,0,0,0
4403,159028.56548742545,2010-12-08 08:44:13,2491.231662555668,2,15,0.5501165986061096,3.973013162612915,13.354368360526438,12.963581033243727,53.506958450370725,47.00839959338974,3.237724376958795e-05,0.0970755815505981,0,0,0
4404,159058.58050446588,2010-12-08 08:44:43,2521.2466795911364,2,15,0.5499359965324402,3.974632024765015,13.358954810751976,12.963581033243727,53.52518428517724,47.00839959338974,3.237724376958795e-05,0.0970755815505981,0,0,0
4405,159088.59566400596,2010-12-08 08:45:13,2551.261839136235,2,15,0.5499359965324402,3.976412773132324,13.363541204203562,12.963581033243727,53.54341795918464,47.00839959338974,3.237724376958795e-05,0.0970755815505981,0,0,0
4406,159118.6105775489,2010-12-08 08:45:43,2581.2767526741545,2,15,0.5501165986061096,3.978031635284424,13.368127703576032,12.963581033243727,53.56166000861101,47.00839959338974,3.237724376958795e-05,0.0970755815505981,0,0,0
4407,159148.62570704424,2010-12-08 08:46:13,2611.291882159451,2,15,0.5501165986061096,3.980136156082153,13.37271410833125,12.963581033243727,53.57991004923336,47.00839959338974,3.237724376958795e-05,0.0970755815505981,0,0,0
4408,159178.64063610078,2010-12-08 08:46:43,2641.306811210975,2,15,0.5499359965324402,3.981916904449463,13.377300440373505,12.963581033243727,53.59816828732316,47.00839959338974,6.47544875391759e-05,0.0970755815505981,0,0,0
4409,159208.6557618618,2010-12-08 08:47:13,2671.321936987041,2,15,0.5501165986061096,3.9838595390319824,13.381886820873364,12.963581033243727,53.616435069268114,47.00839959338974,6.47544875391759e-05,0.0970755815505981,0,0,0
4410,159238.6708015787,2010-12-08 08:47:43,2701.3369767089644,2,15,0.5501165986061096,3.985640287399292,13.386473114064826,12.963581033243727,53.634709986569824,47.00839959338974,3.237724376958795e-05,0.0970755815505981,0,0,0
4411,159268.6859167183,2010-12-08 08:48:13,2731.3520918836493,2,15,0.5501165986061096,3.987582921981812,13.391059501618784,12.963581033243727,53.65299384881355,47.00839959338974,6.47544875391759e-05,0.0970755815505981,0,0,0
4412,159298.70069495955,2010-12-08 08:48:43,2761.3668700898006,2,15,0.5501165986061096,3.989201784133911,13.395645837254207,12.963581033243727,53.67128601719491,47.00839959338974,0.0,0.0970755815505981,0,0,0
4413,159328.7157932021,2010-12-08 08:49:13,2791.3819683273377,2,15,0.550297200679779,3.9914681911468506,13.40023227143017,12.963581033243727,53.68958730859143,47.00839959338974,6.47544875391759e-05,0.0970755815505981,0,0,0
4414,159358.73079077914,2010-12-08 08:49:43,2821.396965889348,2,15,0.5499359965324402,3.99308705329895,13.404818613052145,12.963581033243727,53.70789710281112,47.00839959338974,0.0,0.0970755815505981,0,0,0
4415,159388.7460374761,2010-12-08 08:50:13,2851.4122126915827,2,15,0.5501165986061096,3.9951913356781006,13.40940500337314,12.963581033243727,53.726215965234246,47.00839959338974,6.47544875391759e-05,0.0970755815505981,0,0,0
4416,159418.76087746603,2010-12-08 08:50:43,2881.427052666443,2,15,0.550297200679779,3.99713397026062,13.41399137775588,12.963581033243727,53.74454380489681,47.00839959338974,3.237724376958795e-05,0.0970755815505981,0,0,0
4417,159448.77589471702,2010-12-08 08:51:13,2911.4420698272243,2,15,0.550297200679779,3.9992384910583496,13.41857777449384,12.963581033243727,53.762880719735385,47.00839959338974,9.713172767078504e-05,0.0970755815505981,0,0,0
4418,159478.79095540612,2010-12-08 08:51:43,2941.457130536374,2,15,0.5501165986061096,4.000857353210449,13.423164129734172,12.963581033243727,53.781226688251074,47.00839959338974,-3.24249267578125e-05,0.0970755815505981,0,0,0
4419,159508.80594768497,2010-12-08 08:52:13,2971.472122785162,2,15,0.5501165986061096,4.003123760223389,13.427750457711484,12.963581033243727,53.79958183039728,47.00839959338974,6.47544875391759e-05,0.0970755815505981,0,0,0
4420,159538.82109525028,2010-12-08 08:52:43,3001.487270380524,2,15,0.5499359965324402,4.005066394805908,13.432336805100956,12.963581033243727,53.817946448207046,47.00839959338974,3.23295607813634e-05,0.0970755815505981,0,0,0
4421,159568.83599576078,2010-12-08 08:53:13,3031.502170891025,2,15,0.5501165986061096,4.007332801818848,13.436923106610069,12.963581033243727,53.83632045058728,47.00839959338974,6.47544875391759e-05,0.0970755815505981,0,0,0
4422,159598.85116873428,2010-12-08 08:53:43,3061.51734384449,2,15,0.5501165986061096,4.009437561035156,13.441509476383825,12.963581033243727,53.85470436146383,47.00839959338974,6.47544875391759e-05,0.0970755815505981,0,0,0
4423,159628.86604216738,2010-12-08 08:54:13,3091.532217292647,2,15,0.5501165986061096,4.011541843414307,13.446095755141783,12.963581033243727,53.87309764722582,47.00839959338974,6.47544875391759e-05,0.0970755815505981,0,0,0
4424,159658.88139724403,2010-12-08 08:54:43,3121.547572369319,2,15,0.5504778623580933,4.013808250427246,13.450682079049749,12.963581033243727,53.89150100013372,47.00839959338974,3.23295607813634e-05,0.0970755815505981,0,0,0
4425,159688.8961171702,2010-12-08 08:55:13,3151.562292295443,2,15,0.5501165986061096,4.015913009643555,13.455268421054372,12.963581033243727,53.90991439260104,47.00839959338974,6.47544875391759e-05,0.0970755815505981,0,0,0
4426,159718.9111397344,2010-12-08 08:55:43,3181.577314864682,2,15,0.5501165986061096,4.018179416656494,13.45985478581106,12.963581033243727,53.92833810688452,47.00839959338974,9.71794142969884e-05,0.0970755815505981,0,0,0
4427,159748.92628477345,2010-12-08 08:56:13,3211.5924598836336,2,15,0.5501165986061096,4.020445823669434,13.464441193750792,12.963581033243727,53.94677217275108,47.00839959338974,3.24249267578125e-05,0.0970755815505981,0,0,0
4428,159778.94117968,2010-12-08 08:56:43,3241.607354805227,2,15,0.5499359965324402,4.022550106048584,13.46902755022606,12.963581033243727,53.96521650183471,47.00839959338974,6.47544875391759e-05,0.0970755815505981,0,0,0
4429,159808.9562372814,2010-12-08 08:57:13,3271.6224124768173,2,15,0.5501165986061096,4.0249786376953125,13.473613881737696,12.963581033243727,53.983671212437656,47.00839959338974,6.47544875391759e-05,0.0970755815505981,0,0,0
4430,159838.9712453195,2010-12-08 08:57:43,3301.6374204497347,2,15,0.5501165986061096,4.027406692504883,13.478200226711303,12.963581033243727,54.00213658644736,47.00839959338974,6.47544875391759e-05,0.0970755815505981,0,0,0
4431,159868.98626033994,2010-12-08 08:58:13,3331.6524354701896,2,15,0.5501165986061096,4.029673099517822,13.482786528969983,12.963581033243727,54.020612490646826,47.00839959338974,6.47544875391759e-05,0.0970755815505981,0,0,0
4432,159899.00140354436,2010-12-08 08:58:43,3361.667578674625,2,15,0.5501165986061096,4.032101631164551,13.487372910498864,12.963581033243727,54.03909946897116,47.00839959338974,9.71794142969884e-05,0.0970755815505981,0,0,0
4433,159929.01630601977,2010-12-08 08:59:13,3391.6824811450037,2,15,0.5501165986061096,4.034367561340332,13.491959185897716,12.963581033243727,54.0575969021776,47.00839959338974,3.23295607813634e-05,0.0970755815505981,0,0,0
4434,159959.03135568643,2010-12-08 08:59:43,3421.697530811673,2,15,0.5501165986061096,4.036957740783691,13.496545537701628,12.963581033243727,54.07610563123326,47.00839959338974,6.47544875391759e-05,0.0970755815505981,0,0,0
4435,159989.0463607521,2010-12-08 09:00:13,3451.7125358823687,2,15,0.5501165986061096,4.039224147796631,13.501131887719492,12.963581033243727,54.09462555242569,47.00839959338974,3.23295607813634e-05,0.0970755815505981,0,0,0
4436,160019.0614132909,2010-12-08 09:00:43,3481.727588416174,2,15,0.5499359965324402,4.041652679443359,13.505718259170663,12.963581033243727,54.1131567264449,47.00839959338974,6.47544875391759e-05,0.0970755815505981,0,0,0
4437,160049.07880189797,2010-12-08 09:01:13,3511.7449770983944,2,15,0.550297200679779,4.044242858886719,13.510304958235103,12.963581033243727,54.13170057970943,47.00839959338974,6.47544875391759e-05,0.0970755815505981,0,0,0
4438,160079.09148622857,2010-12-08 09:01:43,3541.757661353831,2,15,0.5499359965324402,4.046670913696289,13.514891011722266,12.963581033243727,54.15025326489068,47.00839959338974,3.23295607813634e-05,0.0970755815505981,0,0,0
4439,160109.10647305386,2010-12-08 09:02:13,3571.772648184135,2,15,0.5499359965324402,4.049261093139648,13.519477368854515,12.963581033243727,54.16881877835751,47.00839959338974,9.70840483205393e-05,0.0970755815505981,0,0,0
4440,160139.12162112544,2010-12-08 09:02:43,3601.7877962556827,2,15,0.5499359965324402,4.051689624786377,13.524063784436295,12.963581033243727,54.187396132883656,47.00839959338974,3.24249267578125e-05,0.0970755815505981,0,0,0
4441,160169.13652315972,2010-12-08 09:03:13,3631.8026982749375,2,15,0.550297200679779,4.054441452026367,13.528650077520426,12.963581033243727,54.20598473027653,47.00839959338974,6.47544875391759e-05,0.0970755815505981,0,0,0
4442,160199.15157173868,2010-12-08 09:03:44,3661.817746853902,2,15,0.5501165986061096,4.057031631469727,13.53323643096121,12.963581033243727,54.2245854680004,47.00839959338974,6.47544875391759e-05,0.0970755815505981,0,0,0
4443,160229.1669912457,2010-12-08 09:04:14,3691.833166426068,2,15,0.5499359965324402,4.059460163116455,13.537822858159208,12.963581033243727,54.243198598437,47.00839959338974,3.24249267578125e-05,0.0970755815505981,0,0,0
4444,160259.1816069324,2010-12-08 09:04:44,3721.8477820576586,2,15,0.5499359965324402,4.062050342559815,13.542409174024463,12.963581033243727,54.26182310236855,47.00839959338974,3.24249267578125e-05,0.0970755815505981,0,0,0
4445,160289.19662767713,2010-12-08 09:05:14,3751.8628028073713,2,15,0.5501165986061096,4.064964294433594,13.546995465380844,12.963581033243727,54.280459684971184,47.00839959338974,6.47544875391759e-05,0.0970755815505981,0,0,0
4446,160319.21170758404,2010-12-08 09:05:44,3781.87788278948,2,15,0.5501165986061096,4.067716121673584,13.551581721403018,12.963581033243727,54.299108469984255,47.00839959338974,9.70840483205393e-05,0.0970755815505981,0,0,0
4447,160349.2266810561,2010-12-08 09:06:14,3811.892856181344,2,15,0.5501165986061096,4.0701446533203125,13.556168041586158,12.963581033243727,54.317770031547575,47.00839959338974,0.0,0.0970755815505981,0,0,0
4448,160379.24170005147,2010-12-08 09:06:44,3841.907875161653,2,15,0.5501165986061096,4.073220252990723,13.56075434297012,12.963581033243727,54.33644404531981,47.00839959338974,9.70840483205393e-05,0.0970755815505981,0,0,0
4449,160409.25672553797,2010-12-08 09:07:14,3871.9229006682017,2,15,0.5497553944587708,4.075648784637451,13.565340634214165,12.963581033243727,54.35513074332287,47.00839959338974,6.47544875391759e-05,0.0970755815505981,0,0,0
4450,160439.27177269338,2010-12-08 09:07:44,3901.937947803573,2,15,0.5499359965324402,4.078562736511231,13.569926931086211,12.963581033243727,54.37383026844552,47.00839959338974,3.24249267578125e-05,0.0970755815505981,0,0,0
4451,160469.28679786407,2010-12-08 09:08:14,3931.952972994336,2,15,0.5497553944587708,4.081314563751221,13.574513258574411,12.963581033243727,54.3925428937911,47.00839959338974,6.47544875391759e-05,0.0970755815505981,0,0,0
4452,160499.30179757642,2010-12-08 09:08:44,3961.967972706697,2,15,0.5499359965324402,4.084390640258789,13.579099600315644,12.963581033243727,54.411268494083686,47.00839959338974,6.47544875391759e-05,0.0970755815505981,0,0,0
4453,160529.3168778994,2010-12-08 09:09:14,3991.9830530747663,2,15,0.5501165986061096,4.087142467498779,13.583685899872773,12.963581033243727,54.43000712136939,47.00839959338974,9.70840483205393e-05,0.0970755815505981,0,0,0
4454,160559.3174200998,2010-12-08 09:09:44,4021.983595220028,2,15,0.5501165986061096,4.090056419372559,13.588269973758006,12.963581033243727,54.44874991176986,47.00839959338974,6.47544875391759e-05,0.0970755815505981,0,0,0
4455,160589.33371345632,2010-12-08 09:10:14,4051.999888656773,2,15,0.550297200679779,4.093132495880127,13.592856519980996,12.963581033243727,54.46751610659236,47.00839959338974,9.71794142969884e-05,0.0970755815505981,0,0,0
4456,160619.3462830464,2010-12-08 09:10:44,4082.0124581766936,2,15,0.5501165986061096,4.096208095550537,13.597442500525398,12.963581033243727,54.48629347776173,47.00839959338974,0.0001295089750783,0.0970755815505981,0,0,0
4457,160649.36151637012,2010-12-08 09:11:14,4112.027691500388,2,15,0.5501165986061096,4.0989603996276855,13.602028924265417,12.963581033243727,54.50508628669044,47.00839959338974,9.71794142969884e-05,0.0970755815505981,0,0,0
4458,160679.37633618983,2010-12-08 09:11:44,4142.04251131508,2,15,0.5501165986061096,4.102035999298096,13.60661523654591,12.963581033243727,54.523892357325785,47.00839959338974,6.47544875391759e-05,0.0970755815505981,0,0,0
4459,160709.39141829722,2010-12-08 09:12:14,4172.057593492653,2,15,0.5501165986061096,4.104949951171875,13.61120157549964,12.963581033243727,54.54271234790328,47.00839959338974,6.47544875391759e-05,0.0970755815505981,0,0,0
4460,160739.40638339848,2010-12-08 09:12:44,4202.072558528723,2,15,0.5501165986061096,4.108026027679443,13.615787886231509,12.963581033243727,54.56154625874328,47.00839959338974,6.47544875391759e-05,0.0970755815505981,0,0,0
4461,160769.42140505044,2010-12-08 09:13:14,4232.087580175668,2,15,0.5501165986061096,4.111263751983643,13.620374180452956,12.963581033243727,54.58039422287086,47.00839959338974,6.47544875391759e-05,0.0970755815505981,0,0,0
4462,160799.4364538249,2010-12-08 09:13:44,4262.102628950118,2,15,0.5501165986061096,4.114339351654053,13.62496051705784,12.963581033243727,54.59925652673019,47.00839959338974,0.0001295089750783,0.0970755815505981,0,0,0
4463,160829.45147564725,2010-12-08 09:14:14,4292.117650772499,2,15,0.5501165986061096,4.117414951324463,13.629546790379766,12.963581033243727,54.618132836983854,47.00839959338974,3.23295607813634e-05,0.0970755815505981,0,0,0
4464,160859.46648068284,2010-12-08 09:14:44,4322.13265581312,2,15,0.5501165986061096,4.120491027832031,13.634133134446586,12.963581033243727,54.63702384543146,47.00839959338974,9.71794142969884e-05,0.0970755815505981,0,0,0
4465,160889.4816317619,2010-12-08 09:15:14,4352.147806887138,2,15,0.5499359965324402,4.123728752136231,13.638719469587548,12.963581033243727,54.65592934060833,47.00839959338974,6.47544875391759e-05,0.0970755815505981,0,0,0
4466,160919.4965366934,2010-12-08 09:15:44,4382.162711823654,2,15,0.5501165986061096,4.12696647644043,13.643305735532778,12.963581033243727,54.674849220908726,47.00839959338974,9.71794142969884e-05,0.0970755815505981,0,0,0
4467,160949.51182052778,2010-12-08 09:16:14,4412.177995637991,2,15,0.5501165986061096,4.130204200744629,13.647892200491416,12.963581033243727,54.6937847768835,47.00839959338974,6.47544875391759e-05,0.0970755815505981,0,0,0
4468,160979.5266454903,2010-12-08 09:16:44,4442.1928207107685,2,15,0.550297200679779,4.133441925048828,13.652478562380477,12.963581033243727,54.7127348161029,47.00839959338974,9.71794142969884e-05,0.0970755815505981,0,0,0
4469,161009.54163238575,2010-12-08 09:17:14,4472.207807510999,2,15,0.5501165986061096,4.136517524719238,13.657064964098506,12.963581033243727,54.73170000429271,47.00839959338974,6.47544875391759e-05,0.0970755815505981,0,0,0
4470,161039.55666572682,2010-12-08 09:17:44,4502.222840826981,2,15,0.5501165986061096,4.140241146087647,13.661651380477537,12.963581033243727,54.75068042773522,47.00839959338974,0.0001295089750783,0.0970755815505981,0,0,0
4471,161069.57169045642,2010-12-08 09:18:14,4532.237865586671,2,15,0.5501165986061096,4.143478870391846,13.666237770645484,12.963581033243727,54.7696760062223,47.00839959338974,0.0001295089750783,0.0970755815505981,0,0,0
4472,161099.58668883043,2010-12-08 09:18:44,4562.2528639556895,2,15,0.5499359965324402,4.146878242492676,13.670824083577028,12.963581033243727,54.78868673778664,47.00839959338974,9.70840483205393e-05,0.0970755815505981,0,0,0
4473,161129.6018968612,2010-12-08 09:19:14,4592.2680719764185,2,15,0.5501165986061096,4.149954319000244,13.67541040995402,12.963581033243727,54.80771308272028,47.00839959338974,3.24249267578125e-05,0.0970755815505981,0,0,0
4474,161159.6168744435,2010-12-08 09:19:44,4622.283049548684,2,15,0.5501165986061096,4.153515815734863,13.679996755125776,12.963581033243727,54.82675516665241,47.00839959338974,6.47544875391759e-05,0.0970755815505981,0,0,0
4475,161189.6317823825,2010-12-08 09:20:14,4652.297957512734,2,15,0.5501165986061096,4.157077312469482,13.684583025848822,12.963581033243727,54.84581253870768,47.00839959338974,9.71794142969884e-05,0.0970755815505981,0,0,0
4476,161219.64705500397,2010-12-08 09:20:44,4682.313230184343,2,15,0.5499359965324402,4.160315036773682,13.689169398415212,12.963581033243727,54.864886150211085,47.00839959338974,6.47544875391759e-05,0.0970755815505981,0,0,0
4477,161249.66194686294,2010-12-08 09:21:14,4712.328121973141,2,15,0.5501165986061096,4.164038181304932,13.693755744229762,12.963581033243727,54.88397556743426,47.00839959338974,9.70840483205393e-05,0.0970755815505981,0,0,0
4478,161279.67685183955,2010-12-08 09:21:44,4742.343026954768,2,15,0.5501165986061096,4.16776180267334,13.698342082562297,12.963581033243727,54.903080887920254,47.00839959338974,0.0001942634553415,0.0970755815505981,0,0,0
4479,161309.69191135574,2010-12-08 09:22:14,4772.358086465936,2,15,0.5501165986061096,4.170999526977539,13.702928423181415,12.963581033243727,54.92220235768647,47.00839959338974,6.47544875391759e-05,0.0970755815505981,0,0,0
4480,161339.70712128122,2010-12-08 09:22:44,4802.373296466592,2,15,0.5501165986061096,4.174398899078369,13.707514865861198,12.963581033243727,54.94134056952366,47.00839959338974,6.47544875391759e-05,0.0970755815505981,0,0,0
4481,161369.7219349957,2010-12-08 09:23:14,4832.388110216192,2,15,0.550297200679779,4.178122520446777,13.712101207520288,12.963581033243727,54.96049466930639,47.00839959338974,6.47544875391759e-05,0.0970755815505981,0,0,0
4482,161399.7369536803,2010-12-08 09:23:44,4862.40312881054,2,15,0.5499359965324402,4.1816840171813965,13.716687543547716,12.963581033243727,54.97966527551314,47.00839959338974,9.71794142969884e-05,0.0970755815505981,0,0,0
4483,161429.75201495085,2010-12-08 09:24:14,4892.4181900610365,2,15,0.5501165986061096,4.185245513916016,13.72127393902466,12.963581033243727,54.998852687418015,47.00839959338974,6.47544875391759e-05,0.0970755815505981,0,0,0
4484,161459.76700729487,2010-12-08 09:24:44,4922.433182425111,2,15,0.5501165986061096,4.188807010650635,13.72586026818242,12.963581033243727,55.01805648350317,47.00839959338974,6.47544875391759e-05,0.0970755815505981,0,0,0
4485,161489.78203415978,2010-12-08 09:25:14,4952.448209290041,2,15,0.5501165986061096,4.192692279815674,13.7304466074452,12.963581033243727,55.03727712502285,47.00839959338974,9.71794142969884e-05,0.0970755815505981,0,0,0
4486,161519.7970597365,2010-12-08 09:25:44,4982.463234861752,2,15,0.5501165986061096,4.196253299713135,13.735032946274984,12.963581033243727,55.05651462305704,47.00839959338974,9.70840483205393e-05,0.0970755815505981,0,0,0
4487,161548.37481336226,2010-12-08 09:26:13,5011.04098855768,2,15,0.550297200679779,4.200138568878174,13.739399666335608,12.963581033243727,55.07484679868711,47.00839959338974,0.0001618385285837,0.0970755815505981,0,0,0
4488,161578.39578298994,2010-12-08 09:26:43,30.0151691489977,3,15,0.0,4.107702255249023,13.739399666335608,12.963581033243727,55.07484679868711,47.00839959338974,-0.0004208564641885,0.0970755815505981,0,0,0
4489,161608.41065689924,2010-12-08 09:27:13,60.03004306331525,3,15,0.0,4.096046447753906,13.739399666335608,12.963581033243727,55.07484679868711,47.00839959338974,-0.0002265930233988,0.0970755815505981,0,0,0
4490,161638.42568268147,2010-12-08 09:27:43,90.04506884555026,3,15,0.0,4.088923454284668,13.739399666335608,12.963581033243727,55.07484679868711,47.00839959338974,-0.0001942634553415,0.0970755815505981,0,0,0
4491,161668.39397269356,2010-12-08 09:28:13,120.01335885761875,3,15,0.0,4.084228515625,13.739399666335608,12.963581033243727,55.07484679868711,47.00839959338974,-0.0001619339018361,0.0970755815505981,0,0,0
4492,161668.40226072713,2010-12-08 09:28:13,0.015652310171851,4,15,1.0007367134094238,4.199814796447754,13.739404050782058,12.963581033243727,55.07486521219472,47.00839959338974,3.23295607813634e-05,0.0970755815505981,0,0,0
4493,161669.3241020839,2010-12-08 09:28:14,0.93749367695766,4,15,0.9503467679023744,4.199814796447754,13.739652358589174,12.963581033243727,55.0759080427638,47.00839959338974,3.23295607813634e-05,0.0970755815505981,0,0,0
4494,161671.4022163914,2010-12-08 09:28:16,3.015607969447047,4,15,0.9003180265426636,4.199653148651123,13.74018556674384,12.963581033243727,55.0781473660918,47.00839959338974,0.0,0.0970755815505981,0,0,0
4495,161674.57400865448,2010-12-08 09:28:19,6.187400247539068,4,15,0.8501086235046387,4.199653148651123,13.740955617636647,12.963581033243727,55.08138137628806,47.00839959338974,-3.23295607813634e-05,0.0970755815505981,0,0,0
4496,161678.9020928355,2010-12-08 09:28:24,10.51548450374586,4,15,0.800079882144928,4.199814796447754,13.741946109827827,12.963581033243727,55.08554120713061,47.00839959338974,0.0,0.0970755815505981,0,0,0
4497,161684.5894169077,2010-12-08 09:28:29,16.202808490744275,4,15,0.7496898770332336,4.199814796447754,13.74316854129282,12.963581033243727,55.090675135836776,47.00839959338974,0.0,0.0970755815505981,0,0,0
4498,161691.98031044702,2010-12-08 09:28:37,23.593702125288697,4,15,0.6996610760688782,4.199653148651123,13.744654210840237,12.963581033243727,55.09691459519795,47.00839959338974,-3.23295607813634e-05,0.0970755815505981,0,0,0
4499,161701.90161980374,2010-12-08 09:28:47,33.515011381784674,4,15,0.6496323347091675,4.199814796447754,13.746509907082087,12.963581033243727,55.10470809622333,47.00839959338974,0.0,0.0970755815505981,0,0,0
4500,161715.66692330208,2010-12-08 09:29:00,47.28031490015539,4,15,0.599603533744812,4.199653148651123,13.748892514398564,12.963581033243727,55.11471450459244,47.00839959338974,-3.23295607813634e-05,0.0970755815505981,0,0,0
4501,161736.85411550998,2010-12-08 09:29:22,68.46750714817256,4,15,0.5495747923851013,4.199653148651123,13.752262836499863,12.963581033243727,55.128869094038734,47.00839959338974,-3.23295607813634e-05,0.0970755815505981,0,0,0
4502,161773.96264510363,2010-12-08 09:29:59,105.57603669670296,4,15,0.4995460212230682,4.199814796447754,13.757644721826304,12.963581033243727,55.151471799627856,47.00839959338974,0.0,0.0970755815505981,0,0,0
4503,161843.8519828225,2010-12-08 09:31:09,175.46537449075197,4,15,0.4495172500610351,4.199653148651123,13.76681251373355,12.963581033243727,55.189974445698766,47.00839959338974,-3.23295607813634e-05,0.0970755815505981,0,0,0
4504,161951.89672706297,2010-12-08 09:32:57,283.5101187362398,4,15,0.3993078768253326,4.199491024017334,13.779522512469493,12.963581033243727,55.24335359631274,47.00839959338974,-6.47544875391759e-05,0.0970755815505981,0,0,0
4505,162087.28449796364,2010-12-08 09:35:12,418.897889561717,4,15,0.3492791056632995,4.199653148651123,13.793583123119458,12.963581033243727,55.30240514462898,47.00839959338974,0.0,0.0970755815505981,0,0,0
4506,162250.00005081863,2010-12-08 09:37:55,581.613442466831,4,15,0.299069732427597,4.199653148651123,13.808219362823175,12.963581033243727,55.36387412448935,47.00839959338974,0.0,0.0970755815505981,0,0,0
4507,162447.05854938313,2010-12-08 09:41:12,778.6719409761984,4,15,0.2490409463644027,4.199653148651123,13.823195026196291,12.963581033243727,55.42676863098509,47.00839959338974,-3.23295607813634e-05,0.0970755815505981,0,0,0
4508,162690.72570559455,2010-12-08 09:45:15,1022.339097167567,4,15,0.1990121752023697,4.199653148651123,13.838302323907328,12.963581033243727,55.49021593630858,47.00839959338974,-3.23295607813634e-05,0.0970755815505981,0,0,0
4509,163011.64105684322,2010-12-08 09:50:36,1343.2544484262762,4,15,0.1489834040403366,4.199653148651123,13.853720131822564,12.963581033243727,55.55496738540558,47.00839959338974,0.0,0.0970755815505981,0,0,0
4510,163487.25658324777,2010-12-08 09:58:32,1818.8699748458664,4,15,0.0989546403288841,4.199653148651123,13.8699044552678,12.963581033243727,55.622938053427646,47.00839959338974,-3.23295607813634e-05,0.0970755815505981,0,0,0
4511,164428.5661006727,2010-12-08 10:14:13,2760.1794922507165,4,15,0.0498289167881011,4.199814796447754,13.888537756400646,12.963581033243727,55.70119389018517,47.00839959338974,0.0,0.0970755815505981,0,0,0
4512,164458.58201969386,2010-12-08 10:14:43,30.01514219692851,5,15,0.0,4.191235065460205,13.888537756400646,12.963581033243727,55.70119389018517,47.00839959338974,-3.24249267578125e-05,0.0970755815505981,0,0,0
4513,164488.58129943267,2010-12-08 10:15:13,60.01442196080246,5,15,0.0,4.189939975738525,13.888537756400646,12.963581033243727,55.70119389018517,47.00839959338974,-3.24249267578125e-05,0.0970755815505981,0,0,0
4514,164488.7708385995,2010-12-08 10:15:14,0.187437947122262,6,15,-1.9243103452026844e-05,4.189778327941895,13.888537756400646,12.963581034245642,55.70119389018517,47.008399597587534,0.0,0.0987826660275459,0,0,0
4515,164493.59899935182,2010-12-08 10:15:19,5.015598814742841,6,15,0.0007031940040178,4.189778327941895,13.88853864550224,12.963581034330268,55.70119761546432,47.008399597942095,-3.23295607813634e-05,0.0987826660275459,0,0,0
4516,164523.61619939504,2010-12-08 10:15:49,30.01514932967808,7,15,-1.0993878841400146,3.9984290599823,13.88853864550224,12.972749208148183,55.70119761546432,47.045273635003525,-0.0010036944877356,0.0987826660275459,0,0,0
4517,164553.6311281458,2010-12-08 10:16:19,60.03007807042911,7,15,-1.0997490882873535,3.968156576156616,13.88853864550224,12.981917259237768,55.70119761546432,47.08178232774608,-0.0006799221155233,0.0987826660275459,0,0,0
4518,164583.6485950627,2010-12-08 10:16:49,90.04754511765817,7,15,-1.0993878841400146,3.9469494819641113,13.88853864550224,12.991086008955046,55.70119761546432,47.118063688246096,-0.0005180359003134,0.0987826660275459,0,0,0
4519,164613.66117350984,2010-12-08 10:17:19,120.06012345953198,7,15,-1.099568486213684,3.9307608604431152,13.88853864550224,13.000253263388592,55.70119761546432,47.15416993564236,-0.0003561496851034,0.0987826660275459,0,0,0
4520,164643.67653424558,2010-12-08 10:17:49,150.07548419528598,7,15,-1.0997490882873535,3.917000532150269,13.88853864550224,13.009421410235271,55.70119761546432,47.190143278371366,-0.0003561496851034,0.0987826660275459,0,0,0
4521,164673.6912495903,2010-12-08 10:18:19,180.09019952497175,7,15,-1.099568486213684,3.9048593044281006,13.88853864550224,13.018589303956766,55.70119761546432,47.2259973294294,-0.0002913951757363,0.0987826660275459,0,0,0
4522,164703.70626559824,2010-12-08 10:18:49,210.1052155479212,7,15,-1.099568486213684,3.893689155578613,13.88853864550224,13.027757310506084,55.70119761546432,47.261744211225526,-0.0002590179501567,0.0987826660275459,0,0,0
4523,164733.72129097948,2010-12-08 10:19:19,240.1202409291583,7,15,-1.0997490882873535,3.882842779159546,13.88853864550224,13.036925387047956,55.70119761546432,47.29739180421621,-0.0002913951757363,0.0987826660275459,0,0,0
4524,164763.7363121402,2010-12-08 10:19:49,270.13526208989293,7,15,-1.0993878841400146,3.873129606246948,13.88853864550224,13.046093441093126,55.70119761546432,47.33294463514672,-0.0001942634553415,0.0987826660275459,0,0,0
4525,164793.75134097502,2010-12-08 10:20:19,300.1502909247242,7,15,-1.0997490882873535,3.8632545471191406,13.88853864550224,13.055261515477126,55.70119761546432,47.36840741818048,-0.0002913951757363,0.0987826660275459,0,0,0
4526,164823.76638883218,2010-12-08 10:20:49,330.1653387668544,7,15,-1.099568486213684,3.853865146636963,13.88853864550224,13.064429588816244,55.70119761546432,47.40378319094308,-0.0002590179501567,0.0987826660275459,0,0,0
4527,164853.78139932637,2010-12-08 10:21:19,360.18034926104576,7,15,-1.0997490882873535,3.844799518585205,13.88853864550224,13.073597612065484,55.70119761546432,47.43907379657176,-0.0002266406954731,0.0987826660275459,0,0,0
4528,164883.79646224604,2010-12-08 10:21:49,390.1954121957333,7,15,-1.099568486213684,3.8357338905334473,13.88853864550224,13.082765662908097,55.70119761546432,47.47428153875221,-0.0002266406954731,0.0987826660275459,0,0,0
4529,164913.8114588005,2010-12-08 10:22:19,420.2104087351987,7,15,-1.0997490882873535,3.826992273330689,13.88853864550224,13.091933708119544,55.70119761546432,47.50940805696444,-0.0002266406954731,0.0987826660275459,0,0,0
4530,164943.8267512564,2010-12-08 10:22:49,450.22570121109067,7,15,-1.099568486213684,3.8185741901397705,13.88853864550224,13.101101849218477,55.70119761546432,47.5444563465392,-0.0002590179501567,0.0987826660275459,0,0,0
4531,164973.84151234996,2010-12-08 10:23:19,480.2404622846082,7,15,-1.099568486213684,3.8103179931640634,13.88853864550224,13.11026980583634,55.70119761546432,47.57942653838765,-0.0001618862152099,0.0987826660275459,0,0,0
4532,165003.85654341034,2010-12-08 10:23:49,510.2554933600151,7,15,-1.099568486213684,3.8020617961883545,13.88853864550224,13.119437777594204,55.70119761546432,47.61432107715999,-0.0001942634553415,0.0987826660275459,0,0,0
4533,165033.87170080506,2010-12-08 10:24:19,540.2706507547629,7,15,-1.099929690361023,3.7938055992126474,13.88853864550224,13.12860584345624,55.70119761546432,47.649142172206446,-0.0002590179501567,0.0987826660275459,0,0,0
4534,165063.88662301458,2010-12-08 10:24:49,570.285572954236,7,15,-1.099568486213684,3.786358833312988,13.88853864550224,13.137773857656551,55.70119761546432,47.68389098420191,-0.0001942634553415,0.0987826660275459,0,0,0
4535,165093.9017761437,2010-12-08 10:25:19,600.300726093394,7,15,-1.0997490882873535,3.77875018119812,13.88853864550224,13.146941921656698,55.70119761546432,47.71856967741551,-0.0002266406954731,0.0987826660275459,0,0,0
4536,165123.9168675292,2010-12-08 10:25:49,630.3158175440423,7,15,-1.0993878841400146,3.771465301513672,13.88853864550224,13.156109984137023,55.70119761546432,47.75317973096027,-0.0001942634553415,0.0987826660275459,0,0,0
4537,165153.93181841503,2010-12-08 10:26:19,660.3307683647384,7,15,-1.099568486213684,3.764180421829224,13.88853864550224,13.16527796478868,55.70119761546432,47.78772223697756,-0.0001618862152099,0.0987826660275459,0,0,0
4538,165183.94673434392,2010-12-08 10:26:49,690.3456842685453,7,15,-1.099568486213684,3.757057428359986,13.88853864550224,13.17444599665662,55.70119761546432,47.82219925444378,-0.0001618862152099,0.0987826660275459,0,0,0
4539,165213.96194575308,2010-12-08 10:27:19,720.3608957779552,7,15,-1.099568486213684,3.749934673309326,13.88853864550224,13.183614078394111,55.70119761546432,47.85661163716867,-0.0001618862152099,0.0987826660275459,0,0,0
4540,165243.97678251492,2010-12-08 10:27:49,750.3757324546082,7,15,-1.0997490882873535,3.7432973384857178,13.88853864550224,13.192782080472188,55.70119761546432,47.89096066403618,-0.0001942634553415,0.0987826660275459,0,0,0
4541,165273.9918172244,2010-12-08 10:28:19,780.3907671490208,7,15,-1.0997490882873535,3.7364981174468994,13.88853864550224,13.201950152522429,55.70119761546432,47.92524792885101,-0.0001618862152099,0.0987826660275459,0,0,0
4542,165304.0070356109,2010-12-08 10:28:49,810.4059856558437,7,15,-1.099568486213684,3.730184555053711,13.88853864550224,13.211118258451448,55.70119761546432,47.95947519400833,-0.0001295089750783,0.0987826660275459,0,0,0
4543,165334.02224380206,2010-12-08 10:29:19,840.4211938219338,7,15,-1.0993878841400146,3.723709106445313,13.88853864550224,13.220286242592447,55.70119761546432,47.99364352114949,-0.0001618862152099,0.0987826660275459,0,0,0
4544,165364.03690010987,2010-12-08 10:29:49,870.4358501397709,7,15,-1.0997490882873535,3.717395544052124,13.88853864550224,13.229454168470866,55.70119761546432,48.02775311708903,-0.0001618862152099,0.0987826660275459,0,0,0
4545,165394.05194849338,2010-12-08 10:30:19,900.4508984280112,7,15,-1.099568486213684,3.7112438678741455,13.88853864550224,13.238622203771587,55.70119761546432,48.061805766449005,-0.0001295089750783,0.0987826660275459,0,0,0
4546,165424.06698370405,2010-12-08 10:30:49,930.4659336387086,7,15,-1.099568486213684,3.705092191696167,13.88853864550224,13.247790257736504,55.70119761546432,48.09580169711546,-0.0001295089750783,0.0987826660275459,0,0,0
4547,165454.08211789606,2010-12-08 10:31:19,960.4810678858544,7,15,-1.099929690361023,3.6987786293029785,13.88853864550224,13.256958426301344,55.70119761546432,48.12974182438828,-0.0001942634553415,0.0987826660275459,0,0,0
4548,165484.0970705413,2010-12-08 10:31:49,990.4960204909912,7,15,-1.0997490882873535,3.69295072555542,13.88853864550224,13.266126458299333,55.70119761546432,48.16362703883912,-0.0001942634553415,0.0987826660275459,0,0,0
4549,165514.1120447853,2010-12-08 10:32:19,1020.5109947349752,7,15,-1.099568486213684,3.687446594238281,13.88853864550224,13.275294576333613,55.70119761546432,48.19745973135517,-0.0001618862152099,0.0987826660275459,0,0,0
4550,165544.12707330432,2010-12-08 10:32:49,1050.5260232540206,7,15,-1.0997490882873535,3.681618690490722,13.88853864550224,13.284462713032088,55.70119761546432,48.23123999731436,-0.0001618862152099,0.0987826660275459,0,0,0
4551,165574.142092836,2010-12-08 10:33:19,1080.5410427857014,7,15,-1.099568486213684,3.676114559173584,13.88853864550224,13.293630893523629,55.70119761546432,48.264967907040486,-0.0001295089750783,0.0987826660275459,0,0,0
4552,165604.15731938285,2010-12-08 10:33:49,1110.556269402706,7,15,-1.0993878841400146,3.6704487800598153,13.88853864550224,13.302799109534776,55.70119761546432,48.298644337818445,-0.0001295089750783,0.0987826660275459,0,0,0
4553,165634.17214378392,2010-12-08 10:34:19,1140.571093733637,7,15,-1.0997490882873535,3.664944648742676,13.88853864550224,13.311967039193304,55.70119761546432,48.33226904060522,-0.0001618862152099,0.0987826660275459,0,0,0
4554,165664.18722542017,2010-12-08 10:34:49,1170.5861753698628,7,15,-1.099929690361023,3.659440517425537,13.88853864550224,13.321135021924048,55.70119761546432,48.36584408970679,-0.0001295089750783,0.0987826660275459,0,0,0
4555,165694.20219331837,2010-12-08 10:35:19,1200.6011432680557,7,15,-1.099568486213684,3.654098272323608,13.88853864550224,13.330302948618558,55.70119761546432,48.39936982782624,-0.0001618862152099,0.0987826660275459,0,0,0
4556,165724.21724557647,2010-12-08 10:35:49,1230.6161956013618,7,15,-1.099568486213684,3.6490797996521,13.88853864550224,13.339470957922304,55.70119761546432,48.43284768296433,-0.0001295089750783,0.0987826660275459,0,0,0
4557,165754.23225144416,2010-12-08 10:36:19,1260.6312013687907,7,15,-1.0997490882873535,3.643737554550171,13.88853864550224,13.348638884320334,55.70119761546432,48.466277011167705,-0.0001295089750783,0.0987826660275459,0,0,0
4558,165784.24729325628,2010-12-08 10:36:49,1290.6462432059775,7,15,-1.099568486213684,3.638880968093872,13.88853864550224,13.357806774154378,55.70119761546432,48.49965956807939,-9.713172767078504e-05,0.0987826660275459,0,0,0
4559,165814.26230720407,2010-12-08 10:37:19,1320.661257138726,7,15,-1.099568486213684,3.633700609207153,13.88853864550224,13.366974666945232,55.70119761546432,48.5329962978646,-0.0001295089750783,0.0987826660275459,0,0,0
4560,165844.27733672058,2010-12-08 10:37:49,1350.6762866602662,7,15,-1.099568486213684,3.6288440227508554,13.88853864550224,13.376142623483007,55.70119761546432,48.56628757343291,-0.0001295089750783,0.0987826660275459,0,0,0
4561,165874.2924174295,2010-12-08 10:38:19,1380.6913674493835,7,15,-1.099568486213684,3.623987436294556,13.88853864550224,13.38531054919072,55.70119761546432,48.59953384195094,-0.0001295089750783,0.0987826660275459,0,0,0
4562,165904.30740661066,2010-12-08 10:38:49,1410.7063565453263,7,15,-1.099568486213684,3.619130849838257,13.88853864550224,13.394478480156764,55.70119761546432,48.632735915242606,-0.0001295089750783,0.0987826660275459,0,0,0
4563,165934.32245444777,2010-12-08 10:39:19,1440.7214043974814,7,15,-1.0993878841400146,3.614274263381958,13.88853864550224,13.403646415126296,55.70119761546432,48.665894136282745,-0.0001618862152099,0.0987826660275459,0,0,0
4564,165964.33744069666,2010-12-08 10:39:49,1470.7363906463393,7,15,-1.099568486213684,3.609903335571289,13.88853864550224,13.412814340245829,55.70119761546432,48.699009682147015,-9.713172767078504e-05,0.0987826660275459,0,0,0
4565,165994.35494486123,2010-12-08 10:40:19,1500.7538949061704,7,15,-1.099568486213684,3.60537052154541,13.88853864550224,13.421982991112824,55.70119761546432,48.73208607586139,-0.0001295089750783,0.0987826660275459,0,0,0
4566,166024.36752491735,2010-12-08 10:40:49,1530.7664749623102,7,15,-1.099568486213684,3.600999593734741,13.88853864550224,13.431150122752118,55.70119761546432,48.76511661421203,-6.47544875391759e-05,0.0987826660275459,0,0,0
4567,166054.3826496709,2010-12-08 10:41:19,1560.7815996205943,7,15,-1.099568486213684,3.5967905521392822,13.88853864550224,13.440318058739075,55.70119761546432,48.79811048183812,-6.47544875391759e-05,0.0987826660275459,0,0,0
4568,166084.3975632389,2010-12-08 10:41:49,1590.7965131735511,7,15,-1.099568486213684,3.5925815105438232,13.88853864550224,13.449485939869945,55.70119761546432,48.83106538305566,-6.47544875391759e-05,0.0987826660275459,0,0,0
4569,166114.41270887438,2010-12-08 10:42:19,1620.811658824074,7,15,-1.099568486213684,3.5886964797973637,13.88853864550224,13.458653912131444,55.70119761546432,48.86398293785182,-6.47544875391759e-05,0.0987826660275459,0,0,0
4570,166144.42763033704,2010-12-08 10:42:50,1650.826580276689,7,15,-1.099568486213684,3.5843255519866943,13.88853864550224,13.467821820534592,55.70119761546432,48.8968636229718,-0.0001618862152099,0.0987826660275459,0,0,0
4571,166174.44287005163,2010-12-08 10:43:20,1680.841820056448,7,15,-1.099568486213684,3.580764055252075,13.88853864550224,13.476989775639304,55.70119761546432,48.9297085747031,-6.47544875391759e-05,0.0987826660275459,0,0,0
4572,166204.45766256336,2010-12-08 10:43:50,1710.856612487999,7,15,-1.0997490882873535,3.576878786087036,13.88853864550224,13.486157670304618,55.70119761546432,48.96251830546027,-9.713172767078504e-05,0.0987826660275459,0,0,0
4573,166234.47268675664,2010-12-08 10:44:20,1740.8716367113548,7,15,-1.0997490882873535,3.573155403137207,13.88853864550224,13.495325592859768,55.70119761546432,48.99529392859548,-9.713172767078504e-05,0.0987826660275459,0,0,0
4574,166264.48774218766,2010-12-08 10:44:50,1770.8866922325942,7,15,-1.099568486213684,3.569432020187378,13.88853864550224,13.504493531631562,55.70119761546432,49.02803628025862,-9.713172767078504e-05,0.0987826660275459,0,0,0
4575,166294.5027436644,2010-12-08 10:45:20,1800.9016935990717,7,15,-1.0993878841400146,3.5660324096679688,13.88853864550224,13.513661400896888,55.70119761546432,49.06074573350817,-9.713172767078504e-05,0.0987826660275459,0,0,0
4576,166324.51779372708,2010-12-08 10:45:50,1830.9167436767648,7,15,-1.099568486213684,3.562794685363769,13.88853864550224,13.522829361725584,55.70119761546432,49.09342418417808,-6.47544875391759e-05,0.0987826660275459,0,0,0
4577,166354.53283974464,2010-12-08 10:46:20,1860.9317896793173,7,15,-1.099568486213684,3.5595569610595703,13.88853864550224,13.531997270737202,55.70119761546432,49.12607223734295,-6.47544875391759e-05,0.0987826660275459,0,0,0
4578,166384.54783103106,2010-12-08 10:46:50,1890.9467809657108,7,15,-1.0997490882873535,3.556157350540161,13.88853864550224,13.541165256911004,55.70119761546432,49.15869052980997,-0.0001295089750783,0.0987826660275459,0,0,0
4579,166414.56284497885,2010-12-08 10:47:20,1920.961794933546,7,15,-1.099568486213684,3.553081512451172,13.88853864550224,13.550333302199933,55.70119761546432,49.1912799873925,-9.713172767078504e-05,0.0987826660275459,0,0,0
4580,166444.57786958816,2010-12-08 10:47:50,1950.9768195428624,7,15,-1.099568486213684,3.5498437881469727,13.88853864550224,13.55950133018776,55.70119761546432,49.22384039512276,-9.713172767078504e-05,0.0987826660275459,0,0,0
4581,166474.57799750264,2010-12-08 10:48:20,1980.976947527501,7,15,-1.099568486213684,3.5469298362731934,13.88853864550224,13.568664758109266,55.70119761546432,49.25635612906217,-6.47544875391759e-05,0.0987826660275459,0,0,0
4582,166504.59237505172,2010-12-08 10:48:50,2010.9913250716208,7,15,-1.099568486213684,3.543692111968994,13.88853864550224,13.577832612746104,55.70119761546432,49.288858507495135,-6.47544875391759e-05,0.0987826660275459,0,0,0
4583,166534.60938459047,2010-12-08 10:49:20,2041.0083346354195,7,15,-1.0993878841400146,3.540616273880005,13.88853864550224,13.586995788423392,55.70119761546432,49.321314982441294,-9.713172767078504e-05,0.0987826660275459,0,0,0
4584,166564.6223643162,2010-12-08 10:49:50,2071.0213142658845,7,15,-1.099568486213684,3.537216663360596,13.88853864550224,13.596168594426873,55.70119761546432,49.353776169926704,-6.47544875391759e-05,0.0987826660275459,0,0,0
4585,166594.63773020977,2010-12-08 10:50:20,2101.0366802296485,7,15,-1.0997490882873535,3.5338170528411865,13.88853864550224,13.605336740294716,55.70119761546432,49.38619078055132,-0.0001295089750783,0.0987826660275459,0,0,0
4586,166624.6524225723,2010-12-08 10:50:50,2131.051372506969,7,15,-1.0997490882873535,3.5304174423217773,13.88853864550224,13.614504714360102,55.70119761546432,49.418573990862726,-9.713172767078504e-05,0.0987826660275459,0,0,0
4587,166654.66746375288,2010-12-08 10:51:20,2161.06641370256,7,15,-1.099568486213684,3.527341604232788,13.88853864550224,13.623672753264618,55.70119761546432,49.45092691813106,-6.47544875391759e-05,0.0987826660275459,0,0,0
4588,166684.68247316938,2010-12-08 10:51:50,2191.0814231190698,7,15,-1.099568486213684,3.523941993713379,13.88853864550224,13.632840792347151,55.70119761546432,49.48324896632924,-9.713172767078504e-05,0.0987826660275459,0,0,0
4589,166714.69765224308,2010-12-08 10:52:20,2221.096602177727,7,15,-1.099568486213684,3.5205423831939697,13.88853864550224,13.642008808212022,55.70119761546432,49.51553973088017,-6.47544875391759e-05,0.0987826660275459,0,0,0
4590,166744.71251875898,2010-12-08 10:52:50,2251.111468708671,7,15,-1.099568486213684,3.5168190002441406,13.88853864550224,13.651176712315769,55.70119761546432,49.547797789030376,-9.713172767078504e-05,0.0987826660275459,0,0,0
4591,166774.72755566388,2010-12-08 10:53:20,2281.1265056135844,7,15,-1.0993878841400146,3.5130956172943115,13.88853864550224,13.66034478031436,55.70119761546432,49.5800226644402,-6.47544875391759e-05,0.0987826660275459,0,0,0
4592,166804.7425794211,2010-12-08 10:53:50,2311.1415293707805,7,15,-1.099568486213684,3.5090487003326416,13.88853864550224,13.669512846574904,55.70119761546432,49.612212032495385,-9.713172767078504e-05,0.0987826660275459,0,0,0
4593,166834.7576063161,2010-12-08 10:54:20,2341.1565562657843,7,15,-1.099568486213684,3.5051634311676025,13.88853864550224,13.678680923196604,55.70119761546432,49.64436550107607,-9.713172767078504e-05,0.0987826660275459,0,0,0
4594,166864.77280416148,2010-12-08 10:54:50,2371.171754201416,7,15,-1.099568486213684,3.501116275787353,13.88853864550224,13.687849034358736,55.70119761546432,49.67648216916782,-0.0001295089750783,0.0987826660275459,0,0,0
4595,166894.7878293021,2010-12-08 10:55:20,2401.1867793220053,7,15,-1.0993878841400146,3.4969072341918945,13.88853864550224,13.697017037041103,55.70119761546432,49.708560966361176,-9.713172767078504e-05,0.0987826660275459,0,0,0
4596,166924.80270108616,2010-12-08 10:55:50,2431.201651020809,7,15,-1.099568486213684,3.4925363063812256,13.88853864550224,13.706185040134953,55.70119761546432,49.74059980267014,-0.0001295089750783,0.0987826660275459,0,0,0
4597,166954.81771225703,2010-12-08 10:56:20,2461.216662191685,7,15,-1.099568486213684,3.4878416061401367,13.88853864550224,13.715353017416858,55.70119761546432,49.77259709758298,-9.713172767078504e-05,0.0987826660275459,0,0,0
4598,166984.8327393475,2010-12-08 10:56:50,2491.2316892972126,7,15,-1.0997490882873535,3.482661247253418,13.88853864550224,13.724521046698278,55.70119761546432,49.80455011111116,-0.0001295089750783,0.0987826660275459,0,0,0
4599,167014.8477833952,2010-12-08 10:57:20,2521.2467333449003,7,15,-1.0993878841400146,3.4773190021514893,13.88853864550224,13.733689029066491,55.70119761546432,49.83645440708015,-9.713172767078504e-05,0.0987826660275459,0,0,0
4600,167044.862770416,2010-12-08 10:57:50,2551.261720340617,7,15,-1.0993878841400146,3.4713292121887207,13.88853864550224,13.742857114612514,55.70119761546432,49.86830649217997,-0.0001618862152099,0.0987826660275459,0,0,0
4601,167074.87782055885,2010-12-08 10:58:20,2581.27677049851,7,15,-1.099568486213684,3.4646918773651123,13.88853864550224,13.7520251896212,55.70119761546432,49.900100771237724,-0.0001942634553415,0.0987826660275459,0,0,0
4602,167104.89282176492,2010-12-08 10:58:50,2611.291771714613,7,15,-1.0993878841400146,3.457083225250244,13.88853864550224,13.76119317847006,55.70119761546432,49.93182944478271,-0.0001618862152099,0.0987826660275459,0,0,0
4603,167134.9078654517,2010-12-08 10:59:20,2641.306815381353,7,15,-1.099568486213684,3.4481794834136963,13.88853864550224,13.770361166515054,55.70119761546432,49.96348355554029,-0.0002266406954731,0.0987826660275459,0,0,0
4604,167164.92300283164,2010-12-08 10:59:50,2671.321952766307,7,15,-1.0997490882873535,3.4381425380706787,13.88853864550224,13.779529173193357,55.70119761546432,49.99505116835844,-0.0002590179501567,0.0987826660275459,0,0,0
4605,167194.93791354253,2010-12-08 11:00:20,2701.3368634922285,7,15,-1.099568486213684,3.4263250827789307,13.88853864550224,13.788697209919627,55.70119761546432,50.026519125898965,-0.0003561496851034,0.0987826660275459,0,0,0
4606,167224.95293956535,2010-12-08 11:00:50,2731.351889495013,7,15,-1.099568486213684,3.412079095840454,13.88853864550224,13.797865239411076,55.70119761546432,50.05786888825164,-0.0004209041653666,0.0987826660275459,0,0,0
4607,167254.96797807928,2010-12-08 11:01:20,2761.3669280039176,7,15,-1.099929690361023,3.3944334983825684,13.88853864550224,13.807033366098148,55.70119761546432,50.0890732717436,-0.0005504131549969,0.0987826660275459,0,0,0
4608,167284.98322409458,2010-12-08 11:01:50,2791.382174144506,7,15,-1.0997490882873535,3.371769428253174,13.88853864550224,13.81620152315518,55.70119761546432,50.12009517698544,-0.0006799221155233,0.0987826660275459,0,0,0
4609,167314.99802887684,2010-12-08 11:02:20,2821.396978896716,7,15,-1.099568486213684,3.34214448928833,13.88853864550224,13.825369574857929,55.70119761546432,50.15087786894625,-0.0008741855854168,0.0987826660275459,0,0,0
4610,167345.01307035313,2010-12-08 11:02:50,2851.412020277768,7,15,-1.099568486213684,3.3026442527771,13.88853864550224,13.834537674911122,55.70119761546432,50.18134680199518,-0.0012303352123126,0.0987826660275459,0,0,0
4611,167375.02777267044,2010-12-08 11:03:20,2881.426722379537,7,15,-1.099568486213684,3.2493839263916016,13.88853864550224,13.843705575324138,55.70119761546432,50.21139419609557,-0.0019750117789953,0.0987826660275459,0,0,0
4612,167405.04273484438,2010-12-08 11:03:50,2911.4416846086224,7,15,-1.099929690361023,3.1747546195983887,13.88853864550224,13.85287360426792,55.70119761546432,50.240863853069335,-0.0022987842094153,0.0987826660275459,0,0,0
4613,167435.0581470783,2010-12-08 11:04:20,2941.457097012952,7,15,-1.099568486213684,3.065643548965454,13.88853864550224,13.862041827933377,55.70119761546432,50.26950443936822,-0.0034643649123609,0.0987826660275459,0,0,0
4614,167465.07315801358,2010-12-08 11:04:50,2971.472107938216,7,15,-1.099568486213684,2.880769968032837,13.88853864550224,13.87120993347175,55.70119761546432,50.29685148251566,-0.0063783167861402,0.0987826660275459,0,0,0
4615,167483.85375021494,2010-12-08 11:05:09,2990.252699833817,7,15,-1.099568486213684,2.699943780899048,13.88853864550224,13.876946508811416,55.70119761546432,50.31287905405019,-0.0103930477052927,0.0987826660275459,0,0,0
4616,167543.86797152366,2010-12-08 11:06:09,60.01471990221821,8,15,0.0,3.413212299346924,13.88853864550224,13.876946508811416,55.70119761546432,50.31287905405019,0.0012627125252038,0.0987826660275459,0,0,0
4617,167544.05579562762,2010-12-08 11:06:09,0.187451220151685,9,15,-1.9243103452026844e-05,3.413212299346924,13.88853864550224,13.8769465098134,55.70119761546432,50.31287905747018,0.0,0.0971632748842239,0,0,0
4618,167548.8835712315,2010-12-08 11:06:14,5.015226613534449,9,15,0.0008838032954372,3.421306610107422,13.88853946871246,13.876946509897016,55.701200429179565,50.31287905775558,0.0011008263099938,0.0971632748842239,0,0,0
