Data_Point,Test_Time(s),Date_Time,Step_Time(s),Step_Index,Cycle_Index,Current(A),Voltage(V),Charge_Capacity(Ah),Discharge_Capacity(Ah),Charge_Energy(Wh),Discharge_Energy(Wh),dV/dt(V/s),Internal_Resistance(Ohm),Is_FC_Data,AC_Impedance(Ohm),ACI_Phase_Angle(Deg)
11839,429914.0846060532,2010-12-11 11:59:31,30.01500543660571,1,40,0.0,3.4266488552093506,35.54394007030926,35.535878889807385,142.5868221733053,128.7139941671613,0.0006799221155233,0.0947341993451118,0,0,0
11840,429944.0996751682,2010-12-11 12:00:01,60.03007454666034,1,40,0.0,3.448827028274536,35.54394007030926,35.535878889807385,142.5868221733053,128.7139941671613,0.0004856586456298,0.0947341993451118,0,0,0
11841,429974.11473314057,2010-12-11 12:00:31,90.04513254406156,1,40,0.0,3.465663194656372,35.54394007030926,35.535878889807385,142.5868221733053,128.7139941671613,0.0003885269106831,0.0947341993451118,0,0,0
11842,430004.0829320609,2010-12-11 12:01:01,120.01333143938956,1,40,0.0,3.479261636734009,35.54394007030926,35.535878889807385,142.5868221733053,128.7139941671613,0.0003561496851034,0.0947341993451118,0,0,0
11843,430034.0862608195,2010-12-11 12:01:31,30.015240772229355,2,40,0.5501165986061096,3.636938333511353,35.54852751839832,35.535878889807385,142.6033544059989,128.7139941671613,0.0014569759368896,0.0947341993451118,0,0,0
11844,430064.10116420215,2010-12-11 12:02:01,60.03014414986525,2,40,0.5501165986061096,3.679999828338623,35.553114904523014,35.535878889807385,142.62014432128862,128.7139941671613,0.0009065627818927,0.0947341993451118,0,0,0
11845,430094.1187875484,2010-12-11 12:02:31,90.04776766144984,2,40,0.550297200679779,3.7112438678741455,35.55770269589257,35.535878889807385,142.63710264900146,128.7139941671613,0.0007446765666827,0.0947341993451118,0,0,0
11846,430124.1335173391,2010-12-11 12:03:01,120.06249738695908,2,40,0.5501165986061096,3.7350411415100098,35.56228999018057,35.535878889807385,142.65418375009023,128.7139941671613,0.0005827903514727,0.0947341993451118,0,0,0
11847,430154.1463966197,2010-12-11 12:03:31,150.07537659252063,2,40,0.550297200679779,3.753495931625366,35.56687705863743,35.535878889807385,142.67136109194723,128.7139941671613,0.0004208564641885,0.0947341993451118,0,0,0
11848,430184.16165278526,2010-12-11 12:04:01,180.09063281319283,2,40,0.550297200679779,3.767418146133423,35.57146444777939,35.535878889807385,142.68861344630548,128.7139941671613,0.0003237724304199,0.0947341993451118,0,0,0
11849,430214.176577897,2010-12-11 12:04:31,210.1055578547385,2,40,0.550297200679779,3.7763218879699703,35.576051795157525,35.535878889807385,142.70591692580518,128.7139941671613,0.0002266406954731,0.0947341993451118,0,0,0
11850,430244.1916418743,2010-12-11 12:05:01,240.12062185207031,2,40,0.5501165986061096,3.7823116779327393,35.580639157281546,35.535878889807385,142.72325464826798,128.7139941671613,9.713172767078504e-05,0.0947341993451118,0,0,0
11851,430274.20688000496,2010-12-11 12:05:31,270.13586005290085,2,40,0.550297200679779,3.787815809249878,35.5852265476563,35.535878889807385,142.7406183494739,128.7139941671613,0.0001295089750783,0.0947341993451118,0,0,0
11852,430304.2218892059,2010-12-11 12:06:01,300.1508691636496,2,40,0.550297200679779,3.792348623275757,35.58981394140301,35.535878889807385,142.75800479984966,128.7139941671613,0.0001295089750783,0.0947341993451118,0,0,0
11853,430334.2368510641,2010-12-11 12:06:31,330.16583111203647,2,40,0.5501165986061096,3.796719551086426,35.59440132975829,35.535878889807385,142.7754122754632,128.7139941671613,6.47544875391759e-05,0.0947341993451118,0,0,0
11854,430364.251910851,2010-12-11 12:07:01,360.18089082370363,2,40,0.5501165986061096,3.801090478897095,35.59898870069417,35.535878889807385,142.79283964075674,128.7139941671613,9.713172767078504e-05,0.0947341993451118,0,0,0
11855,430394.2669989734,2010-12-11 12:07:31,390.1959789560946,2,40,0.5501165986061096,3.805137634277344,35.60357606202203,35.535878889807385,142.81028598625372,128.7139941671613,6.47544875391759e-05,0.0947341993451118,0,0,0
11856,430424.2820654468,2010-12-11 12:08:01,420.2110454195633,2,40,0.5501165986061096,3.809022903442383,35.60816345017895,35.535878889807385,142.82775083215634,128.7139941671613,6.47544875391759e-05,0.0947341993451118,0,0,0
11857,430454.2971526669,2010-12-11 12:08:31,450.2261326346716,2,40,0.5501165986061096,3.812908172607422,35.612750883331465,35.535878889807385,142.84523374028532,128.7139941671613,0.0001295089750783,0.0947341993451118,0,0,0
11858,430484.312328673,2010-12-11 12:09:01,480.2413086457453,2,40,0.5501165986061096,3.816793441772461,35.617338256705565,35.535878889807385,142.86273406836744,128.7139941671613,9.713172767078504e-05,0.0947341993451118,0,0,0
11859,430514.32726897753,2010-12-11 12:09:31,510.2562489552849,2,40,0.5501165986061096,3.82035493850708,35.621925657749586,35.535878889807385,142.88025152924118,128.7139941671613,0.0001295089750783,0.0947341993451118,0,0,0
11860,430544.3424836498,2010-12-11 12:10:01,540.2714636776902,2,40,0.5501165986061096,3.824078321456909,35.62651310349925,35.535878889807385,142.89778583425837,128.7139941671613,9.713172767078504e-05,0.0947341993451118,0,0,0
11861,430574.3575312263,2010-12-11 12:10:31,570.2865112040347,2,40,0.550297200679779,3.827639818191528,35.63110049780599,35.535878889807385,142.91533655528156,128.7139941671613,9.713172767078504e-05,0.0947341993451118,0,0,0
11862,430604.3726559096,2010-12-11 12:11:01,600.3016358673314,2,40,0.5501165986061096,3.831363201141357,35.635687910411534,35.535878889807385,142.93290392512696,128.7139941671613,9.713172767078504e-05,0.0947341993451118,0,0,0
11863,430634.387606956,2010-12-11 12:11:31,630.3165869336386,2,40,0.550297200679779,3.8349244594573975,35.64027520368214,35.535878889807385,142.95048749567405,128.7139941671613,9.713172767078504e-05,0.0947341993451118,0,0,0
11864,430664.4029160331,2010-12-11 12:12:01,660.331896081017,2,40,0.550297200679779,3.8384859561920166,35.64486260377099,35.535878889807385,142.96808820405897,128.7139941671613,6.47544875391759e-05,0.0947341993451118,0,0,0
11865,430694.4196659758,2010-12-11 12:12:31,690.3486460237591,2,40,0.5501165986061096,3.842371225357056,35.64945023388814,35.535878889807385,142.98570666570296,128.7139941671613,0.0001295089750783,0.0947341993451118,0,0,0
11866,430724.4329587756,2010-12-11 12:13:01,720.3619387533594,2,40,0.5501165986061096,3.845932722091675,35.65403736683243,35.535878889807385,143.00334006568676,128.7139941671613,6.47544875391759e-05,0.0947341993451118,0,0,0
11867,430754.447901817,2010-12-11 12:13:31,750.3768817896844,2,40,0.5501165986061096,3.849656105041504,35.65862474114039,35.535878889807385,143.0209912908449,128.7139941671613,9.713172767078504e-05,0.0947341993451118,0,0,0
11868,430784.4629776487,2010-12-11 12:14:01,780.3919576214656,2,40,0.5501165986061096,3.853217601776123,35.663212166000385,35.535878889807385,143.0386595745622,128.7139941671613,6.47544875391759e-05,0.0947341993451118,0,0,0
11869,430814.478196752,2010-12-11 12:14:31,810.4071766997104,2,40,0.550297200679779,3.856940984725952,35.66779947762741,35.535878889807385,143.0563439564014,128.7139941671613,0.0001295089750783,0.0947341993451118,0,0,0
11870,430844.4931203099,2010-12-11 12:15:01,840.4221002826264,2,40,0.5501165986061096,3.860340595245361,35.67238682795538,35.535878889807385,143.0740450049995,128.7139941671613,3.237724376958795e-05,0.0947341993451118,0,0,0
11871,430874.50821937446,2010-12-11 12:15:31,870.4371993422093,2,40,0.5501165986061096,3.8637402057647705,35.67697423559214,35.535878889807385,143.09176240984607,128.7139941671613,6.47544875391759e-05,0.0947341993451118,0,0,0
11872,430904.5232696727,2010-12-11 12:16:01,900.4522496304265,2,40,0.550297200679779,3.8674635887146,35.68156163276679,35.535878889807385,143.1094954649404,128.7139941671613,0.0001295089750783,0.0947341993451118,0,0,0
11873,430934.5386689644,2010-12-11 12:16:31,930.4676489872876,2,40,0.550297200679779,3.870701313018799,35.68614903389014,35.535878889807385,143.12724380598738,128.7139941671613,9.713172767078504e-05,0.0947341993451118,0,0,0
11874,430964.55341678497,2010-12-11 12:17:01,960.4823967426636,2,40,0.550297200679779,3.873777151107788,35.69073639946184,35.535878889807385,143.14500681796557,128.7139941671613,9.713172767078504e-05,0.0947341993451118,0,0,0
11875,430994.5686127055,2010-12-11 12:17:31,990.4975926733064,2,40,0.550297200679779,3.876691102981568,35.695323809093296,35.535878889807385,143.1627841393272,128.7139941671613,6.47544875391759e-05,0.0947341993451118,0,0,0
11876,431024.58358446334,2010-12-11 12:18:01,1020.5125644210788,2,40,0.550297200679779,3.8796050548553462,35.699911224893015,35.535878889807385,143.18057512911216,128.7139941671613,6.47544875391759e-05,0.0947341993451118,0,0,0
11877,431054.5988372756,2010-12-11 12:18:31,1050.5278172232438,2,40,0.550297200679779,3.882357120513916,35.70449866982276,35.535878889807385,143.19837922530303,128.7139941671613,6.47544875391759e-05,0.0947341993451118,0,0,0
11878,431084.6137308538,2010-12-11 12:19:01,1080.5427108115196,2,40,0.550297200679779,3.885109186172485,35.70908611823841,35.535878889807385,143.21619564804567,128.7139941671613,9.713172767078504e-05,0.0947341993451118,0,0,0
11879,431114.628781924,2010-12-11 12:19:31,1110.55776189672,2,40,0.5501165986061096,3.887375593185425,35.71367347902524,35.535878889807385,143.2340233272241,128.7139941671613,3.237724376958795e-05,0.0947341993451118,0,0,0
11880,431144.6438551693,2010-12-11 12:20:01,1140.572835122015,2,40,0.5501165986061096,3.889803886413574,35.71826088153644,35.535878889807385,143.2518621957586,128.7139941671613,6.47544875391759e-05,0.0947341993451118,0,0,0
11881,431174.6589658678,2010-12-11 12:20:31,1170.587945890736,2,40,0.550297200679779,3.8920702934265137,35.72284829436745,35.535878889807385,143.26971144843964,128.7139941671613,3.237724376958795e-05,0.0947341993451118,0,0,0
11882,431204.67400891305,2010-12-11 12:21:01,1200.6029888858045,2,40,0.550297200679779,3.894012928009033,35.72743571698012,35.535878889807385,143.28757057282462,128.7139941671613,0.0,0.0947341993451118,0,0,0
11883,431234.6890830806,2010-12-11 12:21:31,1230.6180630384072,2,40,0.5501165986061096,3.8959555625915527,35.73202312861706,35.535878889807385,143.30543864848957,128.7139941671613,3.237724376958795e-05,0.0947341993451118,0,0,0
11884,431264.7041541907,2010-12-11 12:22:01,1260.633134163476,2,40,0.5501165986061096,3.8977363109588623,35.73661053778727,35.535878889807385,143.32331557893227,128.7139941671613,0.0,0.0947341993451118,0,0,0
11885,431294.7211318702,2010-12-11 12:22:31,1290.6501119331567,2,40,0.550297200679779,3.899840831756592,35.74119822209519,35.535878889807385,143.34120212253652,128.7139941671613,9.713172767078504e-05,0.0947341993451118,0,0,0
11886,431324.7343648812,2010-12-11 12:23:01,1320.6633449240994,2,40,0.550297200679779,3.901621580123901,35.74578538909833,35.535878889807385,143.3590948464723,128.7139941671613,6.47544875391759e-05,0.0947341993451118,0,0,0
11887,431354.7495157747,2010-12-11 12:23:31,1350.6784957474947,2,40,0.5501165986061096,3.903240442276001,35.75037279484648,35.535878889807385,143.37699656063566,128.7139941671613,3.237724376958795e-05,0.0947341993451118,0,0,0
11888,431384.76444839005,2010-12-11 12:24:01,1380.6934283478502,2,40,0.550297200679779,3.905021190643311,35.75496022196967,35.535878889807385,143.3949062722981,128.7139941671613,3.237724376958795e-05,0.0947341993451118,0,0,0
11889,431414.779541505,2010-12-11 12:24:31,1410.7085214826895,2,40,0.550297200679779,3.90680193901062,35.759547582250505,35.535878889807385,143.41282329021212,128.7139941671613,9.713172767078504e-05,0.0947341993451118,0,0,0
11890,431444.7945974071,2010-12-11 12:25:01,1440.723577364827,2,40,0.5501165986061096,3.9080970287323,35.76413488506505,35.535878889807385,143.43074775847293,128.7139941671613,0.0,0.0947341993451118,0,0,0
11891,431474.809669289,2010-12-11 12:25:32,1470.7386492618168,2,40,0.5501165986061096,3.9097158908844,35.76872217033041,35.535878889807385,143.44867963129562,128.7139941671613,3.237724376958795e-05,0.0947341993451118,0,0,0
11892,431504.8248937256,2010-12-11 12:26:02,1500.7538736833585,2,40,0.550297200679779,3.911334753036499,35.77330950311288,35.535878889807385,143.46661907054664,128.7139941671613,3.237724376958795e-05,0.0947341993451118,0,0,0
11893,431534.839955733,2010-12-11 12:26:32,1530.768935690738,2,40,0.5501165986061096,3.9131155014038086,35.77789687742314,35.535878889807385,143.4845661367505,128.7139941671613,9.713172767078504e-05,0.0947341993451118,0,0,0
11894,431564.85535452847,2010-12-11 12:27:02,1560.7843345764268,2,40,0.5501165986061096,3.914734125137329,35.78248433565356,35.535878889807385,143.50252086123288,128.7139941671613,6.47544875391759e-05,0.0947341993451118,0,0,0
11895,431594.86997553846,2010-12-11 12:27:32,1590.7989555864017,2,40,0.550297200679779,3.9163529872894287,35.78707164916539,35.535878889807385,143.52048229378929,128.7139941671613,6.47544875391759e-05,0.0947341993451118,0,0,0
11896,431624.8850524028,2010-12-11 12:28:02,1620.8140323755654,2,40,0.5501165986061096,3.917971849441528,35.79165900065617,35.535878889807385,143.53845130132638,128.7139941671613,6.47544875391759e-05,0.0947341993451118,0,0,0
11897,431654.90012971824,2010-12-11 12:28:32,1650.829109696051,2,40,0.5501165986061096,3.919428825378418,35.79624629297249,35.535878889807385,143.5564274416256,128.7139941671613,3.237724376958795e-05,0.0947341993451118,0,0,0
11898,431684.9152058558,2010-12-11 12:29:02,1680.8441858285812,2,40,0.5501165986061096,3.9210476875305176,35.80083369240316,35.535878889807385,143.5744114125689,128.7139941671613,3.237724376958795e-05,0.0947341993451118,0,0,0
11899,431714.9302856776,2010-12-11 12:29:32,1710.8592656452788,2,40,0.5501165986061096,3.922666549682617,35.80542100436626,35.535878889807385,143.5924024286541,128.7139941671613,3.237724376958795e-05,0.0947341993451118,0,0,0
11900,431744.94534162985,2010-12-11 12:30:02,1740.8743216026037,2,40,0.5501165986061096,3.924447298049927,35.81000832598516,35.535878889807385,143.61040090097873,128.7139941671613,6.47544875391759e-05,0.0947341993451118,0,0,0
11901,431774.9604598019,2010-12-11 12:30:32,1770.8894397747472,2,40,0.5499359965324402,3.9257423877716064,35.81459575475336,35.535878889807385,143.62840727715815,128.7139941671613,0.0,0.0947341993451118,0,0,0
11902,431804.9755190024,2010-12-11 12:31:02,1800.904498975142,2,40,0.550297200679779,3.927523136138916,35.81918316710777,35.535878889807385,143.64642095170817,128.7139941671613,6.47544875391759e-05,0.0947341993451118,0,0,0
11903,431834.99053339625,2010-12-11 12:31:32,1830.9195133690373,2,40,0.550297200679779,3.9293038845062256,35.82377052970104,35.535878889807385,143.66444186889285,128.7139941671613,9.713172767078504e-05,0.0947341993451118,0,0,0
11904,431865.00560839096,2010-12-11 12:32:02,1860.9345883687483,2,40,0.550297200679779,3.931084632873535,35.82835792512323,35.535878889807385,143.68247042963003,128.7139941671613,9.713172767078504e-05,0.0947341993451118,0,0,0
11905,431895.022542091,2010-12-11 12:32:32,1890.951522063751,2,40,0.5501165986061096,3.932541608810425,35.83294562094557,35.535878889807385,143.7005076508488,128.7139941671613,6.47544875391759e-05,0.0947341993451118,0,0,0
11906,431925.0357886205,2010-12-11 12:33:02,1920.9647685983969,2,40,0.550297200679779,3.934160470962525,35.837532744873165,35.535878889807385,143.71855016264618,128.7139941671613,3.237724376958795e-05,0.0947341993451118,0,0,0
11907,431955.0508457759,2010-12-11 12:33:32,1950.97982574869,2,40,0.5504778623580933,3.935779333114624,35.84212017360328,35.535878889807385,143.7366014698041,128.7139941671613,0.0,0.0947341993451118,0,0,0
11908,431985.0659170915,2010-12-11 12:34:02,1980.9948970642329,2,40,0.5499359965324402,3.937398195266724,35.84670706725056,35.535878889807385,143.75465802551977,128.7139941671613,6.47544875391759e-05,0.0947341993451118,0,0,0
11909,432015.08121560747,2010-12-11 12:34:32,2011.0101955801551,2,40,0.5501165986061096,3.9390170574188232,35.85129369948385,35.535878889807385,143.7727211881987,128.7139941671613,3.237724376958795e-05,0.0947341993451118,0,0,0
11910,432045.0828263568,2010-12-11 12:35:02,2041.0118064198216,2,40,0.550297200679779,3.940959692001343,35.8558788394465,35.535878889807385,143.7907862108673,128.7139941671613,3.237724376958795e-05,0.0947341993451118,0,0,0
11911,432075.09557715285,2010-12-11 12:35:32,2071.024557195791,2,40,0.5501165986061096,3.942416667938232,35.860465924877545,35.535878889807385,143.80886658160728,128.7139941671613,6.47544875391759e-05,0.0947341993451118,0,0,0
11912,432105.0971668198,2010-12-11 12:36:02,2101.0261468677822,2,40,0.5499359965324402,3.944035530090332,35.865051183525,35.535878889807385,143.82694736350237,128.7139941671613,0.0,0.0947341993451118,0,0,0
11913,432135.11005860165,2010-12-11 12:36:32,2131.039038579465,2,40,0.550297200679779,3.945978164672852,35.86963828611148,35.535878889807385,143.8450431147523,128.7139941671613,9.713172767078504e-05,0.0947341993451118,0,0,0
11914,432165.12516248325,2010-12-11 12:37:02,2161.0541424610474,2,40,0.550297200679779,3.947435140609741,35.874225767123924,35.535878889807385,143.86314802681818,128.7139941671613,3.237724376958795e-05,0.0947341993451118,0,0,0
11915,432195.14022127766,2010-12-11 12:37:32,2191.069201255432,2,40,0.550297200679779,3.949215888977051,35.87881318771349,35.535878889807385,143.88126043112635,128.7139941671613,6.47544875391759e-05,0.0947341993451118,0,0,0
11916,432225.1553010794,2010-12-11 12:38:02,2221.084281047067,2,40,0.5501165986061096,3.9508347511291504,35.88340060320318,35.535878889807385,143.89938054190878,128.7139941671613,6.47544875391759e-05,0.0947341993451118,0,0,0
11917,432255.1704747646,2010-12-11 12:38:32,2251.0994547373657,2,40,0.5501165986061096,3.95245361328125,35.88798805956723,35.535878889807385,143.9175086227293,128.7139941671613,3.237724376958795e-05,0.0947341993451118,0,0,0
11918,432285.185592636,2010-12-11 12:39:02,2281.114572608761,2,40,0.550297200679779,3.95423436164856,35.89257548298767,35.535878889807385,143.93564439299763,128.7139941671613,6.47544875391759e-05,0.0947341993451118,0,0,0
11919,432315.2005222088,2010-12-11 12:39:32,2311.1295021815827,2,40,0.550297200679779,3.956015110015869,35.89716291302809,35.535878889807385,143.95378802995972,128.7139941671613,3.237724376958795e-05,0.0947341993451118,0,0,0
11920,432345.2155759055,2010-12-11 12:40:02,2341.1445558832934,2,40,0.5501165986061096,3.9576339721679688,35.90175043088828,35.535878889807385,143.97193992007763,128.7139941671613,3.237724376958795e-05,0.0947341993451118,0,0,0
11921,432375.2306575969,2010-12-11 12:40:32,2371.1596375746567,2,40,0.5501165986061096,3.959252834320069,35.906337887292665,35.535878889807385,143.99009952427824,128.7139941671613,0.0,0.0947341993451118,0,0,0
11922,432405.24584790855,2010-12-11 12:41:02,2401.174827866268,2,40,0.5501165986061096,3.961195468902588,35.91092533541323,35.535878889807385,144.00826708999216,128.7139941671613,6.47544875391759e-05,0.0947341993451118,0,0,0
11923,432435.2608415958,2010-12-11 12:41:32,2431.1898215536357,2,40,0.5501165986061096,3.962814331054688,35.91551277928254,35.535878889807385,144.0264426764476,128.7139941671613,6.47544875391759e-05,0.0947341993451118,0,0,0
11924,432465.27587431535,2010-12-11 12:42:02,2461.2048542731336,2,40,0.5501165986061096,3.964595079421997,35.92010017523719,35.535878889807385,144.04462612932193,128.7139941671613,3.237724376958795e-05,0.0947341993451118,0,0,0
11925,432495.2910716997,2010-12-11 12:42:32,2491.220051677444,2,40,0.550297200679779,3.9665377140045166,35.92468762841159,35.535878889807385,144.06281797439345,128.7139941671613,3.237724376958795e-05,0.0947341993451118,0,0,0
11926,432525.3061826087,2010-12-11 12:43:02,2521.235162636638,2,40,0.5499359965324402,3.968156576156616,35.92927517677027,35.535878889807385,144.08101837207798,128.7139941671613,6.47544875391759e-05,0.0947341993451118,0,0,0
11927,432555.3212525308,2010-12-11 12:43:32,2551.2502324885386,2,40,0.5504778623580933,3.9702610969543457,35.933862608844784,35.535878889807385,144.0992265260906,128.7139941671613,9.713172767078504e-05,0.0947341993451118,0,0,0
11928,432585.32242886425,2010-12-11 12:44:02,2581.251408932228,2,40,0.550297200679779,3.971879959106445,35.93844795036761,35.535878889807385,144.11743470100453,128.7139941671613,9.713172767078504e-05,0.0947341993451118,0,0,0
11929,432615.3356307628,2010-12-11 12:44:32,2611.264610710499,2,40,0.5501165986061096,3.973660707473755,35.94303510382408,35.535878889807385,144.13565849640597,128.7139941671613,6.47544875391759e-05,0.0947341993451118,0,0,0
11930,432645.350713592,2010-12-11 12:45:02,2641.27969365498,2,40,0.5501165986061096,3.9756033420562735,35.94762255672258,35.535878889807385,144.15389194512665,128.7139941671613,3.237724376958795e-05,0.0947341993451118,0,0,0
11931,432675.3659961381,2010-12-11 12:45:32,2671.2949761510376,2,40,0.550297200679779,3.977545976638794,35.9522100608794,35.535878889807385,144.17213419342212,128.7139941671613,6.47544875391759e-05,0.0947341993451118,0,0,0
11932,432705.3808695763,2010-12-11 12:46:02,2701.309849554083,2,40,0.550297200679779,3.979326725006104,35.95679745504563,35.535878889807385,144.19038417650268,128.7139941671613,6.47544875391759e-05,0.0947341993451118,0,0,0
11933,432735.3959423504,2010-12-11 12:46:32,2731.3249222981804,2,40,0.5501165986061096,3.981269359588623,35.961384900534235,35.535878889807385,144.20864354743597,128.7139941671613,3.237724376958795e-05,0.0947341993451118,0,0,0
11934,432765.4110030295,2010-12-11 12:47:02,2761.339983002317,2,40,0.5501165986061096,3.9830501079559326,35.96597226568818,35.535878889807385,144.22691132522118,128.7139941671613,6.47544875391759e-05,0.0947341993451118,0,0,0
11935,432795.4261070264,2010-12-11 12:47:32,2791.3550869991864,2,40,0.5501165986061096,3.984992742538452,35.97055968175034,35.535878889807385,144.24518813931695,128.7139941671613,3.237724376958795e-05,0.0947341993451118,0,0,0
11936,432825.44116681325,2010-12-11 12:48:02,2821.370146786041,2,40,0.5501165986061096,3.9870972633361816,35.975147053193744,35.535878889807385,144.26347370757935,128.7139941671613,6.47544875391759e-05,0.0947341993451118,0,0,0
11937,432855.4564753342,2010-12-11 12:48:32,2851.3854554171344,2,40,0.550297200679779,3.989039897918701,35.9797345611,35.535878889807385,144.28176887382378,128.7139941671613,6.47544875391759e-05,0.0947341993451118,0,0,0
11938,432885.4712982315,2010-12-11 12:49:02,2881.400278179161,2,40,0.5501165986061096,3.991144418716431,35.98432186984232,35.535878889807385,144.30007244116743,128.7139941671613,6.47544875391759e-05,0.0947341993451118,0,0,0
11939,432915.4863741586,2010-12-11 12:49:32,2911.415354136255,2,40,0.550297200679779,3.99308705329895,35.98890925093681,35.535878889807385,144.31838568213257,128.7139941671613,6.47544875391759e-05,0.0947341993451118,0,0,0
11940,432945.5015291372,2010-12-11 12:50:02,2941.430509200202,2,40,0.5501165986061096,3.9951913356781006,35.99349663601471,35.535878889807385,144.33670828986928,128.7139941671613,9.713172767078504e-05,0.0947341993451118,0,0,0
11941,432975.51660032745,2010-12-11 12:50:32,2971.4455803854203,2,40,0.550297200679779,3.99729585647583,35.998084010369595,35.535878889807385,144.35504040730368,128.7139941671613,6.47544875391759e-05,0.0947341993451118,0,0,0
11942,433005.53159389953,2010-12-11 12:51:02,3001.4605738722903,2,40,0.550297200679779,3.9995622634887695,36.00267138181644,35.535878889807385,144.37338205776493,128.7139941671613,9.713172767078504e-05,0.0947341993451118,0,0,0
11943,433035.5466496363,2010-12-11 12:51:32,3031.4756295840034,2,40,0.5501165986061096,4.001667022705078,36.00725874125668,35.535878889807385,144.39173344818835,128.7139941671613,0.0001295089750783,0.0947341993451118,0,0,0
11944,433065.56186474464,2010-12-11 12:52:02,3061.490844702394,2,40,0.5501165986061096,4.003609657287598,36.01184611633408,35.535878889807385,144.41009480125263,128.7139941671613,6.47544875391759e-05,0.0947341993451118,0,0,0
11945,433095.5768144476,2010-12-11 12:52:32,3091.5057944203463,2,40,0.550297200679779,4.005876064300537,36.01643348900483,35.535878889807385,144.42846616040748,128.7139941671613,9.71794142969884e-05,0.0947341993451118,0,0,0
11946,433125.59188062034,2010-12-11 12:53:02,3121.520860593091,2,40,0.550297200679779,4.008142471313477,36.021020864886914,35.535878889807385,144.44684771021178,128.7139941671613,6.47544875391759e-05,0.0947341993451118,0,0,0
11947,433155.6069513594,2010-12-11 12:53:32,3151.5359313221747,2,40,0.5501165986061096,4.010246753692627,36.02560816927121,35.535878889807385,144.46523910275508,128.7139941671613,3.23295607813634e-05,0.0947341993451118,0,0,0
11948,433185.62380142126,2010-12-11 12:54:02,3181.552781484309,2,40,0.550297200679779,4.012513160705566,36.03019575297129,35.535878889807385,144.48364199352716,128.7139941671613,6.47544875391759e-05,0.0947341993451118,0,0,0
11949,433215.6371362407,2010-12-11 12:54:32,3211.5661162033985,2,40,0.550297200679779,4.014779567718506,36.034782798669696,35.535878889807385,144.5020531540585,128.7139941671613,6.47544875391759e-05,0.0947341993451118,0,0,0
11950,433245.6521867995,2010-12-11 12:55:02,3241.581166772314,2,40,0.5501165986061096,4.017045974731445,36.03937009419786,35.535878889807385,144.52047583662812,128.7139941671613,3.23295607813634e-05,0.0947341993451118,0,0,0
11951,433275.6672968264,2010-12-11 12:55:32,3271.5962769194884,2,40,0.5497553944587708,4.019312381744385,36.04395745719233,35.535878889807385,144.53890936252492,128.7139941671613,3.23295607813634e-05,0.0947341993451118,0,0,0
11952,433305.6823886529,2010-12-11 12:56:02,3301.611368721009,2,40,0.550297200679779,4.022064685821533,36.04854478110264,35.535878889807385,144.55735353619673,128.7139941671613,6.47544875391759e-05,0.0947341993451118,0,0,0
11953,433335.6974112874,2010-12-11 12:56:32,3331.6263912601744,2,40,0.5501165986061096,4.024168968200684,36.05313211487355,35.535878889807385,144.5758086972355,128.7139941671613,3.23295607813634e-05,0.0947341993451118,0,0,0
11954,433365.7124824977,2010-12-11 12:57:02,3361.641462445393,2,40,0.5501165986061096,4.026597499847412,36.05771947668824,35.535878889807385,144.59427490456915,128.7139941671613,3.24249267578125e-05,0.0947341993451118,0,0,0
11955,433395.7275529611,2010-12-11 12:57:32,3391.6565329338778,2,40,0.550297200679779,4.029187679290772,36.06230684243791,35.535878889807385,144.61275216422902,128.7139941671613,9.71794142969884e-05,0.0947341993451118,0,0,0
11956,433425.7426510633,2010-12-11 12:58:02,3421.671631036078,2,40,0.550297200679779,4.031615734100342,36.066894183745696,35.535878889807385,144.63124041547593,128.7139941671613,9.70840483205393e-05,0.0947341993451118,0,0,0
11957,433455.7576967851,2010-12-11 12:58:32,3451.686676742895,2,40,0.550297200679779,4.03404426574707,36.07148152240679,35.535878889807385,144.6497399409329,128.7139941671613,6.47544875391759e-05,0.0947341993451118,0,0,0
11958,433485.7727821908,2010-12-11 12:59:03,3481.7017621635378,2,40,0.550297200679779,4.036633968353272,36.07606889920594,35.535878889807385,144.66825099616406,128.7139941671613,9.70840483205393e-05,0.0947341993451118,0,0,0
11959,433515.78798943455,2010-12-11 12:59:33,3511.716969392296,2,40,0.5501165986061096,4.0390625,36.08065628183574,35.535878889807385,144.686773572111,128.7139941671613,9.71794142969884e-05,0.0947341993451118,0,0,0
11960,433545.80306667485,2010-12-11 13:00:03,3541.7320466325814,2,40,0.550297200679779,4.04149055480957,36.08524365305569,35.535878889807385,144.7053076926834,128.7139941671613,6.47544875391759e-05,0.0947341993451118,0,0,0
11961,433575.81801336526,2010-12-11 13:00:33,3571.746993338037,2,40,0.5501165986061096,4.04408073425293,36.08983094688687,35.535878889807385,144.72385327149743,128.7139941671613,3.23295607813634e-05,0.0947341993451118,0,0,0
11962,433605.83322890976,2010-12-11 13:01:03,3601.7622088524136,2,40,0.550297200679779,4.046670913696289,36.09441830390945,35.535878889807385,144.74241089074218,128.7139941671613,9.70840483205393e-05,0.0947341993451118,0,0,0
11963,433635.84816746,2010-12-11 13:01:33,3631.7771474376623,2,40,0.5501165986061096,4.049261093139648,36.09900562347167,35.535878889807385,144.7609803072642,128.7139941671613,6.47544875391759e-05,0.0947341993451118,0,0,0
11964,433665.8632325399,2010-12-11 13:02:03,3661.792212492626,2,40,0.5501165986061096,4.052013397216797,36.103593070261326,35.535878889807385,144.77956222613764,128.7139941671613,9.71794142969884e-05,0.0947341993451118,0,0,0
11965,433695.8783032539,2010-12-11 13:02:33,3691.8072832267226,2,40,0.5499359965324402,4.054441452026367,36.10818039250636,35.535878889807385,144.79815583253014,128.7139941671613,3.23295607813634e-05,0.0947341993451118,0,0,0
11966,433725.893402865,2010-12-11 13:03:03,3721.8223828426894,2,40,0.5501165986061096,4.057193756103516,36.11276777852105,35.535878889807385,144.81676195212947,128.7139941671613,0.0,0.0947341993451118,0,0,0
11967,433755.90845438617,2010-12-11 13:03:33,3751.8374343339,2,40,0.550297200679779,4.059945583343506,36.11735514002905,35.535878889807385,144.83538034256682,128.7139941671613,3.23295607813634e-05,0.0947341993451118,0,0,0
11968,433785.9253830787,2010-12-11 13:04:03,3781.8543631617913,2,40,0.5501165986061096,4.062535762786865,36.12194279943904,35.535878889807385,144.85401211052044,128.7139941671613,3.23295607813634e-05,0.0947341993451118,0,0,0
11969,433815.93861340807,2010-12-11 13:04:33,3811.867593385849,2,40,0.5501165986061096,4.0654497146606445,36.126529935724776,35.535878889807385,144.87265438449137,128.7139941671613,6.47544875391759e-05,0.0947341993451118,0,0,0
11970,433845.9538377344,2010-12-11 13:05:03,3841.8828176921033,2,40,0.5501165986061096,4.068202018737793,36.13111727973702,35.535878889807385,144.89131020323205,128.7139941671613,6.47544875391759e-05,0.0947341993451118,0,0,0
11971,433875.9688848648,2010-12-11 13:05:33,3871.8978649076735,2,40,0.550297200679779,4.070953845977783,36.13570466714563,35.535878889807385,144.90997905577115,128.7139941671613,6.47544875391759e-05,0.0947341993451118,0,0,0
11972,433905.9838462367,2010-12-11 13:06:03,3901.912826209452,2,40,0.5501165986061096,4.073544025421143,36.14029198663564,35.535878889807385,144.9286604521406,128.7139941671613,0.0,0.0947341993451118,0,0,0
11973,433935.99890537193,2010-12-11 13:06:33,3931.927885344685,2,40,0.550297200679779,4.076781749725342,36.14487933494088,35.535878889807385,144.9473550531859,128.7139941671613,9.70840483205393e-05,0.0947341993451118,0,0,0
11974,433966.01399070735,2010-12-11 13:07:03,3961.942970680115,2,40,0.550297200679779,4.079695701599121,36.14946673014813,35.535878889807385,144.96606305821473,128.7139941671613,0.0001295089750783,0.0947341993451118,0,0,0
11975,433996.0291735103,2010-12-11 13:07:33,3991.9581534830895,2,40,0.550297200679779,4.0824480056762695,36.1540540847193,35.535878889807385,144.98478412360237,128.7139941671613,6.47544875391759e-05,0.0947341993451118,0,0,0
11976,434026.0466599809,2010-12-11 13:08:03,4021.9756400438782,2,40,0.5501165986061096,4.085361957550049,36.15864176993757,35.535878889807385,145.003520005248,128.7139941671613,9.71794142969884e-05,0.0947341993451118,0,0,0
11977,434056.0614281572,2010-12-11 13:08:33,4051.9904082501457,2,40,0.5501165986061096,4.088437557220459,36.16322904684541,35.535878889807385,145.02226786771283,128.7139941671613,9.70840483205393e-05,0.0947341993451118,0,0,0
11978,434086.0742872226,2010-12-11 13:09:03,4082.0032671952895,2,40,0.5504778623580933,4.091513633728027,36.16781608326849,35.535878889807385,145.04102844319408,128.7139941671613,9.71794142969884e-05,0.0947341993451118,0,0,0
11979,434116.0894337452,2010-12-11 13:09:33,4112.01841379317,2,40,0.5499359965324402,4.094265460968018,36.17240339006927,35.535878889807385,145.0598038590215,128.7139941671613,3.23295607813634e-05,0.0947341993451118,0,0,0
11980,434146.1044447808,2010-12-11 13:10:03,4142.033424758534,2,40,0.5504778623580933,4.097503185272217,36.17699073815676,35.535878889807385,145.07859334787534,128.7139941671613,0.0001295089750783,0.0947341993451118,0,0,0
11981,434176.1195740004,2010-12-11 13:10:33,4172.048554063381,2,40,0.5499359965324402,4.100417137145996,36.18157810675157,35.535878889807385,145.09739693293974,128.7139941671613,3.23295607813634e-05,0.0947341993451118,0,0,0
11982,434206.1347035609,2010-12-11 13:11:03,4202.06368353364,2,40,0.550297200679779,4.1034932136535645,36.18616550580355,35.535878889807385,145.11621469492383,128.7139941671613,6.47544875391759e-05,0.0947341993451118,0,0,0
11983,434236.1496768875,2010-12-11 13:11:33,4232.078656860342,2,40,0.550297200679779,4.106730937957764,36.19075283454367,35.535878889807385,145.13504638712624,128.7139941671613,6.47544875391759e-05,0.0947341993451118,0,0,0
11984,434266.1649093641,2010-12-11 13:12:03,4262.093889341939,2,40,0.550297200679779,4.109806537628174,36.19534024150293,35.535878889807385,145.15389259618632,128.7139941671613,6.47544875391759e-05,0.0947341993451118,0,0,0
11985,434296.1799300788,2010-12-11 13:12:33,4292.108910041526,2,40,0.550297200679779,4.113044261932373,36.199927578960896,35.535878889807385,145.17275284823694,128.7139941671613,0.0001295089750783,0.0947341993451118,0,0,0
11986,434326.1948932251,2010-12-11 13:13:03,4322.123873187895,2,40,0.5499359965324402,4.115958213806152,36.204514903812616,35.535878889807385,145.19162755370985,128.7139941671613,6.47544875391759e-05,0.0947341993451118,0,0,0
11987,434356.2099593328,2010-12-11 13:13:33,4352.138939305503,2,40,0.5501165986061096,4.119195938110352,36.20910223905887,35.535878889807385,145.21051695454528,128.7139941671613,6.47544875391759e-05,0.0947341993451118,0,0,0
11988,434386.2269984752,2010-12-11 13:14:03,4382.155978573219,2,40,0.5499359965324402,4.122433662414551,36.21368995617961,35.535878889807385,145.2294226651073,128.7139941671613,6.47544875391759e-05,0.0947341993451118,0,0,0
11989,434416.2401023849,2010-12-11 13:14:33,4412.169082357636,2,40,0.5501165986061096,4.125833034515381,36.2182769968129,35.535878889807385,145.2483402435582,128.7139941671613,9.70840483205393e-05,0.0947341993451118,0,0,0
11990,434446.2553034232,2010-12-11 13:15:03,4442.184283395989,2,40,0.5501165986061096,4.12907075881958,36.22286440378911,35.535878889807385,145.26727434984875,128.7139941671613,6.47544875391759e-05,0.0947341993451118,0,0,0
11991,434476.2704035856,2010-12-11 13:15:33,4472.199383563328,2,40,0.550297200679779,4.132470607757568,36.22745172147926,35.535878889807385,145.28622315603164,128.7139941671613,0.0001295089750783,0.0947341993451118,0,0,0
11992,434506.2853512284,2010-12-11 13:16:03,4502.214331181054,2,40,0.5499359965324402,4.1355462074279785,36.23203914030979,35.535878889807385,145.3051874540812,128.7139941671613,3.23295607813634e-05,0.0947341993451118,0,0,0
11993,434536.30040639365,2010-12-11 13:16:33,4532.229386346408,2,40,0.550297200679779,4.138946056365967,36.23662656915648,35.535878889807385,145.32416708697377,128.7139941671613,9.71794142969884e-05,0.0947341993451118,0,0,0
11994,434566.3154735088,2010-12-11 13:17:03,4562.244453481549,2,40,0.550297200679779,4.142507553100586,36.24121399474591,35.535878889807385,145.34316216148565,128.7139941671613,0.0001619339018361,0.0947341993451118,0,0,0
11995,434596.3309538772,2010-12-11 13:17:33,4592.259933834966,2,40,0.550297200679779,4.145906925201416,36.24580141856253,35.535878889807385,145.3621729208209,128.7139941671613,9.70840483205393e-05,0.0947341993451118,0,0,0
11996,434626.3456407711,2010-12-11 13:18:03,4622.274620748941,2,40,0.5504778623580933,4.149306774139404,36.25038872676144,35.535878889807385,145.38119910082725,128.7139941671613,6.47544875391759e-05,0.0947341993451118,0,0,0
11997,434656.36070597154,2010-12-11 13:18:33,4652.289685919191,2,40,0.550297200679779,4.152706146240234,36.254976094393136,35.535878889807385,145.4002412901889,128.7139941671613,0.0001295089750783,0.0947341993451118,0,0,0
11998,434686.3758172064,2010-12-11 13:19:03,4682.304797179135,2,40,0.5501165986061096,4.1562676429748535,36.25956355767807,35.535878889807385,145.4192997864002,128.7139941671613,9.70840483205393e-05,0.0947341993451118,0,0,0
11999,434716.39088238665,2010-12-11 13:19:33,4712.319862449634,2,40,0.5501165986061096,4.159667491912842,36.264150988456805,35.535878889807385,145.43837420546024,128.7139941671613,6.47544875391759e-05,0.0947341993451118,0,0,0
12000,434746.4059388402,2010-12-11 13:20:03,4742.334918883144,2,40,0.550297200679779,4.163228988647461,36.26873836867392,35.535878889807385,145.45746448970797,128.7139941671613,9.71794142969884e-05,0.0947341993451118,0,0,0
12001,434776.4209775997,2010-12-11 13:20:33,4772.349957572497,2,40,0.550297200679779,4.166628360748291,36.27332570491804,35.535878889807385,145.47657064650213,128.7139941671613,9.70840483205393e-05,0.0947341993451118,0,0,0
12002,434806.43609454384,2010-12-11 13:21:03,4802.365074521598,2,40,0.550297200679779,4.17018985748291,36.27791314947584,35.535878889807385,145.49569352027964,128.7139941671613,6.47544875391759e-05,0.0947341993451118,0,0,0
12003,434836.4511819745,2010-12-11 13:21:33,4832.38016194723,2,40,0.550297200679779,4.174075126647949,36.28250050643263,35.535878889807385,145.5148324793292,128.7139941671613,0.0001295089750783,0.0947341993451118,0,0,0
12004,434866.4662776506,2010-12-11 13:22:03,4862.395257628406,2,40,0.5501165986061096,4.1774749755859375,36.287087864982894,35.535878889807385,145.53398798172498,128.7139941671613,9.71794142969884e-05,0.0947341993451118,0,0,0
12005,434896.4813469762,2010-12-11 13:22:33,4892.410326948984,2,40,0.550297200679779,4.181360244750977,36.29167527678532,35.535878889807385,145.55316037072234,128.7139941671613,9.71794142969884e-05,0.0947341993451118,0,0,0
12006,434926.496400708,2010-12-11 13:23:03,4922.425380655709,2,40,0.550297200679779,4.184921741485596,36.2962627095647,35.535878889807385,145.57234967003126,128.7139941671613,0.0001295089750783,0.0947341993451118,0,0,0
12007,434956.5114815021,2010-12-11 13:23:33,4952.440461479913,2,40,0.550297200679779,4.188644886016846,36.3008500995413,35.535878889807385,145.59155557634887,128.7139941671613,0.0001295089750783,0.0947341993451118,0,0,0
12008,434986.5288136588,2010-12-11 13:24:03,4982.4577937216845,2,40,0.550297200679779,4.192368507385254,36.3054378666316,35.535878889807385,145.6107800925091,128.7139941671613,0.0001619339018361,0.0947341993451118,0,0,0
12009,435016.5416349802,2010-12-11 13:24:33,5012.470614952979,2,40,0.5501165986061096,4.195929527282715,36.3100248684142,35.535878889807385,145.63001843100454,128.7139941671613,0.0001295089750783,0.0947341993451118,0,0,0
12010,435046.5567530372,2010-12-11 13:25:03,5042.48573310006,2,40,0.5501165986061096,4.199814796447754,36.31461221535941,35.535878889807385,145.64927536774252,128.7139941671613,0.0001295089750783,0.0947341993451118,0,0,0
12011,435048.5410433823,2010-12-11 13:25:05,5044.470023450278,2,40,0.5501165986061096,4.200138568878174,36.31491547894769,35.535878889807385,145.65054902678312,128.7139941671613,9.70840483205393e-05,0.0947341993451118,0,0,0
12012,435078.5429308453,2010-12-11 13:25:35,30.015074137565403,3,40,0.0,4.110939979553223,36.31491547894769,35.535878889807385,145.65054902678312,128.7139941671613,-0.0003561019839253,0.0947341993451118,0,0,0
12013,435108.5580003212,2010-12-11 13:26:05,60.03014363859296,3,40,0.0,4.099607944488525,36.31491547894769,35.535878889807385,145.65054902678312,128.7139941671613,-0.0002590179501567,0.0947341993451118,0,0,0
12014,435138.5730792708,2010-12-11 13:26:35,90.04522268336976,3,40,0.0,4.092970371246338,36.31491547894769,35.535878889807385,145.65054902678312,128.7139941671613,-0.0001619339018361,0.0947341993451118,0,0,0
12015,435168.5412491338,2010-12-11 13:27:05,120.0133924562276,3,40,0.0,4.088761329650879,36.31491547894769,35.535878889807385,145.65054902678312,128.7139941671613,-6.47544875391759e-05,0.0947341993451118,0,0,0
12016,435168.5459021431,2010-12-11 13:27:06,2.736810448e-06,4,40,1.0130181312561035,4.199814796447754,36.31491547971781,35.535878889807385,145.6505490300175,128.7139941671613,0.0,0.0947341993451118,0,0,0
12017,435169.2021148232,2010-12-11 13:27:06,0.65621543687561,4,40,0.9629894495010376,4.199653148651123,36.31509412164692,35.535878889807385,145.65129927968522,128.7139941671613,-3.23295607813634e-05,0.0947341993451118,0,0,0
12018,435170.9990880318,2010-12-11 13:27:08,2.453188645591144,4,40,0.912960648536682,4.199814796447754,36.31556132444598,35.535878889807385,145.6532614174954,128.7139941671613,0.0,0.0947341993451118,0,0,0
12019,435173.7803170634,2010-12-11 13:27:11,5.234417682078094,4,40,0.8629319071769714,4.199653148651123,36.31624627908682,35.535878889807385,145.6561380686927,128.7139941671613,0.0,0.0947341993451118,0,0,0
12020,435177.6864754984,2010-12-11 13:27:15,9.1405761922939,4,40,0.812903106212616,4.199653148651123,36.317154250564194,35.535878889807385,145.65995134652195,128.7139941671613,-3.23295607813634e-05,0.0947341993451118,0,0,0
12021,435182.84250653326,2010-12-11 13:27:20,14.296607147015845,4,40,0.7628743648529053,4.199814796447754,36.31828129612772,35.535878889807385,145.6646846930309,128.7139941671613,3.23295607813634e-05,0.0947341993451118,0,0,0
12022,435189.56116856536,2010-12-11 13:27:27,21.015269154010173,4,40,0.7126649618148804,4.199653148651123,36.31965646412221,35.535878889807385,145.67046010638288,128.7139941671613,0.0,0.0947341993451118,0,0,0
12023,435198.45162306447,2010-12-11 13:27:36,29.905723683165416,4,40,0.6626362204551697,4.199814796447754,36.32135209154358,35.535878889807385,145.6775813772866,128.7139941671613,0.0,0.0947341993451118,0,0,0
12024,435210.6857758531,2010-12-11 13:27:48,42.13987644677332,4,40,0.6126074194908142,4.199814796447754,36.323514636271234,35.535878889807385,145.68666363759922,128.7139941671613,0.0,0.0947341993451118,0,0,0
12025,435228.8261899709,2010-12-11 13:28:06,60.28029055958481,4,40,0.5623980164527893,4.199814796447754,36.32646678632804,35.535878889807385,145.69906205767057,128.7139941671613,-3.24249267578125e-05,0.0947341993451118,0,0,0
12026,435259.26300442807,2010-12-11 13:28:36,90.71710501671468,4,40,0.5123692750930786,4.199814796447754,36.330991601686016,35.535878889807385,145.71806534843324,128.7139941671613,0.0,0.0947341993451118,0,0,0
12027,435315.5432366513,2010-12-11 13:29:33,146.99733723997792,4,40,0.4623405039310455,4.199976921081543,36.338574396387976,35.535878889807385,145.74991151849613,128.7139941671613,6.47544875391759e-05,0.0947341993451118,0,0,0
12028,435409.7291536032,2010-12-11 13:31:07,241.1832541917772,4,40,0.4123117327690124,4.199653148651123,36.3499851792347,35.535878889807385,145.79783451557316,128.7139941671613,-3.23295607813634e-05,0.0947341993451118,0,0,0
12029,435531.5549066038,2010-12-11 13:33:09,363.0090071925137,4,40,0.3622829616069793,4.199814796447754,36.36307119510669,35.535878889807385,145.8527931417665,128.7139941671613,0.0,0.0947341993451118,0,0,0
12030,435676.5053613154,2010-12-11 13:35:34,507.9594619291082,4,40,0.3122541904449463,4.199814796447754,36.3766387960919,35.535878889807385,145.9097743455868,128.7139941671613,-3.24249267578125e-05,0.0947341993451118,0,0,0
12031,435852.1271777208,2010-12-11 13:38:29,683.5812783195105,4,40,0.2622254192829132,4.199653148651123,36.39063526275606,35.535878889807385,145.96855659893544,128.7139941671613,-3.23295607813634e-05,0.0947341993451118,0,0,0
12032,436068.3107313693,2010-12-11 13:42:05,899.76483198305,4,40,0.2121966630220413,4.199653148651123,36.4048409875855,35.535878889807385,146.02821774227084,128.7139941671613,0.0,0.0947341993451118,0,0,0
12033,436353.78986506857,2010-12-11 13:46:51,1185.243965662244,4,40,0.1621678918600082,4.199491024017334,36.41960531285427,35.535878889807385,146.0902249422802,128.7139941671613,-6.47544875391759e-05,0.0947341993451118,0,0,0
12034,436776.8446440798,2010-12-11 13:53:54,1608.2987446935258,4,40,0.1121391206979751,4.199653148651123,36.43553202968812,35.535878889807385,146.15711390850356,128.7139941671613,-6.47544875391759e-05,0.0947341993451118,0,0,0
12035,437561.9083997661,2010-12-11 14:06:59,2393.362500379791,4,40,0.062110349535942,4.199814796447754,36.45394216978828,35.535878889807385,146.2344327916022,128.7139941671613,3.23295607813634e-05,0.0947341993451118,0,0,0
12036,437891.40236339165,2010-12-11 14:12:29,2722.8564640004165,4,40,0.0498289167881011,4.199814796447754,36.45908191400688,35.535878889807385,146.25601865339962,128.7139941671613,-3.24249267578125e-05,0.0947341993451118,0,0,0
12037,437921.4074342764,2010-12-11 14:12:59,30.01314522253454,5,40,0.0,4.191558837890625,36.45908191400688,35.535878889807385,146.25601865339962,128.7139941671613,-6.47544875391759e-05,0.0947341993451118,0,0,0
12038,437951.4068919731,2010-12-11 14:13:29,60.01260291918736,5,40,0.0,4.1901021003723145,36.45908191400688,35.535878889807385,146.25601865339962,128.7139941671613,-6.47544875391759e-05,0.0947341993451118,0,0,0
12039,437951.6032452477,2010-12-11 14:13:29,0.187652250407745,6,40,0.0001613661734154,4.191073417663574,36.45908192241819,35.535878889807385,146.25601868865203,128.7139941671613,0.0,0.0973391383886337,0,0,0
12040,437956.43120707,2010-12-11 14:13:34,5.015614097774076,6,40,0.0008838032954372,4.1901021003723145,36.45908281548554,35.535878889807385,146.25602243089492,128.7139941671613,-6.47544875391759e-05,0.0973391383886337,0,0,0
12041,437986.4551623569,2010-12-11 14:14:04,30.01523379987893,7,40,-1.099929690361023,4.006685256958008,36.45908281548554,35.545047996289846,146.25602243089492,128.75094086119154,-0.0009713172912597,0.0973391383886337,0,0,0
12042,438016.4702418478,2010-12-11 14:14:34,60.03031329076588,7,40,-1.0997490882873535,3.977869749069214,36.45908281548554,35.55421712984595,146.25602243089492,128.7875388430429,-0.0006799221155233,0.0973391383886337,0,0,0
12043,438046.4852238611,2010-12-11 14:15:04,90.04529530408361,7,40,-1.0997490882873535,3.9582815170288086,36.45908281548554,35.563386095405086,146.25602243089492,128.82391971017373,-0.0004532813909463,0.0973391383886337,0,0,0
12044,438076.5021104539,2010-12-11 14:15:34,120.06218202218598,7,40,-1.0997490882873535,3.943064212799072,36.45908281548554,35.57255568644402,146.25602243089492,128.8601442658241,-0.0004209041653666,0.0973391383886337,0,0,0
12045,438106.5153584522,2010-12-11 14:16:04,150.07542989516222,7,40,-1.0993878841400146,3.9299514293670654,36.45908281548554,35.58172349090708,146.25602243089492,128.89623231403388,-0.0002913951757363,0.0973391383886337,0,0,0
12046,438136.53041619895,2010-12-11 14:16:34,180.09048764695223,7,40,-1.099568486213684,3.917971849441528,36.45908281548554,35.59089169496838,146.25602243089492,128.93220701453942,-0.0002913951757363,0.0973391383886337,0,0,0
12047,438166.5454803216,2010-12-11 14:17:04,210.1055517595709,7,40,-1.099568486213684,3.90680193901062,36.45908281548554,35.600059951982,146.25602243089492,128.96807527513414,-0.0002913951757363,0.0973391383886337,0,0,0
12048,438196.560697425,2010-12-11 14:17:34,240.1207688679136,7,40,-1.099568486213684,3.8959555625915527,36.45908281548554,35.60922825534448,146.25602243089492,129.00384283254567,-0.0002266406954731,0.0973391383886337,0,0,0
12049,438226.575631454,2010-12-11 14:18:04,270.13570288178664,7,40,-1.099929690361023,3.885756731033325,36.45908281548554,35.61839639963982,146.25602243089492,129.03951408267173,-0.0002590179501567,0.0973391383886337,0,0,0
12050,438256.5908677299,2010-12-11 14:18:34,300.15093915782734,7,40,-1.099568486213684,3.875719785690308,36.45908281548554,35.62756458182919,146.25602243089492,129.07509309840418,-0.0002590179501567,0.0973391383886337,0,0,0
12051,438286.6059761026,2010-12-11 14:19:04,330.16604760076035,7,40,-1.099568486213684,3.86616849899292,36.45908281548554,35.6367327966541,146.25602243089492,129.11058255521047,-0.0002266406954731,0.0973391383886337,0,0,0
12052,438316.6208953898,2010-12-11 14:19:34,360.18096683284944,7,40,-1.0993878841400146,3.856940984725952,36.45908281548554,35.64590089195092,146.25602243089492,129.1459847169363,-0.0002590179501567,0.0973391383886337,0,0,0
12053,438346.63596031454,2010-12-11 14:20:04,390.1960318427009,7,40,-1.0997490882873535,3.847713470458984,36.45908281548554,35.65506903288698,146.25602243089492,129.1813024128831,-0.0002266406954731,0.0973391383886337,0,0,0
12054,438376.65102345473,2010-12-11 14:20:34,420.21109490270015,7,40,-1.099568486213684,3.838809728622437,36.45908281548554,35.664237231489935,146.25602243089492,129.21653769253183,-0.0001942634553415,0.0973391383886337,0,0,0
12055,438406.6663255144,2010-12-11 14:21:04,450.22639701256594,7,40,-1.0997490882873535,3.8300681114196777,36.45908281548554,35.67340549056287,146.25602243089492,129.25169231255805,-0.0002266406954731,0.0973391383886337,0,0,0
12056,438436.6813243748,2010-12-11 14:21:34,480.24139579260697,7,40,-1.0993878841400146,3.82165002822876,36.45908281548554,35.682573710225455,146.25602243089492,129.2867676267229,-0.0001942634553415,0.0973391383886337,0,0,0
12057,438466.6964006877,2010-12-11 14:22:04,510.2564721156108,7,40,-1.099568486213684,3.813070058822632,36.45908281548554,35.69174195340779,146.25602243089492,129.32176565759886,-0.0002590179501567,0.0973391383886337,0,0,0
12058,438496.71134687687,2010-12-11 14:22:34,540.271418319819,7,40,-1.099929690361023,3.804813861846924,36.45908281548554,35.70091005051371,146.25602243089492,129.35668673664975,-0.0002266406954731,0.0973391383886337,0,0,0
12059,438526.7264129042,2010-12-11 14:23:04,570.2864843472024,7,40,-1.099568486213684,3.796881437301636,36.45908281548554,35.71007815144121,146.25602243089492,129.39153377582664,-0.0002266406954731,0.0973391383886337,0,0,0
12060,438556.7415006005,2010-12-11 14:23:34,600.3015720435083,7,40,-1.0997490882873535,3.789272785186768,36.45908281548554,35.71924629517644,146.25602243089492,129.42630891219474,-0.0001942634553415,0.0973391383886337,0,0,0
12061,438586.756559821,2010-12-11 14:24:04,630.3166312639529,7,40,-1.099568486213684,3.7815022468566895,36.45908281548554,35.728414527158925,146.25602243089492,129.46101383964287,-0.0002266406954731,0.0973391383886337,0,0,0
12062,438616.77163926174,2010-12-11 14:24:34,660.3317107047152,7,40,-1.0997490882873535,3.774217367172241,36.45908281548554,35.73758266263724,146.25602243089492,129.49564955769705,-0.0001618862152099,0.0973391383886337,0,0,0
12063,438646.7867716092,2010-12-11 14:25:04,690.3468431473706,7,40,-1.099568486213684,3.766932487487793,36.45908281548554,35.74675081127926,146.25602243089492,129.53021805055127,-0.0001618862152099,0.0973391383886337,0,0,0
12064,438676.8036678009,2010-12-11 14:25:34,720.3637393139852,7,40,-1.099568486213684,3.7598094940185542,36.45908281548554,35.755919527773294,146.25602243089492,129.5647226372725,-0.0001295089750783,0.0973391383886337,0,0,0
12065,438706.8169962343,2010-12-11 14:26:04,750.3770676622211,7,40,-1.099568486213684,3.752686738967896,36.45908281548554,35.76508719006483,146.25602243089492,129.59915906433704,-0.0002265930233988,0.0973391383886337,0,0,0
12066,438736.832077249,2010-12-11 14:26:34,780.3921486668748,7,40,-1.0997490882873535,3.746049404144287,36.45908281548554,35.774255406309166,146.25602243089492,129.63353486983405,-0.0001942634553415,0.0973391383886337,0,0,0
12067,438766.8470383052,2010-12-11 14:27:04,810.4071097481038,7,40,-1.0997490882873535,3.739412069320679,36.45908281548554,35.783423556377066,146.25602243089492,129.66784947277762,-0.0001942634553415,0.0973391383886337,0,0,0
12068,438796.8623031874,2010-12-11 14:27:34,840.4223746203052,7,40,-1.0997490882873535,3.7332603931427,36.45908281548554,35.79259183457974,146.25602243089492,129.70210473451965,-0.0001295089750783,0.0973391383886337,0,0,0
12069,438826.8771746155,2010-12-11 14:28:04,870.4372460384109,7,40,-1.0997490882873535,3.726623058319092,36.45908281548554,35.80176001375288,146.25602243089492,129.73630096549118,-0.0001942634553415,0.0973391383886337,0,0,0
12070,438856.89225905365,2010-12-11 14:28:34,900.452330496659,7,40,-1.0997490882873535,3.7206332683563232,36.45908281548554,35.81092819495504,146.25602243089492,129.7704401714345,-0.0001295089750783,0.0973391383886337,0,0,0
12071,438886.9073524843,2010-12-11 14:29:04,930.4674239272342,7,40,-1.099568486213684,3.7144815921783447,36.45908281548554,35.820096354643546,146.25602243089492,129.80452295288814,-0.0001618862152099,0.0973391383886337,0,0,0
12072,438916.9224247923,2010-12-11 14:29:34,960.4824962202096,7,40,-1.0997490882873535,3.708329916000366,36.45908281548554,35.8292645687855,146.25602243089492,129.83855013061614,-0.0001295089750783,0.0973391383886337,0,0,0
12073,438946.9374833762,2010-12-11 14:30:04,990.4975548191076,7,40,-1.099568486213684,3.702502012252808,36.45908281548554,35.83843280090584,146.25602243089492,129.8725225321924,-0.0001618862152099,0.0973391383886337,0,0,0
12074,438976.95264582353,2010-12-11 14:30:34,1020.5127174368524,7,40,-1.0997490882873535,3.696674108505249,36.45908281548554,35.84760101368297,146.25602243089492,129.9064409386017,-0.0001618862152099,0.0973391383886337,0,0,0
12075,439006.9676197316,2010-12-11 14:31:04,1050.5276911645517,7,40,-1.0997490882873535,3.6908462047576895,36.45908281548554,35.85676924352164,146.25602243089492,129.9403065652793,-0.0001618862152099,0.0973391383886337,0,0,0
12076,439036.9827218989,2010-12-11 14:31:34,1080.542793341893,7,40,-1.099568486213684,3.685342073440552,36.45908281548554,35.86593749522405,146.25602243089492,129.97411990013975,-9.713172767078504e-05,0.0973391383886337,0,0,0
12077,439066.997767676,2010-12-11 14:32:04,1110.5578391238969,7,40,-1.099929690361023,3.679676055908203,36.45908281548554,35.87510566809867,146.25602243089492,130.00788154816618,-0.0001618862152099,0.0973391383886337,0,0,0
12078,439097.01286966784,2010-12-11 14:32:34,1140.572941110764,7,40,-1.0997490882873535,3.674171924591065,36.45908281548554,35.88427389937838,146.25602243089492,130.04159292762188,-0.0001295089750783,0.0973391383886337,0,0,0
12079,439127.0279257354,2010-12-11 14:33:04,1170.5879972736,7,40,-1.0993878841400146,3.668991804122925,36.45908281548554,35.89344212335087,146.25602243089492,130.07525430277104,-9.713172767078504e-05,0.0973391383886337,0,0,0
12080,439157.043018374,2010-12-11 14:33:34,1200.60308982198,7,40,-1.099568486213684,3.663487672805786,36.45908281548554,35.902610352701295,146.25602243089492,130.10886625748654,-0.0001618862152099,0.0973391383886337,0,0,0
12081,439187.05807803554,2010-12-11 14:34:04,1230.61814947851,7,40,-1.099568486213684,3.6581454277038574,36.45908281548554,35.91177860359218,146.25602243089492,130.14242982087367,-0.0001942634553415,0.0973391383886337,0,0,0
12082,439217.0731717067,2010-12-11 14:34:35,1260.633243149684,7,40,-1.099568486213684,3.6531269550323486,36.45908281548554,35.920946782270136,146.25602243089492,130.17594586489,-0.0001295089750783,0.0973391383886337,0,0,0
12083,439247.08837047947,2010-12-11 14:35:05,1290.648441992574,7,40,-1.099568486213684,3.64810848236084,36.45908281548554,35.93011499007887,146.25602243089492,130.2094155108204,-0.0001295089750783,0.0973391383886337,0,0,0
12084,439277.103432968,2010-12-11 14:35:35,1320.6635044961886,7,40,-1.099568486213684,3.643251895904541,36.45908281548554,35.93928308087725,146.25602243089492,130.2428388255809,-9.713172767078504e-05,0.0973391383886337,0,0,0
12085,439307.10485114326,2010-12-11 14:36:05,1350.6649227065045,7,40,-1.099568486213684,3.638395309448242,36.45908281548554,35.94844709476563,146.25602243089492,130.27620252433877,-9.713172767078504e-05,0.0973391383886337,0,0,0
12086,439337.1178422923,2010-12-11 14:36:35,1380.6779137353335,7,40,-1.099568486213684,3.633538722991944,36.45908281548554,35.95761461720846,146.25602243089492,130.30953489580114,-0.0001618862152099,0.0973391383886337,0,0,0
12087,439367.13292189856,2010-12-11 14:37:05,1410.6929933415076,7,40,-1.099568486213684,3.6288440227508554,36.45908281548554,35.96678286886972,146.25602243089492,130.34282681409212,-0.0001295089750783,0.0973391383886337,0,0,0
12088,439397.1481436736,2010-12-11 14:37:35,1440.708215116463,7,40,-1.099568486213684,3.624311208724976,36.45908281548554,35.9759511148964,146.25602243089492,130.37607636127854,-0.0001295089750783,0.0973391383886337,0,0,0
12089,439427.1630852161,2010-12-11 14:38:05,1470.7231566640833,7,40,-1.099568486213684,3.619940280914306,36.45908281548554,35.98511931784338,146.25602243089492,130.4092842886202,-9.713172767078504e-05,0.0973391383886337,0,0,0
12090,439457.1781690879,2010-12-11 14:38:35,1500.738240535872,7,40,-1.0997490882873535,3.615407466888428,36.45908281548554,35.994287585798865,146.25602243089492,130.44245192562784,-0.0001295089750783,0.0973391383886337,0,0,0
12091,439487.19335154,2010-12-11 14:39:05,1530.7534229578991,7,40,-1.0997490882873535,3.611036539077759,36.45908281548554,36.003455857060864,146.25602243089492,130.47557974350477,-0.0001295089750783,0.0973391383886337,0,0,0
12092,439517.2083278592,2010-12-11 14:39:35,1560.768399307122,7,40,-1.099568486213684,3.6068274974823,36.45908281548554,36.01262407910512,146.25602243089492,130.50866868763407,-0.0001618862152099,0.0973391383886337,0,0,0
12093,439547.2233875808,2010-12-11 14:40:05,1590.783459008764,7,40,-1.0997490882873535,3.6029422283172607,36.45908281548554,36.02179226470803,146.25602243089492,130.54171965415458,-9.713172767078504e-05,0.0973391383886337,0,0,0
12094,439577.2384609967,2010-12-11 14:40:35,1620.7985324245333,7,40,-1.099568486213684,3.5990569591522217,36.45908281548554,36.03096046035086,146.25602243089492,130.57473400912693,-9.713172767078504e-05,0.0973391383886337,0,0,0
12095,439607.253537465,2010-12-11 14:41:05,1650.8136089079364,7,40,-1.099568486213684,3.5951716899871826,36.45908281548554,36.04012873764477,146.25602243089492,130.60771286223255,-9.713172767078504e-05,0.0973391383886337,0,0,0
12096,439637.2686159684,2010-12-11 14:41:35,1680.828687411366,7,40,-1.099568486213684,3.5912866592407227,36.45908281548554,36.049296931572016,146.25602243089492,130.640656591752,-9.713172767078504e-05,0.0973391383886337,0,0,0
12097,439667.2837085569,2010-12-11 14:42:05,1710.8437800048582,7,40,-1.0997490882873535,3.5877251625061035,36.45908281548554,36.05846518162576,146.25602243089492,130.67356652813982,-9.713172767078504e-05,0.0973391383886337,0,0,0
12098,439697.29876477487,2010-12-11 14:42:35,1740.8588362027815,7,40,-1.0997490882873535,3.5841636657714844,36.45908281548554,36.06763343526071,146.25602243089492,130.70644327801048,-9.713172767078504e-05,0.0973391383886337,0,0,0
12099,439727.31385087216,2010-12-11 14:43:05,1770.8739223001082,7,40,-1.099568486213684,3.580602169036865,36.45908281548554,36.07680169217707,146.25602243089492,130.73928798828612,-9.713172767078504e-05,0.0973391383886337,0,0,0
12100,439757.3289220575,2010-12-11 14:43:35,1800.8889935003644,7,40,-1.099568486213684,3.577202558517456,36.45908281548554,36.08596987350963,146.25602243089492,130.7721007994364,-0.0001295089750783,0.0973391383886337,0,0,0
12101,439787.3443735841,2010-12-11 14:44:05,1830.904445012011,7,40,-1.099568486213684,3.573641061782837,36.45908281548554,36.095138204470224,146.25602243089492,130.80488296161397,-0.0001618862152099,0.0973391383886337,0,0,0
12102,439817.34585200425,2010-12-11 14:44:35,1860.9059235524555,7,40,-1.099568486213684,3.5707271099090576,36.45908281548554,36.1043022969525,146.25602243089492,130.83761937800915,-6.47544875391759e-05,0.0973391383886337,0,0,0
12103,439847.35921982565,2010-12-11 14:45:05,1890.9192912686567,7,40,-1.0997490882873535,3.5673274993896484,36.45908281548554,36.11347003704561,146.25602243089492,130.87033855538618,-9.713172767078504e-05,0.0973391383886337,0,0,0
12104,439877.37366463226,2010-12-11 14:45:35,1920.933736195456,7,40,-1.099568486213684,3.564089775085449,36.45908281548554,36.12263810558673,146.25602243089492,130.90302885528243,-6.47544875391759e-05,0.0973391383886337,0,0,0
12105,439907.3888196762,2010-12-11 14:46:05,1950.9488911741912,7,40,-1.099568486213684,3.56085205078125,36.45908281548554,36.13180629107433,146.25602243089492,130.9356901405685,-6.47544875391759e-05,0.0973391383886337,0,0,0
12106,439937.4055397545,2010-12-11 14:46:35,1980.9656113027413,7,40,-1.0997490882873535,3.557614326477051,36.45908281548554,36.14097500199448,146.25602243089492,130.96832386340236,-9.713172767078504e-05,0.0973391383886337,0,0,0
12107,439967.4188419827,2010-12-11 14:47:05,2010.978913425717,7,40,-1.0997490882873535,3.554376602172852,36.45908281548554,36.15014271221818,146.25602243089492,131.00092456824825,-0.0001295089750783,0.0973391383886337,0,0,0
12108,439997.4340600385,2010-12-11 14:47:35,2040.9941314814173,7,40,-1.0997490882873535,3.5513007640838623,36.45908281548554,36.1593110304299,146.25602243089492,131.03349792041743,-6.47544875391759e-05,0.0973391383886337,0,0,0
12109,440027.4490197663,2010-12-11 14:48:05,2071.0090912092783,7,40,-1.099568486213684,3.547901153564453,36.45908281548554,36.16847925629783,146.25602243089492,131.0660414262626,-9.713172767078504e-05,0.0973391383886337,0,0,0
12110,440057.4640795231,2010-12-11 14:48:35,2101.024150966058,7,40,-1.099568486213684,3.544663429260254,36.45908281548554,36.17764747960106,146.25602243089492,131.09855547755623,-0.0001295089750783,0.0973391383886337,0,0,0
12111,440087.4791819661,2010-12-11 14:49:05,2131.03925340906,7,40,-1.0997490882873535,3.5412638187408447,36.45908281548554,36.18681573627481,146.25602243089492,131.13103977485292,-0.0001618862152099,0.0973391383886337,0,0,0
12112,440117.4942364598,2010-12-11 14:49:35,2161.0543079027425,7,40,-1.0997490882873535,3.538026094436645,36.45908281548554,36.19598402406455,146.25602243089492,131.1634937033934,-0.0001295089750783,0.0973391383886337,0,0,0
12113,440147.509310853,2010-12-11 14:50:05,2191.0693822959443,7,40,-1.0997490882873535,3.5347883701324463,36.45908281548554,36.20515227228048,146.25602243089492,131.1959164248068,-9.713172767078504e-05,0.0973391383886337,0,0,0
12114,440177.5249175758,2010-12-11 14:50:35,2221.0849890689524,7,40,-1.099568486213684,3.531226873397827,36.45908281548554,36.21432069447143,146.25602243089492,131.22830817645627,-9.713172767078504e-05,0.0973391383886337,0,0,0
12115,440207.53948056645,2010-12-11 14:51:05,2251.099552014436,7,40,-1.0997490882873535,3.527665376663208,36.45908281548554,36.223488856015166,146.25602243089492,131.26066676373551,-0.0001295089750783,0.0973391383886337,0,0,0
12116,440237.5545894205,2010-12-11 14:51:35,2281.114660953604,7,40,-1.099568486213684,3.524265766143799,36.45908281548554,36.23265714468048,146.25602243089492,131.29299255744172,-3.237724376958795e-05,0.0973391383886337,0,0,0
12117,440267.5697433516,2010-12-11 14:52:05,2311.1298148646824,7,40,-1.0997490882873535,3.52021861076355,36.45908281548554,36.24182549740575,146.25602243089492,131.3252840635678,-9.713172767078504e-05,0.0973391383886337,0,0,0
12118,440297.5848310278,2010-12-11 14:52:35,2341.1449024507137,7,40,-1.0993878841400146,3.5163333415985107,36.45908281548554,36.25099373816178,146.25602243089492,131.35754003347557,-6.47544875391759e-05,0.0973391383886337,0,0,0
12119,440327.5997880239,2010-12-11 14:53:05,2371.15985945179,7,40,-1.099568486213684,3.512124300003052,36.45908281548554,36.2601619928504,146.25602243089492,131.38975932370903,-9.713172767078504e-05,0.0973391383886337,0,0,0
12120,440357.6149910922,2010-12-11 14:53:35,2401.1750626054068,7,40,-1.0997490882873535,3.507753610610962,36.45908281548554,36.2693303075035,146.25602243089492,131.42194052830172,-0.0001618862152099,0.0973391383886337,0,0,0
12121,440387.6301436249,2010-12-11 14:54:05,2431.190215143068,7,40,-1.0993878841400146,3.503382682800293,36.45908281548554,36.27849867411764,146.25602243089492,131.45408147932525,-0.0001295089750783,0.0973391383886337,0,0,0
12122,440417.64501923847,2010-12-11 14:54:35,2461.2050906814266,7,40,-1.099568486213684,3.498526096343994,36.45908281548554,36.287666925374495,146.25602243089492,131.48617900720035,-0.0001295089750783,0.0973391383886337,0,0,0
12123,440447.6600992657,2010-12-11 14:55:05,2491.220170703636,7,40,-1.099568486213684,3.4933457374572754,36.45908281548554,36.296835240448175,146.25602243089492,131.51823127159489,-0.0001618862152099,0.0973391383886337,0,0,0
12124,440477.6751610676,2010-12-11 14:55:35,2521.235232510516,7,40,-1.099568486213684,3.4878416061401367,36.45908281548554,36.306003477775405,146.25602243089492,131.55023426621528,-0.0001295089750783,0.0973391383886337,0,0,0
12125,440507.6902486585,2010-12-11 14:56:05,2551.250320086523,7,40,-1.099568486213684,3.481689929962158,36.45908281548554,36.315171767054565,146.25602243089492,131.58218337822325,-0.0001618862152099,0.0973391383886337,0,0,0
12126,440537.70721136587,2010-12-11 14:56:35,2581.267282863896,7,40,-1.099568486213684,3.47456693649292,36.45908281548554,36.32434055676942,146.25602243089492,131.61407307798817,-0.0001618862152099,0.0973391383886337,0,0,0
12127,440567.7203900967,2010-12-11 14:57:05,2611.2804615396776,7,40,-1.099568486213684,3.466310739517212,36.45908281548554,36.33350826941432,146.25602243089492,131.64589047232496,-0.0002266406954731,0.0973391383886337,0,0,0
12128,440597.7354639335,2010-12-11 14:57:35,2641.2955353764946,7,40,-1.099568486213684,3.457245111465454,36.45908281548554,36.342676582498015,146.25602243089492,131.67763126062914,-0.0002590179501567,0.0973391383886337,0,0,0
12129,440627.7505616197,2010-12-11 14:58:05,2671.31063306266,7,40,-1.099568486213684,3.4463987350463867,36.45908281548554,36.35184487059736,146.25602243089492,131.70928001049683,-0.0003237724304199,0.0973391383886337,0,0,0
12130,440657.7659491371,2010-12-11 14:58:35,2701.326020665271,7,40,-1.0997490882873535,3.43312406539917,36.45908281548554,36.361013189222966,146.25602243089492,131.74081903512285,-0.0004209041653666,0.0973391383886337,0,0,0
12131,440687.7808253571,2010-12-11 14:59:05,2731.340896775052,7,40,-1.0997490882873535,3.416935682296753,36.45908281548554,36.37018141825658,146.25602243089492,131.7722239525603,-0.0004856586456298,0.0973391383886337,0,0,0
12132,440717.7956694221,2010-12-11 14:59:35,2761.3557408651527,7,40,-1.099568486213684,3.396538019180298,36.45908281548554,36.37934960386611,146.25602243089492,131.80346154527888,-0.0006151676061563,0.0973391383886337,0,0,0
12133,440747.810855744,2010-12-11 15:00:05,2791.370927257059,7,40,-1.0997490882873535,3.3698267936706543,36.45908281548554,36.38851789607513,146.25602243089492,131.83448542259606,-0.0008094310760498,0.0973391383886337,0,0,0
12134,440777.82635506446,2010-12-11 15:00:35,2821.386426572664,7,40,-1.099568486213684,3.334859609603882,36.45908281548554,36.39768626531757,146.25602243089492,131.86522709133484,-0.0010036944877356,0.0973391383886337,0,0,0
12135,440807.841028931,2010-12-11 15:01:05,2851.4011003740075,7,40,-1.0997490882873535,3.2862937450408936,36.45908281548554,36.40685440507783,146.25602243089492,131.89558821730114,-0.0014569759368896,0.0973391383886337,0,0,0
12136,440837.8561009584,2010-12-11 15:01:35,2881.4161723862844,7,40,-1.0997490882873535,3.2202444076538086,36.45908281548554,36.41602263029164,146.25602243089492,131.92543187839323,-0.0020721436012536,0.0973391383886337,0,0,0
12137,440867.8713396705,2010-12-11 15:02:05,2911.4314111134245,7,40,-1.099568486213684,3.1255412101745605,36.45908281548554,36.4251909243009,146.25602243089492,131.9545494784914,-0.0029139518737792,0.0973391383886337,0,0,0
12138,440897.88628187473,2010-12-11 15:02:35,2941.446353317679,7,40,-1.099568486213684,2.975149393081665,36.45908281548554,36.43435915764178,146.25602243089492,131.98258048246203,-0.005115604493767,0.0973391383886337,0,0,0
12139,440920.5266068777,2010-12-11 15:02:58,2964.0866783106426,7,40,-1.099568486213684,2.77505874633789,36.45908281548554,36.44127471575144,146.25602243089492,132.00251573114238,-0.0082885269075632,0.0973391383886337,0,0,0
12140,440927.49521760247,2010-12-11 15:03:05,2971.055289045432,7,40,-1.0997490882873535,2.699943780899048,36.45908281548554,36.44340329559257,146.25602243089492,132.00834299427555,-0.0086122993379831,0.0973391383886337,0,0,0
12141,440987.5101120737,2010-12-11 15:04:05,60.01448691243209,8,40,0.0,3.391843318939209,36.45908281548554,36.44340329559257,146.25602243089492,132.00834299427555,0.0013598442310467,0.0973391383886337,0,0,0
12142,440987.69881356606,2010-12-11 15:04:05,0.187489149537503,9,40,-1.9243103452026844e-05,3.391843318939209,36.45908281548554,36.44340329659475,146.25602243089492,132.00834299767482,0.0,0.0947341993451118,0,0,0
12143,440992.52686182846,2010-12-11 15:04:10,5.015537406931865,9,40,0.0010644125286489,3.400099515914917,36.45908387262951,36.44340329667865,146.2560260216829,132.0083429979594,0.0011655807029455,0.0947341993451118,0,0,0
