Data_Point,Test_Time(s),Date_Time,Step_Time(s),Step_Index,Cycle_Index,Current(A),Voltage(V),Charge_Capacity(Ah),Discharge_Capacity(Ah),Charge_Energy(Wh),Discharge_Energy(Wh),dV/dt(V/s),Internal_Resistance(Ohm),Is_FC_Data,AC_Impedance(Ohm),ACI_Phase_Angle(Deg)
1864,67266.52763942716,2010-12-07 07:14:40,30.01501930611946,1,7,0.0,3.4400851726531982,5.592559061688039,5.587987849603246,22.422821497733185,20.277089293497585,0.0007122993702068,0.0963535830378532,0,0,0
1865,67296.54269416646,2010-12-07 07:15:10,60.03007405042547,1,7,0.0,3.4638824462890625,5.592559061688039,5.587987849603246,22.422821497733185,20.277089293497585,0.0005504131549969,0.0963535830378532,0,0,0
1866,67326.55772718671,2010-12-07 07:15:40,90.04510707067202,1,7,0.0,3.481689929962158,5.592559061688039,5.587987849603246,22.422821497733185,20.277089293497585,0.0004209041653666,0.0963535830378532,0,0,0
1867,67356.52586394742,2010-12-07 07:16:10,120.01324380631804,1,7,0.0,3.4959359169006348,5.592559061688039,5.587987849603246,22.422821497733185,20.277089293497585,0.0003237724304199,0.0963535830378532,0,0,0
1868,67386.53992604782,2010-12-07 07:16:41,30.01516168542489,2,7,0.5499359965324402,3.650698661804199,5.597145592539897,5.587987849603246,22.4394215549044,20.277089293497585,0.0013598442310467,0.0963535830378532,0,0,0
1869,67416.55487466302,2010-12-07 07:17:11,60.030110295620254,2,7,0.5501165986061096,3.69165563583374,5.601732062919717,5.587987849603246,22.456265315588087,20.277089293497585,0.0009713172912597,0.0963535830378532,0,0,0
1870,67446.57005850358,2010-12-07 07:17:41,90.04529413617733,2,7,0.5501165986061096,3.7206332683563232,5.606318539344181,5.587987849603246,22.4732662180652,20.277089293497585,0.0007122993702068,0.0963535830378532,0,0,0
1871,67476.58498234213,2010-12-07 07:18:11,120.06021807999136,2,7,0.5501165986061096,3.743135452270508,5.610904996888133,5.587987849603246,22.490384217372668,20.277089293497585,0.0005827903514727,0.0963535830378532,0,0,0
1872,67506.60013925066,2010-12-07 07:18:41,150.07537491334205,2,7,0.5499359965324402,3.7604570388793945,5.615491481705749,5.587987849603246,22.50759369690904,20.277089293497585,0.0003885269106831,0.0963535830378532,0,0,0
1873,67536.61503562587,2010-12-07 07:19:11,180.09027125847783,2,7,0.5501165986061096,3.773084163665772,5.620077895638139,5.587987849603246,22.52487170868675,20.277089293497585,0.0002913951757363,0.0963535830378532,0,0,0
1874,67566.63019028882,2010-12-07 07:19:41,210.1054259865897,2,7,0.5499359965324402,3.7811784744262695,5.62466432877662,5.587987849603246,22.54219678974641,20.277089293497585,0.0001618862152099,0.0963535830378532,0,0,0
1875,67596.64512078896,2010-12-07 07:20:11,240.12035645163155,2,7,0.5499359965324402,3.787168264389038,5.62925068997644,5.587987849603246,22.55955305625809,20.277089293497585,0.0001618862152099,0.0963535830378532,0,0,0
1876,67626.66014234065,2010-12-07 07:20:41,270.13537797326427,2,7,0.5501165986061096,3.792024850845337,5.633837058854557,5.587987849603246,22.576933844816843,20.277089293497585,9.713172767078504e-05,0.0963535830378532,0,0,0
1877,67656.67518197237,2010-12-07 07:21:11,300.1504176099756,2,7,0.5501165986061096,3.796557664871216,5.638423458668355,5.587987849603246,22.594336492506145,20.277089293497585,0.0001295089750783,0.0963535830378532,0,0,0
1878,67686.69022239604,2010-12-07 07:21:41,330.16545805870766,2,7,0.5499359965324402,3.801090478897095,5.643009834261846,5.587987849603246,22.61175947295446,20.277089293497585,0.0001295089750783,0.0963535830378532,0,0,0
1879,67716.7052772005,2010-12-07 07:22:11,360.1805128330885,2,7,0.5499359965324402,3.8052995204925537,5.647596265914075,5.587987849603246,22.62920219508773,20.277089293497585,0.0001295089750783,0.0963535830378532,0,0,0
1880,67746.70695152313,2010-12-07 07:22:41,390.1821872459544,2,7,0.5501165986061096,3.8093466758728023,5.652180641344905,5.587987849603246,22.64665591952779,20.277089293497585,0.0001295089750783,0.0963535830378532,0,0,0
1881,67776.71975601277,2010-12-07 07:23:11,420.1949917406007,2,7,0.5499359965324402,3.813231945037842,5.656766784121451,5.587987849603246,22.664134654550388,20.277089293497585,0.0001295089750783,0.0963535830378532,0,0,0
1882,67806.73495807867,2010-12-07 07:23:41,450.21019381152325,2,7,0.5501165986061096,3.817117214202881,5.661353186871717,5.587987849603246,22.681632382401386,20.277089293497585,9.713172767078504e-05,0.0963535830378532,0,0,0
1883,67836.74978040963,2010-12-07 07:24:11,480.2250160672905,2,7,0.5501165986061096,3.8206787109375,5.665939566281704,5.587987849603246,22.699147165658346,20.277089293497585,6.47544875391759e-05,0.0963535830378532,0,0,0
1884,67866.76486726885,2010-12-07 07:24:41,510.2401029014509,2,7,0.550297200679779,3.824563980102539,5.670525957115932,5.587987849603246,22.716678791578907,20.277089293497585,0.0001618862152099,0.0963535830378532,0,0,0
1885,67896.77984861551,2010-12-07 07:25:11,540.2550842781845,2,7,0.5501165986061096,3.827963590621948,5.675112329257024,5.587987849603246,22.734227031110557,20.277089293497585,9.713172767078504e-05,0.0963535830378532,0,0,0
1886,67926.79490912416,2010-12-07 07:25:41,570.2701447567601,2,7,0.550297200679779,3.831686973571777,5.67969876380315,5.587987849603246,22.751792083220007,20.277089293497585,9.713172767078504e-05,0.0963535830378532,0,0,0
1887,67956.80993409437,2010-12-07 07:26:11,600.2851697269745,2,7,0.5499359965324402,3.8352482318878174,5.684285075828675,5.587987849603246,22.76937315209864,20.277089293497585,9.713172767078504e-05,0.0963535830378532,0,0,0
1888,67986.8249715657,2010-12-07 07:26:41,630.3002072033097,2,7,0.5501165986061096,3.8389716148376474,5.688871428240999,5.587987849603246,22.786971043280776,20.277089293497585,0.0001618862152099,0.0963535830378532,0,0,0
1889,68016.83999581411,2010-12-07 07:27:11,660.3152314767902,2,7,0.5499359965324402,3.842371225357056,5.693457808150152,5.587987849603246,22.80458574274597,20.277089293497585,9.713172767078504e-05,0.0963535830378532,0,0,0
1890,68046.85503019775,2010-12-07 07:27:41,690.3302658353673,2,7,0.5499359965324402,3.8460946083068848,5.698044209090019,5.587987849603246,22.82221712093192,20.277089293497585,9.713172767078504e-05,0.0963535830378532,0,0,0
1891,68076.8702107,2010-12-07 07:28:11,720.3454463626795,2,7,0.5501165986061096,3.849817991256714,5.702630606496102,5.587987849603246,22.839865242737545,20.277089293497585,0.0001295089750783,0.0963535830378532,0,0,0
1892,68106.88538021491,2010-12-07 07:28:41,750.3606158775876,2,7,0.5499359965324402,3.853379487991333,5.707217043615844,5.587987849603246,22.857530324198343,20.277089293497585,9.713172767078504e-05,0.0963535830378532,0,0,0
1893,68136.90014168441,2010-12-07 07:29:11,780.3753773220283,2,7,0.5501165986061096,3.857102870941162,5.711803388462421,5.587987849603246,22.87521170006184,20.277089293497585,9.713172767078504e-05,0.0963535830378532,0,0,0
1894,68166.91520481961,2010-12-07 07:29:41,810.3904404522023,2,7,0.5499359965324402,3.860664367675781,5.716389786547027,5.587987849603246,22.892909929634563,20.277089293497585,0.0001295089750783,0.0963535830378532,0,0,0
1895,68196.93020726377,2010-12-07 07:30:11,840.4054429013737,2,7,0.5499359965324402,3.8640639781951904,5.72097616992188,5.587987849603246,22.910624559896227,20.277089293497585,9.713172767078504e-05,0.0963535830378532,0,0,0
1896,68226.94539236244,2010-12-07 07:30:41,870.4206280100866,2,7,0.5501165986061096,3.86778736114502,5.725562599066404,5.587987849603246,22.92835551256637,20.277089293497585,6.47544875391759e-05,0.0963535830378532,0,0,0
1897,68256.96028362493,2010-12-07 07:31:11,900.435519257537,2,7,0.5499359965324402,3.8710250854492183,5.730148973236427,5.587987849603246,22.946102167023987,20.277089293497585,3.237724376958795e-05,0.0963535830378532,0,0,0
1898,68286.97533105104,2010-12-07 07:31:41,930.4505666936568,2,7,0.5499359965324402,3.874424695968628,5.73473533777414,5.587987849603246,22.963864218730137,20.277089293497585,6.47544875391759e-05,0.0963535830378532,0,0,0
1899,68316.99033461299,2010-12-07 07:32:11,960.46557026061,2,7,0.550297200679779,3.877662420272827,5.739321767870333,5.587987849603246,22.98164154854373,20.277089293497585,9.713172767078504e-05,0.0963535830378532,0,0,0
1900,68347.00543921134,2010-12-07 07:32:41,990.480674848951,2,7,0.5501165986061096,3.880738258361816,5.743908166632877,5.587987849603246,22.999433238455367,20.277089293497585,9.713172767078504e-05,0.0963535830378532,0,0,0
1901,68377.0205761201,2010-12-07 07:33:11,1020.4958117577202,2,7,0.550297200679779,3.8838140964508057,5.748494540696819,5.587987849603246,23.01723868758245,20.277089293497585,9.713172767078504e-05,0.0963535830378532,0,0,0
1902,68407.03548403904,2010-12-07 07:33:41,1050.510719676657,2,7,0.5501165986061096,3.886728048324585,5.753080888215234,5.587987849603246,23.03505727876795,20.277089293497585,0.0001295089750783,0.0963535830378532,0,0,0
1903,68437.05051815201,2010-12-07 07:34:11,1080.5257537896225,2,7,0.5501165986061096,3.8891563415527344,5.757667193301498,5.587987849603246,23.052888381554528,20.277089293497585,3.237724376958795e-05,0.0963535830378532,0,0,0
1904,68467.06555924234,2010-12-07 07:34:41,1110.5407949050136,2,7,0.550297200679779,3.891908407211304,5.762253515182628,5.587987849603246,23.07073151379973,20.277089293497585,9.713172767078504e-05,0.0963535830378532,0,0,0
1905,68497.08088077554,2010-12-07 07:35:11,1140.5561165083882,2,7,0.5501165986061096,3.894174814224243,5.766839971429372,5.587987849603246,23.088586494490475,20.277089293497585,6.47544875391759e-05,0.0963535830378532,0,0,0
1906,68527.09562879158,2010-12-07 07:35:41,1170.5708644442127,2,7,0.5499359965324402,3.8962793350219727,5.77142628456319,5.587987849603246,23.106451056372617,20.277089293497585,6.47544875391759e-05,0.0963535830378532,0,0,0
1907,68557.11068794184,2010-12-07 07:36:11,1200.5859236295703,2,7,0.5501165986061096,3.898545742034912,5.77601257125994,5.587987849603246,23.124325432096363,20.277089293497585,0.0001295089750783,0.0963535830378532,0,0,0
1908,68587.12583031421,2010-12-07 07:36:41,1230.6010659518108,2,7,0.5501165986061096,3.900488376617432,5.780598991737236,5.587987849603246,23.14220974184276,20.277089293497585,6.47544875391759e-05,0.0963535830378532,0,0,0
1909,68617.14070246414,2010-12-07 07:37:11,1260.6159381318128,2,7,0.5501165986061096,3.902269124984741,5.785185280385536,5.587987849603246,23.16010243064951,20.277089293497585,3.237724376958795e-05,0.0963535830378532,0,0,0
1910,68647.15574240159,2010-12-07 07:37:41,1290.63097806426,2,7,0.5499359965324402,3.904049873352051,5.789771560304211,5.587987849603246,23.178003477942816,20.277089293497585,3.237724376958795e-05,0.0963535830378532,0,0,0
1911,68677.17081592763,2010-12-07 07:38:11,1320.6460515652414,2,7,0.5501165986061096,3.90583062171936,5.794357875327637,5.587987849603246,23.19591272114056,20.277089293497585,3.237724376958795e-05,0.0963535830378532,0,0,0
1912,68707.18587422578,2010-12-07 07:38:41,1350.6611098834408,2,7,0.5501165986061096,3.90761137008667,5.798944217388615,5.587987849603246,23.21382992515956,20.277089293497585,6.47544875391759e-05,0.0963535830378532,0,0,0
1913,68737.20088403826,2010-12-07 07:39:11,1380.676119705961,2,7,0.5501165986061096,3.90906834602356,5.803530487654693,5.587987849603246,23.23175443447145,20.277089293497585,3.237724376958795e-05,0.0963535830378532,0,0,0
1914,68767.21616192786,2010-12-07 07:39:41,1410.6913976456797,2,7,0.5501165986061096,3.910849094390869,5.80811682580305,5.587987849603246,23.249686688923443,20.277089293497585,9.713172767078504e-05,0.0963535830378532,0,0,0
1915,68797.2309717126,2010-12-07 07:40:11,1440.7062073552263,2,7,0.5501165986061096,3.912306070327759,5.812703101022855,5.587987849603246,23.267625997120973,20.277089293497585,6.47544875391759e-05,0.0963535830378532,0,0,0
1916,68827.24598162035,2010-12-07 07:40:41,1470.7212172679708,2,7,0.5499359965324402,3.9139246940612793,5.817289471325197,5.587987849603246,23.28557290450492,20.277089293497585,6.470680091297254e-05,0.0963535830378532,0,0,0
1917,68857.2610097434,2010-12-07 07:41:11,1500.7362453810058,2,7,0.5499359965324402,3.915543556213379,5.821875733963634,5.587987849603246,23.303526570553288,20.277089293497585,6.47544875391759e-05,0.0963535830378532,0,0,0
1918,68887.27608272809,2010-12-07 07:41:41,1530.7513183657024,2,7,0.5499359965324402,3.9168386459350586,5.826462028432355,5.587987849603246,23.32148727841556,20.277089293497585,0.0,0.0963535830378532,0,0,0
1919,68917.29116424402,2010-12-07 07:42:11,1560.7663999718527,2,7,0.550297200679779,3.918457508087158,5.83104829005771,5.587987849603246,23.33945505412656,20.277089293497585,3.237724376958795e-05,0.0963535830378532,0,0,0
1920,68947.30624299806,2010-12-07 07:42:41,1590.7814787259065,2,7,0.5501165986061096,3.920076370239258,5.835634572279013,5.587987849603246,23.357429960598,20.277089293497585,3.237724376958795e-05,0.0963535830378532,0,0,0
1921,68977.32131352164,2010-12-07 07:43:11,1620.7965491843163,2,7,0.5501165986061096,3.921533346176148,5.840220861995968,5.587987849603246,23.37541190599537,20.277089293497585,3.237724376958795e-05,0.0963535830378532,0,0,0
1922,69007.33637872197,2010-12-07 07:43:41,1650.8116144548164,2,7,0.5499359965324402,3.922990322113037,5.844807080615716,5.587987849603246,23.39340064004801,20.277089293497585,3.237724376958795e-05,0.0963535830378532,0,0,0
1923,69037.35124743836,2010-12-07 07:44:11,1680.8264830809746,2,7,0.5501165986061096,3.9247710704803462,5.849393339186107,5.587987849603246,23.411396618344757,20.277089293497585,6.47544875391759e-05,0.0963535830378532,0,0,0
1924,69067.36642840676,2010-12-07 07:44:41,1710.841664044372,2,7,0.5501165986061096,3.926228046417236,5.853979666335727,5.587987849603246,23.42939990777463,20.277089293497585,6.47544875391759e-05,0.0963535830378532,0,0,0
1925,69097.3813257995,2010-12-07 07:45:11,1740.8565614471397,2,7,0.5499359965324402,3.927685022354126,5.858565918250787,5.587987849603246,23.447409894612186,20.277089293497585,3.237724376958795e-05,0.0963535830378532,0,0,0
1926,69127.39637794734,2010-12-07 07:45:41,1770.8716136150344,2,7,0.5497553944587708,3.9293038845062256,5.863152185106406,5.587987849603246,23.46542701439377,20.277089293497585,3.237724376958795e-05,0.0963535830378532,0,0,0
1927,69157.41139464699,2010-12-07 07:46:11,1800.886630284593,2,7,0.5499359965324402,3.9307608604431152,5.867738438796804,5.587987849603246,23.483451259723005,20.277089293497585,3.237724376958795e-05,0.0963535830378532,0,0,0
1928,69187.4264931552,2010-12-07 07:46:41,1830.901728883028,2,7,0.5501165986061096,3.932379722595215,5.872324806586924,5.587987849603246,23.501483090779963,20.277089293497585,6.47544875391759e-05,0.0963535830378532,0,0,0
1929,69217.44146037169,2010-12-07 07:47:11,1860.9166960193247,2,7,0.5501165986061096,3.9339985847473145,5.876911129089369,5.587987849603246,23.519521988264604,20.277089293497585,0.0,0.0963535830378532,0,0,0
1930,69247.4564875474,2010-12-07 07:47:41,1890.9317231850025,2,7,0.550297200679779,3.935617446899414,5.881497513525012,5.587987849603246,23.537568341040576,20.277089293497585,6.47544875391759e-05,0.0963535830378532,0,0,0
1931,69277.47152601118,2010-12-07 07:48:11,1920.9467617440323,2,7,0.5501165986061096,3.9372363090515137,5.886083862909953,5.587987849603246,23.555621703518284,20.277089293497585,6.47544875391759e-05,0.0963535830378532,0,0,0
1932,69307.48656208903,2010-12-07 07:48:42,1950.9617977266505,2,7,0.5501165986061096,3.9386932849884033,5.890670161500943,5.587987849603246,23.57368222281737,20.277089293497585,3.237724376958795e-05,0.0963535830378532,0,0,0
1933,69337.50173977428,2010-12-07 07:49:12,1980.97697549209,2,7,0.5501165986061096,3.940150260925293,5.895256451451976,5.587987849603246,23.59174999276793,20.277089293497585,0.0,0.0963535830378532,0,0,0
1934,69367.51661704194,2010-12-07 07:49:42,2010.9918526895776,2,7,0.5501165986061096,3.9419310092926025,5.89984277141384,5.587987849603246,23.609825273589323,20.277089293497585,3.237724376958795e-05,0.0963535830378532,0,0,0
1935,69397.53167485388,2010-12-07 07:50:12,2041.0069105867287,2,7,0.5499359965324402,3.943549871444702,5.904429019621634,5.587987849603246,23.627907576458256,20.277089293497585,3.237724376958795e-05,0.0963535830378532,0,0,0
1936,69427.54670768866,2010-12-07 07:50:42,2071.0219434215146,2,7,0.5499359965324402,3.9451687335968018,5.909015310772706,5.587987849603246,23.645997455080497,20.277089293497585,6.47544875391759e-05,0.0963535830378532,0,0,0
1937,69457.56171540594,2010-12-07 07:51:12,2101.0369510435585,2,7,0.5501165986061096,3.9466257095336914,5.913601555218079,5.587987849603246,23.664094549475028,20.277089293497585,0.0,0.0963535830378532,0,0,0
1938,69487.57674854147,2010-12-07 07:51:42,2131.051984204154,2,7,0.5501165986061096,3.948568344116211,5.91818778814565,5.587987849603246,23.68219896266535,20.277089293497585,6.47544875391759e-05,0.0963535830378532,0,0,0
1939,69517.59177812818,2010-12-07 07:52:12,2161.0670137657944,2,7,0.5499359965324402,3.9500253200531006,5.922773977095726,5.587987849603246,23.700310731272168,20.277089293497585,0.0,0.0963535830378532,0,0,0
1940,69547.60686306763,2010-12-07 07:52:42,2191.082098775414,2,7,0.5501165986061096,3.9516441822052,5.927360247124586,5.587987849603246,23.71843033315725,20.277089293497585,3.237724376958795e-05,0.0963535830378532,0,0,0
1941,69577.6218447,2010-12-07 07:53:12,2221.097080367684,2,7,0.5501165986061096,3.9534249305725098,5.931946576245986,5.587987849603246,23.736557678003425,20.277089293497585,6.47544875391759e-05,0.0963535830378532,0,0,0
1942,69607.63688208611,2010-12-07 07:53:42,2251.1121178139447,2,7,0.5499359965324402,3.95504379272461,5.936532923977119,5.587987849603246,23.754692689096604,20.277089293497585,3.237724376958795e-05,0.0963535830378532,0,0,0
1943,69637.65204451338,2010-12-07 07:54:12,2281.127280231191,2,7,0.5499359965324402,3.956662654876709,5.941119264194232,5.587987849603246,23.77283526384843,20.277089293497585,6.47544875391759e-05,0.0963535830378532,0,0,0
1944,69667.66708348844,2010-12-07 07:54:42,2311.1423191511185,2,7,0.5499359965324402,3.9582815170288086,5.945705540675325,5.587987849603246,23.79098515574264,20.277089293497585,3.237724376958795e-05,0.0963535830378532,0,0,0
1945,69697.68202751222,2010-12-07 07:55:12,2341.157263250088,2,7,0.5499359965324402,3.960062265396118,5.950291775450317,5.587987849603246,23.809142605306725,20.277089293497585,9.713172767078504e-05,0.0963535830378532,0,0,0
1946,69727.69721534272,2010-12-07 07:55:42,2371.1724510504987,2,7,0.550297200679779,3.9616811275482178,5.954878180319404,5.587987849603246,23.8273085122318,20.277089293497585,6.47544875391759e-05,0.0963535830378532,0,0,0
1947,69757.71207410432,2010-12-07 07:56:12,2401.187309746947,2,7,0.5501165986061096,3.9634618759155273,5.959464469669554,5.587987849603246,23.845481685204177,20.277089293497585,6.47544875391759e-05,0.0963535830378532,0,0,0
1948,69787.72727011016,2010-12-07 07:56:42,2431.2025058430013,2,7,0.5501165986061096,3.965242624282837,5.964050772133525,5.587987849603246,23.86366271492222,20.277089293497585,9.713172767078504e-05,0.0963535830378532,0,0,0
1949,69817.74211537318,2010-12-07 07:57:12,2461.217351015797,2,7,0.5501165986061096,3.966861486434937,5.968637057859866,5.587987849603246,23.881851580079868,20.277089293497585,3.237724376958795e-05,0.0963535830378532,0,0,0
1950,69847.75714809768,2010-12-07 07:57:42,2491.232383735295,2,7,0.5501165986061096,3.968480348587036,5.973223421586501,5.587987849603246,23.90004857077997,20.277089293497585,3.237724376958795e-05,0.0963535830378532,0,0,0
1951,69877.77217872196,2010-12-07 07:58:12,2521.247414359579,2,7,0.5499359965324402,3.970099210739136,5.977809688951237,5.587987849603246,23.918253096147343,20.277089293497585,3.237724376958795e-05,0.0963535830378532,0,0,0
1952,69907.78722811796,2010-12-07 07:58:42,2551.2624637605886,2,7,0.550297200679779,3.9720418453216553,5.982396077679169,5.587987849603246,23.93646615072804,20.277089293497585,6.47544875391759e-05,0.0963535830378532,0,0,0
1953,69937.80225014084,2010-12-07 07:59:12,2581.2774857784566,2,7,0.5501165986061096,3.973660707473755,5.986982380069483,5.587987849603246,23.95468685633471,20.277089293497585,3.237724376958795e-05,0.0963535830378532,0,0,0
1954,69967.81729497049,2010-12-07 07:59:42,2611.2925306331526,2,7,0.5501165986061096,3.9756033420562735,5.991568739772601,5.587987849603246,23.972915924332973,20.277089293497585,3.237724376958795e-05,0.0963535830378532,0,0,0
1955,69997.83231730913,2010-12-07 08:00:12,2641.3075529517687,2,7,0.5501165986061096,3.977384090423584,5.996155139653737,5.587987849603246,23.99115344570037,20.277089293497585,6.47544875391759e-05,0.0963535830378532,0,0,0
1956,70027.84750270356,2010-12-07 08:00:42,2671.322738351205,2,7,0.5501165986061096,3.979002952575684,6.000741439982286,5.587987849603246,24.00939828664501,20.277089293497585,3.237724376958795e-05,0.0963535830378532,0,0,0
1957,70057.86235557552,2010-12-07 08:01:12,2701.3375912231595,2,7,0.5501165986061096,3.981107473373413,6.005326842267053,5.587987849603246,24.02764817626047,20.277089293497585,9.713172767078504e-05,0.0963535830378532,0,0,0
1958,70087.87746451971,2010-12-07 08:01:42,2731.3527002625765,2,7,0.5497553944587708,3.9827263355255127,6.00991223161027,5.587987849603246,24.04590643259253,20.277089293497585,6.47544875391759e-05,0.0963535830378532,0,0,0
1959,70117.89244631748,2010-12-07 08:02:12,2761.3676819701336,2,7,0.5499359965324402,3.984668970108032,6.014498391866898,5.587987849603246,24.064176314619687,20.277089293497585,3.237724376958795e-05,0.0963535830378532,0,0,0
1960,70147.90762693001,2010-12-07 08:02:42,2791.3828625926826,2,7,0.5499359965324402,3.986449718475342,6.019084555329604,5.587987849603246,24.08245474983469,20.277089293497585,6.47544875391759e-05,0.0963535830378532,0,0,0
1961,70177.92253785142,2010-12-07 08:03:12,2821.397773499053,2,7,0.5499359965324402,3.988392353057861,6.023670762004358,5.587987849603246,24.100741959551957,20.277089293497585,6.47544875391759e-05,0.0963535830378532,0,0,0
1962,70207.93756893183,2010-12-07 08:03:42,2851.41280463461,2,7,0.5501165986061096,3.990173101425171,6.028257116567436,5.587987849603246,24.11903838312195,20.277089293497585,3.237724376958795e-05,0.0963535830378532,0,0,0
1963,70237.95257759147,2010-12-07 08:04:12,2881.427813234086,2,7,0.550297200679779,3.992277622222901,6.032844051559396,5.587987849603246,24.1373458990058,20.277089293497585,6.47544875391759e-05,0.0963535830378532,0,0,0
1964,70267.9677465149,2010-12-07 08:04:42,2911.4429822226853,2,7,0.550297200679779,3.994220018386841,6.037431195059813,5.587987849603246,24.15566307726569,20.277089293497585,6.470680091297254e-05,0.0963535830378532,0,0,0
1965,70297.98279569035,2010-12-07 08:05:12,2941.458031337984,2,7,0.5499359965324402,3.9960007667541504,6.04201753933044,5.587987849603246,24.17398593511753,20.277089293497585,3.237724376958795e-05,0.0963535830378532,0,0,0
1966,70327.99782148762,2010-12-07 08:05:42,2971.473057135256,2,7,0.5499359965324402,3.99794340133667,6.046603835559131,5.587987849603246,24.19231771429304,20.277089293497585,3.237724376958795e-05,0.0963535830378532,0,0,0
1967,70358.01271514606,2010-12-07 08:06:12,3001.4879507836813,2,7,0.5501165986061096,4.0000481605529785,6.051190068007718,5.587987849603246,24.210658249045945,20.277089293497585,6.480216688942164e-05,0.0963535830378532,0,0,0
1968,70388.02782083716,2010-12-07 08:06:42,3031.5030565449406,2,7,0.5501165986061096,4.002152442932129,6.055776352942902,5.587987849603246,24.229008386806544,20.277089293497585,9.70840483205393e-05,0.0963535830378532,0,0,0
1969,70418.04305101803,2010-12-07 08:07:12,3061.5182867508765,2,7,0.5501165986061096,4.0042572021484375,6.060362636456392,5.587987849603246,24.247367916603704,20.277089293497585,6.47544875391759e-05,0.0963535830378532,0,0,0
1970,70448.0578193446,2010-12-07 08:07:42,3091.533055047368,2,7,0.5501165986061096,4.006199836730957,6.064948837921663,5.587987849603246,24.265736618008795,20.277089293497585,6.47544875391759e-05,0.0963535830378532,0,0,0
1971,70478.07285044507,2010-12-07 08:08:12,3121.548086082675,2,7,0.5499359965324402,4.008304119110107,6.069535123635425,5.587987849603246,24.28411538192324,20.277089293497585,0.0,0.0963535830378532,0,0,0
1972,70508.08789241257,2010-12-07 08:08:42,3151.5631280501866,2,7,0.5499359965324402,4.010570526123047,6.074121355999463,5.587987849603246,24.302503563332085,20.277089293497585,9.70840483205393e-05,0.0963535830378532,0,0,0
1973,70538.10293955296,2010-12-07 08:09:12,3181.5781752005955,2,7,0.5499359965324402,4.012675285339356,6.078707688354941,5.587987849603246,24.32090206046831,20.277089293497585,6.47544875391759e-05,0.0963535830378532,0,0,0
1974,70568.11807112345,2010-12-07 08:09:42,3211.5933067610554,2,7,0.5501165986061096,4.014941692352295,6.083294017893744,5.587987849603246,24.33931050853542,20.277089293497585,6.47544875391759e-05,0.0963535830378532,0,0,0
1975,70598.13300173887,2010-12-07 08:10:12,3241.608237381484,2,7,0.5501165986061096,4.016884326934815,6.08788026316107,5.587987849603246,24.35772869986909,20.277089293497585,3.24249267578125e-05,0.0963535830378532,0,0,0
1976,70628.14802104999,2010-12-07 08:10:42,3271.623256697628,2,7,0.550297200679779,4.019312381744385,6.092466577677449,5.587987849603246,24.37615738825403,20.277089293497585,6.47544875391759e-05,0.0963535830378532,0,0,0
1977,70658.16304480718,2010-12-07 08:11:12,3301.638280444799,2,7,0.5497553944587708,4.021417140960693,6.097052811287143,5.587987849603246,24.39459600198053,20.277089293497585,3.24249267578125e-05,0.0963535830378532,0,0,0
1978,70688.17828347918,2010-12-07 08:11:42,3331.6535191168023,2,7,0.5501165986061096,4.023845195770264,6.101639071617514,5.587987849603246,24.41304520387088,20.277089293497585,6.47544875391759e-05,0.0963535830378532,0,0,0
1979,70718.19325934221,2010-12-07 08:12:12,3361.6684950449776,2,7,0.5499359965324402,4.026111602783203,6.106225350310531,5.587987849603246,24.431504961726883,20.277089293497585,3.23295607813634e-05,0.0963535830378532,0,0,0
1980,70748.20815288035,2010-12-07 08:12:42,3391.6833885279907,2,7,0.550297200679779,4.028540134429932,6.110811547853028,5.587987849603246,24.44997503318737,20.277089293497585,6.47544875391759e-05,0.0963535830378532,0,0,0
1981,70778.22329662113,2010-12-07 08:13:12,3421.698532268761,2,7,0.5501165986061096,4.030806541442871,6.115397851203774,5.587987849603246,24.4684562883213,20.277089293497585,3.24249267578125e-05,0.0963535830378532,0,0,0
1982,70808.23835948564,2010-12-07 08:13:42,3451.713595133274,2,7,0.5501165986061096,4.033234596252441,6.119984142360078,5.587987849603246,24.4869483808421,20.277089293497585,3.23295607813634e-05,0.0963535830378532,0,0,0
1983,70838.25323287364,2010-12-07 08:14:12,3481.728468516269,2,7,0.5499359965324402,4.035662651062012,6.124570368546844,5.587987849603246,24.50545125513249,20.277089293497585,6.47544875391759e-05,0.0963535830378532,0,0,0
1984,70868.26828296136,2010-12-07 08:14:42,3511.7435185989752,2,7,0.5501165986061096,4.037929058074951,6.129156644958402,5.587987849603246,24.52396546406417,20.277089293497585,3.23295607813634e-05,0.0963535830378532,0,0,0
1985,70898.28342613572,2010-12-07 08:15:12,3541.758661783361,2,7,0.550297200679779,4.0406813621521,6.133742936520581,5.587987849603246,24.542490912555007,20.277089293497585,0.0001295089750783,0.0963535830378532,0,0,0
1986,70928.29833752831,2010-12-07 08:15:42,3571.773573165917,2,7,0.5499359965324402,4.042947769165039,6.138329174689981,5.587987849603246,24.56102747110528,20.277089293497585,3.24249267578125e-05,0.0963535830378532,0,0,0
1987,70958.31357890203,2010-12-07 08:16:12,3601.7888146298674,2,7,0.5501165986061096,4.045537948608398,6.142915425847352,5.587987849603246,24.579575520969385,20.277089293497585,3.24249267578125e-05,0.0963535830378532,0,0,0
1988,70988.32840644596,2010-12-07 08:16:42,3631.8036420935946,2,7,0.550297200679779,4.047966003417969,6.147501633329616,5.587987849603246,24.598134924816197,20.277089293497585,6.47544875391759e-05,0.0963535830378532,0,0,0
1989,71018.34357676285,2010-12-07 08:17:12,3661.8188124104986,2,7,0.5499359965324402,4.050556182861328,6.152087965795678,5.587987849603246,24.61670648598686,20.277089293497585,6.47544875391759e-05,0.0963535830378532,0,0,0
1990,71048.35858709164,2010-12-07 08:17:42,3691.8338227543154,2,7,0.5501165986061096,4.052984714508057,6.156674256907197,5.587987849603246,24.63528950528028,20.277089293497585,6.47544875391759e-05,0.0963535830378532,0,0,0
1991,71078.37351264947,2010-12-07 08:18:12,3721.848748292096,2,7,0.5499359965324402,4.055574893951416,6.161260560821778,5.587987849603246,24.65388441473919,20.277089293497585,6.47544875391759e-05,0.0963535830378532,0,0,0
1992,71108.38873095579,2010-12-07 08:18:42,3751.863966683632,2,7,0.5501165986061096,4.058165073394775,6.165846950891111,5.587987849603246,24.67249158183662,20.277089293497585,3.24249267578125e-05,0.0963535830378532,0,0,0
1993,71138.40359177753,2010-12-07 08:19:12,3781.8788275204074,2,7,0.5501165986061096,4.060755252838135,6.170433255589754,5.587987849603246,24.69111036789785,20.277089293497585,3.24249267578125e-05,0.0963535830378532,0,0,0
1994,71168.41860468272,2010-12-07 08:19:42,3811.893840325348,2,7,0.550297200679779,4.063345432281494,6.175019531513023,5.587987849603246,24.709740906751435,20.277089293497585,6.47544875391759e-05,0.0963535830378532,0,0,0
1995,71198.4336167759,2010-12-07 08:20:12,3841.9088524235312,2,7,0.5501165986061096,4.066259384155273,6.179605800738925,5.587987849603246,24.72838375404824,20.277089293497585,6.47544875391759e-05,0.0963535830378532,0,0,0
1996,71228.44881069152,2010-12-07 08:20:43,3871.9240463391593,2,7,0.5501165986061096,4.069011211395264,6.18419203009642,5.587987849603246,24.747038801715945,20.277089293497585,6.47544875391759e-05,0.0963535830378532,0,0,0
1997,71258.46381276977,2010-12-07 08:21:13,3901.939048417408,2,7,0.5499359965324402,4.071601390838623,6.188778291620993,5.587987849603246,24.76570641637537,20.277089293497585,6.47544875391759e-05,0.0963535830378532,0,0,0
1998,71288.47869148102,2010-12-07 08:21:43,3931.9539271236495,2,7,0.5499359965324402,4.074515342712402,6.193364508491533,5.587987849603246,24.784386395598183,20.277089293497585,6.47544875391759e-05,0.0963535830378532,0,0,0
1999,71318.49373293726,2010-12-07 08:22:13,3961.9689685849016,2,7,0.5501165986061096,4.077267646789551,6.197950759513818,5.587987849603246,24.80307917880532,20.277089293497585,3.24249267578125e-05,0.0963535830378532,0,0,0
2000,71348.50878364152,2010-12-07 08:22:43,3991.9840193894033,2,7,0.5501165986061096,4.080019474029541,6.202537088029218,5.587987849603246,24.821785049368355,20.277089293497585,6.47544875391759e-05,0.0963535830378532,0,0,0
2001,71378.52379435125,2010-12-07 08:23:13,4021.9990299938695,2,7,0.5499359965324402,4.08293342590332,6.207123468461405,5.587987849603246,24.84050391773719,20.277089293497585,9.70840483205393e-05,0.0963535830378532,0,0,0
2002,71408.53882828877,2010-12-07 08:23:43,4052.0140639564606,2,7,0.5501165986061096,4.085685729980469,6.211709775225279,5.587987849603246,24.85923543930405,20.277089293497585,6.47544875391759e-05,0.0963535830378532,0,0,0
2003,71438.55389854168,2010-12-07 08:24:13,4082.0291341842976,2,7,0.5501165986061096,4.088761329650879,6.216296191041432,5.587987849603246,24.877980431347687,20.277089293497585,0.0001618385285837,0.0963535830378532,0,0,0
2004,71468.5689116674,2010-12-07 08:24:43,4112.044147310036,2,7,0.5501165986061096,4.091351509094238,6.220882622664389,5.587987849603246,24.89673874928988,20.277089293497585,6.47544875391759e-05,0.0963535830378532,0,0,0
2005,71498.58393475795,2010-12-07 08:25:13,4142.0591703955615,2,7,0.550297200679779,4.094427585601807,6.225469034443984,5.587987849603246,24.91551033826253,20.277089293497585,6.47544875391759e-05,0.0963535830378532,0,0,0
2006,71528.59899266012,2010-12-07 08:25:43,4172.074228307751,2,7,0.5501165986061096,4.097341537475586,6.230055534151102,5.587987849603246,24.93429591670002,20.277089293497585,9.71794142969884e-05,0.0963535830378532,0,0,0
2007,71558.61402500869,2010-12-07 08:26:13,4202.0892606463,2,7,0.5499359965324402,4.100255489349365,6.234641959139751,5.587987849603246,24.953094898541988,20.277089293497585,6.47544875391759e-05,0.0963535830378532,0,0,0
2008,71588.63137950083,2010-12-07 08:26:43,4232.10661523869,2,7,0.5501165986061096,4.103331089019775,6.239228712886648,5.587987849603246,24.97190896564752,20.277089293497585,6.47544875391759e-05,0.0963535830378532,0,0,0
2009,71618.6441160113,2010-12-07 08:27:13,4262.11935174916,2,7,0.5499359965324402,4.106407165527344,6.243814695053793,5.587987849603246,24.990733889707,20.277089293497585,6.47544875391759e-05,0.0963535830378532,0,0,0
2010,71648.65932292928,2010-12-07 08:27:43,4292.134558632057,2,7,0.5499359965324402,4.109321117401123,6.248401146819436,5.587987849603246,25.009574689038885,20.277089293497585,6.47544875391759e-05,0.0963535830378532,0,0,0
2011,71678.67413437816,2010-12-07 08:28:13,4322.149370020783,2,7,0.550297200679779,4.112558841705322,6.252987520666981,5.587987849603246,25.028429196738667,20.277089293497585,9.71794142969884e-05,0.0963535830378532,0,0,0
2012,71708.68928607373,2010-12-07 08:28:43,4352.164521726373,2,7,0.5501165986061096,4.115634441375732,6.257573985581205,5.587987849603246,25.04729825705869,20.277089293497585,9.71794142969884e-05,0.0963535830378532,0,0,0
2013,71738.70419304029,2010-12-07 08:29:13,4382.179428677902,2,7,0.5501165986061096,4.118872165679932,6.26216048766586,5.587987849603246,25.06618187249309,20.277089293497585,6.47544875391759e-05,0.0963535830378532,0,0,0
2014,71768.71922181497,2010-12-07 08:29:43,4412.194457482658,2,7,0.550297200679779,4.121947765350342,6.266746984124555,5.587987849603246,25.08507994619724,20.277089293497585,6.47544875391759e-05,0.0963535830378532,0,0,0
2015,71798.73425022374,2010-12-07 08:30:13,4442.20948587138,2,7,0.5499359965324402,4.125185489654541,6.271333469911713,5.587987849603246,25.10399251638864,20.277089293497585,6.47544875391759e-05,0.0963535830378532,0,0,0
2016,71828.74950659479,2010-12-07 08:30:43,4472.224742317613,2,7,0.5501165986061096,4.128261566162109,6.275919929471471,5.587987849603246,25.122919702339008,20.277089293497585,6.47544875391759e-05,0.0963535830378532,0,0,0
2017,71858.76433169765,2010-12-07 08:31:13,4502.239567335254,2,7,0.5499359965324402,4.13166093826294,6.28050632488861,5.587987849603246,25.141861675387343,20.277089293497585,6.47544875391759e-05,0.0963535830378532,0,0,0
2018,71888.77934589605,2010-12-07 08:31:43,4532.254581533663,2,7,0.5501165986061096,4.135060787200928,6.285092812478624,5.587987849603246,25.160818996889876,20.277089293497585,0.0001295089750783,0.0963535830378532,0,0,0
2019,71918.79437738749,2010-12-07 08:32:13,4562.269613030117,2,7,0.5501165986061096,4.138298511505127,6.289679275885874,5.587987849603246,25.179791210879525,20.277089293497585,6.47544875391759e-05,0.0963535830378532,0,0,0
2020,71948.80954188993,2010-12-07 08:32:43,4592.28477752754,2,7,0.5501165986061096,4.141536235809326,6.294265768441238,5.587987849603246,25.198778756784268,20.277089293497585,9.71794142969884e-05,0.0963535830378532,0,0,0
2021,71978.82443807466,2010-12-07 08:33:13,4622.299673717289,2,7,0.550297200679779,4.145259380340576,6.298852222991059,5.587987849603246,25.217781639405075,20.277089293497585,0.0001295089750783,0.0963535830378532,0,0,0
2022,72008.83943905016,2010-12-07 08:33:43,4652.314674692793,2,7,0.5499359965324402,4.1483354568481445,6.303438676246508,5.587987849603246,25.236800403196284,20.277089293497585,9.71794142969884e-05,0.0963535830378532,0,0,0
2023,72038.85447808038,2010-12-07 08:34:13,4682.329713717983,2,7,0.5504778623580933,4.151896953582764,6.30802512551074,5.587987849603246,25.255834696523447,20.277089293497585,9.71794142969884e-05,0.0963535830378532,0,0,0
2024,72068.86956428296,2010-12-07 08:34:43,4712.344799925584,2,7,0.5499359965324402,4.155134677886963,6.312611525391799,5.587987849603246,25.274884529331857,20.277089293497585,6.47544875391759e-05,0.0963535830378532,0,0,0
2025,72098.8845444567,2010-12-07 08:35:13,4742.359780124387,2,7,0.5501165986061096,4.158696174621582,6.317197891752871,5.587987849603246,25.293950047467263,20.277089293497585,9.71794142969884e-05,0.0963535830378532,0,0,0
2026,72128.89957513612,2010-12-07 08:35:43,4772.374810778745,2,7,0.5501165986061096,4.162257671356201,6.32178430072873,5.587987849603246,25.313031583859964,20.277089293497585,9.71794142969884e-05,0.0963535830378532,0,0,0
2027,72158.9146317551,2010-12-07 08:36:13,4802.389867407742,2,7,0.5501165986061096,4.165657043457031,6.326370729798609,5.587987849603246,25.33212930508204,20.277089293497585,6.47544875391759e-05,0.0963535830378532,0,0,0
2028,72188.9296734419,2010-12-07 08:36:43,4832.404909079517,2,7,0.5499359965324402,4.16938066482544,6.330957142363173,5.587987849603246,25.351243214530573,20.277089293497585,0.0001295089750783,0.0963535830378532,0,0,0
2029,72218.94494245441,2010-12-07 08:37:13,4862.42017817222,2,7,0.5501165986061096,4.1727800369262695,6.335543607796437,5.587987849603246,25.37037364935524,20.277089293497585,9.70840483205393e-05,0.0963535830378532,0,0,0
2030,72248.95971213936,2010-12-07 08:37:43,4892.434947781981,2,7,0.5499359965324402,4.176341533660889,6.340129986664817,5.587987849603246,25.38952009278951,20.277089293497585,9.70840483205393e-05,0.0963535830378532,0,0,0
2031,72278.97476150528,2010-12-07 08:38:13,4922.449997147903,2,7,0.550297200679779,4.180226802825928,6.344716422800493,5.587987849603246,25.408683308779583,20.277089293497585,0.0001618385285837,0.0963535830378532,0,0,0
2032,72308.98978625494,2010-12-07 08:38:43,4952.465021892556,2,7,0.5501165986061096,4.183626651763916,6.349302831988204,5.587987849603246,25.427863161413,20.277089293497585,9.71794142969884e-05,0.0963535830378532,0,0,0
2033,72339.00506857556,2010-12-07 08:39:13,4982.4803042232015,2,7,0.5499359965324402,4.187349796295166,6.353889342454298,5.587987849603246,25.447060194022647,20.277089293497585,9.70840483205393e-05,0.0963535830378532,0,0,0
2034,72369.01983981939,2010-12-07 08:39:43,5012.495075547226,2,7,0.5501165986061096,4.191235065460205,6.358475700894279,5.587987849603246,25.46627360480391,20.277089293497585,0.0001295089750783,0.0963535830378532,0,0,0
2035,72399.03497580586,2010-12-07 08:40:13,5042.510211443477,2,7,0.5501165986061096,4.194796562194824,6.363062103211663,5.587987849603246,25.485504238659285,20.277089293497585,9.70840483205393e-05,0.0963535830378532,0,0,0
2036,72429.05002464047,2010-12-07 08:40:43,5072.525260308151,2,7,0.550297200679779,4.198519706726074,6.367648514432931,5.587987849603246,25.504751830541924,20.277089293497585,0.0001295089750783,0.0963535830378532,0,0,0
2037,72440.62785636442,2010-12-07 08:40:55,5084.103092092245,2,7,0.5501165986061096,4.200138568878174,6.369417663886118,5.587987849603246,25.512180901493576,20.277089293497585,0.0001295089750783,0.0963535830378532,0,0,0
2038,72470.64023176281,2010-12-07 08:41:25,30.015010424016687,3,7,0.0,4.108187675476074,6.369417663886118,5.587987849603246,25.512180901493576,20.277089293497585,-0.0004857063177041,0.0963535830378532,0,0,0
2039,72500.65537955867,2010-12-07 08:41:55,60.0301582048405,3,7,0.0,4.096855640411377,6.369417663886118,5.587987849603246,25.512180901493576,20.277089293497585,-0.0002266883820993,0.0963535830378532,0,0,0
2040,72530.67028319696,2010-12-07 08:42:25,90.045061843125,3,7,0.0,4.090056419372559,6.369417663886118,5.587987849603246,25.512180901493576,20.277089293497585,-0.0001295089750783,0.0963535830378532,0,0,0
2041,72560.63845563645,2010-12-07 08:42:55,120.01323429264362,3,7,0.0,4.085361957550049,6.369417663886118,5.587987849603246,25.512180901493576,20.277089293497585,-9.70840483205393e-05,0.0963535830378532,0,0,0
2042,72560.65400241129,2010-12-07 08:42:55,0.015741366785809,4,7,1.0009173154830933,4.199814796447754,6.369422040498963,5.587987849603246,25.51219928245696,20.277089293497585,0.0,0.0963535830378532,0,0,0
2043,72561.43526810092,2010-12-07 08:42:56,0.797007051393275,4,7,0.9508885741233826,4.199653148651123,6.369632221420318,5.587987849603246,25.5130819970008,20.277089293497585,-3.23295607813634e-05,0.0963535830378532,0,0,0
2044,72563.48231424652,2010-12-07 08:42:58,2.844053136844378,4,7,0.900498628616333,4.199653148651123,6.370157482261166,5.587987849603246,25.51528798210552,20.277089293497585,-3.23295607813634e-05,0.0963535830378532,0,0,0
2045,72566.59127726642,2010-12-07 08:43:01,5.953016156743897,4,7,0.8501086235046387,4.199653148651123,6.370912271561956,5.587987849603246,25.518457932865218,20.277089293497585,-6.47544875391759e-05,0.0963535830378532,0,0,0
2046,72570.9194590403,2010-12-07 08:43:05,10.281197930619657,4,7,0.7997186183929443,4.199814796447754,6.371902777658635,5.587987849603246,25.522617863192107,20.277089293497585,0.0,0.0963535830378532,0,0,0
2047,72576.57556429568,2010-12-07 08:43:11,15.937303180992702,4,7,0.7496898770332336,4.199653148651123,6.373118329694289,5.587987849603246,25.52772296120193,20.277089293497585,-3.23295607813634e-05,0.0963535830378532,0,0,0
2048,72583.90341780729,2010-12-07 08:43:18,23.265156692615857,4,7,0.6996610760688782,4.199814796447754,6.374591481132685,5.587987849603246,25.533909949900657,20.277089293497585,3.23295607813634e-05,0.0963535830378532,0,0,0
2049,72593.793982447,2010-12-07 08:43:28,33.155721332315416,4,7,0.6496323347091675,4.199814796447754,6.376441730767025,5.587987849603246,25.541680670748317,20.277089293497585,-3.24249267578125e-05,0.0963535830378532,0,0,0
2050,72607.44982637941,2010-12-07 08:43:42,46.81156525970396,4,7,0.5994229316711426,4.199814796447754,6.378805338499174,5.587987849603246,25.55160741560703,20.277089293497585,-3.24249267578125e-05,0.0963535830378532,0,0,0
2051,72628.41820765972,2010-12-07 08:44:03,67.77994655508131,4,7,0.5493941903114319,4.199814796447754,6.382141433313768,5.587987849603246,25.56561846309893,20.277089293497585,0.0,0.0963535830378532,0,0,0
2052,72664.90195236521,2010-12-07 08:44:39,104.26369132572208,4,7,0.4993654191493988,4.199653148651123,6.38743208517915,5.587987849603246,25.58783831124973,20.277089293497585,-3.23295607813634e-05,0.0963535830378532,0,0,0
2053,72734.3066923212,2010-12-07 08:45:49,173.6684312115148,4,7,0.4493366479873657,4.199653148651123,6.396531912353638,5.587987849603246,25.626056034736067,20.277089293497585,-3.23295607813634e-05,0.0963535830378532,0,0,0
2054,72840.89842678272,2010-12-07 08:47:35,280.2601657732897,4,7,0.3993078768253326,4.199653148651123,6.409067092551471,5.587987849603246,25.678701675266048,20.277089293497585,-3.23295607813634e-05,0.0963535830378532,0,0,0
2055,72975.16132703103,2010-12-07 08:49:50,414.5230659113256,4,7,0.3492791056632995,4.199653148651123,6.423017513696416,5.587987849603246,25.73729108911528,20.277089293497585,-6.47544875391759e-05,0.0963535830378532,0,0,0
2056,73138.93934949576,2010-12-07 08:52:33,578.3010884562739,4,7,0.299069732427597,4.199653148651123,6.437754358146802,5.587987849603246,25.799183300165925,20.277089293497585,-3.23295607813634e-05,0.0963535830378532,0,0,0
2057,73335.87310049574,2010-12-07 08:55:50,775.2348394261875,4,7,0.2490409463644027,4.199814796447754,6.452714237022478,5.587987849603246,25.862012252259376,20.277089293497585,0.0,0.0963535830378532,0,0,0
2058,73575.96189191903,2010-12-07 08:59:50,1015.3236307993352,4,7,0.1990121752023697,4.199814796447754,6.467618408090471,5.587987849603246,25.924607154458496,20.277089293497585,0.0,0.0963535830378532,0,0,0
2059,73894.59632853438,2010-12-07 09:05:09,1333.9580674247068,4,7,0.1489834040403366,4.199653148651123,6.482951059946275,5.587987849603246,25.989001702119644,20.277089293497585,-6.47544875391759e-05,0.0963535830378532,0,0,0
2060,74362.61815469293,2010-12-07 09:12:57,1801.979893573238,4,7,0.0989546403288841,4.199814796447754,6.498873543942452,5.587987849603246,26.055873433872566,20.277089293497585,0.0,0.0963535830378532,0,0,0
2061,75256.0222592404,2010-12-07 09:27:50,2695.383998115696,4,7,0.0496483072638511,4.199814796447754,6.516568375897851,5.587987849603246,26.13018874321449,20.277089293497585,-3.24249267578125e-05,0.0963535830378532,0,0,0
2062,75286.03602488808,2010-12-07 09:28:21,30.015134487744504,5,7,0.0,4.191397190093994,6.516568375897851,5.587987849603246,26.13018874321449,20.277089293497585,-3.23295607813634e-05,0.0963535830378532,0,0,0
2063,75316.03543609902,2010-12-07 09:28:51,60.01454558343262,5,7,0.0,4.189939975738525,6.516568375897851,5.587987849603246,26.13018874321449,20.277089293497585,-3.24249267578125e-05,0.0963535830378532,0,0,0
2064,75316.22277583725,2010-12-07 09:28:51,0.187650856940155,6,7,-1.9243103452026844e-05,4.189939975738525,6.516568375897851,5.587987850606297,26.13018874321449,20.277089297700307,0.0,0.0995923578739166,0,0,0
2065,75321.0506476656,2010-12-07 09:28:56,5.015522650210332,6,7,0.0005225847125984,4.189939975738525,6.516569280077976,5.587987850689241,26.13019253179198,20.27708929804784,-3.24249267578125e-05,0.0995923578739166,0,0,0
2066,75351.06561143037,2010-12-07 09:29:26,30.015042328409542,7,7,-1.0997490882873535,3.9995622634887695,6.516569280077976,5.59715600220905,26.13019253179198,20.31397457899531,-0.0010360718006268,0.0995923578739166,0,0,0
2067,75381.08073727162,2010-12-07 09:29:56,60.03016823479968,7,7,-1.099568486213684,3.969775438308716,6.516569280077976,5.606324075108851,26.13019253179198,20.35049736574068,-0.0006475448608398,0.0995923578739166,0,0,0
2068,75411.09562112065,2010-12-07 09:30:26,90.04505201867725,7,7,-1.099568486213684,3.948730230331421,6.516569280077976,5.615492031993042,26.13019253179198,20.3867907652422,-0.0004856586456298,0.0995923578739166,0,0,0
2069,75441.1106459054,2010-12-07 09:30:56,120.0600767984176,7,7,-1.099568486213684,3.9327034950256343,6.516569280077976,5.624660035885043,26.13019253179198,20.422916804768697,-0.0003885269106831,0.0995923578739166,0,0,0
2070,75471.12570489026,2010-12-07 09:31:26,150.07513585846317,7,7,-1.099568486213684,3.919105052947998,6.516569280077976,5.633828004129936,26.13019253179198,20.458908417862528,-0.0003237724304199,0.0995923578739166,0,0,0
2071,75501.14082488194,2010-12-07 09:31:56,180.0902557849726,7,7,-1.099568486213684,3.90728759765625,6.516569280077976,5.642996063269001,26.13019253179198,20.494784475217926,-0.0002913951757363,0.0995923578739166,0,0,0
2072,75531.15573910154,2010-12-07 09:32:26,210.10516999957585,7,7,-1.0993878841400146,3.8966031074523926,6.516569280077976,5.652164002263015,26.13019253179198,20.53055561564392,-0.0002266406954731,0.0995923578739166,0,0,0
2073,75561.17089018559,2010-12-07 09:32:56,240.1203210836196,7,7,-1.099568486213684,3.886242389678955,6.516569280077976,5.661332069000519,26.13019253179198,20.566230648784305,-0.0002590179501567,0.0995923578739166,0,0,0
2074,75591.18592309055,2010-12-07 09:33:26,270.13535401364163,7,7,-1.0993878841400146,3.876367330551148,6.516569280077976,5.670500090528328,26.13019253179198,20.60181330745005,-0.0002266406954731,0.0995923578739166,0,0,0
2075,75621.2008222176,2010-12-07 09:33:56,300.1502531156377,7,7,-1.0997490882873535,3.86681604385376,6.516569280077976,5.679668072274141,26.13019253179198,20.63730727405056,-0.0002266406954731,0.0995923578739166,0,0,0
2076,75651.21585552357,2010-12-07 09:34:26,330.1652864215953,7,7,-1.099568486213684,3.857588529586792,6.516569280077976,5.688836118954327,26.13019253179198,20.672716124211416,-0.0002266406954731,0.0995923578739166,0,0,0
2077,75681.23090744084,2010-12-07 09:34:56,360.18033836392874,7,7,-1.099568486213684,3.848522901535034,6.516569280077976,5.698004233033973,26.13019253179198,20.708041337603664,-0.0002590179501567,0.0995923578739166,0,0,0
2078,75711.24592997499,2010-12-07 09:35:26,390.1953608730186,7,7,-1.099568486213684,3.839781045913696,6.516569280077976,5.707172318178472,26.13019253179198,20.74328496159656,-0.0002266406954731,0.0995923578739166,0,0,0
2079,75741.26094393781,2010-12-07 09:35:56,420.21037484085394,7,7,-1.099568486213684,3.831201314926148,6.516569280077976,5.716340332574579,26.13019253179198,20.77844853542564,-0.0002266406954731,0.0995923578739166,0,0,0
2080,75771.27596904838,2010-12-07 09:36:26,450.2253999464051,7,7,-1.0997490882873535,3.82262134552002,6.516569280077976,5.725508402259571,26.13019253179198,20.813534190044205,-0.0002590179501567,0.0995923578739166,0,0,0
2081,75801.29099129683,2010-12-07 09:36:56,480.2404222048714,7,7,-1.0997490882873535,3.8145270347595215,6.516569280077976,5.734676431259243,26.13019253179198,20.848542779741933,-0.0001942634553415,0.0995923578739166,0,0,0
2082,75831.30616978406,2010-12-07 09:37:26,510.2556007322066,7,7,-1.099568486213684,3.8062708377838135,6.516569280077976,5.743844479971605,26.13019253179198,20.883475726943512,-0.0002266406954731,0.0995923578739166,0,0,0
2083,75861.32118819795,2010-12-07 09:37:56,540.2706191461058,7,7,-1.0997490882873535,3.798338413238525,6.516569280077976,5.753012491759498,26.13019253179198,20.91833472133165,-0.0002266406954731,0.0995923578739166,0,0,0
2084,75891.3361080967,2010-12-07 09:38:26,570.2855390197915,7,7,-1.099568486213684,3.7905678749084473,6.516569280077976,5.76218049365457,26.13019253179198,20.95312201162793,-0.0001942634553415,0.0995923578739166,0,0,0
2085,75921.35113500674,2010-12-07 09:38:56,600.3005659047708,7,7,-1.099568486213684,3.783121109008789,6.516569280077976,5.77134858358979,26.13019253179198,20.98783951950776,-0.0001618862152099,0.0995923578739166,0,0,0
2086,75951.36627814602,2010-12-07 09:39:26,630.3157090440443,7,7,-1.099568486213684,3.775674343109131,6.516569280077976,5.780516674278208,26.13019253179198,21.02248870718152,-0.0002266406954731,0.0995923578739166,0,0,0
2087,75981.381449295,2010-12-07 09:39:56,660.3308802882558,7,7,-1.099568486213684,3.7685513496398926,6.516569280077976,5.789684767118387,26.13019253179198,21.05707058237527,-0.0001618862152099,0.0995923578739166,0,0,0
2088,76011.39615904079,2010-12-07 09:40:26,690.3455899438218,7,7,-1.0997490882873535,3.7611045837402335,6.516569280077976,5.798853377851262,26.13019253179198,21.09158823507681,-0.0001942634553415,0.0995923578739166,0,0,0
2089,76041.41119541437,2010-12-07 09:40:56,720.360626307388,7,7,-1.0997490882873535,3.754305362701416,6.516569280077976,5.808022191193852,26.13019253179198,21.12604235097667,-0.0001618862152099,0.0995923578739166,0,0,0
2090,76071.42624689055,2010-12-07 09:41:26,750.3756778086239,7,7,-1.099568486213684,3.7476682662963863,6.516569280077976,5.817190930743508,26.13019253179198,21.160433765549605,-0.0001618862152099,0.0995923578739166,0,0,0
2091,76101.44129621636,2010-12-07 09:41:56,780.3907271093836,7,7,-1.099568486213684,3.740869045257568,6.516569280077976,5.826359866367254,26.13019253179198,21.194764785422212,-0.0001942634553415,0.0995923578739166,0,0,0
2092,76131.45631723174,2010-12-07 09:42:26,810.4057481448064,7,7,-1.0997490882873535,3.73455548286438,6.516569280077976,5.835528712355736,26.13019253179198,21.22903552543349,-0.0001618862152099,0.0995923578739166,0,0,0
2093,76161.47132792142,2010-12-07 09:42:56,840.4207588194469,7,7,-1.0997490882873535,3.728080034255981,6.516569280077976,5.844697485412724,26.13019253179198,21.26324731169691,-0.0001942634553415,0.0995923578739166,0,0,0
2094,76191.48639885601,2010-12-07 09:43:26,870.4358298442662,7,7,-1.099568486213684,3.721766471862793,6.516569280077976,5.853865815941408,26.13019253179198,21.29740017234608,-0.0001942634553415,0.0995923578739166,0,0,0
2095,76221.50144272827,2010-12-07 09:43:56,900.450873646343,7,7,-1.099568486213684,3.715776681900024,6.516569280077976,5.863033773264986,26.13019253179198,21.33149447690976,-0.0001942634553415,0.0995923578739166,0,0,0
2096,76251.51669605174,2010-12-07 09:44:26,930.4661270650428,7,7,-1.099568486213684,3.709786891937256,6.516569280077976,5.872201954566312,26.13019253179198,21.36553325707225,-0.0001942634553415,0.0995923578739166,0,0,0
2097,76281.53146493972,2010-12-07 09:44:56,960.4808958778192,7,7,-1.099568486213684,3.7037971019744873,6.516569280077976,5.881369951642047,26.13019253179198,21.39951626169113,-0.0001295089750783,0.0995923578739166,0,0,0
2098,76311.546504817,2010-12-07 09:45:26,990.4959357250542,7,7,-1.099568486213684,3.697807312011719,6.516569280077976,5.890537990277919,26.13019253179198,21.433445291827635,-0.0001618862152099,0.0995923578739166,0,0,0
2099,76341.5615452958,2010-12-07 09:45:56,1020.5109762289236,7,7,-1.099568486213684,3.69197940826416,6.516569280077976,5.899706087599521,26.13019253179198,21.467321039247143,-0.0001942634553415,0.0995923578739166,0,0,0
2100,76371.57653882279,2010-12-07 09:46:26,1050.5259697157926,7,7,-1.0997490882873535,3.686313390731812,6.516569280077976,5.908874068287429,26.13019253179198,21.501143756093853,-0.0001618862152099,0.0995923578739166,0,0,0
2101,76401.59156151232,2010-12-07 09:46:56,1080.5409924103444,7,7,-1.099568486213684,3.680647373199463,6.516569280077976,5.918042065085256,26.13019253179198,21.53491467428629,-0.0001942634553415,0.0995923578739166,0,0,0
2102,76431.60673872639,2010-12-07 09:47:26,1110.556169629424,7,7,-1.0993878841400146,3.675305128097534,6.516569280077976,5.927210133418739,26.13019253179198,21.568634812100377,-0.0001295089750783,0.0995923578739166,0,0,0
2103,76461.62162394884,2010-12-07 09:47:56,1140.5710548418565,7,7,-1.099568486213684,3.669801235198975,6.516569280077976,5.936378142776082,26.13019253179198,21.60230450125239,-0.0001618862152099,0.0995923578739166,0,0,0
2104,76491.63665281374,2010-12-07 09:48:26,1170.586083711775,7,7,-1.0997490882873535,3.664458990097046,6.516569280077976,5.945546234447485,26.13019253179198,21.635924848430523,-0.0001295089750783,0.0995923578739166,0,0,0
2105,76521.6517837276,2010-12-07 09:48:56,1200.6012146506885,7,7,-1.099568486213684,3.659116744995117,6.516569280077976,5.954713822283045,26.13019253179198,21.66949451722092,-0.0001295089750783,0.0995923578739166,0,0,0
2106,76551.66668248373,2010-12-07 09:49:26,1230.6161133817616,7,7,-1.099568486213684,3.653774499893189,6.516569280077976,5.963881080026519,26.13019253179198,21.70301469379561,-0.0001618862152099,0.0995923578739166,0,0,0
2107,76581.68172008537,2010-12-07 09:49:56,1260.6311509834088,7,7,-1.0992072820663452,3.64875602722168,6.516569280077976,5.973048503185932,26.13019253179198,21.73648795362691,-0.0001295089750783,0.0995923578739166,0,0,0
2108,76611.69687431226,2010-12-07 09:50:26,1290.646305210273,7,7,-1.099568486213684,3.643737554550171,6.516569280077976,5.982215795720467,26.13019253179198,21.76991369812757,-0.0001295089750783,0.0995923578739166,0,0,0
2109,76641.71179439143,2010-12-07 09:50:56,1320.6612252994953,7,7,-1.099568486213684,3.638719081878662,6.516569280077976,5.991383031479135,26.13019253179198,21.803293270193457,-0.0001295089750783,0.0995923578739166,0,0,0
2110,76671.71348816248,2010-12-07 09:51:26,1350.6629191507327,7,7,-1.0993878841400146,3.633700609207153,6.516569280077976,6.000546238051316,26.13019253179198,21.836612567927453,-0.0001295089750783,0.0995923578739166,0,0,0
2111,76701.72631045642,2010-12-07 09:51:56,1380.6757414496844,7,7,-1.0997490882873535,3.628682136535645,6.516569280077976,6.009713207866195,26.13019253179198,21.86990045235381,-0.0001295089750783,0.0995923578739166,0,0,0
2112,76731.74124980858,2010-12-07 09:52:26,1410.6906807066046,7,7,-1.0997490882873535,3.6241493225097656,6.516569280077976,6.018881054763927,26.13019253179198,21.90314769806239,-0.0001295089750783,0.0995923578739166,0,0,0
2113,76761.75628455813,2010-12-07 09:52:56,1440.7057154561544,7,7,-1.099568486213684,3.619616508483887,6.516569280077976,6.028048989820364,26.13019253179198,21.93635256701868,-9.713172767078504e-05,0.0995923578739166,0,0,0
2114,76791.77130452088,2010-12-07 09:53:26,1470.7207354138957,7,7,-1.099568486213684,3.615083694458008,6.516569280077976,6.037216953806593,26.13019253179198,21.96951521469595,-9.713172767078504e-05,0.0995923578739166,0,0,0
2115,76821.78647556462,2010-12-07 09:53:57,1500.735906467633,7,7,-1.099568486213684,3.610550880432129,6.516569280077976,6.046384892791585,26.13019253179198,22.00263730590149,-0.0001295089750783,0.0995923578739166,0,0,0
2116,76851.80149710126,2010-12-07 09:54:27,1530.750928024353,7,7,-1.099568486213684,3.60634183883667,6.516569280077976,6.055552751521857,26.13019253179198,22.035719093818585,-6.47544875391759e-05,0.0995923578739166,0,0,0
2117,76881.81656469255,2010-12-07 09:54:57,1560.7659956005907,7,7,-1.0997490882873535,3.601970911026001,6.516569280077976,6.064720671462736,26.13019253179198,22.06876171178602,-0.0001295089750783,0.0995923578739166,0,0,0
2118,76911.83143062198,2010-12-07 09:55:27,1590.780861520013,7,7,-1.0997490882873535,3.597923755645752,6.516569280077976,6.073888557058385,26.13019253179198,22.10176543149655,-9.713172767078504e-05,0.0995923578739166,0,0,0
2119,76941.84661903392,2010-12-07 09:55:57,1620.7960499369583,7,7,-1.0997490882873535,3.593876600265503,6.516569280077976,6.083056541051664,26.13019253179198,22.134731729779155,-9.713172767078504e-05,0.0995923578739166,0,0,0
2120,76971.86149772513,2010-12-07 09:56:27,1650.8109286231509,7,7,-1.099568486213684,3.590153455734253,6.516569280077976,6.092224466145353,26.13019253179198,22.167661704140684,-3.237724376958795e-05,0.0995923578739166,0,0,0
2121,77001.8766485786,2010-12-07 09:56:57,1680.826079481633,7,7,-1.099568486213684,3.586106300354004,6.516569280077976,6.101392425336611,26.13019253179198,22.200556297027948,-9.713172767078504e-05,0.0995923578739166,0,0,0
2122,77031.89167922293,2010-12-07 09:57:27,1710.841110120955,7,7,-1.099568486213684,3.582382917404175,6.516569280077976,6.110560382274802,26.13019253179198,22.23341610986403,-6.47544875391759e-05,0.0995923578739166,0,0,0
2123,77061.90671817293,2010-12-07 09:57:57,1740.8561490709574,7,7,-1.099568486213684,3.578821420669556,6.516569280077976,6.11972834818202,26.13019253179198,22.26624210297365,-9.713172767078504e-05,0.0995923578739166,0,0,0
2124,77091.92176421559,2010-12-07 09:58:27,1770.8711951186222,7,7,-1.099568486213684,3.5750980377197266,6.516569280077976,6.128896293306592,26.13019253179198,22.29903493928713,-0.0001295089750783,0.0995923578739166,0,0,0
2125,77121.93664093188,2010-12-07 09:58:57,1800.8860718298995,7,7,-1.0997490882873535,3.5715365409851074,6.516569280077976,6.138064149653675,26.13019253179198,22.331794812848724,-9.713172767078504e-05,0.0995923578739166,0,0,0
2126,77151.95168315501,2010-12-07 09:59:27,1830.9011140530472,7,7,-1.099568486213684,3.5681369304656982,6.516569280077976,6.14723212706111,26.13019253179198,22.36452298538658,-6.47544875391759e-05,0.0995923578739166,0,0,0
2127,77181.96674758843,2010-12-07 09:59:57,1860.916178586714,7,7,-1.0993878841400146,3.564899206161499,6.516569280077976,6.156400040330826,26.13019253179198,22.39721967790028,-6.47544875391759e-05,0.0995923578739166,0,0,0
2128,77211.96850871209,2010-12-07 10:00:27,1890.917939700331,7,7,-1.099568486213684,3.56149959564209,6.516569280077976,6.16556384166702,26.13019253179198,22.429871677375345,-9.713172767078504e-05,0.0995923578739166,0,0,0
2129,77241.98121481689,2010-12-07 10:00:57,1920.930645865288,7,7,-1.0997490882873535,3.55826187133789,6.516569280077976,6.174731079448058,26.13019253179198,22.46250655972391,-9.713172767078504e-05,0.0995923578739166,0,0,0
2130,77271.99639475775,2010-12-07 10:01:27,1950.9458256808289,7,7,-1.099568486213684,3.5550241470336914,6.516569280077976,6.183899023725296,26.13019253179198,22.49511408188676,-9.713172767078504e-05,0.0995923578739166,0,0,0
2131,77302.01132826034,2010-12-07 10:01:57,1980.9607591483425,7,7,-1.099568486213684,3.551786422729492,6.516569280077976,6.193066975979757,26.13019253179198,22.527691613162077,-6.47544875391759e-05,0.0995923578739166,0,0,0
2132,77332.02636455373,2010-12-07 10:02:27,2010.9757955670457,7,7,-1.099568486213684,3.548548698425293,6.516569280077976,6.202234985066804,26.13019253179198,22.56023943165452,-6.47544875391759e-05,0.0995923578739166,0,0,0
2133,77362.0412719514,2010-12-07 10:02:57,2040.990702869448,7,7,-1.099568486213684,3.5453109741210938,6.516569280077976,6.211402903703998,26.13019253179198,22.59275746154674,-9.713172767078504e-05,0.0995923578739166,0,0,0
2134,77392.0563032724,2010-12-07 10:03:27,2071.005734165404,7,7,-1.0997490882873535,3.5422351360321045,6.516569280077976,6.22057086427619,26.13019253179198,22.625246073345103,-6.47544875391759e-05,0.0995923578739166,0,0,0
2135,77422.0713311348,2010-12-07 10:03:57,2101.020762032828,7,7,-1.099568486213684,3.5388355255126958,6.516569280077976,6.229738842672252,26.13019253179198,22.657705123053116,-9.713172767078504e-05,0.0995923578739166,0,0,0
2136,77452.0863947161,2010-12-07 10:04:27,2131.0358256141244,7,7,-1.099568486213684,3.535597801208496,6.516569280077976,6.238906823140594,26.13019253179198,22.690134173701907,-6.47544875391759e-05,0.0995923578739166,0,0,0
2137,77482.10152598584,2010-12-07 10:04:57,2161.0509569389983,7,7,-1.099568486213684,3.532198190689087,6.516569280077976,6.248074893097108,26.13019253179198,22.722533102082508,-9.713172767078504e-05,0.0995923578739166,0,0,0
2138,77512.11641943878,2010-12-07 10:05:27,2191.065850331787,7,7,-1.0993878841400146,3.528960466384888,6.516569280077976,6.257242832234951,26.13019253179198,22.75490107049254,-6.47544875391759e-05,0.0995923578739166,0,0,0
2139,77542.13157035239,2010-12-07 10:05:57,2221.0810012604443,7,7,-1.0997490882873535,3.525398969650269,6.516569280077976,6.266410851029469,26.13019253179198,22.787238097267757,-0.0001295089750783,0.0995923578739166,0,0,0
2140,77572.14661234998,2010-12-07 10:06:27,2251.0960432530183,7,7,-1.0993878841400146,3.5221612453460693,6.516569280077976,6.275578822610314,26.13019253179198,22.81954357166577,-9.713172767078504e-05,0.0995923578739166,0,0,0
2141,77602.16163783146,2010-12-07 10:06:57,2281.111068734505,7,7,-1.0997490882873535,3.51843786239624,6.516569280077976,6.284746714599047,26.13019253179198,22.851816965261715,-9.713172767078504e-05,0.0995923578739166,0,0,0
2142,77632.17666180922,2010-12-07 10:07:27,2311.1260927723997,7,7,-1.0997490882873535,3.514876365661621,6.516569280077976,6.29391461107579,26.13019253179198,22.884057887991183,-9.713172767078504e-05,0.0995923578739166,0,0,0
2143,77662.19158824423,2010-12-07 10:07:57,2341.1410191472623,7,7,-1.099568486213684,3.511153221130371,6.516569280077976,6.303082582967623,26.13019253179198,22.91626583897023,-9.713172767078504e-05,0.0995923578739166,0,0,0
2144,77692.20662441732,2010-12-07 10:08:27,2371.15605531033,7,7,-1.099568486213684,3.507429838180542,6.516569280077976,6.312250576371461,26.13019253179198,22.948439942232625,-9.713172767078504e-05,0.0995923578739166,0,0,0
2145,77722.22166043503,2010-12-07 10:08:57,2401.17109139821,7,7,-1.0997490882873535,3.503544569015503,6.516569280077976,6.321418565673665,26.13019253179198,22.98057893507267,-9.713172767078504e-05,0.0995923578739166,0,0,0
2146,77752.23666159599,2010-12-07 10:09:27,2431.186092494014,7,7,-1.099568486213684,3.499497413635254,6.516569280077976,6.330586614417442,26.13019253179198,23.012681994402392,-0.0001295089750783,0.0995923578739166,0,0,0
2147,77782.25168377424,2010-12-07 10:09:57,2461.2011146722807,7,7,-1.099568486213684,3.495126485824585,6.516569280077976,6.339754609364674,26.13019253179198,23.04474634892816,-0.0001295089750783,0.0995923578739166,0,0,0
2148,77812.2667454859,2010-12-07 10:10:27,2491.216176378912,7,7,-1.099568486213684,3.490593671798706,6.516569280077976,6.348922610838073,26.13019253179198,23.076769873691816,-0.0001295089750783,0.0995923578739166,0,0,0
2149,77842.28187743734,2010-12-07 10:10:57,2521.231308345383,7,7,-1.0993878841400146,3.4855751991271973,6.516569280077976,6.358090651241324,26.13019253179198,23.10874978683972,-0.0001618862152099,0.0995923578739166,0,0,0
2150,77872.29680075459,2010-12-07 10:11:27,2551.246231652613,7,7,-1.099568486213684,3.480232954025269,6.516569280077976,6.36725862833628,26.13019253179198,23.14068169869752,-0.0001618862152099,0.0995923578739166,0,0,0
2151,77902.31193280627,2010-12-07 10:11:57,2581.2613637143195,7,7,-1.0997490882873535,3.47408127784729,6.516569280077976,6.376426485101999,26.13019253179198,23.172560480804155,-0.0001618862152099,0.0995923578739166,0,0,0
2152,77932.32686032398,2010-12-07 10:12:27,2611.2762912220023,7,7,-1.0997490882873535,3.4674439430236816,6.516569280077976,6.385594379220968,26.13019253179198,23.204381840396508,-0.0002266406954731,0.0995923578739166,0,0,0
2153,77962.34226804666,2010-12-07 10:12:57,2641.2916990399185,7,7,-1.099568486213684,3.459835290908813,6.516569280077976,6.394762452835114,26.13019253179198,23.23613894702991,-0.0002590179501567,0.0995923578739166,0,0,0
2154,77992.35689894123,2010-12-07 10:13:27,2671.306329839254,7,7,-1.0997490882873535,3.4514172077178955,6.516569280077976,6.403930324357911,26.13019253179198,23.26782137597793,-0.0002266406954731,0.0995923578739166,0,0,0
2155,78022.37192660314,2010-12-07 10:13:57,2701.3213575011664,7,7,-1.099568486213684,3.441380262374878,6.516569280077976,6.413098339892151,26.13019253179198,23.29941882787929,-0.0002913951757363,0.0995923578739166,0,0,0
2156,78052.38697877605,2010-12-07 10:14:27,2731.336409674074,7,7,-1.099568486213684,3.42940092086792,6.516569280077976,6.422266367169667,26.13019253179198,23.330916726593955,-0.0003885269106831,0.0995923578739166,0,0,0
2157,78082.40201616216,2010-12-07 10:14:57,2761.3514471554217,7,7,-1.099568486213684,3.4149930477142334,6.516569280077976,6.431434299635747,26.13019253179198,23.36229468980532,-0.0004532813909463,0.0995923578739166,0,0,0
2158,78112.41701876171,2010-12-07 10:15:27,2791.3664496597303,7,7,-1.099568486213684,3.397347450256348,6.516569280077976,6.440602275874608,26.13019253179198,23.3935251103033,-0.0004532813909463,0.0995923578739166,0,0,0
2159,78142.43204613788,2010-12-07 10:15:57,2821.381477040944,7,7,-1.099568486213684,3.3741977214813232,6.516569280077976,6.449770271803692,26.13019253179198,23.424570830799567,-0.0007122993702068,0.0995923578739166,0,0,0
2160,78172.44720663538,2010-12-07 10:16:27,2851.3966375434256,7,7,-1.099568486213684,3.344734668731689,6.516569280077976,6.45893831734007,26.13019253179198,23.455377756985,-0.0009065627818927,0.0995923578739166,0,0,0
2161,78202.46212900025,2010-12-07 10:16:57,2881.41155998851,7,7,-1.0997490882873535,3.304910659790039,6.516569280077976,6.468106291097414,26.13019253179198,23.485869231348826,-0.0012303352123126,0.0995923578739166,0,0,0
2162,78232.47747622238,2010-12-07 10:17:27,2911.4269071855733,7,7,-1.099568486213684,3.251650333404541,6.516569280077976,6.477274342206342,26.13019253179198,23.51593862965166,-0.0016512393485754,0.0995923578739166,0,0,0
2163,78262.49218815863,2010-12-07 10:17:57,2941.441619056652,7,7,-1.099568486213684,3.177668571472168,6.516569280077976,6.486442218192317,26.13019253179198,23.54543001806353,-0.0022987842094153,0.0995923578739166,0,0,0
2164,78292.5072194245,2010-12-07 10:18:27,2971.456650317521,7,7,-1.0993878841400146,3.0685575008392334,6.516569280077976,6.49561023894527,26.13019253179198,23.57409690258697,-0.0034967423416674,0.0995923578739166,0,0,0
2165,78322.52221891131,2010-12-07 10:18:57,3001.471649804321,7,7,-1.0997490882873535,2.8822269439697266,6.516569280077976,6.504778231216074,26.13019253179198,23.601468915131484,-0.0064754486083984,0.0995923578739166,0,0,0
2166,78340.83435325831,2010-12-07 10:19:16,3019.783784166368,7,7,-1.0997490882873535,2.699781894683838,6.516569280077976,6.510371664509459,26.13019253179198,23.6171016231446,-0.0086770532652735,0.0995923578739166,0,0,0
2167,78400.84626345061,2010-12-07 10:20:16,60.01455776374285,8,7,0.0,3.401556491851806,6.516569280077976,6.510371664509459,26.13019253179198,23.6171016231446,0.0012950897216796,0.0995923578739166,0,0,0
2168,78401.03208174929,2010-12-07 10:20:16,0.187492563031852,9,7,-1.9243103452026844e-05,3.4013946056365967,6.516569280077976,6.510371665511665,26.13019253179198,23.61710162655349,0.0,0.0978845432400703,0,0,0
2169,78405.86032196437,2010-12-07 10:20:21,5.015732778105517,9,7,0.0008838032954372,3.4096508026123047,6.516570160974943,6.510371665596197,26.13019553248066,23.617101626841023,0.0011008263099938,0.0978845432400703,0,0,0
