Data_Point,Test_Time(s),Date_Time,Step_Time(s),Step_Index,Cycle_Index,Current(A),Voltage(V),Charge_Capacity(Ah),Discharge_Capacity(Ah),Charge_Energy(Wh),Discharge_Energy(Wh),dV/dt(V/s),Internal_Resistance(Ohm),Is_FC_Data,AC_Impedance(Ohm),ACI_Phase_Angle(Deg)
6139,223102.5128818,2010-12-09 02:32:14,30.011816019864817,1,21,0.0,3.4274582862854004,18.45828175012365,18.45098000704479,74.04104859326819,66.88214620039743,0.0007770538213662,0.0947341993451118,0,0,0
6140,223132.52774222076,2010-12-09 02:32:44,60.02667643559165,1,21,0.0,3.451579093933105,18.45828175012365,18.45098000704479,74.04104859326819,66.88214620039743,0.0005504131549969,0.0947341993451118,0,0,0
6141,223162.54285572623,2010-12-09 02:33:14,90.04178996117261,1,21,0.0,3.470034122467041,18.45828175012365,18.45098000704479,74.04104859326819,66.88214620039743,0.0004856586456298,0.0947341993451118,0,0,0
6142,223192.51122773736,2010-12-09 02:33:44,120.01016195725518,1,21,0.0,3.484603881835937,18.45828175012365,18.45098000704479,74.04104859326819,66.88214620039743,0.0003885269106831,0.0947341993451118,0,0,0
6143,223222.53341847248,2010-12-09 02:34:14,30.015219404055475,2,21,0.5501165986061096,3.639690399169922,18.462869118910103,18.45098000704479,74.0575957939776,66.88214620039743,0.0014569759368896,0.0947341993451118,0,0,0
6144,223252.54832527364,2010-12-09 02:34:44,60.03012622024808,2,21,0.5501165986061096,3.6817805767059326,18.46745637538724,18.45098000704479,74.07439476252338,66.88214620039743,0.0009065627818927,0.0947341993451118,0,0,0
6145,223282.5634730244,2010-12-09 02:35:14,90.04527397099706,2,21,0.550297200679779,3.711729526519776,18.472043685010625,18.45098000704479,74.09135616108283,66.88214620039743,0.0006799221155233,0.0947341993451118,0,0,0
6146,223312.5784012689,2010-12-09 02:35:45,120.0602022155132,2,21,0.550297200679779,3.73520302772522,18.476630931477825,18.45098000704479,74.10843844143535,66.88214620039743,0.0006151676061563,0.0947341993451118,0,0,0
6147,223342.593594162,2010-12-09 02:36:15,150.07539509355976,2,21,0.5501165986061096,3.7531721591949454,18.481218280904567,18.45098000704479,74.12561574170088,66.88214620039743,0.0004208564641885,0.0947341993451118,0,0,0
6148,223372.6088560969,2010-12-09 02:36:45,180.09065708358878,2,21,0.5499359965324402,3.766446828842163,18.48580556799592,18.45098000704479,74.14286502548687,66.88214620039743,0.0002590179501567,0.0947341993451118,0,0,0
6149,223402.623739981,2010-12-09 02:37:15,210.10554098275324,2,21,0.5501165986061096,3.775350570678711,18.490392794611505,18.45098000704479,74.16016421569837,66.88214620039743,0.0002266406954731,0.0947341993451118,0,0,0
6150,223432.63866769412,2010-12-09 02:37:45,240.12046861574763,2,21,0.5501165986061096,3.7811784744262695,18.494980095274677,18.45098000704479,74.17749721247343,66.88214620039743,6.47544875391759e-05,0.0947341993451118,0,0,0
6151,223462.65380324452,2010-12-09 02:38:15,270.13560417114894,2,21,0.550297200679779,3.7865207195281982,18.49956726833882,18.45098000704479,74.19485506826021,66.88214620039743,9.713172767078504e-05,0.0947341993451118,0,0,0
6152,223492.66935843424,2010-12-09 02:38:45,300.15115943598107,2,21,0.5501165986061096,3.791053533554077,18.50415460986005,18.45098000704479,74.21223593682035,66.88214620039743,9.713172767078504e-05,0.0947341993451118,0,0,0
6153,223522.68419873487,2010-12-09 02:39:15,330.16599968652764,2,21,0.5501165986061096,3.795586347579956,18.50874178820848,18.45098000704479,74.2296369778996,66.88214620039743,0.0001295089750783,0.0947341993451118,0,0,0
6154,223552.69891714724,2010-12-09 02:39:45,360.1807180938721,2,21,0.5501165986061096,3.799795389175415,18.513328860324386,18.45098000704479,74.24705739279298,66.88214620039743,9.713172767078504e-05,0.0947341993451118,0,0,0
6155,223582.71401288852,2010-12-09 02:40:15,390.1958138351976,2,21,0.5501165986061096,3.803842544555664,18.517915354016747,18.45098000704479,74.2644944629853,66.88214620039743,9.713172767078504e-05,0.0947341993451118,0,0,0
6156,223612.7323806873,2010-12-09 02:40:45,420.21418172413655,2,21,0.550297200679779,3.807889699935913,18.522502590463947,18.45098000704479,74.28195264239889,66.88214620039743,0.0001295089750783,0.0947341993451118,0,0,0
6157,223642.7442326115,2010-12-09 02:41:15,450.2260336333106,2,21,0.550297200679779,3.811774969100952,18.527089457139887,18.45098000704479,74.29942732080316,66.88214620039743,0.0001295089750783,0.0947341993451118,0,0,0
6158,223672.75922601315,2010-12-09 02:41:45,480.2410270349678,2,21,0.5501165986061096,3.8153364658355713,18.53167670647724,18.45098000704479,74.31692090430307,66.88214620039743,9.713172767078504e-05,0.0947341993451118,0,0,0
6159,223702.7742861108,2010-12-09 02:42:15,510.2560870423709,2,21,0.5501165986061096,3.8190598487854,18.53626397228792,18.45098000704479,74.33443162864185,66.88214620039743,9.713172767078504e-05,0.0947341993451118,0,0,0
6160,223732.7893556068,2010-12-09 02:42:45,540.2711565534233,2,21,0.5501165986061096,3.82262134552002,18.54085124569882,18.45098000704479,74.35195914315803,66.88214620039743,6.47544875391759e-05,0.0947341993451118,0,0,0
6161,223762.80461076484,2010-12-09 02:43:15,570.2864117816258,2,21,0.5501165986061096,3.826182842254639,18.54543855578203,18.45098000704479,74.36950337994426,66.88214620039743,6.47544875391759e-05,0.0947341993451118,0,0,0
6162,223792.8195380219,2010-12-09 02:43:45,600.3013389534726,2,21,0.550297200679779,3.829906225204468,18.55002576492981,18.45098000704479,74.38706386443141,66.88214620039743,6.47544875391759e-05,0.0947341993451118,0,0,0
6163,223822.8347330603,2010-12-09 02:44:15,630.3165339918953,2,21,0.550297200679779,3.8336293697357178,18.554613100770947,18.45098000704479,74.40464148931264,66.88214620039743,0.0001294612884521,0.0947341993451118,0,0,0
6164,223852.850071666,2010-12-09 02:44:45,660.3318725975794,2,21,0.5501165986061096,3.837190866470337,18.55920036774521,18.45098000704479,74.42223555035665,66.88214620039743,9.713172767078504e-05,0.0947341993451118,0,0,0
6165,223882.8500922183,2010-12-09 02:45:15,690.3318931548893,2,21,0.550297200679779,3.841076135635376,18.563785351128832,18.45098000704479,74.43983769551734,66.88214620039743,9.713172767078504e-05,0.0947341993451118,0,0,0
6166,223912.86420209127,2010-12-09 02:45:45,720.3460031131315,2,21,0.5501165986061096,3.844637632369995,18.568372458474524,18.45098000704479,74.45746495298728,66.88214620039743,9.713172767078504e-05,0.0947341993451118,0,0,0
6167,223942.87922920688,2010-12-09 02:46:15,750.3610302086346,2,21,0.550297200679779,3.848361015319824,18.57295974550532,18.45098000704479,74.47510988247755,66.88214620039743,9.713172767078504e-05,0.0947341993451118,0,0,0
6168,223972.8942394805,2010-12-09 02:46:45,780.3760404121025,2,21,0.550297200679779,3.8519225120544434,18.57754699700644,18.45098000704479,74.49277146139475,66.88214620039743,9.713172767078504e-05,0.0947341993451118,0,0,0
6169,224002.90931914683,2010-12-09 02:47:15,810.391120078426,2,21,0.5501165986061096,3.8554840087890634,18.5821342240768,18.45098000704479,74.51044961377593,66.88214620039743,6.47544875391759e-05,0.0947341993451118,0,0,0
6170,224032.92437137992,2010-12-09 02:47:45,840.4061723114829,2,21,0.5504778623580933,3.859207391738892,18.586721468861228,18.45098000704479,74.52814434939856,66.88214620039743,0.0001295089750783,0.0947341993451118,0,0,0
6171,224062.93958092443,2010-12-09 02:48:15,870.4213818610157,2,21,0.5501165986061096,3.862607002258301,18.59130870292221,18.45098000704479,74.54585521976396,66.88214620039743,6.47544875391759e-05,0.0947341993451118,0,0,0
6172,224092.95469077583,2010-12-09 02:48:45,900.4364917074411,2,21,0.550297200679779,3.86616849899292,18.595895986977023,18.45098000704479,74.56358213111046,66.88214620039743,9.713172767078504e-05,0.0947341993451118,0,0,0
6173,224122.9697692292,2010-12-09 02:49:15,930.4515701657588,2,21,0.5501165986061096,3.869244337081909,18.600483265856287,18.45098000704479,74.58132447040305,66.88214620039743,6.47544875391759e-05,0.0947341993451118,0,0,0
6174,224152.9847342151,2010-12-09 02:49:45,960.4665351767668,2,21,0.550297200679779,3.872482061386109,18.60507055171395,18.45098000704479,74.59908177929775,66.88214620039743,6.47544875391759e-05,0.0947341993451118,0,0,0
6175,224182.99967841932,2010-12-09 02:50:15,990.4814793509232,2,21,0.550297200679779,3.875719785690308,18.60965779657832,18.45098000704479,74.61685330142997,66.88214620039743,6.47544875391759e-05,0.0947341993451118,0,0,0
6176,224213.0147302664,2010-12-09 02:50:45,1020.4965311980196,2,21,0.5501165986061096,3.878633737564087,18.61424497092692,18.45098000704479,74.63463836704086,66.88214620039743,6.47544875391759e-05,0.0947341993451118,0,0,0
6177,224243.0298230454,2010-12-09 02:51:15,1050.5116239819858,2,21,0.550297200679779,3.881547689437866,18.61883218131018,18.45098000704479,74.65243672143767,66.88214620039743,0.0001295089750783,0.0947341993451118,0,0,0
6178,224273.04486112823,2010-12-09 02:51:45,1080.526662079868,2,21,0.5501165986061096,3.883975982666016,18.623419356072464,18.45098000704479,74.67024739193859,66.88214620039743,3.237724376958795e-05,0.0947341993451118,0,0,0
6179,224303.05993177716,2010-12-09 02:52:15,1110.5417327237394,2,21,0.5501165986061096,3.886566162109375,18.62800664662081,18.45098000704479,74.68807024752127,66.88214620039743,9.713172767078504e-05,0.0947341993451118,0,0,0
6180,224333.07512276544,2010-12-09 02:52:45,1140.556923697046,2,21,0.550297200679779,3.888994455337525,18.632594022120117,18.45098000704479,74.70590456009134,66.88214620039743,6.47544875391759e-05,0.0947341993451118,0,0,0
6181,224363.09045011312,2010-12-09 02:53:15,1170.5722510597525,2,21,0.5501165986061096,3.890937089920044,18.63718133385708,18.45098000704479,74.72374910939068,66.88214620039743,6.47544875391759e-05,0.0947341993451118,0,0,0
6182,224393.10530288483,2010-12-09 02:53:45,1200.5871038314574,2,21,0.550297200679779,3.893203496932984,18.641768667292517,18.45098000704479,74.74160371038543,66.88214620039743,6.47544875391759e-05,0.0947341993451118,0,0,0
6183,224423.1202706928,2010-12-09 02:54:15,1230.6020716444382,2,21,0.5501165986061096,3.894984245300293,18.646356011661418,18.45098000704479,74.75946767667372,66.88214620039743,6.47544875391759e-05,0.0947341993451118,0,0,0
6184,224453.13590177632,2010-12-09 02:54:45,1260.6177027981169,2,21,0.550297200679779,3.8970887660980233,18.650943488882728,18.45098000704479,74.77734073769918,66.88214620039743,9.713172767078504e-05,0.0947341993451118,0,0,0
6185,224483.1503581867,2010-12-09 02:55:15,1290.6321591333049,2,21,0.5501165986061096,3.898869514465332,18.655530754369067,18.45098000704479,74.79522152999833,66.88214620039743,6.47544875391759e-05,0.0947341993451118,0,0,0
6186,224513.16539243492,2010-12-09 02:55:45,1320.64719336657,2,21,0.550297200679779,3.9006502628326416,18.66011807813228,18.45098000704479,74.8131107250521,66.88214620039743,6.47544875391759e-05,0.0947341993451118,0,0,0
6187,224543.18045158527,2010-12-09 02:56:15,1350.6622525218525,2,21,0.5501165986061096,3.9021072387695312,18.664705400205072,18.45098000704479,74.83100788712301,66.88214620039743,0.0,0.0947341993451118,0,0,0
6188,224573.19553626908,2010-12-09 02:56:45,1380.6773372006494,2,21,0.550297200679779,3.904049873352051,18.669292693787444,18.45098000704479,74.84891265129843,66.88214620039743,6.47544875391759e-05,0.0947341993451118,0,0,0
6189,224603.2105937953,2010-12-09 02:57:15,1410.692394726878,2,21,0.550297200679779,3.905506849288941,18.67388009229255,18.45098000704479,74.86682541706426,66.88214620039743,6.47544875391759e-05,0.0947341993451118,0,0,0
6190,224633.22568492516,2010-12-09 02:57:45,1440.7074858567282,2,21,0.5501165986061096,3.90712571144104,18.67846749957432,18.45098000704479,74.88474565941883,66.88214620039743,3.237724376958795e-05,0.0947341993451118,0,0,0
6191,224663.2407067124,2010-12-09 02:58:15,1470.7225076640718,2,21,0.550297200679779,3.90874457359314,18.68305487356648,18.45098000704479,74.9026731740746,66.88214620039743,3.237724376958795e-05,0.0947341993451118,0,0,0
6192,224693.25585225268,2010-12-09 02:58:45,1500.73765320432,2,21,0.550297200679779,3.9103634357452393,18.68764218614269,18.45098000704479,74.92060780919684,66.88214620039743,3.237724376958795e-05,0.0947341993451118,0,0,0
6193,224723.27105700027,2010-12-09 02:59:15,1530.752857956916,2,21,0.5501165986061096,3.911982297897339,18.692229573866697,18.45098000704479,74.93855002792873,66.88214620039743,3.237724376958795e-05,0.0947341993451118,0,0,0
6194,224753.2860147482,2010-12-09 02:59:45,1560.7678156848003,2,21,0.5501165986061096,3.9136011600494394,18.69681701499282,18.45098000704479,74.95649984301691,66.88214620039743,3.237724376958795e-05,0.0947341993451118,0,0,0
6195,224783.30098982927,2010-12-09 03:00:15,1590.7827907809046,2,21,0.5501165986061096,3.915057897567749,18.70140431108078,18.45098000704479,74.9744563593416,66.88214620039743,3.237724376958795e-05,0.0947341993451118,0,0,0
6196,224813.316047957,2010-12-09 03:00:45,1620.7978489687798,2,21,0.550297200679779,3.9168386459350586,18.705991684499324,18.45098000704479,74.992420298509,66.88214620039743,3.237724376958795e-05,0.0947341993451118,0,0,0
6197,224843.33454174924,2010-12-09 03:01:15,1650.8163427710497,2,21,0.5501165986061096,3.918295621871948,18.710579557369883,18.45098000704479,75.01039353743157,66.88214620039743,3.237724376958795e-05,0.0947341993451118,0,0,0
6198,224873.346176498,2010-12-09 03:01:45,1680.827977444641,2,21,0.5501165986061096,3.919914484024048,18.71516636663554,18.45098000704479,75.02836987839157,66.88214620039743,6.47544875391759e-05,0.0947341993451118,0,0,0
6199,224903.36123281624,2010-12-09 03:02:15,1710.8430337628638,2,21,0.5499359965324402,3.9213714599609375,18.719753728976524,18.45098000704479,75.04635564767943,66.88214620039743,0.0,0.0947341993451118,0,0,0
6200,224933.3763217807,2010-12-09 03:02:45,1740.8581227273255,2,21,0.550297200679779,3.923152208328247,18.72434107392273,18.45098000704479,75.06434867355254,66.88214620039743,6.47544875391759e-05,0.0947341993451118,0,0,0
6201,224963.39137791848,2010-12-09 03:03:15,1770.8731788701114,2,21,0.550297200679779,3.9247710704803462,18.72892846566579,18.45098000704479,75.0823492144555,66.88214620039743,6.47544875391759e-05,0.0947341993451118,0,0,0
6202,224993.40663953256,2010-12-09 03:03:45,1800.8884404842047,2,21,0.550297200679779,3.9263899326324463,18.73351587232725,18.45098000704479,75.10035710906662,66.88214620039743,9.713172767078504e-05,0.0947341993451118,0,0,0
6203,225023.42154969712,2010-12-09 03:04:15,1830.9033506437167,2,21,0.550297200679779,3.927846908569336,18.73810326122483,18.45098000704479,75.11837226056515,66.88214620039743,3.237724376958795e-05,0.0947341993451118,0,0,0
6204,225053.4367628356,2010-12-09 03:04:45,1860.9185637821813,2,21,0.5501165986061096,3.9296276569366455,18.74269059337995,18.45098000704479,75.13639452642157,66.88214620039743,6.47544875391759e-05,0.0947341993451118,0,0,0
6205,225083.45179910387,2010-12-09 03:05:15,1890.9336000354729,2,21,0.5501165986061096,3.931084632873535,18.7472779115134,18.45098000704479,75.15442415930488,66.88214620039743,3.237724376958795e-05,0.0947341993451118,0,0,0
6206,225113.46675243584,2010-12-09 03:05:45,1920.94855347268,2,21,0.550297200679779,3.9328653812408447,18.75186526506296,18.45098000704479,75.17246130404628,66.88214620039743,9.713172767078504e-05,0.0947341993451118,0,0,0
6207,225143.48190414644,2010-12-09 03:06:15,1950.9637050980707,2,21,0.5501165986061096,3.934160470962525,18.756452669810315,18.45098000704479,75.19050611984385,66.88214620039743,0.0,0.0947341993451118,0,0,0
6208,225173.496840055,2010-12-09 03:06:45,1980.978641071821,2,21,0.550297200679779,3.935941219329834,18.76104003426888,18.45098000704479,75.20855826912224,66.88214620039743,3.237724376958795e-05,0.0947341993451118,0,0,0
6209,225203.51192093937,2010-12-09 03:07:15,2010.9937218809885,2,21,0.5499359965324402,3.9375600814819336,18.765627452757418,18.45098000704479,75.22661792322644,66.88214620039743,0.0,0.0947341993451118,0,0,0
6210,225233.52709177256,2010-12-09 03:07:45,2041.008892704152,2,21,0.550297200679779,3.939340829849243,18.77021471303988,18.45098000704479,75.24468447558645,66.88214620039743,9.713172767078504e-05,0.0947341993451118,0,0,0
6211,225263.54201890933,2010-12-09 03:08:16,2071.023819855949,2,21,0.550297200679779,3.940959692001343,18.77480202313887,18.45098000704479,75.26275871525905,66.88214620039743,6.47544875391759e-05,0.0947341993451118,0,0,0
6212,225293.5573676151,2010-12-09 03:08:46,2101.0391686169046,2,21,0.550297200679779,3.9425785541534415,18.77938944845432,18.45098000704479,75.28084085726766,66.88214620039743,6.47544875391759e-05,0.0947341993451118,0,0,0
6213,225323.5725022182,2010-12-09 03:09:16,2131.054303219936,2,21,0.5501165986061096,3.944035530090332,18.783976778522145,18.45098000704479,75.29893017622925,66.88214620039743,0.0,0.0947341993451118,0,0,0
6214,225353.5875857742,2010-12-09 03:09:46,2161.069386770926,2,21,0.5501165986061096,3.945654392242432,18.788564142105557,18.45098000704479,75.31702719682967,66.88214620039743,-3.237724376958795e-05,0.0947341993451118,0,0,0
6215,225383.6022747583,2010-12-09 03:10:16,2191.08407570994,2,21,0.5501165986061096,3.947435140609741,18.793151503024568,18.45098000704479,75.33513176478085,66.88214620039743,6.47544875391759e-05,0.0947341993451118,0,0,0
6216,225413.6173039791,2010-12-09 03:10:46,2221.099104920707,2,21,0.5497553944587708,3.948892116546631,18.79773877618345,18.45098000704479,75.35324356405484,66.88214620039743,0.0,0.0947341993451118,0,0,0
6217,225443.63242396576,2010-12-09 03:11:16,2251.114224912378,2,21,0.5501165986061096,3.950672864913941,18.802326052322265,18.45098000704479,75.37136297130996,66.88214620039743,3.237724376958795e-05,0.0947341993451118,0,0,0
6218,225473.6476092048,2010-12-09 03:11:46,2281.129410156428,2,21,0.5501165986061096,3.95229172706604,18.80691334477979,18.45098000704479,75.38949009430803,66.88214620039743,3.237724376958795e-05,0.0947341993451118,0,0,0
6219,225503.6625347275,2010-12-09 03:12:16,2311.144335684184,2,21,0.5501165986061096,3.95423436164856,18.811500564300257,18.45098000704479,75.40762466060052,66.88214620039743,3.237724376958795e-05,0.0947341993451118,0,0,0
6220,225533.6775590361,2010-12-09 03:12:46,2341.159360052901,2,21,0.550297200679779,3.955853223800659,18.81608785931465,18.45098000704479,75.42576724783825,66.88214620039743,6.47544875391759e-05,0.0947341993451118,0,0,0
6221,225563.69617028063,2010-12-09 03:13:16,2371.177971317471,2,21,0.550297200679779,3.9576339721679688,18.82067574445285,18.45098000704479,75.44392000353184,66.88214620039743,6.47544875391759e-05,0.0947341993451118,0,0,0
6222,225593.70799459613,2010-12-09 03:13:46,2401.189795597892,2,21,0.5501165986061096,3.959252834320069,18.825262599969957,18.45098000704479,75.4620765426401,66.88214620039743,3.237724376958795e-05,0.0947341993451118,0,0,0
6223,225623.72300824817,2010-12-09 03:14:16,2431.2048091797665,2,21,0.5501165986061096,3.961033582687378,18.829849984647822,18.45098000704479,75.48024305382992,66.88214620039743,6.47544875391759e-05,0.0947341993451118,0,0,0
6224,225653.73797396093,2010-12-09 03:14:46,2461.219774902546,2,21,0.5501165986061096,3.9626524448394775,18.834437336765017,18.45098000704479,75.49841739573864,66.88214620039743,3.237724376958795e-05,0.0947341993451118,0,0,0
6225,225683.75295555824,2010-12-09 03:15:16,2491.234756509853,2,21,0.5501165986061096,3.964433193206787,18.839024656238763,18.45098000704479,75.5165995921764,66.88214620039743,3.237724376958795e-05,0.0947341993451118,0,0,0
6226,225713.7680037412,2010-12-09 03:15:46,2521.249804692832,2,21,0.550297200679779,3.9662139415740967,18.84361194720105,18.45098000704479,75.534789752672,66.88214620039743,6.47544875391759e-05,0.0947341993451118,0,0,0
6227,225743.78307569333,2010-12-09 03:16:16,2551.2648766399466,2,21,0.5501165986061096,3.9679946899414062,18.84819935181644,18.45098000704479,75.55298850156974,66.88214620039743,6.47544875391759e-05,0.0947341993451118,0,0,0
6228,225773.798138217,2010-12-09 03:16:46,2581.279939153586,2,21,0.550297200679779,3.969775438308716,18.852786636519028,18.45098000704479,75.57119491899188,66.88214620039743,3.237724376958795e-05,0.0947341993451118,0,0,0
6229,225803.81665011428,2010-12-09 03:17:16,2611.2984511812087,2,21,0.550297200679779,3.9715561866760254,18.857374510124053,18.45098000704479,75.58941191574829,66.88214620039743,6.47544875391759e-05,0.0947341993451118,0,0,0
6230,225833.8283450879,2010-12-09 03:17:46,2641.3101461548545,2,21,0.550297200679779,3.973498821258545,18.86196144417305,18.45098000704479,75.60763355217632,66.88214620039743,9.713172767078504e-05,0.0947341993451118,0,0,0
6231,225863.8434250149,2010-12-09 03:18:16,2671.325226051752,2,21,0.5501165986061096,3.9749557971954346,18.86654885488,18.45098000704479,75.62586547741262,66.88214620039743,0.0,0.0947341993451118,0,0,0
6232,225893.8586119983,2010-12-09 03:18:46,2701.3404130200925,2,21,0.550297200679779,3.977060317993164,18.87113628434187,18.45098000704479,75.64410593300214,66.88214620039743,0.0,0.0947341993451118,0,0,0
6233,225923.8735489695,2010-12-09 03:19:16,2731.3553499211503,2,21,0.5501165986061096,3.979002952575684,18.87572365794966,18.45098000704479,75.66235427229111,66.88214620039743,6.47544875391759e-05,0.0947341993451118,0,0,0
6234,225953.8886056386,2010-12-09 03:19:46,2761.3704066654327,2,21,0.550297200679779,3.980945587158203,18.88031092287636,18.45098000704479,75.68061126529219,66.88214620039743,6.47544875391759e-05,0.0947341993451118,0,0,0
6235,225983.9037145878,2010-12-09 03:20:16,2791.3855155344263,2,21,0.5501165986061096,3.9827263355255127,18.88489818102858,18.45098000704479,75.69887688152258,66.88214620039743,3.237724376958795e-05,0.0947341993451118,0,0,0
6236,226013.91879111636,2010-12-09 03:20:46,2821.4005920479035,2,21,0.550297200679779,3.984830856323242,18.88948545300847,18.45098000704479,75.71715126943374,66.88214620039743,6.47544875391759e-05,0.0947341993451118,0,0,0
6237,226043.93375525012,2010-12-09 03:21:16,2851.415556191754,2,21,0.5501165986061096,3.986611604690552,18.89407277605584,18.45098000704479,75.73543473714429,66.88214620039743,3.237724376958795e-05,0.0947341993451118,0,0,0
6238,226073.94879459112,2010-12-09 03:21:46,2881.4305955427544,2,21,0.5501165986061096,3.988716125488281,18.8986600599507,18.45098000704479,75.75372697217091,66.88214620039743,9.713172767078504e-05,0.0947341993451118,0,0,0
6239,226103.96386332024,2010-12-09 03:22:16,2911.4456642417863,2,21,0.5501165986061096,3.990496873855591,18.903247329193675,18.45098000704479,75.77202817939568,66.88214620039743,3.237724376958795e-05,0.0947341993451118,0,0,0
6240,226133.97892592408,2010-12-09 03:22:46,2941.460726855676,2,21,0.550297200679779,3.99260139465332,18.90783456152733,18.45098000704479,75.79033833211199,66.88214620039743,6.47544875391759e-05,0.0947341993451118,0,0,0
6241,226163.9940213296,2010-12-09 03:23:16,2971.475822281215,2,21,0.5499359965324402,3.9945437908172607,18.912421825525996,18.45098000704479,75.80865785408638,66.88214620039743,6.47544875391759e-05,0.0947341993451118,0,0,0
6242,226194.0091699876,2010-12-09 03:23:46,3001.490970919172,2,21,0.550297200679779,3.9966483116149902,18.91700915176793,18.45098000704479,75.82698699731547,66.88214620039743,9.713172767078504e-05,0.0947341993451118,0,0,0
6243,226224.024194647,2010-12-09 03:24:16,3031.505995648788,2,21,0.5501165986061096,3.9984290599823,18.921596404941663,18.45098000704479,75.84532528675547,66.88214620039743,0.0,0.0947341993451118,0,0,0
6244,226254.03941246212,2010-12-09 03:24:46,3061.521213408752,2,21,0.5499359965324402,4.000695705413818,18.92618367726008,18.45098000704479,75.8636732234606,66.88214620039743,3.24249267578125e-05,0.0947341993451118,0,0,0
6245,226284.05459492427,2010-12-09 03:25:16,3091.536395870879,2,21,0.5501165986061096,4.002962112426758,18.93077093077832,18.45098000704479,75.88203074228826,66.88214620039743,9.71794142969884e-05,0.0947341993451118,0,0,0
6246,226314.06931031408,2010-12-09 03:25:46,3121.551111270739,2,21,0.5501165986061096,4.005066394805908,18.93535811409427,18.45098000704479,75.90039777027329,66.88214620039743,3.23295607813634e-05,0.0947341993451118,0,0,0
6247,226344.08437668736,2010-12-09 03:26:16,3151.566177724183,2,21,0.5501165986061096,4.007332801818848,18.939945349282524,18.45098000704479,75.91877502168188,66.88214620039743,6.47544875391759e-05,0.0947341993451118,0,0,0
6248,226374.0996503063,2010-12-09 03:26:46,3181.581451348163,2,21,0.5501165986061096,4.009437561035156,18.944532618262645,18.45098000704479,75.93716244529479,66.88214620039743,6.47544875391759e-05,0.0947341993451118,0,0,0
6249,226404.11450570452,2010-12-09 03:27:16,3211.596306656179,2,21,0.550297200679779,4.011865615844727,18.9491198043352,18.45098000704479,75.95555975918464,66.88214620039743,9.70840483205393e-05,0.0947341993451118,0,0,0
6250,226434.12970503868,2010-12-09 03:27:46,3241.611505970241,2,21,0.5501165986061096,4.013970375061035,18.9537071255292,18.45098000704479,75.97396801789615,66.88214620039743,3.24249267578125e-05,0.0947341993451118,0,0,0
6251,226464.14465605983,2010-12-09 03:28:16,3271.6264570114863,2,21,0.5501165986061096,4.016236782073975,18.958294398385828,18.45098000704479,75.99238647171325,66.88214620039743,6.47544875391759e-05,0.0947341993451118,0,0,0
6252,226494.15975749036,2010-12-09 03:28:46,3301.6415584369565,2,21,0.550297200679779,4.018664836883545,18.96288168241076,18.45098000704479,76.01081551968939,66.88214620039743,9.70840483205393e-05,0.0947341993451118,0,0,0
6253,226524.17482205408,2010-12-09 03:29:16,3331.656622990673,2,21,0.550297200679779,4.020931243896484,18.967469019096303,18.45098000704479,76.02925531796679,66.88214620039743,3.23295607813634e-05,0.0947341993451118,0,0,0
6254,226554.19007925212,2010-12-09 03:29:46,3361.671880263965,2,21,0.5501165986061096,4.023359775543213,18.97205629798593,18.45098000704479,76.04770568414871,66.88214620039743,6.47544875391759e-05,0.0947341993451118,0,0,0
6255,226584.20489509692,2010-12-09 03:30:16,3391.686696028579,2,21,0.5501165986061096,4.025464057922363,18.976643527387026,18.45098000704479,76.06616674600355,66.88214620039743,3.23295607813634e-05,0.0947341993451118,0,0,0
6256,226614.2199578011,2010-12-09 03:30:46,3421.70175874773,2,21,0.5501165986061096,4.028216361999512,18.981230755405303,18.45098000704479,76.0846388216454,66.88214620039743,6.47544875391759e-05,0.0947341993451118,0,0,0
6257,226644.23555602785,2010-12-09 03:31:16,3451.717356964446,2,21,0.550297200679779,4.030482769012451,18.98581812448409,18.45098000704479,76.10312248625394,66.88214620039743,6.47544875391759e-05,0.0947341993451118,0,0,0
6258,226674.250112798,2010-12-09 03:31:46,3481.7319137395752,2,21,0.550297200679779,4.0330729484558105,18.990405289333943,18.45098000704479,76.12161645668158,66.88214620039743,9.71794142969884e-05,0.0947341993451118,0,0,0
6259,226704.26528885416,2010-12-09 03:32:16,3511.747089805786,2,21,0.5501165986061096,4.035338878631592,18.994992538748008,18.45098000704479,76.14012199645909,66.88214620039743,6.47544875391759e-05,0.0947341993451118,0,0,0
6260,226734.28022216627,2010-12-09 03:32:46,3541.7620231179126,2,21,0.550297200679779,4.037929058074951,18.99957981786145,18.45098000704479,76.15863896921756,66.88214620039743,6.47544875391759e-05,0.0947341993451118,0,0,0
6261,226764.2986791018,2010-12-09 03:33:16,3571.7804801236152,2,21,0.5501165986061096,4.040195465087891,19.004167618975163,18.45098000704479,76.17716942551047,66.88214620039743,6.47544875391759e-05,0.0947341993451118,0,0,0
6262,226794.31054759727,2010-12-09 03:33:46,3601.792348548889,2,21,0.5501165986061096,4.042947769165039,19.008754398625165,18.45098000704479,76.19570724959482,66.88214620039743,9.71794142969884e-05,0.0947341993451118,0,0,0
6263,226824.3254652153,2010-12-09 03:34:16,3631.807266136888,2,21,0.5504778623580933,4.045537948608398,19.01334167758148,18.45098000704479,76.21425878569335,66.88214620039743,9.71794142969884e-05,0.0947341993451118,0,0,0
6264,226854.34049311283,2010-12-09 03:34:46,3661.822294059448,2,21,0.5501165986061096,4.047966003417969,19.01792893051785,18.45098000704479,76.2328220451535,66.88214620039743,9.70840483205393e-05,0.0947341993451118,0,0,0
6265,226884.3555805585,2010-12-09 03:35:16,3691.83738150513,2,21,0.5501165986061096,4.050556182861328,19.02251624645079,18.45098000704479,76.25139755279541,66.88214620039743,3.23295607813634e-05,0.0947341993451118,0,0,0
6266,226914.37065427,2010-12-09 03:35:46,3721.852455216635,2,21,0.5501165986061096,4.053308486938477,19.027103554838515,18.45098000704479,76.2699850610366,66.88214620039743,9.71794142969884e-05,0.0947341993451118,0,0,0
6267,226944.38567885928,2010-12-09 03:36:16,3751.8674798109146,2,21,0.550297200679779,4.056060314178467,19.031690777625084,18.45098000704479,76.28858440095334,66.88214620039743,9.70840483205393e-05,0.0947341993451118,0,0,0
6268,226974.4007524756,2010-12-09 03:36:46,3781.882553397107,2,21,0.5501165986061096,4.058650493621826,19.036278045375585,18.45098000704479,76.30719620178463,66.88214620039743,6.47544875391759e-05,0.0947341993451118,0,0,0
6269,227004.41582020212,2010-12-09 03:37:16,3811.897621148782,2,21,0.550297200679779,4.0612406730651855,19.04086544118537,18.45098000704479,76.32582077868018,66.88214620039743,9.70840483205393e-05,0.0947341993451118,0,0,0
6270,227034.4308829915,2010-12-09 03:37:46,3841.91268394312,2,21,0.550297200679779,4.063992977142334,19.045452746910986,18.45098000704479,76.34445725202337,66.88214620039743,6.47544875391759e-05,0.0947341993451118,0,0,0
6271,227064.44595484337,2010-12-09 03:38:16,3871.9277557649225,2,21,0.550297200679779,4.066744804382324,19.05004005735121,18.45098000704479,76.36310629742412,66.88214620039743,9.70840483205393e-05,0.0947341993451118,0,0,0
6272,227094.46111892472,2010-12-09 03:38:46,3901.9429198563344,2,21,0.5501165986061096,4.069497108459473,19.054627444843728,18.45098000704479,76.3817682636062,66.88214620039743,6.47544875391759e-05,0.0947341993451118,0,0,0
6273,227124.4761674285,2010-12-09 03:39:16,3931.957968440311,2,21,0.550297200679779,4.072248935699463,19.05921474715302,18.45098000704479,76.40044264638796,66.88214620039743,6.47544875391759e-05,0.0947341993451118,0,0,0
6274,227154.49115165236,2010-12-09 03:39:46,3961.972952598968,2,21,0.550297200679779,4.075162887573242,19.06380205480316,18.45098000704479,76.41913001567714,66.88214620039743,9.70840483205393e-05,0.0947341993451118,0,0,0
6275,227184.50621309836,2010-12-09 03:40:17,3991.9880140449504,2,21,0.5501165986061096,4.077915191650391,19.068389383073505,18.45098000704479,76.43783049716944,66.88214620039743,6.47544875391759e-05,0.0947341993451118,0,0,0
6276,227214.5214438005,2010-12-09 03:40:47,4022.003244722059,2,21,0.550297200679779,4.08082914352417,19.072976784288272,18.45098000704479,76.45654447621553,66.88214620039743,3.24249267578125e-05,0.0947341993451118,0,0,0
6277,227244.53659162644,2010-12-09 03:41:17,4052.01839257807,2,21,0.5501165986061096,4.083743095397949,19.077564129917025,18.45098000704479,76.47527137181234,66.88214620039743,9.71794142969884e-05,0.0947341993451118,0,0,0
6278,227274.5514175764,2010-12-09 03:41:47,4082.03321850798,2,21,0.550297200679779,4.086818695068359,19.08215141562385,18.45098000704479,76.49401147966337,66.88214620039743,9.70840483205393e-05,0.0947341993451118,0,0,0
6279,227304.5665233126,2010-12-09 03:42:17,4112.048324259215,2,21,0.550297200679779,4.089732646942139,19.086738716222168,18.45098000704479,76.51276509359339,66.88214620039743,0.0001295089750783,0.0947341993451118,0,0,0
6280,227334.58167689783,2010-12-09 03:42:47,4142.063477844482,2,21,0.550297200679779,4.092646598815918,19.091326083043025,18.45098000704479,76.53153266909217,66.88214620039743,6.47544875391759e-05,0.0947341993451118,0,0,0
6281,227364.5966195633,2010-12-09 03:43:17,4172.078420509884,2,21,0.5501165986061096,4.095722675323486,19.09591334246822,18.45098000704479,76.55031350276967,66.88214620039743,9.71794142969884e-05,0.0947341993451118,0,0,0
6282,227394.6119335176,2010-12-09 03:43:47,4202.093734539412,2,21,0.5501165986061096,4.098636627197266,19.100500710579503,18.45098000704479,76.56910863294496,66.88214620039743,9.71794142969884e-05,0.0947341993451118,0,0,0
6283,227424.6269129545,2010-12-09 03:44:17,4232.108713886093,2,21,0.5501165986061096,4.101712226867676,19.105088100752027,18.45098000704479,76.58791785151595,66.88214620039743,6.47544875391759e-05,0.0947341993451118,0,0,0
6284,227454.6418236604,2010-12-09 03:44:47,4262.123624591965,2,21,0.5501165986061096,4.104788303375244,19.10967535742024,18.45098000704479,76.60674057283114,66.88214620039743,6.47544875391759e-05,0.0947341993451118,0,0,0
6285,227484.6602387568,2010-12-09 03:45:17,4292.142039778603,2,21,0.5501165986061096,4.108026027679443,19.114263130905577,18.45098000704479,76.62557974668809,66.88214620039743,9.71794142969884e-05,0.0947341993451118,0,0,0
6286,227514.6720430525,2010-12-09 03:45:47,4322.153844004118,2,21,0.5501165986061096,4.1111016273498535,19.118849976941984,18.45098000704479,76.64442951620723,66.88214620039743,6.47544875391759e-05,0.0947341993451118,0,0,0
6287,227544.68701370253,2010-12-09 03:46:17,4352.168814624084,2,21,0.5501165986061096,4.114339351654053,19.12343721691357,18.45098000704479,76.66329521179652,66.88214620039743,6.47544875391759e-05,0.0947341993451118,0,0,0
6288,227574.7020886872,2010-12-09 03:46:47,4382.183889618782,2,21,0.5501165986061096,4.117253303527832,19.1280245457618,18.45098000704479,76.68217575610798,66.88214620039743,6.47544875391759e-05,0.0947341993451118,0,0,0
6289,227604.71728726444,2010-12-09 03:47:17,4412.199088216061,2,21,0.5501165986061096,4.120652675628662,19.13261186834576,18.45098000704479,76.7010709690538,66.88214620039743,9.70840483205393e-05,0.0947341993451118,0,0,0
6290,227634.732222752,2010-12-09 03:47:47,4442.214023703601,2,21,0.5501165986061096,4.123728752136231,19.13719919380364,18.45098000704479,76.7199810093005,66.88214620039743,6.47544875391759e-05,0.0947341993451118,0,0,0
6291,227664.74728641848,2010-12-09 03:48:17,4472.229087365097,2,21,0.5501165986061096,4.1271281242370605,19.14178650635615,18.45098000704479,76.73890586201674,66.88214620039743,9.70840483205393e-05,0.0947341993451118,0,0,0
6292,227694.7624603995,2010-12-09 03:48:47,4502.244261336094,2,21,0.550297200679779,4.13036584854126,19.146373907122403,18.45098000704479,76.75784606750864,66.88214620039743,9.70840483205393e-05,0.0947341993451118,0,0,0
6293,227724.7782690198,2010-12-09 03:49:17,4532.260070016541,2,21,0.550297200679779,4.133765697479248,19.150961355497216,18.45098000704479,76.77680155585774,66.88214620039743,0.0001295089750783,0.0947341993451118,0,0,0
6294,227754.78043065508,2010-12-09 03:49:47,4562.2622316919405,2,21,0.550297200679779,4.137003421783447,19.15554671258611,18.45098000704479,76.79576358541557,66.88214620039743,6.47544875391759e-05,0.0947341993451118,0,0,0
6295,227784.7920328679,2010-12-09 03:50:17,4592.273833889718,2,21,0.5501165986061096,4.140241146087647,19.160133518199267,18.45098000704479,76.81474687513608,66.88214620039743,6.47544875391759e-05,0.0947341993451118,0,0,0
6296,227814.8069896835,2010-12-09 03:50:47,4622.288790630145,2,21,0.550297200679779,4.143640518188477,19.164718588589025,18.45098000704479,76.83373839421748,66.88214620039743,9.70840483205393e-05,0.0947341993451118,0,0,0
6297,227844.8220572397,2010-12-09 03:51:17,4652.303858186333,2,21,0.550297200679779,4.147202014923096,19.16930825178093,18.45098000704479,76.85276476874755,66.88214620039743,9.70840483205393e-05,0.0947341993451118,0,0,0
6298,227874.83716113635,2010-12-09 03:51:47,4682.318962072927,2,21,0.5501165986061096,4.150763511657715,19.173895647654337,18.45098000704479,76.8717975555394,66.88214620039743,0.0001295089750783,0.0947341993451118,0,0,0
6299,227904.85218992605,2010-12-09 03:52:17,4712.333990877684,2,21,0.550297200679779,4.154163360595703,19.17848299946576,18.45098000704479,76.89084598597593,66.88214620039743,9.71794142969884e-05,0.0947341993451118,0,0,0
6300,227934.8673739521,2010-12-09 03:52:47,4742.349174893679,2,21,0.5501165986061096,4.157562732696533,19.1830702962678,18.45098000704479,76.90991007990225,66.88214620039743,6.47544875391759e-05,0.0947341993451118,0,0,0
6301,227964.88232692817,2010-12-09 03:53:17,4772.36412787475,2,21,0.550297200679779,4.161124229431152,19.18765763324537,18.45098000704479,76.9289904342342,66.88214620039743,9.70840483205393e-05,0.0947341993451118,0,0,0
6302,227994.8975661515,2010-12-09 03:53:47,4802.379367098125,2,21,0.550297200679779,4.164524078369141,19.19224499431578,18.45098000704479,76.94808700296952,66.88214620039743,6.47544875391759e-05,0.0947341993451118,0,0,0
6303,228024.91255057583,2010-12-09 03:54:17,4832.394351507405,2,21,0.550297200679779,4.168247222900391,19.196832321706555,18.45098000704479,76.96719958780403,66.88214620039743,9.70840483205393e-05,0.0947341993451118,0,0,0
6304,228054.92770623625,2010-12-09 03:54:47,4862.409507182875,2,21,0.5501165986061096,4.171647071838379,19.201419708168967,18.45098000704479,76.98632887352838,66.88214620039743,9.71794142969884e-05,0.0947341993451118,0,0,0
6305,228084.94261872652,2010-12-09 03:55:17,4892.424419678199,2,21,0.5501165986061096,4.175370216369629,19.20600700903072,18.45098000704479,77.00547426679849,66.88214620039743,0.0001295089750783,0.0947341993451118,0,0,0
6306,228114.95766771652,2010-12-09 03:55:47,4922.439468663174,2,21,0.5501165986061096,4.178770065307617,19.210594247068087,18.45098000704479,77.0246359265154,66.88214620039743,6.47544875391759e-05,0.0947341993451118,0,0,0
6307,228144.9727200649,2010-12-09 03:56:17,4952.454520996479,2,21,0.550297200679779,4.182655334472656,19.21518160053981,18.45098000704479,77.04381464824532,66.88214620039743,9.71794142969884e-05,0.0947341993451118,0,0,0
6308,228174.9879421356,2010-12-09 03:56:47,4982.469743087221,2,21,0.5501165986061096,4.186216831207275,19.21976899706713,18.45098000704479,77.06301022304194,66.88214620039743,6.47544875391759e-05,0.0947341993451118,0,0,0
6309,228205.00298043896,2010-12-09 03:57:17,5012.484781360539,2,21,0.5499359965324402,4.189939975738525,19.22435632858038,18.45098000704479,77.08222253391527,66.88214620039743,9.70840483205393e-05,0.0947341993451118,0,0,0
6310,228235.01814223969,2010-12-09 03:57:47,5042.499943161251,2,21,0.5501165986061096,4.193663597106934,19.228943720627605,18.45098000704479,77.101452164522,66.88214620039743,0.0001295089750783,0.0947341993451118,0,0,0
6311,228265.0329923648,2010-12-09 03:58:17,5072.514793316445,2,21,0.5501165986061096,4.197386741638184,19.233531055664816,18.45098000704479,77.12069868121772,66.88214620039743,9.71794142969884e-05,0.0947341993451118,0,0,0
6312,228284.3138540826,2010-12-09 03:58:36,5091.795655029246,2,21,0.550297200679779,4.200138568878174,19.23647783330087,18.45098000704479,77.13307118133123,66.88214620039743,0.0001618385285837,0.0947341993451118,0,0,0
6313,228314.32177669543,2010-12-09 03:59:06,30.01522571977189,3,21,0.0,4.1111016273498535,19.23647783330087,18.45098000704479,77.13307118133123,66.88214620039743,-0.0003885269106831,0.0947341993451118,0,0,0
6314,228344.336659542,2010-12-09 03:59:36,60.03010854626706,3,21,0.0,4.099769592285156,19.23647783330087,18.45098000704479,77.13307118133123,66.88214620039743,-0.0002266883820993,0.0947341993451118,0,0,0
6315,228374.35180858595,2010-12-09 04:00:06,90.0452576002591,3,21,0.0,4.093132495880127,19.23647783330087,18.45098000704479,77.13307118133123,66.88214620039743,-0.0001295089750783,0.0947341993451118,0,0,0
6316,228404.3199764992,2010-12-09 04:00:36,120.01342550847689,3,21,0.0,4.088761329650879,19.23647783330087,18.45098000704479,77.13307118133123,66.88214620039743,-9.71794142969884e-05,0.0947341993451118,0,0,0
6317,228404.3305713027,2010-12-09 04:00:37,0.015748228861822,4,21,1.0048907995224,4.199653148651123,19.23648222920379,18.45098000704479,77.13308964259879,66.88214620039743,0.0,0.0947341993451118,0,0,0
6318,228405.11179858173,2010-12-09 04:00:37,0.796975512910975,4,21,0.954320192337036,4.199653148651123,19.2366932559466,18.45098000704479,77.13397591104696,66.88214620039743,0.0,0.0947341993451118,0,0,0
6319,228407.0647681364,2010-12-09 04:00:39,2.749945047483546,4,21,0.9035689830780028,4.199491024017334,19.237196269181183,18.45098000704479,77.13608844677894,66.88214620039743,-3.24249267578125e-05,0.0947341993451118,0,0,0
6320,228410.080520019,2010-12-09 04:00:42,5.765697000227489,4,21,0.853359580039978,4.199814796447754,19.237931240851097,18.45098000704479,77.13917515070005,66.88214620039743,0.0,0.0947341993451118,0,0,0
6321,228414.2055469649,2010-12-09 04:00:47,9.890723946127478,4,21,0.8031502366065979,4.199653148651123,19.23887926642564,18.45098000704479,77.14315666001015,66.88214620039743,0.0,0.0947341993451118,0,0,0
6322,228419.70540996743,2010-12-09 04:00:52,15.390586963713549,4,21,0.7531214356422424,4.199814796447754,19.240066593784743,18.45098000704479,77.14814317455864,66.88214620039743,3.23295607813634e-05,0.0947341993451118,0,0,0
6323,228426.79879322383,2010-12-09 04:00:59,22.48397013992512,4,21,0.7029120922088623,4.199814796447754,19.24149898103032,18.45098000704479,77.1541589164134,66.88214620039743,0.0,0.0947341993451118,0,0,0
6324,228436.2517644792,2010-12-09 04:01:09,31.936941405343298,4,21,0.6528832912445068,4.199653148651123,19.24327637385272,18.45098000704479,77.16162361809022,66.88214620039743,-6.47544875391759e-05,0.0947341993451118,0,0,0
6325,228449.42346891912,2010-12-09 04:01:22,45.10864583020054,4,21,0.6028545498847961,4.199653148651123,19.24556934883112,18.45098000704479,77.17125365861547,66.88214620039743,-3.23295607813634e-05,0.0947341993451118,0,0,0
6326,228469.563733924,2010-12-09 04:01:42,65.24891085007692,4,21,0.5526451468467712,4.199814796447754,19.248792010607897,18.45098000704479,77.184788192616,66.88214620039743,0.0,0.0947341993451118,0,0,0
6327,228503.57864387915,2010-12-09 04:02:16,99.26382079019716,4,21,0.5026163458824158,4.199814796447754,19.25375657926835,18.45098000704479,77.20563842226926,66.88214620039743,3.23295607813634e-05,0.0947341993451118,0,0,0
6328,228567.249375932,2010-12-09 04:03:20,162.9345528480488,4,21,0.4525876045227051,4.199653148651123,19.262164889494564,18.45098000704479,77.24095169391096,66.88214620039743,-3.23295607813634e-05,0.0947341993451118,0,0,0
6329,228666.45070135983,2010-12-09 04:04:59,262.1358782859654,4,21,0.402558833360672,4.199653148651123,19.273917391295868,18.45098000704479,77.29030994066962,66.88214620039743,0.0,0.0947341993451118,0,0,0
6330,228792.1826190412,2010-12-09 04:07:05,387.8677959672724,4,21,0.3525300621986389,4.199814796447754,19.28708620603644,18.45098000704479,77.34561649044964,66.88214620039743,0.0,0.0947341993451118,0,0,0
6331,228942.4301662236,2010-12-09 04:09:35,538.1153431647214,4,21,0.3025012910366058,4.199814796447754,19.30073685636626,18.45098000704479,77.40294661167057,66.88214620039743,0.0,0.0947341993451118,0,0,0
6332,229122.6452540984,2010-12-09 04:12:35,718.3304310094736,4,21,0.2524725198745727,4.199653148651123,19.31459532605059,18.45098000704479,77.46114955693145,66.88214620039743,-3.23295607813634e-05,0.0947341993451118,0,0,0
6333,229344.8129829016,2010-12-09 04:16:17,940.4981598126876,4,21,0.2024437636137008,4.199814796447754,19.32858215234573,18.45098000704479,77.51989144902025,66.88214620039743,0.0,0.0947341993451118,0,0,0
6334,229639.76062629305,2010-12-09 04:21:12,1235.445803224177,4,21,0.1524149924516677,4.199814796447754,19.34303445722401,18.45098000704479,77.58058839625056,66.88214620039743,0.0,0.0947341993451118,0,0,0
6335,230084.72109374747,2010-12-09 04:28:37,1680.4062707437354,4,21,0.1023862138390541,4.199653148651123,19.35856440722968,18.45098000704479,77.64581076766395,66.88214620039743,-3.23295607813634e-05,0.0947341993451118,0,0,0
6336,230955.736152646,2010-12-09 04:43:08,2551.421329642225,4,21,0.0523574464023113,4.199653148651123,19.37658191373876,18.45098000704479,77.72148094753553,66.88214620039743,0.0,0.0947341993451118,0,0,0
6337,231036.0160184042,2010-12-09 04:44:28,2631.70119538544,4,21,0.0498289167881011,4.199814796447754,19.37773415687636,18.45098000704479,77.72632015330429,66.88214620039743,0.0,0.0947341993451118,0,0,0
6338,231066.02817226032,2010-12-09 04:44:59,30.015357277147363,5,21,0.0,4.191397190093994,19.37773415687636,18.45098000704479,77.72632015330429,66.88214620039743,-6.47544875391759e-05,0.0947341993451118,0,0,0
6339,231096.02732617603,2010-12-09 04:45:29,60.0145111327033,5,21,0.0,4.190263748168945,19.37773415687636,18.45098000704479,77.72632015330429,66.88214620039743,-3.24249267578125e-05,0.0947341993451118,0,0,0
6340,231096.2128186181,2010-12-09 04:45:29,0.187500768450722,6,21,-1.9243103452026844e-05,4.190263748168945,19.37773415687636,18.45098000804704,77.72632015330429,66.88214620459712,0.0,0.0994127541780471,0,0,0
6341,231101.02538196192,2010-12-09 04:45:34,5.000064207470127,6,21,0.0005225847125984,4.1901021003723145,19.37773524594184,18.45098000813244,77.72632471689202,66.88214620495496,-6.47544875391759e-05,0.0994127541780471,0,0,0
6342,231131.0385005969,2010-12-09 04:46:04,30.015208587137995,7,21,-1.099568486213684,4.006361484527588,19.37773524594184,18.460148208833907,77.72632471689202,66.9190845547342,-0.0009713172912597,0.0994127541780471,0,0,0
6343,231161.05342280137,2010-12-09 04:46:34,60.03013079663624,7,21,-1.099568486213684,3.977707862854004,19.37773524594184,18.469316329760844,77.72632471689202,66.95567515983028,-0.0006799221155233,0.0994127541780471,0,0,0
6344,231191.0685223522,2010-12-09 04:47:04,90.04523036247893,7,21,-1.099568486213684,3.958119630813599,19.37773524594184,18.47848437330771,77.72632471689202,66.99204997385986,-0.0004856586456298,0.0994127541780471,0,0,0
6345,231221.0836982279,2010-12-09 04:47:34,120.06040630337804,7,21,-1.099568486213684,3.942740440368652,19.37773524594184,18.487652435704437,77.72632471689202,67.02826630830776,-0.0004209041653666,0.0994127541780471,0,0,0
6346,231251.10218834103,2010-12-09 04:48:04,150.0788964214796,7,21,-1.0993878841400146,3.9296276569366455,19.37773524594184,18.496821442430555,77.72632471689202,67.06435674793993,-0.0003561496851034,0.0994127541780471,0,0,0
6347,231281.11386730484,2010-12-09 04:48:34,180.09057531511107,7,21,-1.099568486213684,3.917648077011109,19.37773524594184,18.505988398825476,77.72632471689202,67.10032463012483,-0.0003237724304199,0.0994127541780471,0,0,0
6348,231311.12887348828,2010-12-09 04:49:04,210.1055815737624,7,21,-1.0997490882873535,3.9064781665802,19.37773524594184,18.515156381707985,77.72632471689202,67.13619090922056,-0.0002913951757363,0.0994127541780471,0,0,0
6349,231341.14378310143,2010-12-09 04:49:34,240.12049111172803,7,21,-1.099568486213684,3.8961174488067623,19.37773524594184,18.52432424907572,77.72632471689202,67.17195739063513,-0.0002590179501567,0.0994127541780471,0,0,0
6350,231371.15887914857,2010-12-09 04:50:04,270.135587153802,7,21,-1.0997490882873535,3.885918617248535,19.37773524594184,18.533492272228905,77.72632471689202,67.207630300882,-0.0002590179501567,0.0994127541780471,0,0,0
6351,231401.17394337643,2010-12-09 04:50:34,300.15065138672,7,21,-1.099568486213684,3.876367330551148,19.37773524594184,18.542660328692865,77.72632471689202,67.24321261787883,-0.0002590179501567,0.0994127541780471,0,0,0
6352,231431.18910899165,2010-12-09 04:51:04,330.16581700192404,7,21,-1.0997490882873535,3.8669779300689697,19.37773524594184,18.551828408591945,77.72632471689202,67.27870744444584,-0.0002266406954731,0.0994127541780471,0,0,0
6353,231461.20419324937,2010-12-09 04:51:34,360.1809012546606,7,21,-1.099568486213684,3.857750415802002,19.37773524594184,18.56099644473649,77.72632471689202,67.31411676679221,-0.0002266406954731,0.0994127541780471,0,0,0
6354,231491.2191382957,2010-12-09 04:52:04,390.1958462859501,7,21,-1.099568486213684,3.848846673965454,19.37773524594184,18.57016447398501,77.72632471689202,67.34944286656834,-0.0002266406954731,0.0994127541780471,0,0,0
6355,231521.23419290467,2010-12-09 04:52:34,420.2109008949193,7,21,-1.0997490882873535,3.839942932128906,19.37773524594184,18.57933245109229,77.72632471689202,67.38468757090708,-0.0002590179501567,0.0994127541780471,0,0,0
6356,231551.24926210492,2010-12-09 04:53:04,450.2259700951984,7,21,-1.0993878841400146,3.831686973571777,19.37773524594184,18.588500510435736,77.72632471689202,67.41985346812392,-0.0001618862152099,0.0994127541780471,0,0,0
6357,231581.2643983471,2010-12-09 04:53:34,480.24110633730857,7,21,-1.0993878841400146,3.8231070041656494,19.37773524594184,18.59766861971839,77.72632471689202,67.45494230426596,-0.0002266406954731,0.0994127541780471,0,0,0
6358,231611.27946050483,2010-12-09 04:54:04,510.25616851010005,7,21,-1.099568486213684,3.815012693405152,19.37773524594184,18.60683673074216,77.72632471689202,67.48995520319197,-0.0001942634553415,0.0994127541780471,0,0,0
6359,231641.2944591846,2010-12-09 04:54:34,540.2711671748543,7,21,-1.0997490882873535,3.806918382644653,19.37773524594184,18.61600476106549,77.72632471689202,67.52489291867674,-0.0001942634553415,0.0994127541780471,0,0,0
6360,231671.3096641527,2010-12-09 04:55:04,570.2863721630365,7,21,-1.099568486213684,3.798985958099365,19.37773524594184,18.625172875924463,77.72632471689202,67.5597583137021,-0.0001942634553415,0.0994127541780471,0,0,0
6361,231701.3247177542,2010-12-09 04:55:34,600.3014257494611,7,21,-1.0997490882873535,3.791215419769287,19.37773524594184,18.634340973849163,77.72632471689202,67.5945526970406,-0.0002266406954731,0.0994127541780471,0,0,0
6362,231731.34003054065,2010-12-09 04:56:04,630.3167385258702,7,21,-1.0997490882873535,3.783606767654419,19.37773524594184,18.64350912175061,77.72632471689202,67.62927800492501,-0.0002590179501567,0.0994127541780471,0,0,0
6363,231761.3547370484,2010-12-09 04:56:34,660.3314450536527,7,21,-1.099568486213684,3.776645660400391,19.37773524594184,18.65267704255941,77.72632471689202,67.6639351323075,-0.0002266406954731,0.0994127541780471,0,0,0
6364,231791.3697896223,2010-12-09 04:57:04,690.3464976275578,7,21,-1.0997490882873535,3.769522666931152,19.37773524594184,18.66184513469377,77.72632471689202,67.69852721238414,-0.0001942634553415,0.0994127541780471,0,0,0
6365,231821.38513323545,2010-12-09 04:57:34,720.3618412256654,7,21,-1.099568486213684,3.762723445892334,19.37773524594184,18.67101328074666,77.72632471689202,67.73305546831666,-0.0001618862152099,0.0994127541780471,0,0,0
6366,231851.39994697,2010-12-09 04:58:04,750.37665504544,7,21,-1.0997490882873535,3.755600452423096,19.37773524594184,18.680181264855307,77.72632471689202,67.76751993110048,-0.0002266406954731,0.0994127541780471,0,0,0
6367,231881.4151794265,2010-12-09 04:58:34,780.3918874318013,7,21,-1.099568486213684,3.749125242233277,19.37773524594184,18.68934941319725,77.72632471689202,67.8019227249466,-0.0001618862152099,0.0994127541780471,0,0,0
6368,231911.4301058064,2010-12-09 04:59:04,810.4068138116775,7,21,-1.0993878841400146,3.742487907409668,19.37773524594184,18.69851748840376,77.72632471689202,67.83626429234815,-0.0001618862152099,0.0994127541780471,0,0,0
6369,231941.4451327666,2010-12-09 04:59:34,840.4218408420184,7,21,-1.099568486213684,3.73617434501648,19.37773524594184,18.70768558181608,77.72632471689202,67.87054653912422,-0.0001295089750783,0.0994127541780471,0,0,0
6370,231971.4602131096,2010-12-09 05:00:04,870.4369211098387,7,21,-1.099568486213684,3.729698896408081,19.37773524594184,18.716853665920727,77.72632471689202,67.90477059242674,-0.0001618862152099,0.0994127541780471,0,0,0
6371,232001.4752725305,2010-12-09 05:00:34,900.4519805357949,7,21,-1.099568486213684,3.723547220230103,19.37773524594184,18.726021645307945,77.72632471689202,67.93893657430914,-0.0001942634553415,0.0994127541780471,0,0,0
6372,232031.4903516505,2010-12-09 05:01:04,930.4670596557588,7,21,-1.099568486213684,3.717071771621704,19.37773524594184,18.73518969943409,77.72632471689202,67.9730444048714,-0.0001942634553415,0.0994127541780471,0,0,0
6373,232061.50545083536,2010-12-09 05:01:34,960.482158930878,7,21,-1.099568486213684,3.7109200954437256,19.37773524594184,18.74435775378219,77.72632471689202,68.00709468561271,-0.0001618862152099,0.0994127541780471,0,0,0
6374,232091.5208087792,2010-12-09 05:02:04,990.497516839597,7,21,-1.099568486213684,3.704930305480957,19.37773524594184,18.75352579834822,77.72632471689202,68.0410888661724,-0.0001618862152099,0.0994127541780471,0,0,0
6375,232121.53552731185,2010-12-09 05:02:34,1020.5122353020788,7,21,-1.099568486213684,3.6987786293029785,19.37773524594184,18.76269362453891,77.72632471689202,68.07502682946148,-0.0001618862152099,0.0994127541780471,0,0,0
6376,232151.55060778017,2010-12-09 05:03:04,1050.5273157854351,7,21,-1.099568486213684,3.69295072555542,19.37773524594184,18.771861535238045,77.72632471689202,68.1089101712803,-0.0001295089750783,0.0994127541780471,0,0,0
6377,232181.5658362117,2010-12-09 05:03:34,1080.5425442069304,7,21,-1.099568486213684,3.6869609355926514,19.37773524594184,18.78102943253502,77.72632471689202,68.14273934992788,-0.0001618862152099,0.0994127541780471,0,0,0
6378,232211.5840486488,2010-12-09 05:04:04,1110.5607567292454,7,21,-1.0993878841400146,3.681294918060303,19.37773524594184,18.790198235932195,77.72632471689202,68.1765187912571,-0.0001618862152099,0.0994127541780471,0,0,0
6379,232241.59580559164,2010-12-09 05:04:34,1140.5725135818748,7,21,-1.0992072820663452,3.675628900527954,19.37773524594184,18.79936503246489,77.72632471689202,68.21023789544978,-0.0001618862152099,0.0994127541780471,0,0,0
6380,232271.61096764292,2010-12-09 05:05:04,1170.587675638223,7,21,-1.099568486213684,3.669963121414185,19.37773524594184,18.808532802775627,77.72632471689202,68.24390899067454,-0.0001618862152099,0.0994127541780471,0,0,0
6381,232301.6259100728,2010-12-09 05:05:34,1200.6026180780634,7,21,-1.0993878841400146,3.664620876312256,19.37773524594184,18.817700389126905,77.72632471689202,68.2775289989426,-0.0001295089750783,0.0994127541780471,0,0,0
6382,232331.6409626968,2010-12-09 05:06:04,1230.6176707020934,7,21,-1.099568486213684,3.659116744995117,19.37773524594184,18.826868105657663,77.72632471689202,68.31109999475802,-0.0001942634553415,0.0994127541780471,0,0,0
6383,232361.6560680972,2010-12-09 05:06:34,1260.6327761926796,7,21,-1.099568486213684,3.6539363861083984,19.37773524594184,18.836035813741475,77.72632471689202,68.34462232494151,-0.0001295089750783,0.0994127541780471,0,0,0
6384,232391.67106529328,2010-12-09 05:07:04,1290.6477732985545,7,21,-1.099568486213684,3.64875602722168,19.37773524594184,18.84520348601857,77.72632471689202,68.37809650220893,-0.0001295089750783,0.0994127541780471,0,0,0
6385,232421.68612881444,2010-12-09 05:07:34,1320.662836889876,7,21,-1.099568486213684,3.643575668334961,19.37773524594184,18.85437105894097,77.72632471689202,68.41152274416007,-0.0001618862152099,0.0994127541780471,0,0,0
6386,232451.7012300996,2010-12-09 05:08:04,1350.6779381048225,7,21,-1.099568486213684,3.638719081878662,19.37773524594184,18.86353861874752,77.72632471689202,68.44490207929448,-9.713172767078504e-05,0.0994127541780471,0,0,0
6387,232481.71631559532,2010-12-09 05:08:34,1380.6930236056648,7,21,-1.099568486213684,3.633700609207153,19.37773524594184,18.87270619382279,77.72632471689202,68.47823580718645,-0.0001618862152099,0.0994127541780471,0,0,0
6388,232511.73132035029,2010-12-09 05:09:04,1410.7080283555615,7,21,-1.0997490882873535,3.628682136535645,19.37773524594184,18.881873791318405,77.72632471689202,68.51152473319071,-0.0001295089750783,0.0994127541780471,0,0,0
6389,232541.74633001743,2010-12-09 05:09:34,1440.7230380226947,7,21,-1.099568486213684,3.623987436294556,19.37773524594184,18.891041330298396,77.72632471689202,68.54476967753222,-0.0001295089750783,0.0994127541780471,0,0,0
6390,232571.76140223024,2010-12-09 05:10:04,1470.7381102304582,7,21,-1.0997490882873535,3.619130849838257,19.37773524594184,18.90020887175489,77.72632471689202,68.57797052283432,-0.0001295089750783,0.0994127541780471,0,0,0
6391,232601.7765730584,2010-12-09 05:10:34,1500.753281048609,7,21,-1.099568486213684,3.614598035812378,19.37773524594184,18.909376483294302,77.72632471689202,68.61112853154039,-9.713172767078504e-05,0.0994127541780471,0,0,0
6392,232631.79147572425,2010-12-09 05:11:05,1530.7681837295115,7,21,-1.099568486213684,3.609903335571289,19.37773524594184,18.918543984236425,77.72632471689202,68.64424474674085,-0.0001295089750783,0.0994127541780471,0,0,0
6393,232661.80679955817,2010-12-09 05:11:35,1560.7835075684493,7,21,-1.099568486213684,3.60569429397583,19.37773524594184,18.92771162308719,77.72632471689202,68.67732077143211,-0.0001618862152099,0.0994127541780471,0,0,0
6394,232691.8218355207,2010-12-09 05:12:05,1590.798543526005,7,21,-1.0997490882873535,3.601485252380371,19.37773524594184,18.936879067530366,77.72632471689202,68.71035641934998,-0.0001295089750783,0.0994127541780471,0,0,0
6395,232721.83713544515,2010-12-09 05:12:35,1620.8138435256194,7,21,-1.099568486213684,3.597276210784912,19.37773524594184,18.9460466817335,77.72632471689202,68.74335426928624,-9.713172767078504e-05,0.0994127541780471,0,0,0
6396,232751.85172311217,2010-12-09 05:13:05,1650.828431122447,7,21,-1.0997490882873535,3.593229055404663,19.37773524594184,18.955214034916263,77.72632471689202,68.77631366674312,-0.0001618862152099,0.0994127541780471,0,0,0
6397,232781.86692672697,2010-12-09 05:13:35,1680.8436347372117,7,21,-1.0993878841400146,3.589344024658203,19.37773524594184,18.96438161920578,77.72632471689202,68.80923749464337,-0.0001295089750783,0.0994127541780471,0,0,0
6398,232811.8818084807,2010-12-09 05:14:05,1710.8585164709873,7,21,-1.0993878841400146,3.585620641708374,19.37773524594184,18.97354913016034,77.72632471689202,68.84212505220563,-9.713172767078504e-05,0.0994127541780471,0,0,0
6399,232841.8968006243,2010-12-09 05:14:35,1740.873508614514,7,21,-1.0993878841400146,3.581735372543335,19.37773524594184,18.98271663704062,77.72632471689202,68.87497799355715,-9.713172767078504e-05,0.0994127541780471,0,0,0
6400,232871.91186407025,2010-12-09 05:15:05,1770.8885720604735,7,21,-1.099568486213684,3.578011989593506,19.37773524594184,18.991884235653977,77.72632471689202,68.9077970552545,-0.0001295089750783,0.0994127541780471,0,0,0
6401,232901.9269432704,2010-12-09 05:15:35,1800.9036512756743,7,21,-1.099568486213684,3.5744504928588867,19.37773524594184,19.00105181086556,77.72632471689202,68.94058246527644,-6.47544875391759e-05,0.0994127541780471,0,0,0
6402,232931.94552709168,2010-12-09 05:16:05,1830.92223517214,7,21,-1.099568486213684,3.570888996124268,19.37773524594184,19.01022033919639,77.72632471689202,68.97333850162241,-9.713172767078504e-05,0.0994127541780471,0,0,0
6403,232961.9570515109,2010-12-09 05:16:35,1860.9337595161808,7,21,-1.099568486213684,3.5673274993896484,19.37773524594184,19.0193867548634,77.72632471689202,69.00605511301922,-0.0001295089750783,0.0994127541780471,0,0,0
6404,232991.9720786716,2010-12-09 05:17:05,1890.9487866768457,7,21,-1.0993878841400146,3.5639278888702397,19.37773524594184,19.02855433717701,77.72632471689202,69.03874416165698,-9.713172767078504e-05,0.0994127541780471,0,0,0
6405,233021.9872006733,2010-12-09 05:17:35,1920.9639086785191,7,21,-1.099568486213684,3.56069016456604,19.37773524594184,19.03772179736401,77.72632471689202,69.07140186810737,-0.0001295089750783,0.0994127541780471,0,0,0
6406,233052.0022276635,2010-12-09 05:18:05,1950.9789356587355,7,21,-1.0997490882873535,3.557452440261841,19.37773524594184,19.04688933136753,77.72632471689202,69.10402936332429,-6.47544875391759e-05,0.0994127541780471,0,0,0
6407,233082.0173399109,2010-12-09 05:18:35,1980.994047921173,7,21,-1.0997490882873535,3.554052829742432,19.37773524594184,19.056056897054383,77.72632471689202,69.13662645685218,-0.0001295089750783,0.0994127541780471,0,0,0
6408,233112.03226338857,2010-12-09 05:19:05,2011.0089713938144,7,21,-1.099568486213684,3.5508151054382324,19.37773524594184,19.06522432494623,77.72632471689202,69.16919275754162,-6.47544875391759e-05,0.0994127541780471,0,0,0
6409,233142.04733136576,2010-12-09 05:19:35,2041.0240394412249,7,21,-1.099568486213684,3.5474154949188232,19.37773524594184,19.074391875173067,77.72632471689202,69.2017289683176,-6.47544875391759e-05,0.0994127541780471,0,0,0
6410,233172.06279738352,2010-12-09 05:20:05,2071.0395053887946,7,21,-1.0993878841400146,3.544015884399414,19.37773524594184,19.083559589163077,77.72632471689202,69.23423507819203,-0.0001295089750783,0.0994127541780471,0,0,0
6411,233202.0774584532,2010-12-09 05:20:35,2101.054166578756,7,21,-1.099568486213684,3.540778160095215,19.37773524594184,19.092726961713463,77.72632471689202,69.2667095977229,-6.47544875391759e-05,0.0994127541780471,0,0,0
6412,233232.09243796527,2010-12-09 05:21:05,2131.0691459655377,7,21,-1.0997490882873535,3.5373785495758057,19.37773524594184,19.101894509012308,77.72632471689202,69.29915420348871,-6.47544875391759e-05,0.0994127541780471,0,0,0
6413,233262.1074909402,2010-12-09 05:21:35,2161.0841990156277,7,21,-1.099568486213684,3.5339789390563965,19.37773524594184,19.111062040646157,77.72632471689202,69.33156780644464,-3.237724376958795e-05,0.0994127541780471,0,0,0
6414,233292.12267728697,2010-12-09 05:22:05,2191.0993853774585,7,21,-1.099568486213684,3.5305793285369877,19.37773524594184,19.12022962557253,77.72632471689202,69.36395030281524,-9.713172767078504e-05,0.0994127541780471,0,0,0
6415,233322.13774359005,2010-12-09 05:22:35,2221.1144516003287,7,21,-1.099568486213684,3.527179718017578,19.37773524594184,19.12939717326863,77.72632471689202,69.39630102747216,-9.713172767078504e-05,0.0994127541780471,0,0,0
6416,233352.1529169545,2010-12-09 05:23:05,2251.129624969829,7,21,-1.099568486213684,3.523618221282959,19.37773524594184,19.138564814772927,77.72632471689202,69.42862031131686,-9.713172767078504e-05,0.0994127541780471,0,0,0
6417,233382.16784480808,2010-12-09 05:23:35,2281.144552818359,7,21,-1.0993878841400146,3.52021861076355,19.37773524594184,19.14773222978396,77.72632471689202,69.46090625715165,-6.47544875391759e-05,0.0994127541780471,0,0,0
6418,233412.18269659733,2010-12-09 05:24:05,2311.15940460762,7,21,-1.099568486213684,3.5163333415985107,19.37773524594184,19.15689968088693,77.72632471689202,69.49315890077837,-9.713172767078504e-05,0.0994127541780471,0,0,0
6419,233442.1977356576,2010-12-09 05:24:35,2341.1744437180214,7,21,-1.099568486213684,3.512448072433472,19.37773524594184,19.16606729560248,77.72632471689202,69.52537724212861,-0.0001295089750783,0.0994127541780471,0,0,0
6420,233472.21278460248,2010-12-09 05:25:05,2371.189492687958,7,21,-1.0993878841400146,3.5084011554718018,19.37773524594184,19.175234804032595,77.72632471689202,69.55755993509216,-0.0001295089750783,0.0994127541780471,0,0,0
6421,233502.22783036943,2010-12-09 05:25:35,2401.204538379737,7,21,-1.099568486213684,3.5043540000915527,19.37773524594184,19.18440234209043,77.72632471689202,69.58970554834951,-0.0001295089750783,0.0994127541780471,0,0,0
6422,233532.24286747485,2010-12-09 05:26:05,2431.2195754701124,7,21,-1.099568486213684,3.5001449584960938,19.37773524594184,19.193569878371072,77.72632471689202,69.62181272434003,-0.0001295089750783,0.0994127541780471,0,0,0
6423,233562.2578850116,2010-12-09 05:26:35,2461.234593016853,7,21,-1.0997490882873535,3.495288372039795,19.37773524594184,19.202737447874867,77.72632471689202,69.65387890517962,-0.0001618862152099,0.0994127541780471,0,0,0
6424,233592.272981174,2010-12-09 05:27:05,2491.2496891792266,7,21,-1.099568486213684,3.490431785583496,19.37773524594184,19.2119050423734,77.72632471689202,69.68590078187061,-0.0001295089750783,0.0994127541780471,0,0,0
6425,233622.28826891808,2010-12-09 05:27:35,2521.264976928356,7,21,-1.099568486213684,3.4850895404815674,19.37773524594184,19.221072630003626,77.72632471689202,69.71787542755999,-0.0001618862152099,0.0994127541780471,0,0,0
6426,233652.30347473832,2010-12-09 05:28:05,2551.2801828137717,7,21,-1.099568486213684,3.479099750518799,19.37773524594184,19.23024012172372,77.72632471689202,69.74979819116635,-0.0001618862152099,0.0994127541780471,0,0,0
6427,233682.31818296533,2010-12-09 05:28:35,2581.2948909555703,7,21,-1.0997490882873535,3.4724624156951904,19.37773524594184,19.239407501517096,77.72632471689202,69.78166369771145,-0.0001942634553415,0.0994127541780471,0,0,0
6428,233712.33310993668,2010-12-09 05:29:05,2611.309817936943,7,21,-1.0997490882873535,3.465339422225952,19.37773524594184,19.24857498387731,77.72632471689202,69.813466382642,-0.0002266406954731,0.0994127541780471,0,0,0
6429,233742.3483525635,2010-12-09 05:29:35,2641.3250606439874,7,21,-1.099568486213684,3.456921339035034,19.37773524594184,19.25774251611423,77.72632471689202,69.84519789735921,-0.0002590179501567,0.0994127541780471,0,0,0
6430,233772.3633339553,2010-12-09 05:30:05,2671.3400420157086,7,21,-1.0993878841400146,3.4473700523376465,19.37773524594184,19.26690996642606,77.72632471689202,69.87684633400907,-0.0002913951757363,0.0994127541780471,0,0,0
6431,233802.3784139324,2010-12-09 05:30:35,2701.3551220579675,7,21,-1.0993878841400146,3.4358761310577397,19.37773524594184,19.27607745673473,77.72632471689202,69.908398727869,-0.0003561496851034,0.0994127541780471,0,0,0
6432,233832.39324791732,2010-12-09 05:31:05,2731.369955922623,7,21,-1.099568486213684,3.4219541549682617,19.37773524594184,19.285244848732063,77.72632471689202,69.93983541362888,-0.0004209041653666,0.0994127541780471,0,0,0
6433,233862.4084802335,2010-12-09 05:31:35,2761.385188233797,7,21,-1.099568486213684,3.404794216156006,19.37773524594184,19.294412416494257,77.72632471689202,69.97113173830142,-0.0005504131549969,0.0994127541780471,0,0,0
6434,233892.42366381345,2010-12-09 05:32:05,2791.400371828743,7,21,-1.099568486213684,3.383749008178711,19.37773524594184,19.303579947681857,77.72632471689202,70.00225285175321,-0.0006151676061563,0.0994127541780471,0,0,0
6435,233922.4384760192,2010-12-09 05:32:35,2821.415184094651,7,21,-1.099568486213684,3.355742692947388,19.37773524594184,19.312747346748782,77.72632471689202,70.03314907129008,-0.0008418083307333,0.0994127541780471,0,0,0
6436,233952.45354369568,2010-12-09 05:33:05,2851.430251685926,7,21,-1.099568486213684,3.3186709880828857,19.37773524594184,19.321914891391785,77.72632471689202,70.063751807948,-0.0011332035064697,0.0994127541780471,0,0,0
6437,233982.46845090785,2010-12-09 05:33:35,2881.4451589131418,7,21,-1.099568486213684,3.268972158432007,19.37773524594184,19.33108225081136,77.72632471689202,70.09395952259383,-0.0014893055194988,0.0994127541780471,0,0,0
6438,234012.4836611441,2010-12-09 05:34:05,2911.460369134346,7,21,-1.099568486213684,3.2003324031829834,19.37773524594184,19.34024972082236,77.72632471689202,70.12363130393038,-0.0021368979942053,0.0994127541780471,0,0,0
6439,234042.49853459728,2010-12-09 05:34:35,2941.4752426075656,7,21,-1.099568486213684,3.1017441749572754,19.37773524594184,19.34941716402069,77.72632471689202,70.15254833791074,-0.0030757903587073,0.0994127541780471,0,0,0
6440,234072.51357903093,2010-12-09 05:35:05,2971.4902870412143,7,21,-1.0993878841400146,2.9411535263061523,19.37773524594184,19.358584658118524,77.72632471689202,70.18032104733462,-0.0055040838196873,0.0994127541780471,0,0,0
6441,234094.41960305412,2010-12-09 05:35:27,2993.3963110393943,7,21,-1.099568486213684,2.740900754928589,19.37773524594184,19.365275404304164,77.72632471689202,70.19937143619721,-0.008320951834321,0.0994127541780471,0,0,0
6442,234098.2633036703,2010-12-09 05:35:31,2997.240011680605,7,21,-1.099568486213684,2.699943780899048,19.37773524594184,19.36644936679927,77.72632471689202,70.20256533169025,-0.0085151670500636,0.0994127541780471,0,0,0
6443,234158.2859489439,2010-12-09 05:36:31,60.01452687186962,8,21,0.0,3.400261402130127,19.37773524594184,19.36644936679927,77.72632471689202,70.20256533169025,0.0013274669181555,0.0994127541780471,0,0,0
6444,234158.4672524791,2010-12-09 05:36:31,0.187505054115433,9,21,-1.9243103452026844e-05,3.400261402130127,19.37773524594184,19.366449367801543,77.72632471689202,70.20256533509823,0.0,0.0940094217658042,0,0,0
6445,234163.2985436464,2010-12-09 05:36:36,5.01879631660324,9,21,0.0007031940040178,3.408193826675415,19.37773635619557,19.36644936788676,77.7263284973985,70.20256533538797,0.0011008263099938,0.0940094217658042,0,0,0
