Data_Point,Test_Time(s),Date_Time,Step_Time(s),Step_Index,Cycle_Index,Current(A),Voltage(V),Charge_Capacity(Ah),Discharge_Capacity(Ah),Charge_Energy(Wh),Discharge_Energy(Wh),dV/dt(V/s),Internal_Resistance(Ohm),Is_FC_Data,AC_Impedance(Ohm),ACI_Phase_Angle(Deg)
7951,289595.3886709442,2010-12-09 21:00:35,30.01488348312917,1,27,0.0,3.470034122467041,23.9146825519584,23.89386208657221,95.94365487819852,86.56803013704784,0.0007770538213662,0.0933678373694419,0,0,0
7952,289625.4037593573,2010-12-09 21:01:05,60.02997195135587,1,27,0.0,3.492860078811645,23.9146825519584,23.89386208657221,95.94365487819852,86.56803013704784,0.0005180359003134,0.0933678373694419,0,0,0
7953,289655.4181148415,2010-12-09 21:01:35,90.04432735036802,1,27,0.0,3.5098581314086914,23.9146825519584,23.89386208657221,95.94365487819852,86.56803013704784,0.0004209041653666,0.0933678373694419,0,0,0
7954,289685.3868644724,2010-12-09 21:02:05,120.01307701125494,1,27,0.0,3.523456335067749,23.9146825519584,23.89386208657221,95.94365487819852,86.56803013704784,0.0003561496851034,0.0933678373694419,0,0,0
7955,289715.409316352,2010-12-09 21:02:35,30.015189344252818,2,27,0.5501165986061096,3.672391414642334,23.91926970724688,23.89386208657221,95.96036882296144,86.56803013704784,0.0012303352123126,0.0933678373694419,0,0,0
7956,289745.4245410793,2010-12-09 21:03:05,60.030414141729615,2,27,0.5501165986061096,3.709463119506836,23.92385680749206,23.89386208657221,95.97730546646244,86.56803013704784,0.0008094310760498,0.0933678373694419,0,0,0
7957,289775.4391526357,2010-12-09 21:03:35,90.0450256229926,2,27,0.550297200679779,3.7356886863708496,23.928443845208,23.89386208657221,95.99438399087924,86.56803013704784,0.0006151676061563,0.0933678373694419,0,0,0
7958,289805.45418011723,2010-12-09 21:04:05,120.06005308941867,2,27,0.5501165986061096,3.7554385662078857,23.93303091160571,23.89386208657221,96.0115673046905,86.56803013704784,0.0004532813909463,0.0933678373694419,0,0,0
7959,289835.4692169971,2010-12-09 21:04:35,150.07509007954408,2,27,0.5501165986061096,3.770170211791992,23.937618008180756,23.89386208657221,96.02882984574669,86.56803013704784,0.0003237724304199,0.0933678373694419,0,0,0
7960,289865.4842078725,2010-12-09 21:05:05,180.0900808446403,2,27,0.5501165986061096,3.7800452709198,23.94220508498827,23.89386208657221,96.04614814518018,86.56803013704784,0.0002590179501567,0.0933678373694419,0,0,0
7961,289895.4992545367,2010-12-09 21:05:35,210.10512752387672,2,27,0.5504778623580933,3.787006378173828,23.94679217273807,23.89386208657221,96.0635040318213,86.56803013704784,0.0001942634553415,0.0933678373694419,0,0,0
7962,289925.5143031858,2010-12-09 21:06:05,240.12017617301515,2,27,0.5501165986061096,3.792348623275757,23.951379279080797,23.89386208657221,96.08088788588708,86.56803013704784,0.0001295089750783,0.0933678373694419,0,0,0
7963,289955.5295199382,2010-12-09 21:06:35,270.13539292045976,2,27,0.5501165986061096,3.7973670959472656,23.95596637033569,23.89386208657221,96.09829562118296,86.56803013704784,9.713172767078504e-05,0.0933678373694419,0,0,0
7964,289985.54430826963,2010-12-09 21:07:05,300.15018125681985,2,27,0.5501165986061096,3.801899909973145,23.960553399771037,23.89386208657221,96.11572522291208,86.56803013704784,6.47544875391759e-05,0.0933678373694419,0,0,0
7965,290015.55937235215,2010-12-09 21:07:35,330.1652453393637,2,27,0.5497553944587708,3.806432723999024,23.965140489900985,23.89386208657221,96.13317599280252,86.56803013704784,9.713172767078504e-05,0.0933678373694419,0,0,0
7966,290045.5743677087,2010-12-09 21:08:05,360.1802406958856,2,27,0.550297200679779,3.810803651809693,23.96972761432632,23.89386208657221,96.15064692976598,86.56803013704784,9.713172767078504e-05,0.0933678373694419,0,0,0
7967,290075.5893929345,2010-12-09 21:08:36,390.195265921736,2,27,0.550297200679779,3.815012693405152,23.97431471082432,23.89386208657221,96.16813726340524,86.56803013704784,0.0001295089750783,0.0933678373694419,0,0,0
7968,290105.6046687139,2010-12-09 21:09:06,420.2105416910544,2,27,0.550297200679779,3.8190598487854,23.978901813373376,23.89386208657221,96.18564655411724,86.56803013704784,9.713172767078504e-05,0.0933678373694419,0,0,0
7969,290135.6197037641,2010-12-09 21:09:36,450.2255768265646,2,27,0.5501165986061096,3.82294511795044,23.983488971752635,23.89386208657221,96.20317422621582,86.56803013704784,0.0001295089750783,0.0933678373694419,0,0,0
7970,290165.6344895642,2010-12-09 21:10:06,480.2403625514261,2,27,0.5501165986061096,3.8268303871154794,23.988075959953363,23.89386208657221,96.22071896053036,86.56803013704784,0.0001295089750783,0.0933678373694419,0,0,0
7971,290195.649610398,2010-12-09 21:10:36,510.2554833701558,2,27,0.550297200679779,3.830553770065308,23.992663119930032,23.89386208657221,96.23828176272816,86.56803013704784,6.47544875391759e-05,0.0933678373694419,0,0,0
7972,290225.664514322,2010-12-09 21:11:06,540.2703873091885,2,27,0.5504778623580933,3.834438800811768,23.99725020611194,23.89386208657221,96.25586149874869,86.56803013704784,0.0001295089750783,0.0933678373694419,0,0,0
7973,290255.6796830299,2010-12-09 21:11:36,570.2855560321261,2,27,0.550297200679779,3.8380002975463863,24.00183729678565,23.89386208657221,96.27345837324955,86.56803013704784,6.47544875391759e-05,0.0933678373694419,0,0,0
7974,290285.69471900247,2010-12-09 21:12:06,600.300591999707,2,27,0.5501165986061096,3.841723680496216,24.006424335582498,23.89386208657221,96.29107210985076,86.56803013704784,9.713172767078504e-05,0.0933678373694419,0,0,0
7975,290315.7096316332,2010-12-09 21:12:36,630.3155046053063,2,27,0.550297200679779,3.845608949661255,24.011011471337103,23.89386208657221,96.30870329113084,86.56803013704784,9.713172767078504e-05,0.0933678373694419,0,0,0
7976,290345.72474243195,2010-12-09 21:13:06,660.3306154241517,2,27,0.550297200679779,3.849170446395874,24.015598570203665,23.89386208657221,96.32635137998648,86.56803013704784,9.713172767078504e-05,0.0933678373694419,0,0,0
7977,290375.74334842333,2010-12-09 21:13:36,690.3492215008116,2,27,0.550297200679779,3.852893829345703,24.020186334432644,23.89386208657221,96.34401910750508,86.56803013704784,6.47544875391759e-05,0.0933678373694419,0,0,0
7978,290405.754770132,2010-12-09 21:14:06,720.3606431192236,2,27,0.550297200679779,3.856617212295532,24.02477295798496,23.89386208657221,96.36169938355027,86.56803013704784,9.713172767078504e-05,0.0933678373694419,0,0,0
7979,290435.7698067562,2010-12-09 21:14:36,750.3756797384261,2,27,0.5501165986061096,3.860340595245361,24.029360134120807,23.89386208657221,96.37939866131948,86.56803013704784,9.713172767078504e-05,0.0933678373694419,0,0,0
7980,290465.7848515959,2010-12-09 21:15:06,780.3907245830972,2,27,0.550297200679779,3.8637402057647705,24.03394737620769,23.89386208657221,96.39711485532408,86.56803013704784,6.47544875391759e-05,0.0933678373694419,0,0,0
7981,290495.8001873695,2010-12-09 21:15:36,810.4060603667589,2,27,0.5501165986061096,3.8674635887146,24.03853460257704,23.89386208657221,96.4148472735089,86.56803013704784,9.713172767078504e-05,0.0933678373694419,0,0,0
7982,290525.81493589183,2010-12-09 21:16:06,840.4208088790183,2,27,0.550297200679779,3.870863199234009,24.04312169308515,23.89386208657221,96.43259513992876,86.56803013704784,0.0001295089750783,0.0933678373694419,0,0,0
7983,290555.8299537493,2010-12-09 21:16:36,870.4358267265078,2,27,0.550297200679779,3.874100923538208,24.0477088648368,23.89386208657221,96.45035896222764,86.56803013704784,9.713172767078504e-05,0.0933678373694419,0,0,0
7984,290585.844956805,2010-12-09 21:17:06,900.4508297821887,2,27,0.5499359965324402,3.8773386478424072,24.052295989317603,23.89386208657221,96.46813763572644,86.56803013704784,6.47544875391759e-05,0.0933678373694419,0,0,0
7985,290615.86360261554,2010-12-09 21:17:36,930.4694756929744,2,27,0.5501165986061096,3.880414485931397,24.056883701893387,23.89386208657221,96.48593322187016,86.56803013704784,6.47544875391759e-05,0.0933678373694419,0,0,0
7986,290645.8750857971,2010-12-09 21:18:06,960.480958874584,2,27,0.550297200679779,3.8834903240203857,24.06147039678626,23.89386208657221,96.50373893661794,86.56803013704784,6.47544875391759e-05,0.0933678373694419,0,0,0
7987,290675.89008484787,2010-12-09 21:18:36,990.4959579052488,2,27,0.5501165986061096,3.886404275894165,24.066056871640782,23.89386208657221,96.52155701621088,86.56803013704784,6.47544875391759e-05,0.0933678373694419,0,0,0
7988,290705.90511901595,2010-12-09 21:19:06,1020.5109920031772,2,27,0.550297200679779,3.8891563415527344,24.07064328146915,23.89386208657221,96.53938760772176,86.56803013704784,6.47544875391759e-05,0.0933678373694419,0,0,0
7989,290735.92037865013,2010-12-09 21:19:36,1050.526251637344,2,27,0.550297200679779,3.891584634780884,24.07522981846828,23.89386208657221,96.55723083461606,86.56803013704784,6.47544875391759e-05,0.0933678373694419,0,0,0
7990,290765.93547449174,2010-12-09 21:20:06,1080.5413475340558,2,27,0.5501165986061096,3.894174814224243,24.079816308410184,23.89386208657221,96.57508529818703,86.56803013704784,9.713172767078504e-05,0.0933678373694419,0,0,0
7991,290795.95054263936,2010-12-09 21:20:36,1110.5564156315909,2,27,0.5501165986061096,3.8961174488067623,24.084403573684025,23.89386208657221,96.59295335866308,86.56803013704784,0.0,0.0933678373694419,0,0,0
7992,290825.96528004395,2010-12-09 21:21:06,1140.571153021172,2,27,0.5501165986061096,3.898383855819702,24.08899082085881,23.89386208657221,96.61083149204214,86.56803013704784,3.237724376958795e-05,0.0933678373694419,0,0,0
7993,290855.9803516252,2010-12-09 21:21:36,1170.5862246124009,2,27,0.5499359965324402,3.9003264904022217,24.09357797885629,23.89386208657221,96.62871888503632,86.56803013704784,6.47544875391759e-05,0.0933678373694419,0,0,0
7994,290885.9953335332,2010-12-09 21:22:06,1200.6012064953943,2,27,0.550297200679779,3.902431011199951,24.09816513847034,23.89386208657221,96.64661543153068,86.56803013704784,9.713172767078504e-05,0.0933678373694419,0,0,0
7995,290916.0105120806,2010-12-09 21:22:36,1230.6163850728544,2,27,0.5501165986061096,3.9042117595672607,24.102752340456657,23.89386208657221,96.66452086348232,86.56803013704784,3.237724376958795e-05,0.0933678373694419,0,0,0
7996,290946.02543663594,2010-12-09 21:23:06,1260.6313096081403,2,27,0.5501165986061096,3.9059925079345694,24.10733958375705,23.89386208657221,96.682434830761,86.56803013704784,0.0,0.0933678373694419,0,0,0
7997,290976.0405109841,2010-12-09 21:23:36,1290.6463839762796,2,27,0.5501165986061096,3.90777325630188,24.111926750719665,23.89386208657221,96.70035664214228,86.56803013704784,3.237724376958795e-05,0.0933678373694419,0,0,0
7998,291006.0556268304,2010-12-09 21:24:06,1320.66149989281,2,27,0.550297200679779,3.90939211845398,24.11651392105898,23.89386208657221,96.71828636412086,86.56803013704784,0.0,0.0933678373694419,0,0,0
7999,291036.0707566565,2010-12-09 21:24:36,1350.6766297189545,2,27,0.5501165986061096,3.911172866821289,24.121101174357687,23.89386208657221,96.73622416537054,86.56803013704784,6.47544875391759e-05,0.0933678373694419,0,0,0
8000,291066.08598494274,2010-12-09 21:25:06,1380.691857944963,2,27,0.5501165986061096,3.9127917289733887,24.125688352253256,23.89386208657221,96.7541692721448,86.56803013704784,3.237724376958795e-05,0.0933678373694419,0,0,0
8001,291096.10101519106,2010-12-09 21:25:36,1410.7068881782743,2,27,0.5499359965324402,3.914410352706909,24.13027558643229,23.89386208657221,96.7721221519059,86.56803013704784,6.47544875391759e-05,0.0933678373694419,0,0,0
8002,291126.1158554717,2010-12-09 21:26:06,1440.7217284639082,2,27,0.5501165986061096,3.915867328643799,24.134862780297272,23.89386208657221,96.79008227040624,86.56803013704784,3.237724376958795e-05,0.0933678373694419,0,0,0
8003,291156.13075497467,2010-12-09 21:26:36,1470.73662794184,2,27,0.5501165986061096,3.917648077011109,24.1394499755634,23.89386208657221,96.80804983677712,86.56803013704784,6.47544875391759e-05,0.0933678373694419,0,0,0
8004,291186.14621147874,2010-12-09 21:27:06,1500.7520845511715,2,27,0.550297200679779,3.919428825378418,24.144037212767618,23.89386208657221,96.82602492480925,86.56803013704784,9.713172767078504e-05,0.0933678373694419,0,0,0
8005,291216.1608602328,2010-12-09 21:27:36,1530.7667332199742,2,27,0.5501165986061096,3.9207239151000977,24.14862436535053,23.89386208657221,96.84400707645464,86.56803013704784,0.0,0.0933678373694419,0,0,0
8006,291246.1758848471,2010-12-09 21:28:06,1560.7817578092406,2,27,0.5501165986061096,3.9225046634674072,24.15321157126596,23.89386208657221,96.8619967811068,86.56803013704784,6.47544875391759e-05,0.0933678373694419,0,0,0
8007,291276.1909530198,2010-12-09 21:28:36,1590.7968260070252,2,27,0.550297200679779,3.923961639404297,24.15779877527343,23.89386208657221,96.87999385430288,86.56803013704784,-3.237724376958795e-05,0.0933678373694419,0,0,0
8008,291306.206153602,2010-12-09 21:29:06,1620.812026579218,2,27,0.550297200679779,3.9257423877716064,24.162385999098664,23.89386208657221,96.89799834854912,86.56803013704784,0.0,0.0933678373694419,0,0,0
8009,291336.2222830256,2010-12-09 21:29:36,1650.8281560880343,2,27,0.5501165986061096,3.927199363708496,24.166973404007408,23.89386208657221,96.91601074613216,86.56803013704784,0.0,0.0933678373694419,0,0,0
8010,291366.23619324685,2010-12-09 21:30:06,1680.842066239064,2,27,0.5501165986061096,3.9289801120758057,24.171560485438643,23.89386208657221,96.93402929394324,86.56803013704784,3.237724376958795e-05,0.0933678373694419,0,0,0
8011,291396.2512597103,2010-12-09 21:30:36,1710.8571327376203,2,27,0.5501165986061096,3.930598974227905,24.17614774563743,23.89386208657221,96.95205595577794,86.56803013704784,6.47544875391759e-05,0.0933678373694419,0,0,0
8012,291426.26614495786,2010-12-09 21:31:06,1740.872017919978,2,27,0.550297200679779,3.932217836380005,24.180734965208497,23.89386208657221,96.97008977154404,86.56803013704784,6.47544875391759e-05,0.0933678373694419,0,0,0
8013,291456.2812344135,2010-12-09 21:31:36,1770.8871074007243,2,27,0.5501165986061096,3.9336748123168954,24.185322177567983,23.89386208657221,96.98813099013276,86.56803013704784,3.237724376958795e-05,0.0933678373694419,0,0,0
8014,291486.2962744813,2010-12-09 21:32:06,1800.902147453471,2,27,0.5501165986061096,3.935293674468994,24.189909453756982,23.89386208657221,97.00617987570756,86.56803013704784,6.47544875391759e-05,0.0933678373694419,0,0,0
8015,291516.3112840331,2010-12-09 21:32:36,1830.917157005317,2,27,0.5501165986061096,3.937074422836304,24.19449675084348,23.89386208657221,97.02423620419948,86.56803013704784,9.713172767078504e-05,0.0933678373694419,0,0,0
8016,291546.32637486723,2010-12-09 21:33:06,1860.9322479246432,2,27,0.550297200679779,3.9386932849884033,24.199083964845705,23.89386208657221,97.04229969849696,86.56803013704784,6.47544875391759e-05,0.0933678373694419,0,0,0
8017,291576.34483679023,2010-12-09 21:33:36,1890.9507098525944,2,27,0.550297200679779,3.940312147140503,24.20367176950407,23.89386208657221,97.06037295300466,86.56803013704784,9.713172767078504e-05,0.0933678373694419,0,0,0
8018,291606.35661213385,2010-12-09 21:34:06,1920.9624851060137,2,27,0.550297200679779,3.9417691230773926,24.208258505654644,23.89386208657221,97.07844945545936,86.56803013704784,6.47544875391759e-05,0.0933678373694419,0,0,0
8019,291636.37154926546,2010-12-09 21:34:36,1950.9774222376448,2,27,0.5501165986061096,3.943549871444702,24.2128457344881,23.89386208657221,97.09653544210444,86.56803013704784,6.47544875391759e-05,0.0933678373694419,0,0,0
8020,291666.3865016049,2010-12-09 21:35:06,1980.992374567096,2,27,0.550297200679779,3.945006847381592,24.21743299376539,23.89386208657221,97.11462905027108,86.56803013704784,0.0,0.0933678373694419,0,0,0
8021,291696.4015873063,2010-12-09 21:35:36,2011.007460298512,2,27,0.550297200679779,3.946787595748901,24.22202034978164,23.89386208657221,97.13273057847732,86.56803013704784,3.237724376958795e-05,0.0933678373694419,0,0,0
8022,291726.41662060726,2010-12-09 21:36:06,2041.022493664619,2,27,0.5501165986061096,3.948406457901001,24.226607636206843,23.89386208657221,97.15083931559784,86.56803013704784,3.237724376958795e-05,0.0933678373694419,0,0,0
8023,291756.43164595834,2010-12-09 21:36:36,2071.0375189305696,2,27,0.5501165986061096,3.950187206268311,24.23119492680988,23.89386208657221,97.16895568438756,86.56803013704784,6.47544875391759e-05,0.0933678373694419,0,0,0
8024,291786.4468487411,2010-12-09 21:37:06,2101.0527217132635,2,27,0.5501165986061096,3.95180606842041,24.23578220072467,23.89386208657221,97.18707960960732,86.56803013704784,3.237724376958795e-05,0.0933678373694419,0,0,0
8025,291816.4617455574,2010-12-09 21:37:36,2131.067618519547,2,27,0.5501165986061096,3.9534249305725098,24.240369451491908,23.89386208657221,97.20521097161428,86.56803013704784,6.47544875391759e-05,0.0933678373694419,0,0,0
8026,291846.4767780664,2010-12-09 21:38:06,2161.082651038546,2,27,0.550297200679779,3.95504379272461,24.244956753967863,23.89386208657221,97.22335019519969,86.56803013704784,6.47544875391759e-05,0.0933678373694419,0,0,0
8027,291876.4920084628,2010-12-09 21:38:36,2191.097881439968,2,27,0.550297200679779,3.956824541091919,24.24954406990808,23.89386208657221,97.24149716860228,86.56803013704784,6.47544875391759e-05,0.0933678373694419,0,0,0
8028,291906.50697225577,2010-12-09 21:39:06,2221.1128452279327,2,27,0.5504778623580933,3.958605289459229,24.25413131259561,23.89386208657221,97.25965142797122,86.56803013704784,6.47544875391759e-05,0.0933678373694419,0,0,0
8029,291936.5221587429,2010-12-09 21:39:36,2251.128031740138,2,27,0.5501165986061096,3.959900379180908,24.258718672295007,23.89386208657221,97.277813976918,86.56803013704784,-3.237724376958795e-05,0.0933678373694419,0,0,0
8030,291966.5369645778,2010-12-09 21:40:06,2281.142837565017,2,27,0.550297200679779,3.961843013763428,24.263305916738076,23.89386208657221,97.29598389978486,86.56803013704784,6.47544875391759e-05,0.0933678373694419,0,0,0
8031,291996.55200306664,2010-12-09 21:40:37,2311.157876058885,2,27,0.5501165986061096,3.9634618759155273,24.26789322988948,23.89386208657221,97.31416183300148,86.56803013704784,3.237724376958795e-05,0.0933678373694419,0,0,0
8032,292026.5672025862,2010-12-09 21:41:07,2341.173075583471,2,27,0.550297200679779,3.965080738067627,24.272480500146827,23.89386208657221,97.33234740021112,86.56803013704784,3.237724376958795e-05,0.0933678373694419,0,0,0
8033,292056.582370036,2010-12-09 21:41:37,2371.1882430131905,2,27,0.550297200679779,3.9670233726501465,24.277067812551856,23.89386208657221,97.35054105479529,86.56803013704784,6.47544875391759e-05,0.0933678373694419,0,0,0
8034,292086.59716249764,2010-12-09 21:42:07,2401.203035469804,2,27,0.5501165986061096,3.968642234802246,24.281655093264803,23.89386208657221,97.3687424392052,86.56803013704784,6.47544875391759e-05,0.0933678373694419,0,0,0
8035,292116.6122479584,2010-12-09 21:42:37,2431.218121020771,2,27,0.5504778623580933,3.970422983169556,24.28624240216005,23.89386208657221,97.38695195696651,86.56803013704784,3.237724376958795e-05,0.0933678373694419,0,0,0
8036,292146.6273548274,2010-12-09 21:43:07,2461.23322779455,2,27,0.5501165986061096,3.9720418453216553,24.290829684265205,23.89386208657221,97.4051694837531,86.56803013704784,3.237724376958795e-05,0.0933678373694419,0,0,0
8037,292176.6425682867,2010-12-09 21:43:37,2491.248441354062,2,27,0.5501165986061096,3.973822593688965,24.29541703410221,23.89386208657221,97.42339543277994,86.56803013704784,0.0,0.0933678373694419,0,0,0
8038,292206.6573943569,2010-12-09 21:44:07,2521.263267364172,2,27,0.5501165986061096,3.975765228271485,24.30000428416256,23.89386208657221,97.44162920074552,86.56803013704784,6.47544875391759e-05,0.0933678373694419,0,0,0
8039,292236.67237957823,2010-12-09 21:44:37,2551.2782525553976,2,27,0.5501165986061096,3.977545976638794,24.304591597210297,23.89386208657221,97.45987158551912,86.56803013704784,0.0,0.0933678373694419,0,0,0
8040,292266.68743184133,2010-12-09 21:45:07,2581.293304828554,2,27,0.550297200679779,3.9794886112213135,24.3091789069328,23.89386208657221,97.47812179965446,86.56803013704784,6.47544875391759e-05,0.0933678373694419,0,0,0
8041,292296.70615301444,2010-12-09 21:45:37,2611.3120260818264,2,27,0.5501165986061096,3.981269359588623,24.31376664745776,23.89386208657221,97.4963825394472,86.56803013704784,6.47544875391759e-05,0.0933678373694419,0,0,0
8042,292326.71759205114,2010-12-09 21:46:07,2641.323465018334,2,27,0.5499359965324402,3.9830501079559326,24.31835330856865,23.89386208657221,97.51464747219208,86.56803013704784,3.237724376958795e-05,0.0933678373694419,0,0,0
8043,292356.73257639527,2010-12-09 21:46:37,2671.3384493674644,2,27,0.550297200679779,3.984992742538452,24.322940528639613,23.89386208657221,97.53292315340464,86.56803013704784,3.237724376958795e-05,0.0933678373694419,0,0,0
8044,292386.7476244881,2010-12-09 21:47:07,2701.353497465231,2,27,0.5501165986061096,3.9867734909057617,24.32752777539209,23.89386208657221,97.55120748143663,86.56803013704784,0.0,0.0933678373694419,0,0,0
8045,292416.7626804504,2010-12-09 21:47:37,2731.3685534426054,2,27,0.5501165986061096,3.988716125488281,24.3321150265933,23.89386208657221,97.56950043079776,86.56803013704784,6.47544875391759e-05,0.0933678373694419,0,0,0
8046,292446.7777781616,2010-12-09 21:48:07,2761.383651143808,2,27,0.5501165986061096,3.990658760070801,24.336702241328283,23.89386208657221,97.58780204107596,86.56803013704784,6.47544875391759e-05,0.0933678373694419,0,0,0
8047,292476.79297904955,2010-12-09 21:48:37,2791.3988520267744,2,27,0.550297200679779,3.9924395084381104,24.34128949041916,23.89386208657221,97.60611267150392,86.56803013704784,3.237724376958795e-05,0.0933678373694419,0,0,0
8048,292506.80799256125,2010-12-09 21:49:07,2821.4138655484994,2,27,0.5501165986061096,3.994705677032471,24.345876736157397,23.89386208657221,97.624432172009,86.56803013704784,9.713172767078504e-05,0.0933678373694419,0,0,0
8049,292536.82302101015,2010-12-09 21:49:37,2851.428893992358,2,27,0.550297200679779,3.99648642539978,24.350463962753693,23.89386208657221,97.6427606414361,86.56803013704784,3.237724376958795e-05,0.0933678373694419,0,0,0
8050,292566.8257285038,2010-12-09 21:50:07,2881.431601566205,2,27,0.550297200679779,3.9985909461975098,24.355049321429785,23.89386208657221,97.66109078048228,86.56803013704784,6.47544875391759e-05,0.0933678373694419,0,0,0
8051,292596.83733962383,2010-12-09 21:50:37,2911.44321259596,2,27,0.5501165986061096,4.000695705413818,24.35963597754556,23.89386208657221,97.67943523733828,86.56803013704784,6.47544875391759e-05,0.0933678373694419,0,0,0
8052,292626.8525067577,2010-12-09 21:51:07,2941.458379744981,2,27,0.550297200679779,4.002799987792969,24.3642231430614,23.89386208657221,97.69779116977963,86.56803013704784,9.70840483205393e-05,0.0933678373694419,0,0,0
8053,292656.867553833,2010-12-09 21:51:37,2971.473426805165,2,27,0.550297200679779,4.004742622375488,24.36881037771466,23.89386208657221,97.71615702903748,86.56803013704784,9.70840483205393e-05,0.0933678373694419,0,0,0
8054,292686.88250786165,2010-12-09 21:52:07,3001.4883808538943,2,27,0.5501165986061096,4.006685256958008,24.373397554462265,23.89386208657221,97.73453236970946,86.56803013704784,0.0,0.0933678373694419,0,0,0
8055,292716.89752687706,2010-12-09 21:52:37,3031.5033998492404,2,27,0.5501165986061096,4.008951663970947,24.377984720832192,23.89386208657221,97.75291746688944,86.56803013704784,6.47544875391759e-05,0.0933678373694419,0,0,0
8056,292746.9127593787,2010-12-09 21:53:07,3061.5186323659264,2,27,0.5501165986061096,4.011218070983887,24.38257197525193,23.89386208657221,97.77131273473272,86.56803013704784,6.47544875391759e-05,0.0933678373694419,0,0,0
8057,292776.92767399934,2010-12-09 21:53:37,3091.5335469765146,2,27,0.5501165986061096,4.013322830200195,24.38715915583977,23.89386208657221,97.78971772604991,86.56803013704784,3.24249267578125e-05,0.0933678373694419,0,0,0
8058,292806.94299648487,2010-12-09 21:54:07,3121.548869457072,2,27,0.550297200679779,4.015750885009766,24.391746437912083,23.89386208657221,97.80813326059776,86.56803013704784,9.70840483205393e-05,0.0933678373694419,0,0,0
8059,292836.9577103359,2010-12-09 21:54:37,3151.563583328128,2,27,0.5501165986061096,4.017855644226074,24.396333631258717,23.89386208657221,97.82655869342284,86.56803013704784,9.71794142969884e-05,0.0933678373694419,0,0,0
8060,292866.97277233825,2010-12-09 21:55:07,3181.5786453806204,2,27,0.550297200679779,4.020122051239014,24.400920923973626,23.89386208657221,97.8449947381706,86.56803013704784,6.47544875391759e-05,0.0933678373694419,0,0,0
8061,292896.9879605146,2010-12-09 21:55:37,3211.5938334867924,2,27,0.5501165986061096,4.022388458251953,24.405508075800206,23.89386208657221,97.86344074056088,86.56803013704784,6.47544875391759e-05,0.0933678373694419,0,0,0
8062,292927.0028735914,2010-12-09 21:56:07,3241.6087465786013,2,27,0.550297200679779,4.024654865264893,24.41009523262405,23.89386208657221,97.88189733218952,86.56803013704784,6.47544875391759e-05,0.0933678373694419,0,0,0
8063,292957.0179509069,2010-12-09 21:56:37,3271.623823984299,2,27,0.5501165986061096,4.026921272277832,24.41468245217665,23.89386208657221,97.90036490155528,86.56803013704784,3.24249267578125e-05,0.0933678373694419,0,0,0
8064,292987.0329611855,2010-12-09 21:57:07,3301.638834227867,2,27,0.550297200679779,4.029511451721191,24.41926965822737,23.89386208657221,97.9188433151214,86.56803013704784,9.71794142969884e-05,0.0933678373694419,0,0,0
8065,293017.04815384804,2010-12-09 21:57:37,3331.6540269154398,2,27,0.550297200679779,4.031939506530762,24.42385687340063,23.89386208657221,97.93733258652274,86.56803013704784,9.70840483205393e-05,0.0933678373694419,0,0,0
8066,293047.06329106755,2010-12-09 21:58:07,3361.6691640547824,2,27,0.550297200679779,4.034205913543701,24.42844405037804,23.89386208657221,97.95583276466094,86.56803013704784,6.47544875391759e-05,0.0933678373694419,0,0,0
8067,293077.0781640696,2010-12-09 21:58:37,3391.6840370417926,2,27,0.5501165986061096,4.036633968353272,24.433031166979337,23.89386208657221,97.97434381214433,86.56803013704784,6.47544875391759e-05,0.0933678373694419,0,0,0
8068,293107.093234518,2010-12-09 21:59:07,3421.69910749519,2,27,0.550297200679779,4.0390625,24.437618308459086,23.89386208657221,97.99286625761124,86.56803013704784,3.24249267578125e-05,0.0933678373694419,0,0,0
8069,293137.1084262632,2010-12-09 21:59:37,3451.71429932563,2,27,0.5501165986061096,4.041652679443359,24.442205544834025,23.89386208657221,98.0114003739524,86.56803013704784,6.47544875391759e-05,0.0933678373694419,0,0,0
8070,293167.1232865687,2010-12-09 22:00:07,3481.72915964612,2,27,0.550297200679779,4.044242858886719,24.446792733726383,23.89386208657221,98.02994584409228,86.56803013704784,0.0001295089750783,0.0933678373694419,0,0,0
8071,293197.1384263897,2010-12-09 22:00:37,3511.744299376911,2,27,0.550297200679779,4.046833038330078,24.45137992350019,23.89386208657221,98.04850296455004,86.56803013704784,9.71794142969884e-05,0.0933678373694419,0,0,0
8072,293227.1533532959,2010-12-09 22:01:07,3541.7592262830967,2,27,0.550297200679779,4.049261093139648,24.455967120536336,23.89386208657221,98.06707190096782,86.56803013704784,9.70840483205393e-05,0.0933678373694419,0,0,0
8073,293257.16839254164,2010-12-09 22:01:37,3571.7742655288357,2,27,0.5501165986061096,4.051851272583008,24.46055435535317,23.89386208657221,98.08565275516268,86.56803013704784,6.47544875391759e-05,0.0933678373694419,0,0,0
8074,293287.183467376,2010-12-09 22:02:07,3601.7893403531093,2,27,0.5501165986061096,4.054441452026367,24.46514150257426,23.89386208657221,98.10424513298578,86.56803013704784,6.47544875391759e-05,0.0933678373694419,0,0,0
8075,293317.19851783954,2010-12-09 22:02:37,3631.804390826788,2,27,0.5501165986061096,4.057193756103516,24.46972875119324,23.89386208657221,98.12284994507272,86.56803013704784,9.71794142969884e-05,0.0933678373694419,0,0,0
8076,293347.2137272588,2010-12-09 22:03:07,3661.819600235972,2,27,0.5504778623580933,4.059783935546875,24.474316069611888,23.89386208657221,98.14146717074344,86.56803013704784,9.71794142969884e-05,0.0933678373694419,0,0,0
8077,293377.22864536307,2010-12-09 22:03:37,3691.8345183252177,2,27,0.5501165986061096,4.062374114990234,24.47890327261757,23.89386208657221,98.16009586553092,86.56803013704784,9.71794142969884e-05,0.0933678373694419,0,0,0
8078,293407.2436586141,2010-12-09 22:04:07,3721.849531611356,2,27,0.5501165986061096,4.064964294433594,24.48349049247,23.89386208657221,98.17873703959918,86.56803013704784,3.24249267578125e-05,0.0933678373694419,0,0,0
8079,293437.25869708793,2010-12-09 22:04:37,3751.864570075149,2,27,0.5501165986061096,4.067878246307373,24.488077673802326,23.89386208657221,98.1973905332666,86.56803013704784,9.71794142969884e-05,0.0933678373694419,0,0,0
8080,293467.2737462032,2010-12-09 22:05:07,3781.879619170397,2,27,0.550297200679779,4.070630073547363,24.49266485927502,23.89386208657221,98.21605666827996,86.56803013704784,9.70840483205393e-05,0.0933678373694419,0,0,0
8081,293497.288949823,2010-12-09 22:05:37,3811.894822800199,2,27,0.550297200679779,4.073382377624512,24.497252080874897,23.89386208657221,98.23473557824028,86.56803013704784,0.0001295089750783,0.0933678373694419,0,0,0
8082,293527.3073066294,2010-12-09 22:06:07,3841.913179706809,2,27,0.550297200679779,4.076134204864502,24.501839068314467,23.89386208657221,98.25342621372349,86.56803013704784,9.70840483205393e-05,0.0933678373694419,0,0,0
8083,293557.3189075991,2010-12-09 22:06:37,3871.9247806264048,2,27,0.5501165986061096,4.07888650894165,24.506425036061053,23.89386208657221,98.27212557006528,86.56803013704784,6.47544875391759e-05,0.0933678373694419,0,0,0
8084,293587.3339677017,2010-12-09 22:07:07,3901.9398406939576,2,27,0.550297200679779,4.0819621086120605,24.51101222999728,23.89386208657221,98.29084308058626,86.56803013704784,0.0001295089750783,0.0933678373694419,0,0,0
8085,293617.3491751962,2010-12-09 22:07:37,3931.955048188376,2,27,0.5504778623580933,4.084714412689209,24.515599361549636,23.89386208657221,98.30957352318087,86.56803013704784,9.71794142969884e-05,0.0933678373694419,0,0,0
8086,293647.36418741464,2010-12-09 22:08:07,3961.9700604068585,2,27,0.550297200679779,4.087628364562988,24.520186536746778,23.89386208657221,98.3283175535004,86.56803013704784,9.71794142969884e-05,0.0933678373694419,0,0,0
8087,293677.37915715744,2010-12-09 22:08:37,3991.9850301496417,2,27,0.5501165986061096,4.090703964233398,24.52477370877737,23.89386208657221,98.34707504450496,86.56803013704784,9.70840483205393e-05,0.0933678373694419,0,0,0
8088,293707.3941699272,2010-12-09 22:09:07,4022.0000429144834,2,27,0.5501165986061096,4.093617916107178,24.52936095203255,23.89386208657221,98.36584638861584,86.56803013704784,0.0001295089750783,0.0933678373694419,0,0,0
8089,293737.40924508235,2010-12-09 22:09:37,4052.0151180695807,2,27,0.5501165986061096,4.096531867980957,24.533948126460075,23.89386208657221,98.3846310698252,86.56803013704784,6.47544875391759e-05,0.0933678373694419,0,0,0
8090,293767.4242893857,2010-12-09 22:10:07,4082.030162377918,2,27,0.5501165986061096,4.099445819854736,24.538535397116167,23.89386208657221,98.40342991679128,86.56803013704784,6.47544875391759e-05,0.0933678373694419,0,0,0
8091,293797.4393166065,2010-12-09 22:10:37,4112.045189598733,2,27,0.5501165986061096,4.102521896362305,24.543122729357577,23.89386208657221,98.42224292369042,86.56803013704784,9.71794142969884e-05,0.0933678373694419,0,0,0
8092,293827.45437791216,2010-12-09 22:11:07,4142.060250884316,2,27,0.550297200679779,4.105759620666504,24.54770997420635,23.89386208657221,98.4410696789616,86.56803013704784,9.71794142969884e-05,0.0933678373694419,0,0,0
8093,293857.4694171879,2010-12-09 22:11:37,4172.075290180179,2,27,0.5501165986061096,4.108835220336914,24.55229721833141,23.89386208657221,98.45991059792094,86.56803013704784,9.70840483205393e-05,0.0933678373694419,0,0,0
8094,293887.484591956,2010-12-09 22:12:07,4202.09046494816,2,27,0.5501165986061096,4.111911296844482,24.55688449998459,23.89386208657221,98.47876596815674,86.56803013704784,6.47544875391759e-05,0.0933678373694419,0,0,0
8095,293917.49968981755,2010-12-09 22:12:37,4232.105562794724,2,27,0.550297200679779,4.115148544311523,24.56147179869329,23.89386208657221,98.49763559702838,86.56803013704784,0.0001294136018259,0.0933678373694419,0,0,0
8096,293947.51481377904,2010-12-09 22:13:08,4262.120686751261,2,27,0.550297200679779,4.118224620819092,24.56605908425238,23.89386208657221,98.51651964535026,86.56803013704784,9.71794142969884e-05,0.0933678373694419,0,0,0
8097,293977.5297915518,2010-12-09 22:13:38,4292.135664539064,2,27,0.5501165986061096,4.121300220489502,24.57064627814682,23.89386208657221,98.53541788096406,86.56803013704784,6.47544875391759e-05,0.0933678373694419,0,0,0
8098,294007.5449535781,2010-12-09 22:14:08,4322.150826690649,2,27,0.5501165986061096,4.12437629699707,24.57523359990848,23.89386208657221,98.55433127161254,86.56803013704784,3.24249267578125e-05,0.0933678373694419,0,0,0
8099,294037.55974069145,2010-12-09 22:14:38,4352.165613788929,2,27,0.550297200679779,4.1277756690979,24.579820762378947,23.89386208657221,98.57325884715492,86.56803013704784,9.70840483205393e-05,0.0933678373694419,0,0,0
8100,294067.5747679724,2010-12-09 22:15:08,4382.180640944582,2,27,0.550297200679779,4.131175518035889,24.58440797626845,23.89386208657221,98.59220159345294,86.56803013704784,9.71794142969884e-05,0.0933678373694419,0,0,0
8101,294097.58986028016,2010-12-09 22:15:38,4412.1957332674,2,27,0.5501165986061096,4.134413242340088,24.58899529624801,23.89386208657221,98.61115990193944,86.56803013704784,9.71794142969884e-05,0.0933678373694419,0,0,0
8102,294127.6050497648,2010-12-09 22:16:08,4442.210922752002,2,27,0.5501165986061096,4.137650966644287,24.593582588554447,23.89386208657221,98.63013330787948,86.56803013704784,3.24249267578125e-05,0.0933678373694419,0,0,0
8103,294157.619963824,2010-12-09 22:16:38,4472.225836811218,2,27,0.5501165986061096,4.141050338745117,24.5981698881749,23.89386208657221,98.64912204548928,86.56803013704784,9.70840483205393e-05,0.0933678373694419,0,0,0
8104,294187.63522066124,2010-12-09 22:17:08,4502.241093733637,2,27,0.550297200679779,4.144611835479736,24.60275722347793,23.89386208657221,98.66812631961608,86.56803013704784,0.0001295089750783,0.0933678373694419,0,0,0
8105,294217.65009635495,2010-12-09 22:17:38,4532.255969327133,2,27,0.550297200679779,4.148011684417725,24.60734441288497,23.89386208657221,98.68714596204136,86.56803013704784,0.0001295089750783,0.0933678373694419,0,0,0
8106,294247.6685713504,2010-12-09 22:18:08,4562.274444427864,2,27,0.550297200679779,4.151573181152344,24.611932128770352,23.89386208657221,98.70618351350922,86.56803013704784,0.0001295089750783,0.0933678373694419,0,0,0
8107,294277.68019357306,2010-12-09 22:18:38,4592.286066560248,2,27,0.5501165986061096,4.154810905456543,24.61651887920028,23.89386208657221,98.72523284143966,86.56803013704784,6.47544875391759e-05,0.0933678373694419,0,0,0
8108,294307.69522168604,2010-12-09 22:19:08,4622.301094753482,2,27,0.5501165986061096,4.158372402191162,24.62110608151845,23.89386208657221,98.7442999416442,86.56803013704784,9.71794142969884e-05,0.0933678373694419,0,0,0
8109,294337.7103759881,2010-12-09 22:19:38,4652.316248980347,2,27,0.550297200679779,4.161933898925781,24.62569332528332,23.89386208657221,98.76338318416352,86.56803013704784,0.0001295089750783,0.0933678373694419,0,0,0
8110,294367.7253461168,2010-12-09 22:20:08,4682.331219104079,2,27,0.5497553944587708,4.1651716232299805,24.63028052804323,23.89386208657221,98.78248233582374,86.56803013704784,3.24249267578125e-05,0.0933678373694419,0,0,0
8111,294397.7403864303,2010-12-09 22:20:38,4712.346259412461,2,27,0.5501165986061096,4.168894767761231,24.63486770939236,23.89386208657221,98.80159757237,86.56803013704784,9.70840483205393e-05,0.0933678373694419,0,0,0
8112,294427.75540516,2010-12-09 22:21:08,4742.361278147158,2,27,0.5499359965324402,4.17245626449585,24.639454899596743,23.89386208657221,98.8207291409526,86.56803013704784,9.70840483205393e-05,0.0933678373694419,0,0,0
8113,294457.7704491675,2010-12-09 22:21:38,4772.376322159759,2,27,0.550297200679779,4.176017761230469,24.644042164917256,23.89386208657221,98.8398774255582,86.56803013704784,9.70840483205393e-05,0.0933678373694419,0,0,0
8114,294487.78907507355,2010-12-09 22:22:08,4802.394948150975,2,27,0.5501165986061096,4.179579257965088,24.648629942676056,23.89386208657221,98.8590443537022,86.56803013704784,6.47544875391759e-05,0.0933678373694419,0,0,0
8115,294517.80086618644,2010-12-09 22:22:38,4832.406739258849,2,27,0.5501165986061096,4.183302879333496,24.65321681716683,23.89386208657221,98.87822414074076,86.56803013704784,0.0001295089750783,0.0933678373694419,0,0,0
8116,294547.8156089243,2010-12-09 22:23:08,4862.421481911526,2,27,0.5501165986061096,4.187026023864746,24.657803959511813,23.89386208657221,98.8974216314728,86.56803013704784,0.0001295089750783,0.0933678373694419,0,0,0
8117,294577.8307130665,2010-12-09 22:23:38,4892.43658603872,2,27,0.550297200679779,4.190749645233154,24.66239117816032,23.89386208657221,98.91663632719953,86.56803013704784,9.71794142969884e-05,0.0933678373694419,0,0,0
8118,294607.8457319917,2010-12-09 22:24:08,4922.451604978928,2,27,0.550297200679779,4.194472789764404,24.66697835928147,23.89386208657221,98.93586783454904,86.56803013704784,0.0001295089750783,0.0933678373694419,0,0,0
8119,294637.86077019485,2010-12-09 22:24:38,4952.466643182072,2,27,0.5501165986061096,4.197872161865234,24.67156564915993,23.89386208657221,98.9551168224918,86.56803013704784,9.70840483205393e-05,0.0933678373694419,0,0,0
8120,294652.86050294794,2010-12-09 22:24:53,4967.466375935116,2,27,0.5501165986061096,4.200138568878174,24.67385807883729,23.89386208657221,98.96474265092134,86.56803013704784,0.0001618385285837,0.0933678373694419,0,0,0
8121,294682.8851778665,2010-12-09 22:25:23,30.01506997220005,3,27,0.0,4.109321117401123,24.67385807883729,23.89386208657221,98.96474265092134,86.56803013704784,-0.0004208564641885,0.0933678373694419,0,0,0
8122,294712.90018022043,2010-12-09 22:25:53,60.03007229605981,3,27,0.0,4.097826957702637,24.67385807883729,23.89386208657221,98.96474265092134,86.56803013704784,-0.0002914428769145,0.0933678373694419,0,0,0
8123,294742.91534793586,2010-12-09 22:26:23,90.04524008166476,3,27,0.0,4.091027736663818,24.67385807883729,23.89386208657221,98.96474265092134,86.56803013704784,-0.0001942634553415,0.0933678373694419,0,0,0
8124,294772.8836019133,2010-12-09 22:26:53,120.01349400392516,3,27,0.0,4.08649492263794,24.67385807883729,23.89386208657221,98.96474265092134,86.56803013704784,-0.0001295089750783,0.0933678373694419,0,0,0
8125,294772.8954660579,2010-12-09 22:26:53,0.015770549405636,4,27,1.0025428533554075,4.199653148651123,24.67386250985512,23.89386208657221,98.96476126073496,86.56803013704784,-9.70840483205393e-05,0.0933678373694419,0,0,0
8126,294773.7859510555,2010-12-09 22:26:54,0.906255547072908,4,27,0.951972246170044,4.199814796447754,24.67410274401192,23.89386208657221,98.96577018841568,86.56803013704784,-6.47544875391759e-05,0.0933678373694419,0,0,0
8127,294775.8015200615,2010-12-09 22:26:56,2.921824558034802,4,27,0.9019435048103333,4.199653148651123,24.674620734074526,23.89386208657221,98.96794563420868,86.56803013704784,-9.70840483205393e-05,0.0933678373694419,0,0,0
8128,294778.879580291,2010-12-09 22:26:59,5.999884757454126,4,27,0.8519147038459778,4.199814796447754,24.675369357117788,23.89386208657221,98.971089693867,86.56803013704784,0.0,0.0933678373694419,0,0,0
8129,294783.09826037416,2010-12-09 22:27:03,10.218564865646435,4,27,0.8017053604125977,4.199814796447754,24.67633680454683,23.89386208657221,98.97515276914292,86.56803013704784,3.23295607813634e-05,0.0933678373694419,0,0,0
8130,294788.6293985187,2010-12-09 22:27:09,15.74970308035766,4,27,0.7516765594482422,4.199814796447754,24.6775286261274,23.89386208657221,98.98015819205246,86.56803013704784,0.0,0.0933678373694419,0,0,0
8131,294795.86384402803,2010-12-09 22:27:16,22.984148529610223,4,27,0.7014672160148621,4.199653148651123,24.678986900896707,23.89386208657221,98.98628268572136,86.56803013704784,-6.47544875391759e-05,0.0933678373694419,0,0,0
8132,294805.5665896975,2010-12-09 22:27:26,32.68689418900109,4,27,0.6514384150505066,4.199814796447754,24.680806905827986,23.89386208657221,98.9939264114175,86.56803013704784,0.0,0.0933678373694419,0,0,0
8133,294819.0040005125,2010-12-09 22:27:39,46.12430498895328,4,27,0.6014096736907959,4.199814796447754,24.683139616230783,23.89386208657221,99.0037234093142,86.56803013704784,0.0,0.0933678373694419,0,0,0
8134,294839.3784316808,2010-12-09 22:28:00,66.49873617232112,4,27,0.5513808727264404,4.199814796447754,24.686391388902223,23.89386208657221,99.01738031841025,86.56803013704784,0.0,0.0933678373694419,0,0,0
8135,294874.6748159154,2010-12-09 22:28:35,101.79512040693572,4,27,0.5013521313667297,4.199814796447754,24.69152968046805,23.89386208657221,99.03896026703958,86.56803013704784,0.0,0.0933678373694419,0,0,0
8136,294940.56401170994,2010-12-09 22:29:41,167.68431629670758,4,27,0.4511427283287048,4.199653148651123,24.700209732335697,23.89386208657221,99.07541494956745,86.56803013704784,-3.23295607813634e-05,0.0933678373694419,0,0,0
8137,295044.2807747807,2010-12-09 22:31:25,271.4010792772784,4,27,0.4011139571666717,4.199814796447754,24.712460910198057,23.89386208657221,99.126867784858,86.56803013704784,3.23295607813634e-05,0.0933678373694419,0,0,0
8138,295172.9189291202,2010-12-09 22:33:33,400.0392336016935,4,27,0.3510851860046386,4.199653148651123,24.725883692716216,23.89386208657221,99.18324119227916,86.56803013704784,0.0,0.0933678373694419,0,0,0
8139,295328.24424240825,2010-12-09 22:36:09,555.3645468747228,4,27,0.3008758127689361,4.199653148651123,24.739936262699,23.89386208657221,99.24225951700434,86.56803013704784,-3.23295607813634e-05,0.0933678373694419,0,0,0
8140,295515.2563920198,2010-12-09 22:39:16,742.3766965865055,4,27,0.2508470416069031,4.199814796447754,24.754243916432426,23.89386208657221,99.30234922670664,86.56803013704784,0.0,0.0933678373694419,0,0,0
8141,295746.1737612116,2010-12-09 22:43:06,973.2940657582524,4,27,0.2006376683712005,4.199814796447754,24.768683128098207,23.89386208657221,99.36299144138216,86.56803013704784,3.23295607813634e-05,0.0933678373694419,0,0,0
8142,296054.9023273342,2010-12-09 22:48:15,1282.022631830748,4,27,0.1504282802343368,4.199814796447754,24.7836560560274,23.89386208657221,99.42587517316072,86.56803013704784,0.0,0.0933678373694419,0,0,0
8143,296523.8152004488,2010-12-09 22:56:04,1750.9355049403707,4,27,0.1003995165228843,4.199653148651123,24.79976401760914,23.89386208657221,99.49352579773578,86.56803013704784,-6.47544875391759e-05,0.0933678373694419,0,0,0
8144,297460.7663806943,2010-12-09 23:11:41,2687.886685245978,4,27,0.0503707453608512,4.199814796447754,24.818546608094422,23.89386208657221,99.57240937981332,86.56803013704784,0.0,0.0933678373694419,0,0,0
8145,297484.3472043119,2010-12-09 23:12:05,2711.467508908708,4,27,0.0498289167881011,4.199814796447754,24.81887771661973,23.89386208657221,99.57379997893206,86.56803013704784,0.0,0.0933678373694419,0,0,0
8146,297514.3749696041,2010-12-09 23:12:35,30.01459529598655,5,27,0.0,4.191397190093994,24.81887771661973,23.89386208657221,99.57379997893206,86.56803013704784,-3.23295607813634e-05,0.0933678373694419,0,0,0
8147,297544.37426783395,2010-12-09 23:13:05,60.0138935107749,5,27,0.0,4.1901021003723145,24.81887771661973,23.89386208657221,99.57379997893206,86.56803013704784,-3.23295607813634e-05,0.0933678373694419,0,0,0
8148,297544.5638499781,2010-12-09 23:13:05,0.187614015261053,6,27,0.0007031940040178,4.190587520599365,24.818877753266698,23.89386208657221,99.57380013250436,86.56803013704784,0.0,0.0985156819224357,0,0,0
8149,297549.3762792582,2010-12-09 23:13:10,5.000043310468744,6,27,0.0008838032954372,4.1901021003723145,24.818878840930523,23.89386208657221,99.5738046900952,86.56803013704784,-3.23295607813634e-05,0.0985156819224357,0,0,0
8150,297579.3779559422,2010-12-09 23:13:40,30.01517414142115,7,27,-1.099568486213684,4.002962112426758,24.818878840930523,23.90303010357395,99.5738046900952,86.6049420393673,-0.001003646873869,0.0985156819224357,0,0,0
8151,297609.3931396875,2010-12-09 23:14:10,60.030357971953286,7,27,-1.099568486213684,3.973822593688965,24.818878840930523,23.91219814249757,99.5738046900952,86.64149886299728,-0.0006799221155233,0.0985156819224357,0,0,0
8152,297639.4079532968,2010-12-09 23:14:40,90.04517149599195,7,27,-1.0997490882873535,3.9537487030029297,24.818878840930523,23.92136590462595,99.5738046900952,86.67783294863771,-0.0004532813909463,0.0985156819224357,0,0,0
8153,297669.42299312394,2010-12-09 23:15:10,120.0602113231773,7,27,-1.099568486213684,3.9378838539123535,24.818878840930523,23.930533824124502,99.5738046900952,86.71400461952948,-0.0003561496851034,0.0985156819224357,0,0,0
8154,297699.438278422,2010-12-09 23:15:40,150.07549671143192,7,27,-1.0997490882873535,3.924447298049927,24.818878840930523,23.93970168474982,99.5738046900952,86.75004355963442,-0.0003237724304199,0.0985156819224357,0,0,0
8155,297729.4532264557,2010-12-09 23:16:10,180.09044465496834,7,27,-1.099568486213684,3.912306070327759,24.818878840930523,23.948869463368084,99.5738046900952,86.78596529957085,-0.0003237247583456,0.0985156819224357,0,0,0
8156,297759.46837888315,2010-12-09 23:16:40,210.1055970873674,7,27,-1.099568486213684,3.9009740352630615,24.818878840930523,23.958037382612357,99.5738046900952,86.82178029181496,-0.0003237724304199,0.0985156819224357,0,0,0
8157,297789.48339409905,2010-12-09 23:17:10,240.12061231834605,7,27,-1.099568486213684,3.890127658843994,24.818878840930523,23.96720520914322,99.5738046900952,86.8574944015503,-0.0003237724304199,0.0985156819224357,0,0,0
8158,297819.49829923105,2010-12-09 23:17:40,270.1355174503476,7,27,-1.099568486213684,3.880090713500977,24.818878840930523,23.976373050070883,99.5738046900952,86.89311307759164,-0.0002913951757363,0.0985156819224357,0,0,0
8159,297849.51334411086,2010-12-09 23:18:10,300.15056231506867,7,27,-1.099568486213684,3.870215654373169,24.818878840930523,23.98554094838182,99.5738046900952,86.92864006961518,-0.0002590179501567,0.0985156819224357,0,0,0
8160,297879.52842652897,2010-12-09 23:18:40,330.1656447984021,7,27,-1.099568486213684,3.860664367675781,24.818878840930523,23.99470888044982,99.5738046900952,86.9640786381281,-0.0002266406954731,0.0985156819224357,0,0,0
8161,297909.54356572847,2010-12-09 23:19:10,360.180783927697,7,27,-1.099568486213684,3.8514368534088135,24.818878840930523,24.003876796758785,99.5738046900952,86.99943093387571,-0.0002913951757363,0.0985156819224357,0,0,0
8162,297939.5584906748,2010-12-09 23:19:40,390.1957088740058,7,27,-1.099568486213684,3.842371225357056,24.818878840930523,24.013044652485288,99.5738046900952,87.03469919906844,-0.0002590179501567,0.0985156819224357,0,0,0
8163,297969.5735720102,2010-12-09 23:20:10,420.21079022452034,7,27,-1.099568486213684,3.8336293697357178,24.818878840930523,24.022212524282057,99.5738046900952,87.06988647743938,-0.0002266406954731,0.0985156819224357,0,0,0
8164,297999.5886098174,2010-12-09 23:20:40,450.2258280166415,7,27,-1.099568486213684,3.825211524963379,24.818878840930523,24.031380390042383,99.5738046900952,87.10499421848981,-0.0002590179501567,0.0985156819224357,0,0,0
8165,298029.60393570643,2010-12-09 23:21:10,480.24115397585535,7,27,-1.099568486213684,3.816793441772461,24.818878840930523,24.04054838910261,99.5738046900952,87.14002438988041,-0.0002266406954731,0.0985156819224357,0,0,0
8166,298059.61890285776,2010-12-09 23:21:40,510.256121057015,7,27,-1.0997490882873535,3.808537244796753,24.818878840930523,24.0497162297994,99.5738046900952,87.17497776028442,-0.0002266406954731,0.0985156819224357,0,0,0
8167,298089.6373215532,2010-12-09 23:22:10,540.2745398426084,7,27,-1.0997490882873535,3.800604820251465,24.818878840930523,24.058885170470724,99.5738046900952,87.20986127705478,-0.0001942634553415,0.0985156819224357,0,0,0
8168,298119.6488557517,2010-12-09 23:22:40,570.2860740411717,7,27,-1.099568486213684,3.7928342819213863,24.818878840930523,24.06805208567192,99.5738046900952,87.24466541248748,-0.0001942634553415,0.0985156819224357,0,0,0
8169,298149.6640193769,2010-12-09 23:23:10,600.3012376463738,7,27,-1.099568486213684,3.785225629806519,24.818878840930523,24.07722002283184,99.5738046900952,87.27940265157396,-0.0001942634553415,0.0985156819224357,0,0,0
8170,298179.67894505005,2010-12-09 23:23:40,630.316163254329,7,27,-1.099568486213684,3.777778863906861,24.818878840930523,24.086387961868525,99.5738046900952,87.31407046879131,-0.0001942634553415,0.0985156819224357,0,0,0
8171,298209.6940307865,2010-12-09 23:24:10,660.3312489857452,7,27,-1.099568486213684,3.770332098007202,24.818878840930523,24.09555594810761,99.5738046900952,87.34867070840582,-0.0001942634553415,0.0985156819224357,0,0,0
8172,298239.70907691936,2010-12-09 23:24:40,690.346295138672,7,27,-1.099568486213684,3.763209104537964,24.818878840930523,24.10472391899295,99.5738046900952,87.38320458854379,-0.0001942634553415,0.0985156819224357,0,0,0
8173,298269.72410852613,2010-12-09 23:25:10,720.3613267253512,7,27,-1.099568486213684,3.756247997283936,24.818878840930523,24.11389194650891,99.5738046900952,87.41767377773664,-0.0001618862152099,0.0985156819224357,0,0,0
8174,298299.7393557444,2010-12-09 23:25:40,750.3765739386088,7,27,-1.0997490882873535,3.749449014663696,24.818878840930523,24.12305999582586,99.5738046900952,87.45207992505722,-0.0001942634553415,0.0985156819224357,0,0,0
8175,298329.7545414245,2010-12-09 23:26:10,780.3917596287687,7,27,-1.099568486213684,3.742811679840088,24.818878840930523,24.132227952202825,99.5738046900952,87.48642420916903,-0.0001618862152099,0.0985156819224357,0,0,0
8176,298359.7693594046,2010-12-09 23:26:40,810.4065776239335,7,27,-1.0997490882873535,3.7363362312316895,24.818878840930523,24.14139585169336,99.5738046900952,87.52070749685215,-0.0001618862152099,0.0985156819224357,0,0,0
8177,298389.7843274532,2010-12-09 23:27:10,840.4215456424255,7,27,-1.099568486213684,3.729860782623291,24.818878840930523,24.15056384474732,99.5738046900952,87.55493234914685,-0.0001618862152099,0.0985156819224357,0,0,0
8178,298419.7994000018,2010-12-09 23:27:40,870.4366182211116,7,27,-1.0997490882873535,3.723709106445313,24.818878840930523,24.159731790331733,99.5738046900952,87.58909974909271,-0.0001618862152099,0.0985156819224357,0,0,0
8179,298449.814477588,2010-12-09 23:28:10,900.4516958724212,7,27,-1.099568486213684,3.717557430267334,24.818878840930523,24.168899725564856,99.5738046900952,87.6232099674688,-0.0001942634553415,0.0985156819224357,0,0,0
8180,298479.8294969442,2010-12-09 23:28:40,930.4667151434531,7,27,-1.099568486213684,3.711567640304565,24.818878840930523,24.17806767992469,99.5738046900952,87.65726446139185,-0.0001295089750783,0.0985156819224357,0,0,0
8181,298509.84467509063,2010-12-09 23:29:11,960.4818932898404,7,27,-1.099568486213684,3.705577850341797,24.818878840930523,24.18723572974713,99.5738046900952,87.69126462535054,-0.0001618862152099,0.0985156819224357,0,0,0
8182,298539.8598457784,2010-12-09 23:29:41,990.4970639776676,7,27,-1.099568486213684,3.6997499465942383,24.818878840930523,24.196403781730005,99.5738046900952,87.72521080558118,-0.0001618862152099,0.0985156819224357,0,0,0
8183,298569.87493165024,2010-12-09 23:30:11,1020.5121499346452,7,27,-1.099568486213684,3.6940839290618896,24.818878840930523,24.205571776725623,99.5738046900952,87.7591036460071,-0.0001295089750783,0.0985156819224357,0,0,0
8184,298599.8898984707,2010-12-09 23:30:41,1050.5271166749567,7,27,-1.0997490882873535,3.688417911529541,24.818878840930523,24.21473978191531,99.5738046900952,87.79294452392864,-0.0001295089750783,0.0985156819224357,0,0,0
8185,298629.9048620532,2010-12-09 23:31:11,1080.5420802574097,7,27,-1.099568486213684,3.682751893997192,24.818878840930523,24.22390765962864,99.5738046900952,87.82673346502273,-0.0001618862152099,0.0985156819224357,0,0,0
8186,298659.9200221446,2010-12-09 23:31:41,1110.5572403588933,7,27,-1.099568486213684,3.6772477626800537,24.818878840930523,24.2330757042706,99.5738046900952,87.86047232755536,-0.0001295089750783,0.0985156819224357,0,0,0
8187,298689.93489626446,2010-12-09 23:32:11,1140.572114478722,7,27,-1.099568486213684,3.672067642211914,24.818878840930523,24.2422435840735,99.5738046900952,87.89416077423782,-0.0001294612884521,0.0985156819224357,0,0,0
8188,298719.9499371543,2010-12-09 23:32:41,1170.5871553585268,7,27,-1.099568486213684,3.6668872833251953,24.818878840930523,24.25141153332754,99.5738046900952,87.92780059004427,-6.47544875391759e-05,0.0985156819224357,0,0,0
8189,298749.9649893422,2010-12-09 23:33:11,1200.6022075414587,7,27,-1.099568486213684,3.6613831520080566,24.818878840930523,24.260579468414345,99.5738046900952,87.96139262324807,-0.0001618862152099,0.0985156819224357,0,0,0
8190,298779.9800454148,2010-12-09 23:33:41,1230.6172636140705,7,27,-1.099568486213684,3.656526565551758,24.818878840930523,24.26974750973439,99.5738046900952,87.99493779638608,-9.713172767078504e-05,0.0985156819224357,0,0,0
8191,298809.9985599688,2010-12-09 23:34:11,1260.635778243167,7,27,-1.0997490882873535,3.651346206665039,24.818878840930523,24.278916519755608,99.5738046900952,88.02844003768014,-9.713172767078504e-05,0.0985156819224357,0,0,0
8192,298840.0101833843,2010-12-09 23:34:41,1290.647401583556,7,27,-1.099568486213684,3.6463277339935294,24.818878840930523,24.28808346013798,99.5738046900952,88.06188841433662,-0.0001295089750783,0.0985156819224357,0,0,0
8193,298870.0253123684,2010-12-09 23:35:11,1320.6625305926673,7,27,-1.0993878841400146,3.641471147537232,24.818878840930523,24.297251417129008,99.5738046900952,88.09529493725789,-9.713172767078504e-05,0.0985156819224357,0,0,0
8194,298900.0403621704,2010-12-09 23:35:41,1350.6775803746243,7,27,-1.099568486213684,3.636776447296143,24.818878840930523,24.30641931321432,99.5738046900952,88.12865679104621,-6.47544875391759e-05,0.0985156819224357,0,0,0
8195,298930.05532419897,2010-12-09 23:36:11,1380.6925424332858,7,27,-1.099568486213684,3.631919860839844,24.818878840930523,24.31558721611312,99.5738046900952,88.16197514007368,-9.713172767078504e-05,0.0985156819224357,0,0,0
8196,298960.07037990564,2010-12-09 23:36:41,1410.7075981048995,7,27,-1.0993878841400146,3.627387046813965,24.818878840930523,24.3247552494552,99.5738046900952,88.19525082690024,-9.713172767078504e-05,0.0985156819224357,0,0,0
8197,298990.085369157,2010-12-09 23:37:11,1440.7225873712662,7,27,-1.0997490882873535,3.622692346572876,24.818878840930523,24.333918581102047,99.5738046900952,88.22846749520964,-0.0001295089750783,0.0985156819224357,0,0,0
8198,299020.1006569161,2010-12-09 23:37:41,1470.7378751203958,7,27,-1.099568486213684,3.618483304977417,24.818878840930523,24.343091349068786,99.5738046900952,88.26167740426447,-9.713172767078504e-05,0.0985156819224357,0,0,0
8199,299050.1192900752,2010-12-09 23:38:11,1500.7565083646614,7,27,-1.0997490882873535,3.613788604736328,24.818878840930523,24.352260471196225,99.5738046900952,88.29483382069549,-0.0001295089750783,0.0985156819224357,0,0,0
8200,299080.13066678186,2010-12-09 23:38:41,1530.7678849810875,7,27,-1.099568486213684,3.609741449356079,24.818878840930523,24.36142738432553,99.5738046900952,88.32794268358849,-9.713172767078504e-05,0.0985156819224357,0,0,0
8201,299110.14571331075,2010-12-09 23:39:11,1560.7829316051868,7,27,-1.099568486213684,3.60553240776062,24.818878840930523,24.370595434620075,99.5738046900952,88.36101719987116,-0.0001295089750783,0.0985156819224357,0,0,0
8202,299140.1607453335,2010-12-09 23:39:41,1590.7979635477516,7,27,-1.0997490882873535,3.601485252380371,24.818878840930523,24.379763389443543,99.5738046900952,88.39405373444202,-9.713172767078504e-05,0.0985156819224357,0,0,0
8203,299170.1758839515,2010-12-09 23:40:11,1620.8131022459736,7,27,-1.099568486213684,3.597438097000122,24.818878840930523,24.38893147933139,99.5738046900952,88.4270539204517,-0.0001295089750783,0.0985156819224357,0,0,0
8204,299200.1910397072,2010-12-09 23:40:41,1650.8282579064055,7,27,-1.099568486213684,3.593552827835083,24.818878840930523,24.39809954557515,99.5738046900952,88.46001814183902,-0.0001295089750783,0.0985156819224357,0,0,0
8205,299230.2062715021,2010-12-09 23:41:11,1680.8434897714696,7,27,-1.099568486213684,3.589829683303833,24.818878840930523,24.407267691005416,99.5738046900952,88.49294782758308,-0.0001295089750783,0.0985156819224357,0,0,0
8206,299260.2210510516,2010-12-09 23:41:41,1710.8582693410142,7,27,-1.0997490882873535,3.586106300354004,24.818878840930523,24.41643567000384,99.5738046900952,88.52584285118209,-0.0001618862152099,0.0985156819224357,0,0,0
8207,299290.2361966369,2010-12-09 23:42:11,1740.8734148561998,7,27,-1.0997490882873535,3.5827066898345947,24.818878840930523,24.425603724905283,99.5738046900952,88.55870512628702,-9.713172767078504e-05,0.0985156819224357,0,0,0
8208,299320.2510831426,2010-12-09 23:42:41,1770.8883013618504,7,27,-1.0997490882873535,3.579145193099976,24.818878840930523,24.434771718043542,99.5738046900952,88.59153495333308,-9.713172767078504e-05,0.0985156819224357,0,0,0
8209,299350.2664061444,2010-12-09 23:43:11,1800.903624343655,7,27,-1.099568486213684,3.5755836963653564,24.818878840930523,24.443939887902783,99.5738046900952,88.6243337337983,-0.0001295089750783,0.0985156819224357,0,0,0
8210,299380.2811947214,2010-12-09 23:43:41,1830.9184129356515,7,27,-1.0997490882873535,3.572345972061157,24.818878840930523,24.453107895010337,99.5738046900952,88.657101094127,-0.0001295089750783,0.0985156819224357,0,0,0
8211,299410.2962920917,2010-12-09 23:44:11,1860.9335102909936,7,27,-1.0997490882873535,3.568946361541748,24.818878840930523,24.46227599933104,99.5738046900952,88.68983837197776,-0.0001618862152099,0.0985156819224357,0,0,0
8212,299440.3113128615,2010-12-09 23:44:41,1890.9485310607547,7,27,-1.099568486213684,3.565708637237549,24.818878840930523,24.471444075223683,99.5738046900952,88.72254513715767,-0.0001295089750783,0.0985156819224357,0,0,0
8213,299470.3264189686,2010-12-09 23:45:11,1920.9636371678755,7,27,-1.099568486213684,3.56263279914856,24.818878840930523,24.480612189763725,99.5738046900952,88.7552220715243,-6.47544875391759e-05,0.0985156819224357,0,0,0
8214,299500.3415688948,2010-12-09 23:45:41,1950.9787871090757,7,27,-1.0997490882873535,3.5592331886291504,24.818878840930523,24.489780703352302,99.5738046900952,88.78787138180907,-0.0001295089750783,0.0985156819224357,0,0,0
8215,299530.35676911613,2010-12-09 23:46:11,1980.99398738052,7,27,-1.0997490882873535,3.555995464324951,24.818878840930523,24.498949575795788,99.5738046900952,88.82049226722064,-0.0001295089750783,0.0985156819224357,0,0,0
8216,299560.37151657074,2010-12-09 23:46:41,2011.0087347850224,7,27,-1.099568486213684,3.553081512451172,24.818878840930523,24.50811807419287,99.5738046900952,88.8530825718222,-6.47544875391759e-05,0.0985156819224357,0,0,0
8217,299590.3865700369,2010-12-09 23:47:11,2041.023788251148,7,27,-1.0997490882873535,3.5498437881469727,24.818878840930523,24.517286803426984,99.5738046900952,88.88564480941993,-6.47544875391759e-05,0.0985156819224357,0,0,0
8218,299620.4020210222,2010-12-09 23:47:41,2071.0392392966346,7,27,-1.099929690361023,3.546606063842773,24.818878840930523,24.526455762218337,99.5738046900952,88.9181786793646,-9.713172767078504e-05,0.0985156819224357,0,0,0
8219,299650.416743229,2010-12-09 23:48:11,2101.053961518471,7,27,-1.0997490882873535,3.543368339538574,24.818878840930523,24.53562456844717,99.5738046900952,88.95068240147192,-0.0001295089750783,0.0985156819224357,0,0,0
8220,299680.4317398487,2010-12-09 23:48:41,2131.068958047912,7,27,-1.0997490882873535,3.540130615234375,24.818878840930523,24.544793021762157,99.5738046900952,88.98315557979218,-9.713172767078504e-05,0.0985156819224357,0,0,0
8221,299710.4468171541,2010-12-09 23:49:11,2161.08403537341,7,27,-1.099568486213684,3.536892890930176,24.818878840930523,24.553961125981303,99.5738046900952,89.01559766411802,-9.713172767078504e-05,0.0985156819224357,0,0,0
8222,299740.4619747995,2010-12-09 23:49:41,2191.0991930137693,7,27,-1.0993878841400146,3.533655166625977,24.818878840930523,24.5631291752495,99.5738046900952,89.04800918970065,-9.713172767078504e-05,0.0985156819224357,0,0,0
8223,299770.4771186255,2010-12-09 23:50:11,2221.114336824713,7,27,-1.0997490882873535,3.5300936698913574,24.818878840930523,24.57229717096963,99.5738046900952,89.08038935387341,-9.713172767078504e-05,0.0985156819224357,0,0,0
8224,299800.4921823621,2010-12-09 23:50:41,2251.129400631572,7,27,-1.0993878841400146,3.526694059371948,24.818878840930523,24.58146522485756,99.5738046900952,89.11273794680085,-6.47544875391759e-05,0.0985156819224357,0,0,0
8225,299830.5071952623,2010-12-09 23:51:11,2281.144413476613,7,27,-1.099568486213684,3.523294448852539,24.818878840930523,24.59063328751667,99.5738046900952,89.14505403716193,-9.713172767078504e-05,0.0985156819224357,0,0,0
8226,299860.52207737206,2010-12-09 23:51:41,2311.159295571287,7,27,-1.099568486213684,3.5194091796875,24.818878840930523,24.59980121678677,99.5738046900952,89.1773363151511,-9.713172767078504e-05,0.0985156819224357,0,0,0
8227,299890.5371632037,2010-12-09 23:52:11,2341.174381402953,7,27,-1.099568486213684,3.515523910522461,24.818878840930523,24.608969238230863,99.5738046900952,89.20958461773779,-0.0001295089750783,0.0985156819224357,0,0,0
8228,299920.5521857429,2010-12-09 23:52:41,2371.1894039621675,7,27,-1.0993878841400146,3.511476993560791,24.818878840930523,24.618137225075696,99.5738046900952,89.24179682983007,-0.0001294612884521,0.0985156819224357,0,0,0
8229,299950.5672538254,2010-12-09 23:53:11,2401.204472024615,7,27,-1.0997490882873535,3.507429838180542,24.818878840930523,24.627305169854026,99.5738046900952,89.27397207548971,-0.0001295089750783,0.0985156819224357,0,0,0
8230,299980.5824223278,2010-12-09 23:53:41,2431.219640582141,7,27,-1.099568486213684,3.503220796585083,24.818878840930523,24.636473210427543,99.5738046900952,89.30610873528605,-6.47544875391759e-05,0.0985156819224357,0,0,0
8231,300010.6007343176,2010-12-09 23:54:11,2461.237952637139,7,27,-1.099568486213684,3.498364210128784,24.818878840930523,24.645642159870896,99.5738046900952,89.33820747609458,-0.0001295089750783,0.0985156819224357,0,0,0
8232,300040.612412329,2010-12-09 23:54:41,2491.2496305433133,7,27,-1.099568486213684,3.4933457374572754,24.818878840930523,24.65480906523523,99.5738046900952,89.37025504245244,-0.0001618862152099,0.0985156819224357,0,0,0
8233,300070.62754676666,2010-12-09 23:55:11,2521.264765036071,7,27,-1.099568486213684,3.4881653785705566,24.818878840930523,24.663977082546243,99.5738046900952,89.40225890059473,-0.0001618862152099,0.0985156819224357,0,0,0
8234,300100.6426240571,2010-12-09 23:55:41,2551.279842361569,7,27,-1.0997490882873535,3.482175588607788,24.818878840930523,24.673145094181784,99.5738046900952,89.43421116510783,-0.0001942634553415,0.0985156819224357,0,0,0
8235,300130.6576130628,2010-12-09 23:56:11,2581.294831282075,7,27,-1.099568486213684,3.47553825378418,24.818878840930523,24.68231301497781,99.5738046900952,89.46610522782747,-0.0001618862152099,0.0985156819224357,0,0,0
8236,300160.67265150155,2010-12-09 23:56:41,2611.309869700756,7,27,-1.099568486213684,3.468091487884521,24.818878840930523,24.69148099055463,99.5738046900952,89.49793529298401,-0.0001942634553415,0.0985156819224357,0,0,0
8237,300190.6877161505,2010-12-09 23:57:11,2641.3249343497087,7,27,-1.0993878841400146,3.4595115184783936,24.818878840930523,24.700648975272028,99.5738046900952,89.52969211748828,-0.0002590179501567,0.0985156819224357,0,0,0
8238,300220.70208074234,2010-12-09 23:57:41,2671.33929892656,7,27,-1.099568486213684,3.449474573135376,24.818878840930523,24.709797884250836,99.5738046900952,89.56129837617044,-0.0002913951757363,0.0985156819224357,0,0,0
8239,300250.7021481412,2010-12-09 23:58:11,2701.3393663404704,7,27,-1.099568486213684,3.437494993209839,24.818878840930523,24.718980303491083,99.5738046900952,89.59291985687051,-0.0003237724304199,0.0985156819224357,0,0,0
8240,300280.71722907573,2010-12-09 23:58:41,2731.354447289987,7,27,-1.0997490882873535,3.422925472259521,24.818878840930523,24.72814834037725,99.5738046900952,89.62437030127015,-0.0004209041653666,0.0985156819224357,0,0,0
8241,300310.7322653941,2010-12-09 23:59:11,2761.369483613453,7,27,-1.0997490882873535,3.404632329940796,24.818878840930523,24.73731633139561,99.5738046900952,89.65567077512635,-0.0005504131549969,0.0985156819224357,0,0,0
8242,300340.7473358225,2010-12-09 23:59:41,2791.384554106951,7,27,-1.0993878841400146,3.381320714950561,24.818878840930523,24.746484318963297,99.5738046900952,89.68678171957558,-0.0006799221155233,0.0985156819224357,0,0,0
8243,300370.76258574246,2010-12-10 00:00:11,2821.399803946744,7,27,-1.099568486213684,3.350400686264038,24.818878840930523,24.75565238837192,99.5738046900952,89.71764599069301,-0.0009388923645019,0.0985156819224357,0,0,0
8244,300400.7774860274,2010-12-10 00:00:41,2851.4147042467216,7,27,-1.0997490882873535,3.309119701385498,24.818878840930523,24.764820343100578,99.5738046900952,89.7481820519903,-0.0011655807029455,0.0985156819224357,0,0,0
8245,300430.79259696155,2010-12-10 00:01:11,2881.429815160804,7,27,-1.099568486213684,3.252621650695801,24.818878840930523,24.773988379790797,99.5738046900952,89.77827461050944,-0.0017483711708337,0.0985156819224357,0,0,0
8246,300460.8075798872,2010-12-10 00:01:42,2911.4447981766166,7,27,-1.0997490882873535,3.173621416091919,24.818878840930523,24.78315635452308,99.5738046900952,89.80775471538827,-0.0024930476211011,0.0985156819224357,0,0,0
8247,300490.82274583314,2010-12-10 00:02:12,2941.459964117631,7,27,-1.0993878841400146,3.0562541484832764,24.818878840930523,24.792324460935127,99.5738046900952,89.83635245246036,-0.0037557601463049,0.0985156819224357,0,0,0
8248,300519.7753763757,2010-12-10 00:02:40,2970.412594600024,7,27,-1.0997490882873535,2.856163501739502,24.818878840930523,24.8011679689933,99.5738046900952,89.86259395393203,-0.0072200773283839,0.0985156819224357,0,0,0
8249,300534.9156883598,2010-12-10 00:02:56,2985.5529065590144,7,27,-1.099568486213684,2.699943780899048,24.818878840930523,24.80579253903109,99.5738046900952,89.87544959575067,-0.0085799219086766,0.0985156819224357,0,0,0
8250,300594.9265768698,2010-12-10 00:03:56,60.014601272011504,8,27,0.0,3.3936240673065186,24.818878840930523,24.80579253903109,99.5738046900952,89.87544959575067,0.0013274669181555,0.0985156819224357,0,0,0
8251,300595.11130590184,2010-12-10 00:03:56,0.187267367641786,9,27,-1.9243103452026844e-05,3.3939478397369385,24.818878840930523,24.805792540032098,99.5738046900952,89.87544959914801,0.0,0.0940944999456405,0,0,0
8252,300599.9393617231,2010-12-10 00:04:01,5.015323243995636,9,27,0.0008838032954372,3.4018802642822266,24.81887986584527,24.80579254011754,99.57380817333905,89.87544959943801,0.0011008263099938,0.0940944999456405,0,0,0
