Data_Point,Test_Time(s),Date_Time,Step_Time(s),Step_Index,Cycle_Index,Current(A),Voltage(V),Charge_Capacity(Ah),Discharge_Capacity(Ah),Charge_Energy(Wh),Discharge_Energy(Wh),dV/dt(V/s),Internal_Resistance(Ohm),Is_FC_Data,AC_Impedance(Ohm),ACI_Phase_Angle(Deg)
13360,485039.2504177215,2010-12-12 03:18:22,30.01521497804151,1,45,0.0,3.4313435554504395,40.09335696999841,40.07730778541004,160.8238299529681,145.2061757725517,0.0007446765666827,0.0931989923119545,0,0,0
13361,485069.2654773279,2010-12-12 03:18:52,60.03027467968367,1,45,0.0,3.4557881355285645,40.09335696999841,40.07730778541004,160.8238299529681,145.2061757725517,0.0005504131549969,0.0931989923119545,0,0,0
13362,485099.2805023884,2010-12-12 03:19:22,90.04529966994791,1,45,0.0,3.47440505027771,40.09335696999841,40.07730778541004,160.8238299529681,145.2061757725517,0.0004209041653666,0.0931989923119545,0,0,0
13363,485129.2486886975,2010-12-12 03:19:52,120.01348597895532,1,45,0.0,3.4892985820770264,40.09335696999841,40.07730778541004,160.8238299529681,145.2061757725517,0.0003885269106831,0.0931989923119545,0,0,0
13364,485159.2665383631,2010-12-12 03:20:22,30.01697860676375,2,45,0.550297200679779,3.6421186923980713,40.09794471245538,40.07730778541004,160.8403911192495,145.2061757725517,0.0014245987404137,0.0931989923119545,0,0,0
13365,485189.27974191576,2010-12-12 03:20:52,60.03018206922611,2,45,0.5501165986061096,3.683723211288452,40.10253183614178,40.07730778541004,160.8571997276807,145.2061757725517,0.0009389400365762,0.0931989923119545,0,0,0
13366,485219.2948262387,2010-12-12 03:21:22,90.04526641218725,2,45,0.550297200679779,3.713348388671875,40.107119287105874,40.07730778541004,160.87416978606447,145.2061757725517,0.0006799221155233,0.0931989923119545,0,0,0
13367,485249.3100745948,2010-12-12 03:21:52,120.06051475325135,2,45,0.5501165986061096,3.7363362312316895,40.1117067191254,40.07730778541004,160.89125915512565,145.2061757725517,0.0005827903514727,0.0931989923119545,0,0,0
13368,485279.3250326936,2010-12-12 03:22:22,150.07547286709618,2,45,0.5501165986061096,3.753981590270996,40.11629413112559,40.07730778541004,160.90844121317835,145.2061757725517,0.0003884792386088,0.0931989923119545,0,0,0
13369,485309.3402160279,2010-12-12 03:22:52,180.090656196381,2,45,0.5501165986061096,3.766446828842163,40.12088155306191,40.07730778541004,160.92569297563264,145.2061757725517,0.0002266406954731,0.0931989923119545,0,0,0
13370,485339.35518987087,2010-12-12 03:23:22,210.10563001430484,2,45,0.5501165986061096,3.775026798248291,40.12546893846943,40.07730778541004,160.94299218719294,145.2061757725517,0.0001942634553415,0.0931989923119545,0,0,0
13371,485369.37039858336,2010-12-12 03:23:52,240.12083872675464,2,45,0.550297200679779,3.7808547019958496,40.13005632046461,40.07730778541004,160.96032360980584,145.2061757725517,9.713172767078504e-05,0.0931989923119545,0,0,0
13372,485399.3853759249,2010-12-12 03:24:22,270.13581606844724,2,45,0.550297200679779,3.786035060882568,40.134643690698105,40.07730778541004,160.97768009105178,145.2061757725517,0.0001295089750783,0.0931989923119545,0,0,0
13373,485429.4004561176,2010-12-12 03:24:52,300.15089626609296,2,45,0.5501165986061096,3.790891647338867,40.13923109491366,40.07730778541004,160.99505911879234,145.2061757725517,0.0001295089750783,0.0931989923119545,0,0,0
13374,485459.4155781244,2010-12-12 03:25:23,330.16601836300333,2,45,0.5501165986061096,3.795100688934326,40.143818497904526,40.07730778541004,161.01245899084353,145.2061757725517,9.713172767078504e-05,0.0931989923119545,0,0,0
13375,485489.4307783808,2010-12-12 03:25:53,360.1812186194106,2,45,0.550297200679779,3.799471616744995,40.14840589827205,40.07730778541004,161.02987873941117,145.2061757725517,0.0001295089750783,0.0931989923119545,0,0,0
13376,485519.4457356325,2010-12-12 03:26:23,390.19617580093546,2,45,0.550297200679779,3.803518772125244,40.1529932983222,40.07730778541004,161.047317546541,145.2061757725517,0.0001295089750783,0.0931989923119545,0,0,0
13377,485549.4608143814,2010-12-12 03:26:53,420.2112545499762,2,45,0.5501165986061096,3.807404041290283,40.157580720724816,40.07730778541004,161.06477488546872,145.2061757725517,9.713172767078504e-05,0.0931989923119545,0,0,0
13378,485579.4759069049,2010-12-12 03:27:23,450.22634707329394,2,45,0.550297200679779,3.811127424240112,40.16216815656426,40.07730778541004,161.08225009917598,145.2061757725517,9.713172767078504e-05,0.0931989923119545,0,0,0
13379,485609.4910058841,2010-12-12 03:27:53,480.2414460526773,2,45,0.550297200679779,3.815174579620361,40.1667555898408,40.07730778541004,161.09974292061713,145.2061757725517,9.713172767078504e-05,0.0931989923119545,0,0,0
13380,485639.5060920917,2010-12-12 03:28:23,510.256532245241,2,45,0.5501165986061096,3.818736076354981,40.17134294414298,40.07730778541004,161.11725269665325,145.2061757725517,6.47544875391759e-05,0.0931989923119545,0,0,0
13381,485669.521176114,2010-12-12 03:28:53,540.2716162874538,2,45,0.550297200679779,3.8224594593048096,40.17593034555834,40.07730778541004,161.13477955403513,145.2061757725517,6.47544875391759e-05,0.0931989923119545,0,0,0
13382,485699.5362792087,2010-12-12 03:29:23,570.2867193770652,2,45,0.550297200679779,3.8263447284698486,40.18051777087955,40.07730778541004,161.15232329056684,145.2061757725517,0.0001618862152099,0.0931989923119545,0,0,0
13383,485729.5513573811,2010-12-12 03:29:53,600.3017975496717,2,45,0.550297200679779,3.829906225204468,40.18510515869597,40.07730778541004,161.16988375836226,145.2061757725517,0.0001295089750783,0.0931989923119545,0,0,0
13384,485759.56828611385,2010-12-12 03:30:23,630.3187263625252,2,45,0.5501165986061096,3.833467483520508,40.18969282060688,40.07730778541004,161.18746212581294,145.2061757725517,9.70840483205393e-05,0.0931989923119545,0,0,0
13385,485789.58155725966,2010-12-12 03:30:53,660.3319974282156,2,45,0.550297200679779,3.837190866470337,40.19427989634513,40.07730778541004,161.2050552511799,145.2061757725517,9.713172767078504e-05,0.0931989923119545,0,0,0
13386,485819.5966339687,2010-12-12 03:31:23,690.3470741371799,2,45,0.550297200679779,3.840914249420166,40.198867312621466,40.07730778541004,161.2226667910951,145.2061757725517,9.713172767078504e-05,0.0931989923119545,0,0,0
13387,485849.6117298603,2010-12-12 03:31:53,720.3621700288795,2,45,0.550297200679779,3.844799518585205,40.20345475616583,40.07730778541004,161.2402955688759,145.2061757725517,9.713172767078504e-05,0.0931989923119545,0,0,0
13388,485879.6268466741,2010-12-12 03:32:23,750.3772869328677,2,45,0.5501165986061096,3.848361015319824,40.20804213357685,40.07730778541004,161.25794117797213,145.2061757725517,6.47544875391759e-05,0.0931989923119545,0,0,0
13389,485909.64192721766,2010-12-12 03:32:53,780.3923673861493,2,45,0.5499359965324402,3.8519225120544434,40.2126295728397,40.07730778541004,161.27560406817764,145.2061757725517,3.237724376958795e-05,0.0931989923119545,0,0,0
13390,485939.6569919167,2010-12-12 03:33:23,810.40743209024,2,45,0.5501165986061096,3.855645895004273,40.21721697640328,40.07730778541004,161.29328351476366,145.2061757725517,9.713172767078504e-05,0.0931989923119545,0,0,0
13391,485969.6720866807,2010-12-12 03:33:53,840.4225268541331,2,45,0.550297200679779,3.859207391738892,40.22180433607536,40.07730778541004,161.31097932733016,145.2061757725517,9.713172767078504e-05,0.0931989923119545,0,0,0
13392,485999.6894136242,2010-12-12 03:34:23,870.4398538829316,2,45,0.5501165986061096,3.862607002258301,40.2263920359046,40.07730778541004,161.32869267930917,145.2061757725517,6.47544875391759e-05,0.0931989923119545,0,0,0
13393,486029.7044722432,2010-12-12 03:34:53,900.4549125068921,2,45,0.550297200679779,3.86616849899292,40.2309794498474,40.07730778541004,161.34642060484893,145.2061757725517,6.47544875391759e-05,0.0931989923119545,0,0,0
13394,486059.71737405495,2010-12-12 03:35:23,930.4678142234716,2,45,0.550297200679779,3.869406223297119,40.23556652895203,40.07730778541004,161.36416252138974,145.2061757725517,9.713172767078504e-05,0.0931989923119545,0,0,0
13395,486089.73248385126,2010-12-12 03:35:53,960.4829240197724,2,45,0.5501165986061096,3.8726439476013184,40.24015395554045,40.07730778541004,161.3819205087869,145.2061757725517,9.713172767078504e-05,0.0931989923119545,0,0,0
13396,486119.7475660941,2010-12-12 03:36:23,990.4980062574946,2,45,0.550297200679779,3.8755578994750977,40.24474138530748,40.07730778541004,161.39969256577302,145.2061757725517,9.713172767078504e-05,0.0931989923119545,0,0,0
13397,486149.7627274236,2010-12-12 03:36:53,1020.5131675719964,2,45,0.5501165986061096,3.878633737564087,40.24932875706357,40.07730778541004,161.41747786049496,145.2061757725517,0.0001295089750783,0.0931989923119545,0,0,0
13398,486179.7778304781,2010-12-12 03:37:23,1050.5282707167453,2,45,0.5501165986061096,3.881062030792236,40.25391618008791,40.07730778541004,161.43527615644211,145.2061757725517,3.237724376958795e-05,0.0931989923119545,0,0,0
13399,486209.79278839147,2010-12-12 03:37:53,1080.5432285599163,2,45,0.550297200679779,3.8838140964508057,40.25850353399712,40.07730778541004,161.4530863408419,145.2061757725517,9.713172767078504e-05,0.0931989923119545,0,0,0
13400,486239.80801930913,2010-12-12 03:38:23,1110.5584594575732,2,45,0.550297200679779,3.886404275894165,40.263090933380205,40.07730778541004,161.47090810112843,145.2061757725517,9.713172767078504e-05,0.0931989923119545,0,0,0
13401,486269.82296518254,2010-12-12 03:38:53,1140.5734053259455,2,45,0.550297200679779,3.888346910476685,40.26767829106725,40.07730778541004,161.48874054201826,145.2061757725517,3.237724376958795e-05,0.0931989923119545,0,0,0
13402,486299.8381945314,2010-12-12 03:39:23,1170.5886346998109,2,45,0.5501165986061096,3.890613317489624,40.27226577493082,40.07730778541004,161.50658376706775,145.2061757725517,6.47544875391759e-05,0.0931989923119545,0,0,0
13403,486329.8531672214,2010-12-12 03:39:53,1200.6036073949404,2,45,0.5501165986061096,3.892555952072144,40.27685317326001,40.07730778541004,161.52443639462518,145.2061757725517,3.237724376958795e-05,0.0931989923119545,0,0,0
13404,486359.8701010167,2010-12-12 03:40:23,1230.6205412603672,2,45,0.5501165986061096,3.894660472869873,40.28144097225008,40.07730778541004,161.54229990493383,145.2061757725517,0.0,0.0931989923119545,0,0,0
13405,486389.8833412306,2010-12-12 03:40:53,1260.6337814041094,2,45,0.550297200679779,3.8966031074523926,40.286028107684736,40.07730778541004,161.56016920734976,145.2061757725517,6.47544875391759e-05,0.0931989923119545,0,0,0
13406,486419.8984264909,2010-12-12 03:41:23,1290.6488666342784,2,45,0.5501165986061096,3.898221969604492,40.29061555488634,40.07730778541004,161.57804838521676,145.2061757725517,0.0,0.0931989923119545,0,0,0
13407,486449.9137723346,2010-12-12 03:41:53,1320.664212573211,2,45,0.550297200679779,3.9000027179718018,40.29520298174504,40.07730778541004,161.59593576983855,145.2061757725517,3.237724376958795e-05,0.0931989923119545,0,0,0
13408,486479.92861397855,2010-12-12 03:42:23,1350.6790541520631,2,45,0.550297200679779,3.901945352554321,40.299790342587386,40.07730778541004,161.61383085710352,145.2061757725517,6.47544875391759e-05,0.0931989923119545,0,0,0
13409,486509.94369386544,2010-12-12 03:42:53,1380.694134038935,2,45,0.5501165986061096,3.903564214706421,40.304377732009726,40.07730778541004,161.63173395860954,145.2061757725517,6.47544875391759e-05,0.0931989923119545,0,0,0
13410,486539.9588231903,2010-12-12 03:43:23,1410.7092633588195,2,45,0.5501165986061096,3.905021190643311,40.30896519520479,40.07730778541004,161.64964517787476,145.2061757725517,0.0,0.0931989923119545,0,0,0
13411,486569.97429636086,2010-12-12 03:43:53,1440.724736599538,2,45,0.550297200679779,3.90696382522583,40.313552615910645,40.07730778541004,161.66756374440922,145.2061757725517,6.47544875391759e-05,0.0931989923119545,0,0,0
13412,486599.9889875354,2010-12-12 03:44:23,1470.7394277941648,2,45,0.5501165986061096,3.90842080116272,40.318139983460696,40.07730778541004,161.68548974635803,145.2061757725517,0.0,0.0931989923119545,0,0,0
13413,486630.00405094126,2010-12-12 03:44:53,1500.7544910847378,2,45,0.550297200679779,3.910201549530029,40.32272739321031,40.07730778541004,161.70342349874105,145.2061757725517,3.237724376958795e-05,0.0931989923119545,0,0,0
13414,486660.0191402265,2010-12-12 03:45:23,1530.7695803699976,2,45,0.5501165986061096,3.911820411682129,40.3273147857803,40.07730778541004,161.72136461825266,145.2061757725517,6.47544875391759e-05,0.0931989923119545,0,0,0
13415,486690.0342366496,2010-12-12 03:45:53,1560.784676798032,2,45,0.5501165986061096,3.913439273834229,40.33190217583016,40.07730778541004,161.73931325276794,145.2061757725517,6.47544875391759e-05,0.0931989923119545,0,0,0
13416,486720.0493428871,2010-12-12 03:46:23,1590.799783145751,2,45,0.5501165986061096,3.915219783782959,40.336489607113535,40.07730778541004,161.75726957992464,145.2061757725517,9.713172767078504e-05,0.0931989923119545,0,0,0
13417,486750.06443331006,2010-12-12 03:46:53,1620.8148734736053,2,45,0.5501165986061096,3.916514873504639,40.34107701285848,40.07730778541004,161.77523310016113,145.2061757725517,0.0,0.0931989923119545,0,0,0
13418,486780.0795008864,2010-12-12 03:47:23,1650.8299410548557,2,45,0.5501165986061096,3.918295621871948,40.34566439829488,40.07730778541004,161.79320403926874,145.2061757725517,6.47544875391759e-05,0.0931989923119545,0,0,0
13419,486810.09472131793,2010-12-12 03:47:53,1680.8451614864682,2,45,0.5501165986061096,3.919914484024048,40.350251779400864,40.07730778541004,161.81118241548148,145.2061757725517,6.47544875391759e-05,0.0931989923119545,0,0,0
13420,486840.10969805816,2010-12-12 03:48:23,1710.8601382116265,2,45,0.5501165986061096,3.9213714599609375,40.354839167823904,40.07730778541004,161.8291682931062,145.2061757725517,3.237724376958795e-05,0.0931989923119545,0,0,0
13421,486870.12477169954,2010-12-12 03:48:53,1740.8752118679947,2,45,0.550297200679779,3.923314094543457,40.35942657115694,40.07730778541004,161.84716173119793,145.2061757725517,9.713172767078504e-05,0.0931989923119545,0,0,0
13422,486900.1399487782,2010-12-12 03:49:23,1770.8903889467251,2,45,0.5501165986061096,3.9247710704803462,40.364013874069,40.07730778541004,161.8651622261046,145.2061757725517,3.237724376958795e-05,0.0931989923119545,0,0,0
13423,486930.1549669515,2010-12-12 03:49:53,1800.9054071200258,2,45,0.5504778623580933,3.926551818847656,40.3686012785839,40.07730778541004,161.8831705537015,145.2061757725517,6.47544875391759e-05,0.0931989923119545,0,0,0
13424,486960.17229512817,2010-12-12 03:50:23,1830.9227353618423,2,45,0.5501165986061096,3.928008794784546,40.37318901721108,40.07730778541004,161.90118765113556,145.2061757725517,3.237724376958795e-05,0.0931989923119545,0,0,0
13425,486990.1851791759,2010-12-12 03:50:53,1860.9356193442911,2,45,0.5501165986061096,3.9296276569366455,40.3777760432442,40.07730778541004,161.91920946393424,145.2061757725517,6.47544875391759e-05,0.0931989923119545,0,0,0
13426,487020.2002608272,2010-12-12 03:51:23,1890.9507010005668,2,45,0.5504778623580933,3.931570291519165,40.382363525720514,40.07730778541004,161.93724066616304,145.2061757725517,9.713172767078504e-05,0.0931989923119545,0,0,0
13427,487050.2153552351,2010-12-12 03:51:53,1920.965795383512,2,45,0.550297200679779,3.933027267456055,40.38695098581722,40.07730778541004,161.95527929994432,145.2061757725517,6.47544875391759e-05,0.0931989923119545,0,0,0
13428,487080.2305037879,2010-12-12 03:52:23,1950.9809440314937,2,45,0.5501165986061096,3.9346461296081534,40.39153807014036,40.07730778541004,161.97332395646097,145.2061757725517,3.237724376958795e-05,0.0931989923119545,0,0,0
13429,487110.2455318858,2010-12-12 03:52:53,1980.9959720543045,2,45,0.5501165986061096,3.936103105545044,40.39612476799698,40.07730778541004,161.99137460484184,145.2061757725517,3.237724376958795e-05,0.0931989923119545,0,0,0
13430,487140.2606415519,2010-12-12 03:53:23,2011.011081720281,2,45,0.5501165986061096,3.938045740127564,40.40071176603913,40.07730778541004,162.00943396879995,145.2061757725517,9.713172767078504e-05,0.0931989923119545,0,0,0
13431,487170.27578851057,2010-12-12 03:53:53,2041.0262286790592,2,45,0.550297200679779,3.939826488494873,40.40529916280524,40.07730778541004,162.02750268904612,145.2061757725517,9.713172767078504e-05,0.0931989923119545,0,0,0
13432,487200.2908404228,2010-12-12 03:54:23,2071.041280591318,2,45,0.550297200679779,3.9411215782165527,40.40988660354607,40.07730778541004,162.04557929596456,145.2061757725517,3.237724376958795e-05,0.0931989923119545,0,0,0
13433,487230.3059258034,2010-12-12 03:54:53,2101.056365971861,2,45,0.5501165986061096,3.9429023265838623,40.41447402560588,40.07730778541004,162.0636634678065,145.2061757725517,3.237724376958795e-05,0.0931989923119545,0,0,0
13434,487260.32106114825,2010-12-12 03:55:23,2131.0715014370376,2,45,0.550297200679779,3.944683074951172,40.41906148049991,40.07730778541004,162.08175553811031,145.2061757725517,6.47544875391759e-05,0.0931989923119545,0,0,0
13435,487290.33610437386,2010-12-12 03:55:53,2161.0865445423806,2,45,0.550297200679779,3.9464638233184814,40.42364889286764,40.07730778541004,162.09985519160583,145.2061757725517,6.47544875391759e-05,0.0931989923119545,0,0,0
13436,487320.351196406,2010-12-12 03:56:23,2191.101636554426,2,45,0.550297200679779,3.948082685470581,40.42823630847611,40.07730778541004,162.1179625159055,145.2061757725517,3.237724376958795e-05,0.0931989923119545,0,0,0
13437,487350.3662677515,2010-12-12 03:56:53,2221.1167079200936,2,45,0.5501165986061096,3.9497015476226807,40.43282367933036,40.07730778541004,162.13607756040545,145.2061757725517,3.237724376958795e-05,0.0931989923119545,0,0,0
13438,487380.3813675681,2010-12-12 03:57:24,2251.13180773656,2,45,0.550297200679779,3.9514822959899902,40.437411115557374,40.07730778541004,162.15420079237316,145.2061757725517,6.47544875391759e-05,0.0931989923119545,0,0,0
13439,487410.3966171522,2010-12-12 03:57:54,2281.147057320717,2,45,0.5501165986061096,3.9532630443573,40.44199861235197,40.07730778541004,162.17233209964624,145.2061757725517,6.47544875391759e-05,0.0931989923119545,0,0,0
13440,487440.4116111304,2010-12-12 03:58:24,2311.162051298809,2,45,0.550297200679779,3.9548819065094,40.4465860702635,40.07730778541004,162.19047119761655,145.2061757725517,6.47544875391759e-05,0.0931989923119545,0,0,0
13441,487470.4267886602,2010-12-12 03:58:54,2341.177228828662,2,45,0.5501165986061096,3.956662654876709,40.45117356007838,40.07730778541004,162.20861841366977,145.2061757725517,3.237724376958795e-05,0.0931989923119545,0,0,0
13442,487500.4417605132,2010-12-12 03:59:24,2371.192200681696,2,45,0.550297200679779,3.9582815170288086,40.455760985243536,40.07730778541004,162.22677325204373,145.2061757725517,3.237724376958795e-05,0.0931989923119545,0,0,0
13443,487530.4568498285,2010-12-12 03:59:54,2401.2072900020435,2,45,0.5501165986061096,3.960224151611328,40.46034846504364,40.07730778541004,162.24493643096434,145.2061757725517,6.47544875391759e-05,0.0931989923119545,0,0,0
13444,487560.4737832128,2010-12-12 04:00:24,2431.224223486522,2,45,0.550297200679779,3.9620048999786377,40.46493616964699,40.07730778541004,162.26310861573205,145.2061757725517,3.237724376958795e-05,0.0931989923119545,0,0,0
13445,487590.48706222826,2010-12-12 04:00:54,2461.237502401746,2,45,0.550297200679779,3.9637856483459473,40.46952338190798,40.07730778541004,162.2812869225611,145.2061757725517,3.237724376958795e-05,0.0931989923119545,0,0,0
13446,487620.5021271578,2010-12-12 04:01:24,2491.252567331398,2,45,0.5501165986061096,3.965404510498047,40.47411085063083,40.07730778541004,162.299474470949,145.2061757725517,3.237724376958795e-05,0.0931989923119545,0,0,0
13447,487650.5173440607,2010-12-12 04:01:54,2521.267784214179,2,45,0.5501165986061096,3.967185258865357,40.47869832668622,40.07730778541004,162.31767038092295,145.2061757725517,0.0,0.0931989923119545,0,0,0
13448,487680.5323230265,2010-12-12 04:02:24,2551.2827631949503,2,45,0.5504778623580933,3.969289779663086,40.48328581271887,40.07730778541004,162.3358745677096,145.2061757725517,6.47544875391759e-05,0.0931989923119545,0,0,0
13449,487710.5474265822,2010-12-12 04:02:54,2581.297866750722,2,45,0.5501165986061096,3.971070528030396,40.487873282289286,40.07730778541004,162.35408711933073,145.2061757725517,6.47544875391759e-05,0.0931989923119545,0,0,0
13450,487740.5625681927,2010-12-12 04:03:24,2611.3130084514155,2,45,0.550297200679779,3.972851276397705,40.4924608031362,40.07730778541004,162.37230835896503,145.2061757725517,6.47544875391759e-05,0.0931989923119545,0,0,0
13451,487770.5775852131,2010-12-12 04:03:54,2641.3280253665853,2,45,0.550297200679779,3.9747939109802246,40.497048311615245,40.07730778541004,162.39053805452485,145.2061757725517,6.47544875391759e-05,0.0931989923119545,0,0,0
13452,487800.5927546078,2010-12-12 04:04:24,2671.343194866456,2,45,0.550297200679779,3.976574659347534,40.50163583999779,40.07730778541004,162.40877642539488,145.2061757725517,6.47544875391759e-05,0.0931989923119545,0,0,0
13453,487830.6077658287,2010-12-12 04:04:54,2701.3582059821942,2,45,0.550297200679779,3.9785172939300537,40.50622330710251,40.07730778541004,162.42702293635378,145.2061757725517,0.0001295089750783,0.0931989923119545,0,0,0
13454,487860.6228561215,2010-12-12 04:05:24,2731.3732962950107,2,45,0.5501165986061096,3.9802980422973633,40.510810693155655,40.07730778541004,162.4452783268955,145.2061757725517,3.237724376958795e-05,0.0931989923119545,0,0,0
13455,487890.6379743338,2010-12-12 04:05:54,2761.3884144872045,2,45,0.550297200679779,3.9824025630950928,40.5153980946055,40.07730778541004,162.46354269046557,145.2061757725517,3.237724376958795e-05,0.0931989923119545,0,0,0
13456,487920.6554833856,2010-12-12 04:06:24,2791.405923644222,2,45,0.550297200679779,3.9845070838928223,40.519985909243374,40.07730778541004,162.48181767107332,145.2061757725517,9.713172767078504e-05,0.0931989923119545,0,0,0
13457,487950.6703254105,2010-12-12 04:06:54,2821.420765669184,2,45,0.550297200679779,3.986449718475342,40.52457330908985,40.07730778541004,162.50010005827457,145.2061757725517,3.237724376958795e-05,0.0931989923119545,0,0,0
13458,487980.6832822994,2010-12-12 04:07:24,2851.433722558058,2,45,0.5501165986061096,3.988392353057861,40.52916037312649,40.07730778541004,162.51839024745144,145.2061757725517,6.47544875391759e-05,0.0931989923119545,0,0,0
13459,488010.6983706122,2010-12-12 04:07:54,2881.448810785686,2,45,0.5501165986061096,3.990334987640381,40.53374780738576,40.07730778541004,162.53669113878345,145.2061757725517,3.237724376958795e-05,0.0931989923119545,0,0,0
13460,488040.7134285394,2010-12-12 04:08:24,2911.463868692863,2,45,0.5501165986061096,3.9924395084381104,40.53833520740831,40.07730778541004,162.55500128624823,145.2061757725517,3.237724376958795e-05,0.0931989923119545,0,0,0
13461,488070.7286251116,2010-12-12 04:08:54,2941.479065270115,2,45,0.5501165986061096,3.9945437908172607,40.54292263741457,40.07730778541004,162.57332106706775,145.2061757725517,6.47544875391759e-05,0.0931989923119545,0,0,0
13462,488100.74372363486,2010-12-12 04:09:24,2971.4941637883503,2,45,0.550297200679779,3.9966483116149902,40.54751009211572,40.07730778541004,162.59165058536928,145.2061757725517,6.47544875391759e-05,0.0931989923119545,0,0,0
13463,488130.7586966358,2010-12-12 04:09:54,3001.509136859416,2,45,0.5501165986061096,3.99875283241272,40.55209750718903,40.07730778541004,162.60998965131327,145.2061757725517,6.47544875391759e-05,0.0931989923119545,0,0,0
13464,488160.775568111,2010-12-12 04:10:24,3031.5260083546364,2,45,0.5501165986061096,4.000857353210449,40.55668516193395,40.07730778541004,162.62833956198548,145.2061757725517,0.0,0.0931989923119545,0,0,0
13465,488190.7889927288,2010-12-12 04:10:54,3061.5394329022606,2,45,0.550297200679779,4.003123760223389,40.561272286752136,40.07730778541004,162.64669732286643,145.2061757725517,6.47544875391759e-05,0.0931989923119545,0,0,0
13466,488220.80399365415,2010-12-12 04:11:24,3091.5544338276404,2,45,0.550297200679779,4.005552291870117,40.56585959519005,40.07730778541004,162.66506586694072,145.2061757725517,0.0001295089750783,0.0931989923119545,0,0,0
13467,488250.81904757634,2010-12-12 04:11:54,3121.569487744888,2,45,0.550297200679779,4.007656574249268,40.57044696217746,40.07730778541004,162.68344487955852,145.2061757725517,6.47544875391759e-05,0.0931989923119545,0,0,0
13468,488280.83421288594,2010-12-12 04:12:24,3151.584653119494,2,45,0.5501165986061096,4.009599208831787,40.57503443617381,40.07730778541004,162.70183461367827,145.2061757725517,3.23295607813634e-05,0.0931989923119545,0,0,0
13469,488310.8493520352,2010-12-12 04:12:54,3181.5997922738507,2,45,0.550297200679779,4.012027740478516,40.57962186356442,40.07730778541004,162.72023456893407,145.2061757725517,0.0,0.0931989923119545,0,0,0
13470,488340.86432151234,2010-12-12 04:13:24,3211.6147616858107,2,45,0.550297200679779,4.014617919921875,40.58420925712856,40.07730778541004,162.73864493711093,145.2061757725517,9.71794142969884e-05,0.0931989923119545,0,0,0
13471,488370.8796561932,2010-12-12 04:13:54,3241.6300963466783,2,45,0.550297200679779,4.016722202301025,40.5887967276171,40.07730778541004,162.75706628913278,145.2061757725517,6.47544875391759e-05,0.0931989923119545,0,0,0
13472,488400.8945133709,2010-12-12 04:14:24,3271.644953524347,2,45,0.5501165986061096,4.019150733947754,40.59338415861394,40.07730778541004,162.77549826980373,145.2061757725517,6.47544875391759e-05,0.0931989923119545,0,0,0
13473,488430.9096330969,2010-12-12 04:14:54,3301.660073265395,2,45,0.5501165986061096,4.021578788757324,40.59797157480067,40.07730778541004,162.7939409756707,145.2061757725517,9.70840483205393e-05,0.0931989923119545,0,0,0
13474,488460.9246864578,2010-12-12 04:15:24,3331.675126626258,2,45,0.5501165986061096,4.023845195770264,40.60255897507473,40.07730778541004,162.81239469679767,145.2061757725517,3.23295607813634e-05,0.0931989923119545,0,0,0
13475,488490.9399990437,2010-12-12 04:15:54,3361.690439292393,2,45,0.550297200679779,4.026435375213623,40.607146339228656,40.07730778541004,162.83085937197362,145.2061757725517,9.70840483205393e-05,0.0931989923119545,0,0,0
13476,488520.9549247169,2010-12-12 04:16:24,3391.705364895336,2,45,0.5504778623580933,4.028863906860352,40.61173375350658,40.07730778541004,162.849335484118,145.2061757725517,6.47544875391759e-05,0.0931989923119545,0,0,0
13477,488550.96996122575,2010-12-12 04:16:54,3421.7204013942387,2,45,0.5501165986061096,4.031130313873291,40.61632125589336,40.07730778541004,162.86782321206854,145.2061757725517,3.24249267578125e-05,0.0931989923119545,0,0,0
13478,488580.9851744996,2010-12-12 04:17:24,3451.735614673052,2,45,0.5501165986061096,4.03372049331665,40.62090865073165,40.07730778541004,162.88632194403763,145.2061757725517,6.47544875391759e-05,0.0931989923119545,0,0,0
13479,488611.00014252303,2010-12-12 04:17:54,3481.750582666481,2,45,0.550297200679779,4.036310195922852,40.625496063959616,40.07730778541004,162.9048322673999,145.2061757725517,6.47544875391759e-05,0.0931989923119545,0,0,0
13480,488641.0152546802,2010-12-12 04:18:24,3511.76569484872,2,45,0.550297200679779,4.038900375366211,40.63008352532014,40.07730778541004,162.92335446109104,145.2061757725517,6.47544875391759e-05,0.0931989923119545,0,0,0
13481,488671.03033053706,2010-12-12 04:18:54,3541.780770705564,2,45,0.5501165986061096,4.04132890701294,40.63467102432941,40.07730778541004,162.94188843704845,145.2061757725517,6.47544875391759e-05,0.0931989923119545,0,0,0
13482,488701.04543655895,2010-12-12 04:19:24,3571.7958768227086,2,45,0.550297200679779,4.043919086456299,40.63925848100075,40.07730778541004,162.96043406954476,145.2061757725517,6.47544875391759e-05,0.0931989923119545,0,0,0
13483,488731.0605083507,2010-12-12 04:19:54,3601.8109484991496,2,45,0.550297200679779,4.046509265899658,40.64384590390412,40.07730778541004,162.97899143732414,145.2061757725517,6.47544875391759e-05,0.0931989923119545,0,0,0
13484,488761.0774294342,2010-12-12 04:20:24,3631.8278697080814,2,45,0.550297200679779,4.049261093139648,40.64843365175745,40.07730778541004,162.99756220889844,145.2061757725517,6.47544875391759e-05,0.0931989923119545,0,0,0
13485,488791.09069662535,2010-12-12 04:20:54,3661.841136793867,2,45,0.5501165986061096,4.051851272583008,40.65302083019651,40.07730778541004,163.016142795918,145.2061757725517,9.70840483205393e-05,0.0931989923119545,0,0,0
13486,488821.10579188046,2010-12-12 04:21:24,3691.856232048983,2,45,0.550297200679779,4.054603576660156,40.65760831670896,40.07730778541004,163.03473692420516,145.2061757725517,6.47544875391759e-05,0.0931989923119545,0,0,0
13487,488851.1210770382,2010-12-12 04:21:54,3721.8715171916274,2,45,0.550297200679779,4.0573554039001465,40.66219583440835,40.07730778541004,163.0533435354367,145.2061757725517,9.70840483205393e-05,0.0931989923119545,0,0,0
13488,488881.1361786792,2010-12-12 04:22:24,3751.8866189178457,2,45,0.5501165986061096,4.059945583343506,40.66678329694865,40.07730778541004,163.0719624549438,145.2061757725517,6.47544875391759e-05,0.0931989923119545,0,0,0
13489,488911.15106507455,2010-12-12 04:22:54,3781.9015052430473,2,45,0.550297200679779,4.062697887420654,40.67137072591546,40.07730778541004,163.09059346838268,145.2061757725517,6.47544875391759e-05,0.0931989923119545,0,0,0
13490,488941.1661473624,2010-12-12 04:23:24,3811.916587535906,2,45,0.550297200679779,4.0654497146606445,40.67595815527994,40.07730778541004,163.10923725950462,145.2061757725517,6.47544875391759e-05,0.0931989923119545,0,0,0
13491,488971.1812590935,2010-12-12 04:23:54,3841.9316992670224,2,45,0.5501165986061096,4.068202018737793,40.680545572615294,40.07730778541004,163.12789381180616,145.2061757725517,6.47544875391759e-05,0.0931989923119545,0,0,0
13492,489001.1963467196,2010-12-12 04:24:24,3871.946786893154,2,45,0.5501165986061096,4.070953845977783,40.68513304538477,40.07730778541004,163.14656359600505,145.2061757725517,3.23295607813634e-05,0.0931989923119545,0,0,0
13493,489031.2114357843,2010-12-12 04:24:54,3901.961875952852,2,45,0.550297200679779,4.074353694915772,40.68972049352613,40.07730778541004,163.16524628863843,145.2061757725517,0.0001619339018361,0.0931989923119545,0,0,0
13494,489061.2265418966,2010-12-12 04:25:24,3931.976982064985,2,45,0.5501165986061096,4.076943874359131,40.69430792369933,40.07730778541004,163.1839421747389,145.2061757725517,9.71794142969884e-05,0.0931989923119545,0,0,0
13495,489091.2416386954,2010-12-12 04:25:54,3961.992078863942,2,45,0.550297200679779,4.07985782623291,40.69889535925981,40.07730778541004,163.20265137540747,145.2061757725517,3.24249267578125e-05,0.0931989923119545,0,0,0
13496,489121.2567218806,2010-12-12 04:26:24,3992.007162049023,2,45,0.550297200679779,4.0827717781066895,40.703482811358825,40.07730778541004,163.2213740096487,145.2061757725517,9.71794142969884e-05,0.0931989923119545,0,0,0
13497,489151.2718323786,2010-12-12 04:26:54,4022.022272547069,2,45,0.550297200679779,4.085685729980469,40.70807018921875,40.07730778541004,163.24010982276403,145.2061757725517,6.47544875391759e-05,0.0931989923119545,0,0,0
13498,489181.286893188,2010-12-12 04:27:24,4052.0373333314055,2,45,0.550297200679779,4.088761329650879,40.71265763139595,40.07730778541004,163.2588595409847,145.2061757725517,9.70840483205393e-05,0.0931989923119545,0,0,0
13499,489211.3019896662,2010-12-12 04:27:54,4082.052429834627,2,45,0.550297200679779,4.091675281524658,40.71724501099765,40.07730778541004,163.2776227704515,145.2061757725517,9.70840483205393e-05,0.0931989923119545,0,0,0
13500,489241.3170857683,2010-12-12 04:28:24,4112.067526007025,2,45,0.5501165986061096,4.094751358032227,40.72183239177473,40.07730778541004,163.29639969949525,145.2061757725517,9.71794142969884e-05,0.0931989923119545,0,0,0
13501,489271.3321761664,2010-12-12 04:28:54,4142.082616329867,2,45,0.550297200679779,4.097826957702637,40.72641984063801,40.07730778541004,163.3151909453418,145.2061757725517,9.70840483205393e-05,0.0931989923119545,0,0,0
13502,489301.34725413343,2010-12-12 04:29:25,4172.097694276912,2,45,0.5501165986061096,4.100740909576416,40.73100731378028,40.07730778541004,163.33399637409013,145.2061757725517,6.47544875391759e-05,0.0931989923119545,0,0,0
13503,489331.3624825649,2010-12-12 04:29:55,4202.112922803669,2,45,0.550297200679779,4.103978633880615,40.73559477473124,40.07730778541004,163.35281590778894,145.2061757725517,9.70840483205393e-05,0.0931989923119545,0,0,0
13504,489361.3792961611,2010-12-12 04:30:25,4232.12973643991,2,45,0.5501165986061096,4.1068925857543945,40.74018249689069,40.07730778541004,163.37165092079445,145.2061757725517,0.0,0.0931989923119545,0,0,0
13505,489391.39253613446,2010-12-12 04:30:55,4262.142976302954,2,45,0.550297200679779,4.110292434692383,40.74476972096651,40.07730778541004,163.39049828912056,145.2061757725517,9.71794142969884e-05,0.0931989923119545,0,0,0
13506,489421.4076433744,2010-12-12 04:31:25,4292.158083527856,2,45,0.550297200679779,4.113368034362793,40.74935722344107,40.07730778541004,163.4093613197218,145.2061757725517,6.47544875391759e-05,0.0931989923119545,0,0,0
13507,489451.4227148002,2010-12-12 04:31:55,4322.173154973723,2,45,0.5504778623580933,4.116767406463623,40.75394471079028,40.07730778541004,163.42823891685924,145.2061757725517,9.70840483205393e-05,0.0931989923119545,0,0,0
13508,489481.4378338144,2010-12-12 04:32:25,4352.188273987962,2,45,0.550297200679779,4.120005130767822,40.75853216415075,40.07730778541004,163.4471311810775,145.2061757725517,0.0001295089750783,0.0931989923119545,0,0,0
13509,489511.45290206734,2010-12-12 04:32:55,4382.203342235872,2,45,0.5501165986061096,4.123081207275391,40.763119613865896,40.07730778541004,163.46603833364946,145.2061757725517,6.47544875391759e-05,0.0931989923119545,0,0,0
13510,489541.46803214913,2010-12-12 04:33:25,4412.218472387827,2,45,0.5501165986061096,4.12631893157959,40.767707098703895,40.07730778541004,163.48496057169297,145.2061757725517,6.47544875391759e-05,0.0931989923119545,0,0,0
13511,489571.4830870238,2010-12-12 04:33:55,4442.233527192282,2,45,0.550297200679779,4.129880428314209,40.77229450685214,40.07730778541004,163.503897601979,145.2061757725517,0.0001295089750783,0.0931989923119545,0,0,0
13512,489601.4981929955,2010-12-12 04:34:25,4472.248633169078,2,45,0.550297200679779,4.133118152618408,40.7768819837646,40.07730778541004,163.52285021949038,145.2061757725517,9.71794142969884e-05,0.0931989923119545,0,0,0
13513,489631.5132885765,2010-12-12 04:34:55,4502.2637287449925,2,45,0.5501165986061096,4.136355876922607,40.78146946308643,40.07730778541004,163.54181805177018,145.2061757725517,3.24249267578125e-05,0.0931989923119545,0,0,0
13514,489661.5283582079,2010-12-12 04:35:25,4532.278798376344,2,45,0.550297200679779,4.1397552490234375,40.78605692166657,40.07730778541004,163.56080122910387,145.2061757725517,6.47544875391759e-05,0.0931989923119545,0,0,0
13515,489691.54347262566,2010-12-12 04:35:55,4562.293912794145,2,45,0.550297200679779,4.143155097961426,40.79064439997354,40.07730778541004,163.5798000421272,145.2061757725517,6.47544875391759e-05,0.0931989923119545,0,0,0
13516,489721.5585469487,2010-12-12 04:36:25,4592.308987122185,2,45,0.5501165986061096,4.146716594696045,40.795231819809885,40.07730778541004,163.59881442719404,145.2061757725517,0.0001295089750783,0.0931989923119545,0,0,0
13517,489751.5736414018,2010-12-12 04:36:55,4622.324081570292,2,45,0.5501165986061096,4.150115966796875,40.79981919828633,40.07730778541004,163.6178445811918,145.2061757725517,9.70840483205393e-05,0.0931989923119545,0,0,0
13518,489781.5887267071,2010-12-12 04:37:25,4652.3391668756485,2,45,0.550297200679779,4.153677463531494,40.804406625291584,40.07730778541004,163.63689086173582,145.2061757725517,9.70840483205393e-05,0.0931989923119545,0,0,0
13519,489811.6038476612,2010-12-12 04:37:55,4682.354287814677,2,45,0.550297200679779,4.157077312469482,40.808994042486766,40.07730778541004,163.6559530500168,145.2061757725517,9.71794142969884e-05,0.0931989923119545,0,0,0
13520,489841.6191227088,2010-12-12 04:38:25,4712.369562947411,2,45,0.550297200679779,4.160638809204102,40.8135814580544,40.07730778541004,163.6750314208825,145.2061757725517,9.71794142969884e-05,0.0931989923119545,0,0,0
13521,489871.62061301846,2010-12-12 04:38:55,4742.371053262156,2,45,0.5499359965324402,4.164038181304932,40.81816673250177,40.07730778541004,163.69411706380905,145.2061757725517,6.47544875391759e-05,0.0931989923119545,0,0,0
13522,489901.63432136725,2010-12-12 04:39:25,4772.384761515772,2,45,0.5499359965324402,4.167599678039551,40.82275383549455,40.07730778541004,163.71322653572966,145.2061757725517,6.47544875391759e-05,0.0931989923119545,0,0,0
13523,489931.63610632025,2010-12-12 04:39:55,4802.386546568961,2,45,0.5501165986061096,4.171323299407959,40.82733909457219,40.07730778541004,163.7323447587782,145.2061757725517,9.71794142969884e-05,0.0931989923119545,0,0,0
13524,489961.64812511473,2010-12-12 04:40:25,4832.398565373449,2,45,0.550297200679779,4.175046443939209,40.831926024633184,40.07730778541004,163.75148653443316,145.2061757725517,9.70840483205393e-05,0.0931989923119545,0,0,0
13525,489991.66331986745,2010-12-12 04:40:55,4862.413760030923,2,45,0.550297200679779,4.178770065307617,40.83651347252391,40.07730778541004,163.77064710345655,145.2061757725517,0.0001295089750783,0.0931989923119545,0,0,0
13526,490021.68000816175,2010-12-12 04:41:25,4892.430448405455,2,45,0.550297200679779,4.182331562042236,40.84110106578602,40.07730778541004,163.7898250598908,145.2061757725517,9.71794142969884e-05,0.0931989923119545,0,0,0
13527,490051.6933105103,2010-12-12 04:41:55,4922.443750683817,2,45,0.550297200679779,4.185893058776856,40.84568820869743,40.07730778541004,163.8090180844709,145.2061757725517,9.71794142969884e-05,0.0931989923119545,0,0,0
13528,490081.7086488904,2010-12-12 04:42:25,4952.459089033865,2,45,0.5499359965324402,4.1896162033081055,40.850275607244974,40.07730778541004,163.8282292488364,145.2061757725517,6.47544875391759e-05,0.0931989923119545,0,0,0
13529,490111.72349935136,2010-12-12 04:42:55,4982.4739395048455,2,45,0.5501165986061096,4.193339824676514,40.85486300981677,40.07730778541004,163.84745756370756,145.2061757725517,6.47544875391759e-05,0.0931989923119545,0,0,0
13530,490141.7387197279,2010-12-12 04:43:25,5012.489159871295,2,45,0.550297200679779,4.1972246170043945,40.859450401785736,40.07730778541004,163.8667029880739,145.2061757725517,0.0001295089750783,0.0931989923119545,0,0,0
13531,490163.8008381009,2010-12-12 04:43:47,5034.551278269386,2,45,0.550297200679779,4.200138568878174,40.86282235244934,40.07730778541004,163.88086032017466,145.2061757725517,0.0001295089750783,0.0931989923119545,0,0,0
13532,490193.8121824436,2010-12-12 04:44:17,30.014881523252093,3,45,0.0,4.112072944641113,40.86282235244934,40.07730778541004,163.88086032017466,145.2061757725517,-0.0003885269106831,0.0931989923119545,0,0,0
13533,490223.82724820526,2010-12-12 04:44:47,60.02994728497453,3,45,0.0,4.100903034210205,40.86282235244934,40.07730778541004,163.88086032017466,145.2061757725517,-0.0001942634553415,0.0931989923119545,0,0,0
13534,490253.8424709978,2010-12-12 04:45:17,90.0451700924994,3,45,0.0,4.094103813171387,40.86282235244934,40.07730778541004,163.88086032017466,145.2061757725517,-0.0001618385285837,0.0931989923119545,0,0,0
13535,490283.8107046346,2010-12-12 04:45:47,120.01340372928016,3,45,0.0,4.089894771575928,40.86282235244934,40.07730778541004,163.88086032017466,145.2061757725517,-9.70840483205393e-05,0.0931989923119545,0,0,0
13536,490283.8253196207,2010-12-12 04:45:47,0.016008200791971,4,45,1.009225368499756,4.199814796447754,40.86282684019452,40.07730778541004,163.88087916787322,145.2061757725517,0.0,0.0931989923119545,0,0,0
13537,490284.57507155946,2010-12-12 04:45:48,0.765760069480592,4,45,0.9590160250663756,4.199814796447754,40.863030335867904,40.07730778541004,163.88173380520058,145.2061757725517,0.0,0.0931989923119545,0,0,0
13538,490286.43426138686,2010-12-12 04:45:50,2.624949876808828,4,45,0.9089872241020204,4.199814796447754,40.86351166872355,40.07730778541004,163.8837552884294,145.2061757725517,0.0,0.0931989923119545,0,0,0
13539,490289.2779574201,2010-12-12 04:45:53,5.468645925051956,4,45,0.8589584827423096,4.199653148651123,40.864208892998825,40.07730778541004,163.8866834735937,145.2061757725517,0.0,0.0931989923119545,0,0,0
13540,490293.277891011,2010-12-12 04:45:57,9.468579515949305,4,45,0.8085684776306152,4.199814796447754,40.8651340929914,40.07730778541004,163.89056911978977,145.2061757725517,3.23295607813634e-05,0.0931989923119545,0,0,0
13541,490298.4965653213,2010-12-12 04:46:02,14.687253826252253,4,45,0.7585397362709045,4.199814796447754,40.86626858612967,40.07730778541004,163.89533375732148,145.2061757725517,-3.24249267578125e-05,0.0931989923119545,0,0,0
13542,490305.30894339713,2010-12-12 04:46:09,21.499631902079404,4,45,0.7085109353065491,4.199653148651123,40.86765490545916,40.07730778541004,163.9011560146431,145.2061757725517,0.0,0.0931989923119545,0,0,0
13543,490314.3422805392,2010-12-12 04:46:18,30.532969119308436,4,45,0.6584821939468384,4.199814796447754,40.869367201554894,40.07730778541004,163.90834731719931,145.2061757725517,3.23295607813634e-05,0.0931989923119545,0,0,0
13544,490326.7930189629,2010-12-12 04:46:30,42.98370746280166,4,45,0.6082727909088135,4.199814796447754,40.87155337777326,40.07730778541004,163.91752882818705,145.2061757725517,0.0,0.0931989923119545,0,0,0
13545,490345.3707183032,2010-12-12 04:46:49,61.56140681310801,4,45,0.5582440495491028,4.199814796447754,40.8745547121663,40.07730778541004,163.93013384215132,145.2061757725517,0.0,0.0931989923119545,0,0,0
13546,490376.700318012,2010-12-12 04:47:20,92.8910066122235,4,45,0.5082152485847473,4.199814796447754,40.87917546216889,40.07730778541004,163.94954006866735,145.2061757725517,3.23295607813634e-05,0.0931989923119545,0,0,0
13547,490434.7597359204,2010-12-12 04:48:18,150.95042442038456,4,45,0.4581864774227142,4.199653148651123,40.88692853276873,40.07730778541004,163.98210139509277,145.2061757725517,-3.23295607813634e-05,0.0931989923119545,0,0,0
13548,490528.3518455906,2010-12-12 04:49:52,244.54253420588927,4,45,0.4079771041870117,4.199491024017334,40.89815554607428,40.07730778541004,164.0292525378446,145.2061757725517,-6.47544875391759e-05,0.0931989923119545,0,0,0
13549,490648.3809771481,2010-12-12 04:51:52,364.571665627928,4,45,0.3579483330249786,4.199814796447754,40.91091365398297,40.07730778541004,164.0828341079121,145.2061757725517,0.0,0.0931989923119545,0,0,0
13550,490792.8002544199,2010-12-12 04:54:16,508.99094292489394,4,45,0.3077389597892761,4.199814796447754,40.92425728456256,40.07730778541004,164.1388748389574,145.2061757725517,0.0,0.0931989923119545,0,0,0
13551,490964.502177271,2010-12-12 04:57:08,680.6928658511758,4,45,0.257710188627243,4.199653148651123,40.93771894115499,40.07730778541004,164.19541109698747,145.2061757725517,0.0,0.0931989923119545,0,0,0
13552,491176.79346364713,2010-12-12 05:00:40,892.9841521570986,4,45,0.2076814323663711,4.199814796447754,40.951397350934606,40.07730778541004,164.25285760104168,145.2061757725517,-3.24249267578125e-05,0.0931989923119545,0,0,0
13553,491458.3665796616,2010-12-12 05:05:22,1174.5572681665533,4,45,0.1574720442295074,4.199814796447754,40.965599399139165,40.07730778541004,164.31250339818408,145.2061757725517,0.0,0.0931989923119545,0,0,0
13554,491881.8435470624,2010-12-12 05:12:25,1598.0342355773791,4,45,0.1074432730674743,4.199653148651123,40.980990324567365,40.07730778541004,164.3771421232901,145.2061757725517,-3.23295607813634e-05,0.0931989923119545,0,0,0
13555,492693.4698198007,2010-12-12 05:25:57,2409.660508290631,4,45,0.0574145056307315,4.199653148651123,40.998932258386205,40.07730778541004,164.45249456996964,145.2061757725517,-3.23295607813634e-05,0.0931989923119545,0,0,0
13556,492894.6223640906,2010-12-12 05:29:18,2610.8130526005098,4,45,0.0498289167881011,4.199814796447754,41.00194686084986,40.07730778541004,164.4651553039416,145.2061757725517,3.23295607813634e-05,0.0931989923119545,0,0,0
13557,492924.6514093584,2010-12-12 05:29:48,30.01522452680324,5,45,0.0,4.191558837890625,41.00194686084986,40.07730778541004,164.4651553039416,145.2061757725517,-3.24249267578125e-05,0.0931989923119545,0,0,0
13558,492954.6507475176,2010-12-12 05:30:18,60.01456269100415,5,45,0.0,4.190263748168945,41.00194686084986,40.07730778541004,164.4651553039416,145.2061757725517,0.0,0.0931989923119545,0,0,0
13559,492954.8373833704,2010-12-12 05:30:19,0.187390900047426,6,45,-1.9243103452026844e-05,4.190425872802734,41.00194686084986,40.077307786411694,164.4651553039416,145.20617577674906,0.0,0.0956302732229232,0,0,0
13560,492959.6654357783,2010-12-12 05:30:23,5.015443307769719,6,45,0.0007031940040178,4.190263748168945,41.00194790134666,40.077307786505806,164.46515966410882,145.2061757771434,-3.24249267578125e-05,0.0956302732229232,0,0,0
13561,492989.6953344232,2010-12-12 05:30:54,30.014939136620747,7,45,-1.099929690361023,4.008627891540527,41.00194790134666,40.0864763532069,164.46515966410882,145.24313723618707,-0.0009713172912597,0.0956302732229232,0,0,0
13562,493019.7106399716,2010-12-12 05:31:24,60.03024475020532,7,45,-1.099929690361023,3.980459928512573,41.00194790134666,40.09564569819532,164.46515966410882,145.279755972006,-0.0006475448608398,0.0956302732229232,0,0,0
13563,493049.725545665,2010-12-12 05:31:54,90.04515035839184,7,45,-1.099568486213684,3.961195468902588,41.00194790134666,40.10481479862813,164.46515966410882,145.31615976518853,-0.0004209041653666,0.0956302732229232,0,0,0
13564,493079.7408530481,2010-12-12 05:32:24,120.06045775641692,7,45,-1.0997490882873535,3.9458162784576416,41.00194790134666,40.11398395716266,164.46515966410882,145.35240658641004,-0.0003885269106831,0.0956302732229232,0,0,0
13565,493109.755801583,2010-12-12 05:32:54,150.07540629643768,7,45,-1.0997490882873535,3.9327034950256343,41.00194790134666,40.12315306408243,164.46515966410882,145.38852422096093,-0.0003237724304199,0.0956302732229232,0,0,0
13566,493139.7710191876,2010-12-12 05:33:24,180.09062389600274,7,45,-1.099929690361023,3.9207239151000977,41.00194790134666,40.132322298374895,164.46515966410882,145.4245281722987,-0.0002913951757363,0.0956302732229232,0,0,0
13567,493169.7878787732,2010-12-12 05:33:54,210.1074835718114,7,45,-1.099568486213684,3.9097158908844,41.00194790134666,40.141491994104456,164.46515966410882,145.4604283295875,-0.0002590179501567,0.0956302732229232,0,0,0
13568,493199.80109216034,2010-12-12 05:34:24,240.12069686874645,7,45,-1.0997490882873535,3.899031400680542,41.00194790134666,40.15065986752887,164.46515966410882,145.49622188070276,-0.0002266406954731,0.0956302732229232,0,0,0
13569,493229.81618121,2010-12-12 05:34:54,270.13578592343254,7,45,-1.099568486213684,3.8888325691223145,41.00194790134666,40.15982821456387,164.46515966410882,145.53192234687953,-0.0002590179501567,0.0956302732229232,0,0,0
13570,493259.8313406097,2010-12-12 05:35:24,300.1509454133941,7,45,-1.099568486213684,3.878957509994507,41.00194790134666,40.168996621635394,164.46515966410882,145.56753126896058,-0.0002590179501567,0.0956302732229232,0,0,0
13571,493289.8463786525,2010-12-12 05:35:54,330.1659833609019,7,45,-1.099929690361023,3.869244337081909,41.00194790134666,40.17816503378705,164.46515966410882,145.6030504685686,-0.0002590179501567,0.0956302732229232,0,0,0
13572,493319.86158687365,2010-12-12 05:36:24,360.1811915871418,7,45,-1.0997490882873535,3.859854936599731,41.00194790134666,40.187333443001485,164.46515966410882,145.63848249692535,-0.0002266406954731,0.0956302732229232,0,0,0
13573,493349.8765574486,2010-12-12 05:36:54,390.1961621619954,7,45,-1.099568486213684,3.850627422332764,41.00194790134666,40.19650180211317,164.46515966410882,145.67382911825572,-0.0002266406954731,0.0956302732229232,0,0,0
13574,493379.8916782423,2010-12-12 05:37:24,420.2112829506504,7,45,-1.099568486213684,3.841723680496216,41.00194790134666,40.205670190420456,164.46515966410882,145.70909290054854,-0.0002266406954731,0.0956302732229232,0,0,0
13575,493409.9067269466,2010-12-12 05:37:54,450.22633164490094,7,45,-1.099568486213684,3.832982063293457,41.00194790134666,40.214838606236285,164.46515966410882,145.74427565244713,-0.0002265930233988,0.0956302732229232,0,0,0
13576,493439.9218061166,2010-12-12 05:38:24,480.24141082501455,7,45,-1.099568486213684,3.824563980102539,41.00194790134666,40.22400697489481,164.46515966410882,145.7793791237948,-0.0002266406954731,0.0956302732229232,0,0,0
13577,493469.9369752756,2010-12-12 05:38:54,510.2565800792742,7,45,-1.099568486213684,3.816145896911621,41.00194790134666,40.23317533590174,164.46515966410882,145.8144048557927,-0.0001618862152099,0.0956302732229232,0,0,0
13578,493499.9519913087,2010-12-12 05:39:24,540.2715960170116,7,45,-1.099568486213684,3.807889699935913,41.00194790134666,40.24234375677894,164.46515966410882,145.84935466674054,-0.0002266406954731,0.0956302732229232,0,0,0
13579,493529.969467684,2010-12-12 05:39:54,570.289072482678,7,45,-1.0997490882873535,3.799957275390625,41.00194790134666,40.25151286582389,164.46515966410882,145.88423281447547,-0.0002266406954731,0.0956302732229232,0,0,0
13580,493559.9843512424,2010-12-12 05:40:24,600.303956025957,7,45,-1.099568486213684,3.792024850845337,41.00194790134666,40.26068127657672,164.46515966410882,145.91903646700908,-0.0002590179501567,0.0956302732229232,0,0,0
13581,493589.99732404586,2010-12-12 05:40:54,630.3169287793086,7,45,-1.099568486213684,3.784578084945679,41.00194790134666,40.2698490089607,164.46515966410882,145.95376752826223,-0.0001618862152099,0.0956302732229232,0,0,0
13582,493620.0125284676,2010-12-12 05:41:24,660.3321331810312,7,45,-1.0997490882873535,3.777131319046021,41.00194790134666,40.27901746139013,164.46515966410882,145.98843272104276,-0.0001942634553415,0.0956302732229232,0,0,0
13583,493650.0275037642,2010-12-12 05:41:54,690.3471084575849,7,45,-1.099929690361023,3.7700083255767822,41.00194790134666,40.28818585994658,164.46515966410882,146.02303051985388,-0.0001618862152099,0.0956302732229232,0,0,0
13584,493680.0425766737,2010-12-12 05:42:24,720.3621813871441,7,45,-1.099568486213684,3.763047218322754,41.00194790134666,40.2973543065398,164.46515966410882,146.05756345024227,-0.0001618862152099,0.0956302732229232,0,0,0
13585,493710.05779853393,2010-12-12 05:42:54,750.3774032422992,7,45,-1.0997490882873535,3.7560861110687256,41.00194790134666,40.30652279966963,164.46515966410882,146.09203262756336,-0.0001618862152099,0.0956302732229232,0,0,0
13586,493740.0727643168,2010-12-12 05:43:24,780.3923690101907,7,45,-1.0997490882873535,3.7492871284484863,41.00194790134666,40.31569125050983,164.46515966410882,146.12643878217483,-0.0001618862152099,0.0956302732229232,0,0,0
13587,493770.0896497818,2010-12-12 05:43:54,810.4092545704118,7,45,-1.099568486213684,3.742649793624878,41.00194790134666,40.32486021838701,164.46515966410882,146.16078549743878,-0.0001942634553415,0.0956302732229232,0,0,0
13588,493800.1031052464,2010-12-12 05:44:24,840.4227099597845,7,45,-1.0997490882873535,3.7360124588012695,41.00194790134666,40.33402817051838,164.46515966410882,146.19506804839364,-0.0001942634553415,0.0956302732229232,0,0,0
13589,493830.11810331966,2010-12-12 05:44:54,870.437708118279,7,45,-1.0997490882873535,3.729698896408081,41.00194790134666,40.34319660498279,164.46515966410882,146.22929346147382,-0.0001618862152099,0.0956302732229232,0,0,0
13590,493860.13328744087,2010-12-12 05:45:24,900.4528922044472,7,45,-1.099929690361023,3.723709106445313,41.00194790134666,40.352365068471606,164.46515966410882,146.26346159542467,-0.0001618862152099,0.0956302732229232,0,0,0
13591,493890.1482422716,2010-12-12 05:45:54,930.4678469649474,7,45,-1.0997490882873535,3.717557430267334,41.00194790134666,40.36153346785032,164.46515966410882,146.29757276475888,-0.0001295089750783,0.0956302732229232,0,0,0
13592,493920.16331753193,2010-12-12 05:46:24,960.4829222403444,7,45,-1.0997490882873535,3.711405754089356,41.00194790134666,40.37070194469471,164.46515966410882,146.33162841105772,-0.0001618862152099,0.0956302732229232,0,0,0
13593,493950.178551412,2010-12-12 05:46:54,990.4981561053852,7,45,-1.099568486213684,3.705415964126587,41.00194790134666,40.37987040104172,164.46515966410882,146.36562913176664,-0.0001618862152099,0.0956302732229232,0,0,0
13594,493980.1936320508,2010-12-12 05:47:24,1020.5132367691908,7,45,-1.0997490882873535,3.699588060379028,41.00194790134666,40.389038839569416,164.46515966410882,146.39957590213555,-0.0001942634553415,0.0956302732229232,0,0,0
13595,494010.2087559371,2010-12-12 05:47:54,1050.528360630492,7,45,-1.0997490882873535,3.69392204284668,41.00194790134666,40.39820733767274,164.46515966410882,146.4334699997229,-0.0001618862152099,0.0956302732229232,0,0,0
13596,494040.2237124018,2010-12-12 05:48:24,1080.5433170952333,7,45,-1.0997490882873535,3.688256025314331,41.00194790134666,40.4073757761762,164.46515966410882,146.4673118211817,-0.0001618862152099,0.0956302732229232,0,0,0
13597,494070.2387854768,2010-12-12 05:48:54,1110.558390190204,7,45,-1.099568486213684,3.6829137802124015,41.00194790134666,40.416544194538574,164.46515966410882,146.5011026851476,-0.0001295089750783,0.0956302732229232,0,0,0
13598,494100.2542706472,2010-12-12 05:49:24,1140.5738754107338,7,45,-1.099929690361023,3.6772477626800537,41.00194790134666,40.425712783695566,164.46515966410882,146.53484383217918,-0.0001618862152099,0.0956302732229232,0,0,0
13599,494130.2689847589,2010-12-12 05:49:54,1170.5885895624883,7,45,-1.099929690361023,3.672067642211914,41.00194790134666,40.43488112093664,164.46515966410882,146.56853451227929,-0.0001294612884521,0.0956302732229232,0,0,0
13600,494160.284057503,2010-12-12 05:50:24,1200.6036621862866,7,45,-1.0997490882873535,3.666563510894776,41.00194790134666,40.44404959207916,164.46515966410882,146.60217680579498,-0.0001618862152099,0.0956302732229232,0,0,0
13601,494190.2991604272,2010-12-12 05:50:54,1230.6187651355488,7,45,-1.0997490882873535,3.6615450382232666,41.00194790134666,40.45321804899192,164.46515966410882,146.63577110216488,-0.0001295089750783,0.0956302732229232,0,0,0
13602,494220.3142653763,2010-12-12 05:51:24,1260.633870084788,7,45,-1.099568486213684,3.656364679336548,41.00194790134666,40.46238652107897,164.46515966410882,146.66931836285391,-0.0001295089750783,0.0956302732229232,0,0,0
13603,494250.3293546616,2010-12-12 05:51:54,1290.6489593550104,7,45,-1.0997490882873535,3.651346206665039,41.00194790134666,40.47155498991943,164.46515966410882,146.70281922253443,-0.0001295089750783,0.0956302732229232,0,0,0
13604,494280.34443027794,2010-12-12 05:52:24,1320.6640349913052,7,45,-1.099568486213684,3.6463277339935294,41.00194790134666,40.48072346040863,164.46515966410882,146.73627437863436,-0.0001618862152099,0.0956302732229232,0,0,0
13605,494310.35952008446,2010-12-12 05:52:54,1350.67912479285,7,45,-1.0997490882873535,3.6416330337524414,41.00194790134666,40.48989186467756,164.46515966410882,146.76968425484327,-9.713172767078504e-05,0.0956302732229232,0,0,0
13606,494340.3747450222,2010-12-12 05:53:24,1380.694349730676,7,45,-1.0997490882873535,3.636938333511353,41.00194790134666,40.49906029560767,164.46515966410882,146.80305039090447,-9.713172767078504e-05,0.0956302732229232,0,0,0
13607,494370.391568117,2010-12-12 05:53:54,1410.7111729056537,7,45,-1.099568486213684,3.6320817470550537,41.00194790134666,40.50822927304464,164.46515966410882,146.83637526416408,-0.0001295089750783,0.0956302732229232,0,0,0
13608,494400.40480405535,2010-12-12 05:54:24,1440.7244087687438,7,45,-1.099929690361023,3.6277108192443848,41.00194790134666,40.51739715575817,164.46515966410882,146.86965396415567,-0.0001295089750783,0.0956302732229232,0,0,0
13609,494430.4199199167,2010-12-12 05:54:54,1470.739524700312,7,45,-1.0997490882873535,3.623178005218506,41.00194790134666,40.52656564238544,164.46515966410882,146.9028935203868,-0.0001295089750783,0.0956302732229232,0,0,0
13610,494460.43498541776,2010-12-12 05:55:24,1500.754590131211,7,45,-1.0993878841400146,3.618807077407837,41.00194790134666,40.53573415069895,164.46515966410882,146.93609251020894,-9.713172767078504e-05,0.0956302732229232,0,0,0
13611,494490.45029227954,2010-12-12 05:55:54,1530.7698969878893,7,45,-1.0997490882873535,3.614436149597168,41.00194790134666,40.544902691403806,164.46515966410882,146.96925191396582,-0.0001295089750783,0.0956302732229232,0,0,0
13612,494520.4651739782,2010-12-12 05:56:24,1560.7847786765526,7,45,-1.0997490882873535,3.610388994216919,41.00194790134666,40.55407113917694,164.46515966410882,147.0023724591837,-9.713172767078504e-05,0.0956302732229232,0,0,0
13613,494550.48026297765,2010-12-12 05:56:54,1590.7998676861266,7,45,-1.099929690361023,3.60634183883667,41.00194790134666,40.56323972384458,164.46515966410882,147.03545584906612,-9.713172767078504e-05,0.0956302732229232,0,0,0
13614,494580.4953789093,2010-12-12 05:57:24,1620.814983617695,7,45,-1.0997490882873535,3.602294683456421,41.00194790134666,40.5724082171891,164.46515966410882,147.06850222598084,-0.0001618862152099,0.0956302732229232,0,0,0
13615,494610.5104641245,2010-12-12 05:57:54,1650.8300688328263,7,45,-1.099568486213684,3.598571300506592,41.00194790134666,40.58157673339888,164.46515966410882,147.1015130808066,-9.713172767078504e-05,0.0956302732229232,0,0,0
13616,494640.5255873191,2010-12-12 05:58:24,1680.8451920826055,7,45,-1.0997490882873535,3.5946860313415527,41.00194790134666,40.5907452803162,164.46515966410882,147.13448900600068,-0.0001295089750783,0.0956302732229232,0,0,0
13617,494670.5406427551,2010-12-12 05:58:54,1710.8602474634956,7,45,-1.0997490882873535,3.5911247730255127,41.00194790134666,40.59991379488928,164.46515966410882,147.16743071937708,-9.713172767078504e-05,0.0956302732229232,0,0,0
13618,494700.555762862,2010-12-12 05:59:24,1740.8753676406286,7,45,-1.099568486213684,3.5875632762908936,41.00194790134666,40.609082387161706,164.46515966410882,147.20033954117906,-9.713172767078504e-05,0.0956302732229232,0,0,0
13619,494730.5708427038,2010-12-12 05:59:54,1770.890447412214,7,45,-1.099568486213684,3.5840017795562744,41.00194790134666,40.61825089117878,164.46515966410882,147.23321563933837,-9.713172767078504e-05,0.0956302732229232,0,0,0
13620,494760.5858919544,2010-12-12 06:00:24,1800.9054966628496,7,45,-1.0997490882873535,3.580602169036865,41.00194790134666,40.62741934841718,164.46515966410882,147.26606028113807,-9.713172767078504e-05,0.0956302732229232,0,0,0
13621,494790.600992192,2010-12-12 06:00:54,1830.920596900364,7,45,-1.099568486213684,3.577202558517456,41.00194790134666,40.63658793485114,164.46515966410882,147.2988741704075,-9.713172767078504e-05,0.0956302732229232,0,0,0
13622,494820.6161234216,2010-12-12 06:01:24,1860.935728114963,7,45,-1.0997490882873535,3.573964834213257,41.00194790134666,40.64575652340147,164.46515966410882,147.3316577606374,-6.47544875391759e-05,0.0956302732229232,0,0,0
13623,494850.6312522051,2010-12-12 06:01:54,1890.9508569135503,7,45,-1.0997490882873535,3.5707271099090576,41.00194790134666,40.65492503943931,164.46515966410882,147.36441127483516,-9.713172767078504e-05,0.0956302732229232,0,0,0
13624,494880.6463303878,2010-12-12 06:02:24,1920.965935101194,7,45,-1.099568486213684,3.5676512718200684,41.00194790134666,40.664093569622366,164.46515966410882,147.39713522399984,-6.47544875391759e-05,0.0956302732229232,0,0,0
13625,494910.6614129513,2010-12-12 06:02:55,1950.9810176446776,7,45,-1.0997490882873535,3.564251661300659,41.00194790134666,40.67326213866394,164.46515966410882,147.42982992599494,-0.0001295089750783,0.0956302732229232,0,0,0
13626,494940.6765669376,2010-12-12 06:03:25,1980.996171645981,7,45,-1.099568486213684,3.56117582321167,41.00194790134666,40.68243062854787,164.46515966410882,147.46249541002717,-9.713172767078504e-05,0.0956302732229232,0,0,0
13627,494970.6934150797,2010-12-12 06:03:55,2011.01301989335,7,45,-1.099568486213684,3.5580999851226807,41.00194790134666,40.6915996300443,164.46515966410882,147.49513380316426,-6.47544875391759e-05,0.0956302732229232,0,0,0
13628,495000.7067023608,2010-12-12 06:04:25,2041.026307074142,7,45,-1.099568486213684,3.554862260818481,41.00194790134666,40.70076763495082,164.46515966410882,147.52773938606296,-9.713172767078504e-05,0.0956302732229232,0,0,0
13629,495030.7217968991,2010-12-12 06:04:55,2071.041401612474,7,45,-1.0997490882873535,3.5516245365142822,41.00194790134666,40.70993612611144,164.46515966410882,147.56031730544822,-9.713172767078504e-05,0.0956302732229232,0,0,0
13630,495060.7368404756,2010-12-12 06:05:25,2101.0564451789646,7,45,-1.0997490882873535,3.548386812210083,41.00194790134666,40.71910470282887,164.46515966410882,147.59286603569797,-6.47544875391759e-05,0.0956302732229232,0,0,0
13631,495090.7519566478,2010-12-12 06:05:55,2131.0715613611565,7,45,-1.0997490882873535,3.545149087905884,41.00194790134666,40.7282732033986,164.46515966410882,147.62538469247806,-9.713172767078504e-05,0.0956302732229232,0,0,0
13632,495120.7670403942,2010-12-12 06:06:25,2161.0866451026204,7,45,-1.0997490882873535,3.541911363601685,41.00194790134666,40.737441745818685,164.46515966410882,147.65787321595428,-9.713172767078504e-05,0.0956302732229232,0,0,0
13633,495150.7821354889,2010-12-12 06:06:55,2191.101740197337,7,45,-1.0997490882873535,3.538349866867065,41.00194790134666,40.7466102788447,164.46515966410882,147.69033105226654,-0.0001295089750783,0.0956302732229232,0,0,0
13634,495180.79734930914,2010-12-12 06:07:25,2221.1169540174974,7,45,-1.099568486213684,3.535112142562866,41.00194790134666,40.75577886416495,164.46515966410882,147.72275744929635,-6.47544875391759e-05,0.0956302732229232,0,0,0
13635,495210.8123218739,2010-12-12 06:07:55,2251.131926587316,7,45,-1.099568486213684,3.531388759613037,41.00194790134666,40.764947281491935,164.46515966410882,147.755150995455,-0.0001295089750783,0.0956302732229232,0,0,0
13636,495240.827439239,2010-12-12 06:08:25,2281.1470439474383,7,45,-1.0997490882873535,3.527665376663208,41.00194790134666,40.77411574984236,164.46515966410882,147.78751185496182,-0.0001295089750783,0.0956302732229232,0,0,0
13637,495270.84251963714,2010-12-12 06:08:55,2311.162124345583,7,45,-1.0997490882873535,3.523941993713379,41.00194790134666,40.783284180710766,164.46515966410882,147.81983834485635,-9.713172767078504e-05,0.0956302732229232,0,0,0
13638,495300.8576035541,2010-12-12 06:09:25,2341.177208262484,7,45,-1.099568486213684,3.52005672454834,41.00194790134666,40.792452670178456,164.46515966410882,147.85212986430332,-0.0001295089750783,0.0956302732229232,0,0,0
13639,495330.8727048042,2010-12-12 06:09:55,2371.192309512518,7,45,-1.099568486213684,3.516171455383301,41.00194790134666,40.80162119862273,164.46515966410882,147.88438490180798,-6.47544875391759e-05,0.0956302732229232,0,0,0
13640,495360.8877846358,2010-12-12 06:10:25,2401.207389334228,7,45,-1.0997490882873535,3.511638879776001,41.00194790134666,40.81078974272298,164.46515966410882,147.9166017777144,-0.0001294612884521,0.0956302732229232,0,0,0
13641,495390.9029045624,2010-12-12 06:10:55,2431.222509340937,7,45,-1.099568486213684,3.507429838180542,41.00194790134666,40.81995828094716,164.46515966410882,147.94877862495113,-6.47544875391759e-05,0.0956302732229232,0,0,0
13642,495420.9179801686,2010-12-12 06:11:25,2461.2375848769825,7,45,-1.0997490882873535,3.502411365509033,41.00194790134666,40.82912680490894,164.46515966410882,147.98091325665752,-0.0001618862152099,0.0956302732229232,0,0,0
13643,495450.9356123567,2010-12-12 06:11:55,2491.2552171403454,7,45,-1.0997490882873535,3.4975547790527344,41.00194790134666,40.838296058117145,164.46515966410882,148.01300537714027,-9.713172767078504e-05,0.0956302732229232,0,0,0
13644,495480.9489829601,2010-12-12 06:12:25,2521.268587668545,7,45,-1.099568486213684,3.4918887615203857,41.00194790134666,40.84746414148195,164.46515966410882,148.0450450267705,-0.0001618862152099,0.0956302732229232,0,0,0
13645,495510.9633054072,2010-12-12 06:12:55,2551.2829102057813,7,45,-1.0997490882873535,3.4857370853424072,41.00194790134666,40.8566325050068,164.46515966410882,148.07703271039043,-0.0001618862152099,0.0956302732229232,0,0,0
13646,495540.97839085787,2010-12-12 06:13:25,2581.2979955662745,7,45,-1.0997490882873535,3.478775978088379,41.00194790134666,40.86580106888069,164.46515966410882,148.1089621457025,-0.0002266406954731,0.0956302732229232,0,0,0
13647,495570.9952373759,2010-12-12 06:13:55,2611.314842174565,7,45,-1.099568486213684,3.4713292121887207,41.00194790134666,40.874970110194,164.46515966410882,148.1408264389649,-0.0002266406954731,0.0956302732229232,0,0,0
13648,495601.00854041614,2010-12-12 06:14:25,2641.3281451296107,7,45,-1.099929690361023,3.462101697921753,41.00194790134666,40.88413812137269,164.46515966410882,148.17261092968363,-0.0002913951757363,0.0956302732229232,0,0,0
13649,495631.0238982046,2010-12-12 06:14:55,2671.343502983193,7,45,-1.099568486213684,3.4519028663635254,41.00194790134666,40.89330679364189,164.46515966410882,148.2043087672934,-0.0002913951757363,0.0956302732229232,0,0,0
13650,495661.03886076953,2010-12-12 06:15:25,2701.3584655330765,7,45,-1.0997490882873535,3.4391138553619385,41.00194790134666,40.902475323115816,164.46515966410882,148.23590048765854,-0.0003885269106831,0.0956302732229232,0,0,0
13651,495691.05384715874,2010-12-12 06:15:55,2731.373451872159,7,45,-1.0997490882873535,3.423411130905152,41.00194790134666,40.91164389822606,164.46515966410882,148.26736370968612,-0.0004209041653666,0.0956302732229232,0,0,0
13652,495721.0689075421,2010-12-12 06:16:25,2761.388512255497,7,45,-1.0997490882873535,3.403984785079956,41.00194790134666,40.92081250449228,164.46515966410882,148.29866629887098,-0.0005504131549969,0.0956302732229232,0,0,0
13653,495751.0840254184,2010-12-12 06:16:55,2791.403630111856,7,45,-1.0997490882873535,3.3780829906463623,41.00194790134666,40.929981041022586,164.46515966410882,148.32976292168374,-0.0007770538213662,0.0956302732229232,0,0,0
13654,495781.099097927,2010-12-12 06:17:25,2821.4187026354043,7,45,-1.0997490882873535,3.3440871238708496,41.00194790134666,40.93914957669833,164.46515966410882,148.36058752537508,-0.0010360718006268,0.0956302732229232,0,0,0
13655,495811.11420805415,2010-12-12 06:17:55,2851.4338127625283,7,45,-1.099568486213684,3.2979495525360107,41.00194790134666,40.948318077317126,164.46515966410882,148.39104660261253,-0.0013922214275225,0.0956302732229232,0,0,0
13656,495841.129297199,2010-12-12 06:18:25,2881.448901907439,7,45,-1.0993878841400146,3.234166622161865,41.00194790134666,40.95748661232053,164.46515966410882,148.42100694450653,-0.0019426345825195,0.0956302732229232,0,0,0
13657,495871.14437633904,2010-12-12 06:18:55,2911.463981052465,7,45,-1.099568486213684,3.143510580062866,41.00194790134666,40.96665519465701,164.46515966410882,148.45027032078448,-0.002816820051521,0.0956302732229232,0,0,0
13658,495901.1596194822,2010-12-12 06:19:25,2941.479224190582,7,45,-1.0993878841400146,3.0026700496673584,41.00194790134666,40.97582382927322,164.46515966410882,148.47850183175365,-0.0046947002410888,0.0956302732229232,0,0,0
13659,495925.0028238392,2010-12-12 06:19:49,2965.3224285425654,7,45,-1.099568486213684,2.802417278289795,41.00194790134666,40.98310709233719,164.46515966410882,148.49970581139027,-0.008159065619111,0.0956302732229232,0,0,0
13660,495934.51827997575,2010-12-12 06:19:58,2974.8378846892074,7,45,-1.0997490882873535,2.699620008468628,41.00194790134666,40.98601373602477,164.46515966410882,148.50770320200704,-0.00870943069458,0.0956302732229232,0,0,0
13661,495994.538013275,2010-12-12 06:20:58,60.01454998939669,8,45,0.0,3.3863391876220703,41.00194790134666,40.98601373602477,164.46515966410882,148.50770320200704,0.0013598442310467,0.0956302732229232,0,0,0
13662,495994.7162768551,2010-12-12 06:20:59,0.187624275793995,9,45,-1.9243103452026844e-05,3.3865010738372803,41.00194790134666,40.98601373702768,164.46515966410882,148.5077032054034,0.0,0.0940094217658042,0,0,0
13663,495999.5441793899,2010-12-12 06:21:04,5.015526825600629,9,45,0.0007031940040178,3.3945953845977783,41.00194890294401,40.98601373719415,164.46516306069756,148.50770320596715,0.0011655807029455,0.0940094217658042,0,0,0
