Data_Point,Test_Time(s),Date_Time,Step_Time(s),Step_Index,Cycle_Index,Current(A),Voltage(V),Charge_Capacity(Ah),Discharge_Capacity(Ah),Charge_Energy(Wh),Discharge_Energy(Wh),dV/dt(V/s),Internal_Resistance(Ohm),Is_FC_Data,AC_Impedance(Ohm),ACI_Phase_Angle(Deg)
14882,539934.0180852902,2010-12-12 18:33:23,30.015113435356444,1,50,0.0,3.42842960357666,44.63616395672705,44.61989159890104,179.0271192819875,161.71362426175304,0.0007446765666827,0.0939245000481605,0,0,0
14883,539964.033182004,2010-12-12 18:33:53,60.03021013406438,1,50,0.0,3.453197956085205,44.63616395672705,44.61989159890104,179.0271192819875,161.71362426175304,0.0005827903514727,0.0939245000481605,0,0,0
14884,539994.0484252173,2010-12-12 18:34:23,90.0454534526302,1,50,0.0,3.4719767570495605,44.63616395672705,44.61989159890104,179.0271192819875,161.71362426175304,0.0004856586456298,0.0939245000481605,0,0,0
14885,540024.0165260987,2010-12-12 18:34:53,120.01355424884233,1,50,0.0,3.486870288848877,44.63616395672705,44.61989159890104,179.0271192819875,161.71362426175304,0.0003885269106831,0.0939245000481605,0,0,0
14886,540054.0247494467,2010-12-12 18:35:23,30.015068829356128,2,50,0.5501165986061096,3.639366626739502,44.64075139694496,44.61989159890104,179.04366663909107,161.71362426175304,0.0013922214275225,0.0939245000481605,0,0,0
14887,540084.0399959933,2010-12-12 18:35:53,60.03031543610446,2,50,0.5501165986061096,3.681294918060303,44.64533878735719,44.61989159890104,179.06046493608375,161.71362426175304,0.0008741855854168,0.0939245000481605,0,0,0
14888,540114.0550048584,2010-12-12 18:36:23,90.04532424109226,2,50,0.5501165986061096,3.711405754089356,44.649926168104365,44.61989159890104,179.0774246244928,161.71362426175304,0.0007122993702068,0.0939245000481605,0,0,0
14889,540144.0701759923,2010-12-12 18:36:53,120.06049544520404,2,50,0.5501165986061096,3.73423171043396,44.65451357006271,44.61989159890104,179.0945047606278,161.71362426175304,0.0005504131549969,0.0939245000481605,0,0,0
14890,540174.0851867421,2010-12-12 18:37:23,150.07550612986932,2,50,0.5501165986061096,3.752039194107056,44.659100953901145,44.61989159890104,179.11167841397594,161.71362426175304,0.0003885269106831,0.0939245000481605,0,0,0
14891,540204.1002940172,2010-12-12 18:37:53,180.09061339988355,2,50,0.5501165986061096,3.7651517391204834,44.66368837128664,44.61989159890104,179.1289227462701,161.71362426175304,0.0002913951757363,0.0939245000481605,0,0,0
14892,540234.1154183546,2010-12-12 18:38:23,210.10573780253168,2,50,0.5501165986061096,3.773569822311402,44.66827575819154,44.61989159890104,179.14621526778902,161.71362426175304,0.0001942634553415,0.0939245000481605,0,0,0
14893,540264.1305100309,2010-12-12 18:38:53,240.12082941859163,2,50,0.5501165986061096,3.77955961227417,44.672863114850806,44.61989159890104,179.1635402885919,161.71362426175304,0.0001618862152099,0.0939245000481605,0,0,0
14894,540294.1456131906,2010-12-12 18:39:23,270.1359325783777,2,50,0.5501165986061096,3.784578084945679,44.67745054616858,44.61989159890104,179.1808908174134,161.71362426175304,0.0001295089750783,0.0939245000481605,0,0,0
14895,540324.1607178993,2010-12-12 18:39:54,300.1510372820056,2,50,0.550297200679779,3.7894346714019775,44.682037984529394,44.61989159890104,179.19826380204822,161.71362426175304,0.0001618862152099,0.0939245000481605,0,0,0
14896,540354.1759543207,2010-12-12 18:40:24,330.1662737735827,2,50,0.550297200679779,3.7938055992126474,44.68662537975028,44.61989159890104,179.21565738995398,161.71362426175304,9.713172767078504e-05,0.0939245000481605,0,0,0
14897,540384.190935863,2010-12-12 18:40:54,360.18125523051594,2,50,0.5501165986061096,3.7980146408081055,44.69121274154348,44.61989159890104,179.23307068286573,161.71362426175304,0.0001295089750783,0.0939245000481605,0,0,0
14898,540414.2060204012,2010-12-12 18:41:24,390.19633978400094,2,50,0.5501165986061096,3.8020617961883545,44.695800090184655,44.61989159890104,179.2505029800652,161.71362426175304,9.713172767078504e-05,0.0939245000481605,0,0,0
14899,540444.2211671144,2010-12-12 18:41:54,420.2114865021804,2,50,0.5501165986061096,3.8059470653533936,44.70038745855755,44.61989159890104,179.2679536096789,161.71362426175304,9.713172767078504e-05,0.0939245000481605,0,0,0
14900,540474.2364178564,2010-12-12 18:42:24,450.22673722416937,2,50,0.5501165986061096,3.809670448303223,44.70497486974918,44.61989159890104,179.28542209581988,161.71362426175304,6.47544875391759e-05,0.0939245000481605,0,0,0
14901,540504.2535107727,2010-12-12 18:42:54,480.2438302606872,2,50,0.550297200679779,3.813717603683472,44.70956258935503,44.61989159890104,179.3029092158575,161.71362426175304,9.713172767078504e-05,0.0939245000481605,0,0,0
14902,540534.2666191787,2010-12-12 18:43:24,510.25693854630566,2,50,0.550297200679779,3.817440986633301,44.71414962449446,44.61989159890104,179.32041105093427,161.71362426175304,9.713172767078504e-05,0.0939245000481605,0,0,0
14903,540564.2816000741,2010-12-12 18:43:54,540.2719194618918,2,50,0.550297200679779,3.82100248336792,44.71873690843072,44.61989159890104,179.3379306310947,161.71362426175304,9.713172767078504e-05,0.0939245000481605,0,0,0
14904,540594.2967027678,2010-12-12 18:44:24,570.2870221354679,2,50,0.5501165986061096,3.824563980102539,44.7233243107243,44.61989159890104,179.35546745294624,161.71362426175304,9.713172767078504e-05,0.0939245000481605,0,0,0
14905,540624.3119536301,2010-12-12 18:44:54,600.3022730128434,2,50,0.5501165986061096,3.828287363052368,44.72791160332427,44.61989159890104,179.3730205849296,161.71362426175304,6.47544875391759e-05,0.0939245000481605,0,0,0
14906,540654.3269557686,2010-12-12 18:45:24,630.3172751562541,2,50,0.550297200679779,3.8321726322174072,44.73249897105864,44.61989159890104,179.3905909154786,161.71362426175304,0.0001295089750783,0.0939245000481605,0,0,0
14907,540684.3421617391,2010-12-12 18:45:54,660.3324811068312,2,50,0.550297200679779,3.8357338905334473,44.737086305215335,44.61989159890104,179.40817805336988,161.71362426175304,0.0001295089750783,0.0939245000481605,0,0,0
14908,540714.3571241688,2010-12-12 18:46:24,690.3474435564656,2,50,0.5501165986061096,3.839457273483277,44.74167366485722,44.61989159890104,179.42578240218015,161.71362426175304,0.0001295089750783,0.0939245000481605,0,0,0
14909,540744.3722390578,2010-12-12 18:46:54,720.3625584253894,2,50,0.5499359965324402,3.8431806564331055,44.74626100616037,44.61989159890104,179.44340382201108,161.71362426175304,9.713172767078504e-05,0.0939245000481605,0,0,0
14910,540774.3873277715,2010-12-12 18:47:24,750.3776471492522,2,50,0.5501165986061096,3.8467421531677246,44.75084835723267,44.61989159890104,179.46104233694967,161.71362426175304,6.47544875391759e-05,0.0939245000481605,0,0,0
14911,540804.4024424801,2010-12-12 18:47:54,780.3927618627893,2,50,0.5499359965324402,3.8504655361175537,44.755435691569694,44.61989159890104,179.4786978139764,161.71362426175304,6.47544875391759e-05,0.0939245000481605,0,0,0
14912,540834.4175836946,2010-12-12 18:48:24,810.40790317251,2,50,0.5504778623580933,3.8543508052825928,44.7600230617478,44.61989159890104,179.49637021667547,161.71362426175304,0.0001618862152099,0.0939245000481605,0,0,0
14913,540864.4349674645,2010-12-12 18:48:54,840.4252869374944,2,50,0.550297200679779,3.857912302017212,44.76461068562736,44.61989159890104,179.51406014929964,161.71362426175304,0.0001295089750783,0.0939245000481605,0,0,0
14914,540894.4499738234,2010-12-12 18:49:24,870.4402933314825,2,50,0.550297200679779,3.861311912536621,44.76919803945638,44.61989159890104,179.53176520899882,161.71362426175304,9.713172767078504e-05,0.0939245000481605,0,0,0
14915,540924.4628832341,2010-12-12 18:49:54,900.4532026168968,2,50,0.5501165986061096,3.86454963684082,44.77378509611736,44.61989159890104,179.54948487837098,161.71362426175304,6.47544875391759e-05,0.0939245000481605,0,0,0
14916,540954.4779841685,2010-12-12 18:50:24,930.4683035561568,2,50,0.5501165986061096,3.8679492473602295,44.778372383940045,44.61989159890104,179.5672206452079,161.71362426175304,6.47544875391759e-05,0.0939245000481605,0,0,0
14917,540984.4931019997,2010-12-12 18:50:54,960.4834213874526,2,50,0.5501165986061096,3.8710250854492183,44.782959684889306,44.61989159890104,179.58497115880718,161.71362426175304,9.713172767078504e-05,0.0939245000481605,0,0,0
14918,541014.5083131633,2010-12-12 18:51:24,990.498632551002,2,50,0.550297200679779,3.874100923538208,44.787547066015456,44.61989159890104,179.60273615805576,161.71362426175304,9.713172767078504e-05,0.0939245000481605,0,0,0
14919,541044.5234200974,2010-12-12 18:51:54,1020.5137394851804,2,50,0.550297200679779,3.876852989196777,44.79213436463686,44.61989159890104,179.62051420831472,161.71362426175304,6.47544875391759e-05,0.0939245000481605,0,0,0
14920,541074.5385676879,2010-12-12 18:52:24,1050.5288870705178,2,50,0.5501165986061096,3.8796050548553462,44.79672170393928,44.61989159890104,179.6383052793508,161.71362426175304,6.47544875391759e-05,0.0939245000481605,0,0,0
14921,541104.5553275953,2010-12-12 18:52:54,1080.5456470833187,2,50,0.5504778623580933,3.882357120513916,44.801309343202526,44.61989159890104,179.65610967629797,161.71362426175304,9.713172767078504e-05,0.0939245000481605,0,0,0
14922,541134.5686243149,2010-12-12 18:53:24,1110.5589436875607,2,50,0.550297200679779,3.884623527526856,44.80589649510202,44.61989159890104,179.6739237147785,161.71362426175304,6.47544875391759e-05,0.0939245000481605,0,0,0
14923,541164.5837392991,2010-12-12 18:53:54,1140.574058661747,2,50,0.5499359965324402,3.886889934539795,44.81048390921255,44.61989159890104,179.69174957487948,161.71362426175304,6.47544875391759e-05,0.0939245000481605,0,0,0
14924,541194.5988403286,2010-12-12 18:54:24,1170.589159686219,2,50,0.5501165986061096,3.8891563415527344,44.81507133709826,44.61989159890104,179.70958577953505,161.71362426175304,6.47544875391759e-05,0.0939245000481605,0,0,0
14925,541224.6139487315,2010-12-12 18:54:54,1200.60426810409,2,50,0.5501165986061096,3.891260862350464,44.81965876848261,44.61989159890104,179.7274316960938,161.71362426175304,6.47544875391759e-05,0.0939245000481605,0,0,0
14926,541254.6291959897,2010-12-12 18:55:24,1230.6195155078217,2,50,0.5501165986061096,3.893041610717773,44.8242462437795,44.61989159890104,179.74528707171973,161.71362426175304,6.47544875391759e-05,0.0939245000481605,0,0,0
14927,541284.6441771109,2010-12-12 18:55:54,1260.6344965036071,2,50,0.550297200679779,3.894984245300293,44.82883365269576,44.61989159890104,179.763151056267,161.71362426175304,3.237724376958795e-05,0.0939245000481605,0,0,0
14928,541314.6593945952,2010-12-12 18:56:24,1290.6497139828728,2,50,0.550297200679779,3.896926879882813,44.83342108204928,44.61989159890104,179.78102322500965,161.71362426175304,6.47544875391759e-05,0.0939245000481605,0,0,0
14929,541344.6743863026,2010-12-12 18:56:54,1320.664705690314,2,50,0.5501165986061096,3.898707628250122,44.83800849210266,44.61989159890104,179.79890371041213,161.71362426175304,3.237724376958795e-05,0.0939245000481605,0,0,0
14930,541374.6895245046,2010-12-12 18:57:24,1350.6798439574634,2,50,0.550297200679779,3.900164604187012,44.84259590963055,44.61989159890104,179.81679224125233,161.71362426175304,3.237724376958795e-05,0.0939245000481605,0,0,0
14931,541404.7045876248,2010-12-12 18:57:54,1380.6949070124504,2,50,0.550297200679779,3.902269124984741,44.84718329242781,44.61989159890104,179.83468850715718,161.71362426175304,6.47544875391759e-05,0.0939245000481605,0,0,0
14932,541434.7200948601,2010-12-12 18:58:24,1410.7104142928747,2,50,0.5501165986061096,3.903726100921631,44.85177077564877,44.61989159890104,179.85259294462205,161.71362426175304,6.47544875391759e-05,0.0939245000481605,0,0,0
14933,541464.7348117887,2010-12-12 18:58:54,1440.72513118144,2,50,0.550297200679779,3.9053449630737305,44.85635821813407,44.61989159890104,179.8705049279539,161.71362426175304,6.47544875391759e-05,0.0939245000481605,0,0,0
14934,541494.7500581448,2010-12-12 18:59:24,1470.7403775175146,2,50,0.5501165986061096,3.90712571144104,44.860945635238224,44.61989159890104,179.88842433335222,161.71362426175304,6.47544875391759e-05,0.0939245000481605,0,0,0
14935,541524.7650191658,2010-12-12 18:59:54,1500.755338538594,2,50,0.550297200679779,3.90874457359314,44.865533050553786,44.61989159890104,179.90635132235312,161.71362426175304,3.237724376958795e-05,0.0939245000481605,0,0,0
14936,541554.78012609,2010-12-12 19:00:24,1530.7704454777852,2,50,0.5501165986061096,3.9103634357452393,44.870120347815885,44.61989159890104,179.9242853776533,161.71362426175304,3.237724376958795e-05,0.0939245000481605,0,0,0
14937,541584.7952423726,2010-12-12 19:00:54,1560.7855617602263,2,50,0.550297200679779,3.911982297897339,44.874707767868834,44.61989159890104,179.94222741165842,161.71362426175304,6.47544875391759e-05,0.0939245000481605,0,0,0
14938,541614.8103380938,2010-12-12 19:01:24,1590.800657481502,2,50,0.5501165986061096,3.9136011600494394,44.879295193163465,44.61989159890104,179.9601769788833,161.71362426175304,3.237724376958795e-05,0.0939245000481605,0,0,0
14939,541644.8254752483,2010-12-12 19:01:54,1620.815794706057,2,50,0.5504778623580933,3.915381669998169,44.88388257475796,44.61989159890104,179.9781338445908,161.71362426175304,6.47544875391759e-05,0.0939245000481605,0,0,0
14940,541674.8405605736,2010-12-12 19:02:24,1650.8308799612882,2,50,0.550297200679779,3.9168386459350586,44.88846998409634,44.61989159890104,179.99609816145235,161.71362426175304,6.47544875391759e-05,0.0939245000481605,0,0,0
14941,541704.8575517917,2010-12-12 19:02:54,1680.847871294722,2,50,0.550297200679779,3.918457508087158,44.8930576303088,44.61989159890104,180.0140708891234,161.71362426175304,6.47544875391759e-05,0.0939245000481605,0,0,0
14942,541734.8707707478,2010-12-12 19:03:24,1710.861090140465,2,50,0.5501165986061096,3.920076370239258,44.89764466903445,44.61989159890104,180.03204864933403,161.71362426175304,3.237724376958795e-05,0.0939245000481605,0,0,0
14943,541764.8858846091,2010-12-12 19:03:54,1740.8762039918568,2,50,0.550297200679779,3.921695232391357,44.90223212772241,44.61989159890104,180.0500354967621,161.71362426175304,3.237724376958795e-05,0.0939245000481605,0,0,0
14944,541794.9010060945,2010-12-12 19:04:24,1770.8913254772451,2,50,0.550297200679779,3.923314094543457,44.90681949200776,44.61989159890104,180.06802942754638,161.71362426175304,6.47544875391759e-05,0.0939245000481605,0,0,0
14945,541824.916390419,2010-12-12 19:04:54,1800.9067099119732,2,50,0.550297200679779,3.925094842910767,44.911406947217024,44.61989159890104,180.08603117700713,161.71362426175304,9.713172767078504e-05,0.0939245000481605,0,0,0
14946,541854.9312914558,2010-12-12 19:05:24,1830.9216109287345,2,50,0.5501165986061096,3.926551818847656,44.91599435433726,44.61989159890104,180.10404020379525,161.71362426175304,3.237724376958795e-05,0.0939245000481605,0,0,0
14947,541884.946320035,2010-12-12 19:05:54,1860.9366394227168,2,50,0.5501165986061096,3.928008794784546,44.9205816741533,44.61989159890104,180.1220564013456,161.71362426175304,3.237724376958795e-05,0.0939245000481605,0,0,0
14948,541914.9613530702,2010-12-12 19:06:24,1890.9516724379512,2,50,0.550297200679779,3.9299514293670654,44.92516905209657,44.61989159890104,180.1400803339994,161.71362426175304,3.237724376958795e-05,0.0939245000481605,0,0,0
14949,541944.9765132269,2010-12-12 19:06:54,1920.9668326146216,2,50,0.5501165986061096,3.931246519088745,44.92975639733969,44.61989159890104,180.1581116631703,161.71362426175304,0.0,0.0939245000481605,0,0,0
14950,541974.9915604275,2010-12-12 19:07:24,1950.981879810143,2,50,0.5501165986061096,3.9331891536712646,44.93434371421756,44.61989159890104,180.176150410041,161.71362426175304,3.237724376958795e-05,0.0939245000481605,0,0,0
14951,542005.0067609695,2010-12-12 19:07:54,1980.997080342236,2,50,0.5501165986061096,3.934808015823364,44.9389311449423,44.61989159890104,180.1941972784699,161.71362426175304,6.47544875391759e-05,0.0939245000481605,0,0,0
14952,542035.0218928407,2010-12-12 19:08:24,2011.012212278632,2,50,0.550297200679779,3.936426877975464,44.94351859116396,44.61989159890104,180.21225178365216,161.71362426175304,3.237724376958795e-05,0.0939245000481605,0,0,0
14953,542065.0370007273,2010-12-12 19:08:54,2041.027320110043,2,50,0.550297200679779,3.938207626342773,44.94810600478508,44.61989159890104,180.2303137539145,161.71362426175304,6.47544875391759e-05,0.0939245000481605,0,0,0
14954,542095.0522379659,2010-12-12 19:09:24,2071.042557348479,2,50,0.5501165986061096,3.939664602279663,44.95269264740546,44.61989159890104,180.24838026926665,161.71362426175304,3.237724376958795e-05,0.0939245000481605,0,0,0
14955,542125.0672202948,2010-12-12 19:09:54,2101.057539682595,2,50,0.5501165986061096,3.9414453506469727,44.957279198055176,44.61989159890104,180.26645412734769,161.71362426175304,3.237724376958795e-05,0.0939245000481605,0,0,0
14956,542155.0823323518,2010-12-12 19:10:24,2131.072651719471,2,50,0.550297200679779,3.943226099014282,44.96186646821309,44.61989159890104,180.28453861185224,161.71362426175304,6.47544875391759e-05,0.0939245000481605,0,0,0
14957,542185.0974478523,2010-12-12 19:10:54,2161.0877672400165,2,50,0.550297200679779,3.944844961166382,44.9664537888265,44.61989159890104,180.30263109062707,161.71362426175304,6.47544875391759e-05,0.0939245000481605,0,0,0
14958,542215.1125476689,2010-12-12 19:11:24,2191.102867056483,2,50,0.5501165986061096,3.9464638233184814,44.97104116026046,44.61989159890104,180.32073159070052,161.71362426175304,3.237724376958795e-05,0.0939245000481605,0,0,0
14959,542245.1276962516,2010-12-12 19:11:55,2221.118015729527,2,50,0.550297200679779,3.948406457901001,44.9756285010583,44.61989159890104,180.33883963798817,161.71362426175304,6.47544875391759e-05,0.0939245000481605,0,0,0
14960,542275.1428920068,2010-12-12 19:12:25,2251.133211379471,2,50,0.550297200679779,3.9500253200531006,44.98021588273053,44.61989159890104,180.35695574153635,161.71362426175304,3.237724376958795e-05,0.0939245000481605,0,0,0
14961,542305.1578830726,2010-12-12 19:12:55,2281.148202455341,2,50,0.5501165986061096,3.9516441822052,44.98480319260765,44.61989159890104,180.3750794021383,161.71362426175304,3.237724376958795e-05,0.0939245000481605,0,0,0
14962,542335.1592229682,2010-12-12 19:13:25,2311.14954244601,2,50,0.5501165986061096,3.9532630443573,44.98938849481028,44.61989159890104,180.39320301458685,161.71362426175304,0.0,0.0939245000481605,0,0,0
14963,542365.1724638938,2010-12-12 19:13:55,2341.162783276461,2,50,0.5501165986061096,3.9552056789398193,44.99397559068906,44.61989159890104,180.41134169865416,161.71362426175304,6.47544875391759e-05,0.0939245000481605,0,0,0
14964,542395.1877037337,2010-12-12 19:14:25,2371.178023101333,2,50,0.5499359965324402,3.956824541091919,44.99856297678235,44.61989159890104,180.4294895529445,161.71362426175304,3.237724376958795e-05,0.0939245000481605,0,0,0
14965,542425.2028791583,2010-12-12 19:14:55,2401.1931986111595,2,50,0.550297200679779,3.9587671756744394,45.00315037373614,44.61989159890104,180.44764532684977,161.71362426175304,9.713172767078504e-05,0.0939245000481605,0,0,0
14966,542455.2177984405,2010-12-12 19:15:25,2431.2081178231983,2,50,0.5501165986061096,3.960386037826538,45.00773774043784,44.61989159890104,180.465809195152,161.71362426175304,3.237724376958795e-05,0.0939245000481605,0,0,0
14967,542485.2329102067,2010-12-12 19:15:55,2461.2232295894014,2,50,0.550297200679779,3.9623286724090576,45.01232507375085,44.61989159890104,180.483981074477,161.71362426175304,3.237724376958795e-05,0.0939245000481605,0,0,0
14968,542515.2480033566,2010-12-12 19:16:25,2491.238322739278,2,50,0.550297200679779,3.964109420776367,45.01691240733519,44.61989159890104,180.50216111732928,161.71362426175304,6.47544875391759e-05,0.0939245000481605,0,0,0
14969,542545.2631098697,2010-12-12 19:16:55,2521.2534292524088,2,50,0.5501165986061096,3.965728282928467,45.021499757579086,44.61989159890104,180.5203495101757,161.71362426175304,0.0,0.0939245000481605,0,0,0
14970,542575.2783606568,2010-12-12 19:17:25,2551.26868003956,2,50,0.550297200679779,3.967509031295776,45.026087186714,44.61989159890104,180.538546553474,161.71362426175304,3.237724376958795e-05,0.0939245000481605,0,0,0
14971,542605.2933477227,2010-12-12 19:17:55,2581.2836671054506,2,50,0.550297200679779,3.969613552093506,45.03067458294622,44.61989159890104,180.55675183850377,161.71362426175304,3.237724376958795e-05,0.0939245000481605,0,0,0
14972,542635.3084279103,2010-12-12 19:18:25,2611.2987472830464,2,50,0.5501165986061096,3.9712324142456055,45.03526196904104,44.61989159890104,180.5749655575178,161.71362426175304,3.237724376958795e-05,0.0939245000481605,0,0,0
14973,542665.3235607089,2010-12-12 19:18:55,2641.3138800916126,2,50,0.5504778623580933,3.973336935043335,45.03984935639987,44.61989159890104,180.5931878345546,161.71362426175304,9.713172767078504e-05,0.0939245000481605,0,0,0
14974,542695.3386751818,2010-12-12 19:19:25,2671.328994564551,2,50,0.5501165986061096,3.975117683410645,45.04443672959105,44.61989159890104,180.6114187090554,161.71362426175304,3.237724376958795e-05,0.0939245000481605,0,0,0
14975,542725.3537620261,2010-12-12 19:19:55,2701.344081408736,2,50,0.5501165986061096,3.977060317993164,45.0490240913523,44.61989159890104,180.6296582444207,161.71362426175304,6.47544875391759e-05,0.0939245000481605,0,0,0
14976,542755.3689968785,2010-12-12 19:20:25,2731.359316266247,2,50,0.5501165986061096,3.9788410663604736,45.05361153073448,44.61989159890104,180.64790653097555,161.71362426175304,3.237724376958795e-05,0.0939245000481605,0,0,0
14977,542785.3839992024,2010-12-12 19:20:55,2761.374318570057,2,50,0.550297200679779,3.980945587158203,45.05819884885887,44.61989159890104,180.6661637139818,161.71362426175304,9.713172767078504e-05,0.0939245000481605,0,0,0
14978,542815.4015028107,2010-12-12 19:21:25,2791.3918222935536,2,50,0.550297200679779,3.982888221740722,45.062786574813245,44.61989159890104,180.68443151308867,161.71362426175304,6.47544875391759e-05,0.0939245000481605,0,0,0
14979,542845.4150395425,2010-12-12 19:21:55,2821.405358995269,2,50,0.5501165986061096,3.984830856323242,45.067373613732975,44.61989159890104,180.7027056237372,161.71362426175304,3.237724376958795e-05,0.0939245000481605,0,0,0
14980,542875.4293532626,2010-12-12 19:22:25,2851.419672735615,2,50,0.5499359965324402,3.9867734909057617,45.07196075935207,44.61989159890104,180.7209894016192,161.71362426175304,3.237724376958795e-05,0.0939245000481605,0,0,0
14981,542905.4445731429,2010-12-12 19:22:55,2881.4348925958056,2,50,0.5501165986061096,3.988878011703491,45.07654812402219,44.61989159890104,180.73928332906883,161.71362426175304,3.237724376958795e-05,0.0939245000481605,0,0,0
14982,542935.4612960934,2010-12-12 19:23:25,2911.451615551391,2,50,0.550297200679779,3.991144418716431,45.0811356342032,44.61989159890104,180.75758721224665,161.71362426175304,9.713172767078504e-05,0.0939245000481605,0,0,0
14983,542965.4746324166,2010-12-12 19:23:55,2941.464951804297,2,50,0.550297200679779,3.99308705329895,45.08572263699404,44.61989159890104,180.7758986108641,161.71362426175304,6.47544875391759e-05,0.0939245000481605,0,0,0
14984,542995.4898606928,2010-12-12 19:24:25,2971.480180080431,2,50,0.5501165986061096,3.9951913356781006,45.090309971135945,44.61989159890104,180.7942209032095,161.71362426175304,6.47544875391759e-05,0.0939245000481605,0,0,0
14985,543025.5048810614,2010-12-12 19:24:55,3001.4952004441825,2,50,0.550297200679779,3.99729585647583,45.09489724079891,44.61989159890104,180.81255273034083,161.71362426175304,9.713172767078504e-05,0.0939245000481605,0,0,0
14986,543055.5200979793,2010-12-12 19:25:25,3031.5104173470136,2,50,0.550297200679779,3.99972414970398,45.09948462543269,44.61989159890104,180.83089480856097,161.71362426175304,0.0001295089750783,0.0939245000481605,0,0,0
14987,543085.5350581132,2010-12-12 19:25:55,3061.525377485897,2,50,0.5501165986061096,4.001667022705078,45.10407184281362,44.61989159890104,180.84924616071007,161.71362426175304,6.47544875391759e-05,0.0939245000481605,0,0,0
14988,543115.5502447657,2010-12-12 19:26:25,3091.5405642136398,2,50,0.5501165986061096,4.003933429718018,45.108659125442685,44.61989159890104,180.86760790066072,161.71362426175304,9.71794142969884e-05,0.0939245000481605,0,0,0
14989,543145.5652871393,2010-12-12 19:26:55,3121.555606521999,2,50,0.5501165986061096,4.006199836730957,45.113246423730686,44.61989159890104,180.8859798930629,161.71362426175304,9.71794142969884e-05,0.0939245000481605,0,0,0
14990,543175.5803982337,2010-12-12 19:27:25,3151.57071761653,2,50,0.5501165986061096,4.0084662437438965,45.11783374867948,44.61989159890104,180.904362334989,161.71362426175304,6.47544875391759e-05,0.0939245000481605,0,0,0
14991,543205.5956312668,2010-12-12 19:27:55,3181.585950649501,2,50,0.550297200679779,4.010732650756836,45.12242105139261,44.61989159890104,180.9227550417598,161.71362426175304,6.47544875391759e-05,0.0939245000481605,0,0,0
14992,543235.6106030496,2010-12-12 19:28:25,3211.6009224323607,2,50,0.5501165986061096,4.012836933135986,45.127008310585474,44.61989159890104,180.9411581495827,161.71362426175304,3.23295607813634e-05,0.0939245000481605,0,0,0
14993,543265.6258503983,2010-12-12 19:28:55,3241.6161698511296,2,50,0.550297200679779,4.015265464782715,45.13159565673848,44.61989159890104,180.9595722644223,161.71362426175304,6.47544875391759e-05,0.0939245000481605,0,0,0
14994,543295.6408330181,2010-12-12 19:29:25,3271.631152400782,2,50,0.5499359965324402,4.017531871795654,45.13618291467533,44.61989159890104,180.97799679074967,161.71362426175304,6.47544875391759e-05,0.0939245000481605,0,0,0
14995,543325.655941847,2010-12-12 19:29:55,3301.646261224663,2,50,0.5501165986061096,4.020122051239014,45.14077028897429,44.61989159890104,180.99643260833656,161.71362426175304,9.71794142969884e-05,0.0939245000481605,0,0,0
14996,543355.6711545944,2010-12-12 19:30:25,3331.6614739821784,2,50,0.550297200679779,4.022388458251953,45.14535753988631,44.61989159890104,181.0148789544081,161.71362426175304,6.47544875391759e-05,0.0939245000481605,0,0,0
14997,543385.686548593,2010-12-12 19:30:55,3361.6768679656684,2,50,0.550297200679779,4.024816513061523,45.14994483744041,44.61989159890104,181.03333660997572,161.71362426175304,6.47544875391759e-05,0.0939245000481605,0,0,0
14998,543415.7012387802,2010-12-12 19:31:25,3391.6915582530373,2,50,0.550297200679779,4.027245044708252,45.154532003478806,44.61989159890104,181.0518049731872,161.71362426175304,6.47544875391759e-05,0.0939245000481605,0,0,0
14999,543445.716339564,2010-12-12 19:31:55,3421.706658941674,2,50,0.550297200679779,4.029835224151611,45.1591193038278,44.61989159890104,181.0702852890736,161.71362426175304,6.47544875391759e-05,0.0939245000481605,0,0,0
15000,543475.731443205,2010-12-12 19:32:25,3451.721762597695,2,50,0.5501165986061096,4.032263278961182,45.16370654312236,44.61989159890104,181.08877668239057,161.71362426175304,3.23295607813634e-05,0.0939245000481605,0,0,0
15001,543505.7465515326,2010-12-12 19:32:55,3481.736870920329,2,50,0.550297200679779,4.034853458404541,45.16829385943587,44.61989159890104,181.1072798896742,161.71362426175304,9.71794142969884e-05,0.0939245000481605,0,0,0
15002,543535.7636372559,2010-12-12 19:33:25,3511.753956643648,2,50,0.5501165986061096,4.037281513214111,45.172881563641525,44.61989159890104,181.12579629279887,161.71362426175304,0.0,0.0939245000481605,0,0,0
15003,543565.7767821777,2010-12-12 19:33:55,3541.767101560421,2,50,0.550297200679779,4.04003381729126,45.17746866224828,44.61989159890104,181.14432205618024,161.71362426175304,3.24249267578125e-05,0.0939245000481605,0,0,0
15004,543595.791887959,2010-12-12 19:34:25,3571.782207341731,2,50,0.550297200679779,4.042623996734619,45.182055985508455,44.61989159890104,181.16286055474583,161.71362426175304,9.71794142969884e-05,0.0939245000481605,0,0,0
15005,543625.806997184,2010-12-12 19:34:55,3601.7973165716226,2,50,0.5501165986061096,4.0450520515441895,45.18664332651228,44.61989159890104,181.1814111118071,161.71362426175304,3.23295607813634e-05,0.0939245000481605,0,0,0
15006,543655.8221661224,2010-12-12 19:35:25,3631.812485595308,2,50,0.5501165986061096,4.047804355621338,45.19123071525696,44.61989159890104,181.1999739045989,161.71362426175304,6.47544875391759e-05,0.0939245000481605,0,0,0
15007,543685.8372084508,2010-12-12 19:35:55,3661.8275278385054,2,50,0.550297200679779,4.050556182861328,45.19581810033866,44.61989159890104,181.21854886713132,161.71362426175304,6.47544875391759e-05,0.0939245000481605,0,0,0
15008,543715.8524448321,2010-12-12 19:36:25,3691.8427642849706,2,50,0.5501165986061096,4.053146362304688,45.20040544459964,44.61989159890104,181.23713586540373,161.71362426175304,6.47544875391759e-05,0.0939245000481605,0,0,0
15009,543745.8674828549,2010-12-12 19:36:55,3721.857802242504,2,50,0.5501165986061096,4.055898666381836,45.204992784243736,44.61989159890104,181.2557352704091,161.71362426175304,9.71794142969884e-05,0.0939245000481605,0,0,0
15010,543775.8827514362,2010-12-12 19:37:25,3751.8730708189214,2,50,0.5501165986061096,4.058650493621826,45.20958023165164,44.61989159890104,181.2743476258165,161.71362426175304,9.70840483205393e-05,0.0939245000481605,0,0,0
15011,543805.8976653301,2010-12-12 19:37:55,3781.887984717739,2,50,0.5501165986061096,4.0612406730651855,45.21416771267423,44.61989159890104,181.29297257582616,161.71362426175304,9.70840483205393e-05,0.0939245000481605,0,0,0
15012,543835.9127586653,2010-12-12 19:38:25,3811.9030780480657,2,50,0.5501165986061096,4.064154624938965,45.21875509436221,44.61989159890104,181.3116096585343,161.71362426175304,6.47544875391759e-05,0.0939245000481605,0,0,0
15013,543865.9278707072,2010-12-12 19:38:55,3841.9181900899534,2,50,0.5501165986061096,4.067068576812744,45.223342411569945,44.61989159890104,181.3302593692951,161.71362426175304,0.0001295089750783,0.0939245000481605,0,0,0
15014,543895.9429849746,2010-12-12 19:39:25,3871.9333043573815,2,50,0.550297200679779,4.069820880889893,45.22792980367243,44.61989159890104,181.34892238864688,161.71362426175304,0.0001295089750783,0.0939245000481605,0,0,0
15015,543925.9580921895,2010-12-12 19:39:55,3901.948411627396,2,50,0.5501165986061096,4.072572708129883,45.23251716677398,44.61989159890104,181.3675983342117,161.71362426175304,6.47544875391759e-05,0.0939245000481605,0,0,0
15016,543955.9732074745,2010-12-12 19:40:25,3931.9635268522047,2,50,0.5501165986061096,4.075486660003662,45.23710451618674,44.61989159890104,181.38628736905943,161.71362426175304,9.70840483205393e-05,0.0939245000481605,0,0,0
15017,543985.9883541175,2010-12-12 19:40:55,3961.9786735703847,2,50,0.550297200679779,4.078400611877441,45.24169185927256,44.61989159890104,181.40498962542804,161.71362426175304,9.70840483205393e-05,0.0939245000481605,0,0,0
15018,544016.0034311723,2010-12-12 19:41:25,3991.993750555035,2,50,0.5501165986061096,4.081314563751221,45.246279193103376,44.61989159890104,181.42370528248227,161.71362426175304,6.47544875391759e-05,0.0939245000481605,0,0,0
15019,544046.0186493283,2010-12-12 19:41:55,4022.0089686959473,2,50,0.550297200679779,4.084390640258789,45.2508665327635,44.61989159890104,181.44243436529783,161.71362426175304,0.0001295089750783,0.0939245000481605,0,0,0
15020,544076.0336327702,2010-12-12 19:42:25,4052.023952152857,2,50,0.5501165986061096,4.087304592132568,45.25545380465256,44.61989159890104,181.46117687251564,161.71362426175304,9.71794142969884e-05,0.0939245000481605,0,0,0
15021,544106.0487387921,2010-12-12 19:42:55,4082.0390581747656,2,50,0.550297200679779,4.090218544006348,45.260041154179,44.61989159890104,181.47993346209844,161.71362426175304,6.47544875391759e-05,0.0939245000481605,0,0,0
15022,544136.0657087122,2010-12-12 19:43:25,4112.056028195163,2,50,0.550297200679779,4.093294143676758,45.26462875002606,44.61989159890104,181.4987048515171,161.71362426175304,9.70840483205393e-05,0.0939245000481605,0,0,0
15023,544166.0791055007,2010-12-12 19:43:55,4142.069424868422,2,50,0.5501165986061096,4.096208095550537,45.26921586808846,44.61989159890104,181.51748824221227,161.71362426175304,3.23295607813634e-05,0.0939245000481605,0,0,0
15024,544196.0940846619,2010-12-12 19:44:26,4172.08440404468,2,50,0.5501165986061096,4.099445819854736,45.27380326874866,44.61989159890104,181.5362868888646,161.71362426175304,9.70840483205393e-05,0.0939245000481605,0,0,0
15025,544226.1094203654,2010-12-12 19:44:56,4202.099739733106,2,50,0.550297200679779,4.102683544158936,45.2783906952843,44.61989159890104,181.55509980784052,161.71362426175304,0.0001295089750783,0.0939245000481605,0,0,0
15026,544256.1243047558,2010-12-12 19:45:26,4232.1146241385295,2,50,0.550297200679779,4.105759620666504,45.2829780933833,44.61989159890104,181.57392701339697,161.71362426175304,6.47544875391759e-05,0.0939245000481605,0,0,0
15027,544286.1393890135,2010-12-12 19:45:56,4262.129708371216,2,50,0.5501165986061096,4.108835220336914,45.28756545461866,44.61989159890104,181.59276853888076,161.71362426175304,6.47544875391759e-05,0.0939245000481605,0,0,0
15028,544316.1544995166,2010-12-12 19:46:26,4292.144818884301,2,50,0.550297200679779,4.112072944641113,45.29215286024423,44.61989159890104,181.6116248986947,161.71362426175304,9.70840483205393e-05,0.0939245000481605,0,0,0
15029,544346.1696026314,2010-12-12 19:46:56,4322.159922014012,2,50,0.550297200679779,4.1153106689453125,45.29674026128369,44.61989159890104,181.63049576944644,161.71362426175304,9.71794142969884e-05,0.0939245000481605,0,0,0
15030,544376.1847806474,2010-12-12 19:47:26,4352.1751001503735,2,50,0.5501165986061096,4.118224620819092,45.30132765297003,44.61989159890104,181.6493813788336,161.71362426175304,3.24249267578125e-05,0.0939245000481605,0,0,0
15031,544406.1998220886,2010-12-12 19:47:56,4382.19014147629,2,50,0.5501165986061096,4.121786117553711,45.30591506072367,44.61989159890104,181.6682819580387,161.71362426175304,9.71794142969884e-05,0.0939245000481605,0,0,0
15032,544436.2149384713,2010-12-12 19:48:26,4412.205257858979,2,50,0.5501165986061096,4.12502384185791,45.31050246565552,44.61989159890104,181.6871974757192,161.71362426175304,9.71794142969884e-05,0.0939245000481605,0,0,0
15033,544466.230040017,2010-12-12 19:48:56,4442.2203593997365,2,50,0.5501165986061096,4.128261566162109,45.31508980402489,44.61989159890104,181.70612774241167,161.71362426175304,6.47544875391759e-05,0.0939245000481605,0,0,0
15034,544496.2451578433,2010-12-12 19:49:26,4472.235477231032,2,50,0.5501165986061096,4.13166093826294,45.31967719441664,44.61989159890104,181.7250733965801,161.71362426175304,9.70840483205393e-05,0.0939245000481605,0,0,0
15035,544526.260263745,2010-12-12 19:49:56,4502.250583127629,2,50,0.550297200679779,4.134898662567139,45.32426461866759,44.61989159890104,181.74403441701585,161.71362426175304,6.47544875391759e-05,0.0939245000481605,0,0,0
15036,544556.275367025,2010-12-12 19:50:26,4532.265686382652,2,50,0.5501165986061096,4.138298511505127,45.32885201858554,44.61989159890104,181.76301079594057,161.71362426175304,9.71794142969884e-05,0.0939245000481605,0,0,0
15037,544586.290488761,2010-12-12 19:50:56,4562.280808148739,2,50,0.5501165986061096,4.141536235809326,45.3334394452189,44.61989159890104,181.7820028679461,161.71362426175304,3.24249267578125e-05,0.0939245000481605,0,0,0
15038,544616.3055708886,2010-12-12 19:51:26,4592.295890266162,2,50,0.550297200679779,4.145259380340576,45.338026946133766,44.61989159890104,181.8010110212593,161.71362426175304,9.70840483205393e-05,0.0939245000481605,0,0,0
15039,544646.3207269349,2010-12-12 19:51:56,4622.311046407792,2,50,0.550297200679779,4.1486592292785645,45.34261432032391,44.61989159890104,181.82003467123675,161.71362426175304,9.71794142969884e-05,0.0939245000481605,0,0,0
15040,544676.335945211,2010-12-12 19:52:26,4652.326264583791,2,50,0.550297200679779,4.152220726013184,45.34720179375217,44.61989159890104,181.83907460079595,161.71362426175304,9.71794142969884e-05,0.0939245000481605,0,0,0
15041,544706.3509566076,2010-12-12 19:52:56,4682.341275990252,2,50,0.550297200679779,4.155620098114014,45.35178919924144,44.61989159890104,181.8581302344545,161.71362426175304,9.70840483205393e-05,0.0939245000481605,0,0,0
15042,544736.3687960415,2010-12-12 19:53:26,4712.359115504351,2,50,0.550297200679779,4.159181594848633,45.35637703320389,44.61989159890104,181.8772036780434,161.71362426175304,0.0001295089750783,0.0939245000481605,0,0,0
15043,544766.3812447507,2010-12-12 19:53:56,4742.371564148477,2,50,0.5501165986061096,4.162743091583252,45.36096401088968,44.61989159890104,181.8962897186755,161.71362426175304,9.70840483205393e-05,0.0939245000481605,0,0,0
15044,544796.3830084959,2010-12-12 19:54:26,4772.373327963818,2,50,0.5501165986061096,4.166304588317871,45.3655493580441,44.61989159890104,181.9153852983172,161.71362426175304,9.70840483205393e-05,0.0939245000481605,0,0,0
15045,544826.395762991,2010-12-12 19:54:56,4802.386082358792,2,50,0.550297200679779,4.16986608505249,45.37013639896711,44.61989159890104,181.93450425699965,161.71362426175304,0.0001295089750783,0.0939245000481605,0,0,0
15046,544856.4109133183,2010-12-12 19:55:26,4832.401232796227,2,50,0.5501165986061096,4.173589706420898,45.37472378563004,44.61989159890104,181.95364125597283,161.71362426175304,9.71794142969884e-05,0.0939245000481605,0,0,0
15047,544886.4259736866,2010-12-12 19:55:56,4862.416293054253,2,50,0.5501165986061096,4.177151203155518,45.3793111097725,44.61989159890104,181.97279462581133,161.71362426175304,0.0001295089750783,0.0939245000481605,0,0,0
15048,544916.4412057371,2010-12-12 19:56:26,4892.431525119818,2,50,0.5501165986061096,4.180712699890137,45.38389856250482,44.61989159890104,181.99196530155783,161.71362426175304,9.71794142969884e-05,0.0939245000481605,0,0,0
15049,544946.456474118,2010-12-12 19:56:56,4922.446793485712,2,50,0.5504778623580933,4.184597969055176,45.38848600883517,44.61989159890104,182.01115282501104,161.71362426175304,0.0001295089750783,0.0939245000481605,0,0,0
15050,544976.4713209249,2010-12-12 19:57:26,4952.461640297587,2,50,0.550297200679779,4.188159465789795,45.3930733510226,44.61989159890104,182.0303568020433,161.71362426175304,9.71794142969884e-05,0.0939245000481605,0,0,0
15051,545006.4864262451,2010-12-12 19:57:56,4982.476745632786,2,50,0.550297200679779,4.191882610321045,45.3976607561046,44.61989159890104,182.0495781223973,161.71362426175304,9.70840483205393e-05,0.0939245000481605,0,0,0
15052,545036.5015143122,2010-12-12 19:58:26,5012.491833700015,2,50,0.5501165986061096,4.195605754852295,45.40224820555795,44.61989159890104,182.06881680765756,161.71362426175304,9.70840483205393e-05,0.0939245000481605,0,0,0
15053,545066.5166289858,2010-12-12 19:58:56,5042.50694836844,2,50,0.550297200679779,4.199329376220703,45.40683553940388,44.61989159890104,182.08807224140944,161.71362426175304,6.47544875391759e-05,0.0939245000481605,0,0,0
15054,545070.3290574172,2010-12-12 19:59:00,5046.31937679996,2,50,0.5504778623580933,4.200138568878174,45.40741824324618,44.61989159890104,182.09051941563976,161.71362426175304,0.0001295089750783,0.0939245000481605,0,0,0
15055,545100.3597770686,2010-12-12 19:59:30,30.013222549960865,3,50,0.0,4.112558841705322,45.40741824324618,44.61989159890104,182.09051941563976,161.71362426175304,-0.0004208564641885,0.0939245000481605,0,0,0
15056,545130.3750778402,2010-12-12 20:00:00,60.0285233214962,3,50,0.0,4.101712226867676,45.40741824324618,44.61989159890104,182.09051941563976,161.71362426175304,-0.0001942634553415,0.0939245000481605,0,0,0
15057,545160.3912782053,2010-12-12 20:00:30,90.04472375681021,3,50,0.0,4.095075130462647,45.40741824324618,44.61989159890104,182.09051941563976,161.71362426175304,-0.0001295089750783,0.0939245000481605,0,0,0
15058,545190.3586280879,2010-12-12 20:01:00,120.01207363940266,3,50,0.0,4.090703964233398,45.40741824324618,44.61989159890104,182.09051941563976,161.71362426175304,-0.0001619339018361,0.0939245000481605,0,0,0
15059,545190.3622343636,2010-12-12 20:01:00,0.031222751616523,4,50,1.0043489933013916,4.199653148651123,45.407426974705,44.61989159890104,182.09055608473827,161.71362426175304,0.0,0.0939245000481605,0,0,0
15060,545191.2840540814,2010-12-12 20:01:01,0.953042379305425,4,50,0.9534171223640442,4.199653148651123,45.40767613258792,44.61989159890104,182.09160248389176,161.71362426175304,0.0,0.0939245000481605,0,0,0
15061,545193.2702650762,2010-12-12 20:01:03,2.939253494272286,4,50,0.90302711725235,4.199653148651123,45.408187107984666,44.61989159890104,182.09374846366867,161.71362426175304,0.0,0.0939245000481605,0,0,0
15062,545196.2370805274,2010-12-12 20:01:06,5.906068845164699,4,50,0.8528177738189697,4.199653148651123,45.40890941806423,44.61989159890104,182.0967819803772,161.71362426175304,0.0,0.0939245000481605,0,0,0
15063,545200.2994719822,2010-12-12 20:01:10,9.968460300054367,4,50,0.8026083707809448,4.199653148651123,45.40984245743804,44.61989159890104,182.1007005204271,161.71362426175304,-3.23295607813634e-05,0.0939245000481605,0,0,0
15064,545205.6744141991,2010-12-12 20:01:15,15.343402507007823,4,50,0.7525796294212341,4.199814796447754,45.41100255791604,44.61989159890104,182.10557267779024,161.71362426175304,0.0,0.0939245000481605,0,0,0
15065,545212.721187654,2010-12-12 20:01:22,22.390175951695177,4,50,0.7025508284568787,4.199814796447754,45.41242482161431,44.61989159890104,182.11154588340617,161.71362426175304,0.0,0.0939245000481605,0,0,0
15066,545222.0022266423,2010-12-12 20:01:32,31.67121496030507,4,50,0.6523414850234985,4.199814796447754,45.41416832514681,44.61989159890104,182.11886824202583,161.71362426175304,0.0,0.0939245000481605,0,0,0
15067,545234.923935548,2010-12-12 20:01:45,44.5929239611649,4,50,0.6023126840591431,4.199814796447754,45.4164151774961,44.61989159890104,182.1283045247948,161.71362426175304,3.23295607813634e-05,0.0939245000481605,0,0,0
15068,545254.5800510856,2010-12-12 20:02:04,64.24903938338866,4,50,0.5522839426994324,4.199814796447754,45.41955698646777,44.61989159890104,182.14149949244216,161.71362426175304,0.0,0.0939245000481605,0,0,0
15069,545287.7355383805,2010-12-12 20:02:37,97.40452666828608,4,50,0.5022551417350769,4.199814796447754,45.424390797321216,44.61989159890104,182.1618005195915,161.71362426175304,0.0,0.0939245000481605,0,0,0
15070,545348.7188349634,2010-12-12 20:03:38,158.38782328139638,4,50,0.4522264003753662,4.199976921081543,45.43243768338593,44.61989159890104,182.19559578266083,161.71362426175304,0.0,0.0939245000481605,0,0,0
15071,545444.3267052164,2010-12-12 20:05:14,253.99569352928253,4,50,0.4021976292133331,4.199653148651123,45.443755098066006,44.61989159890104,182.2431266198844,161.71362426175304,-3.23295607813634e-05,0.0939245000481605,0,0,0
15072,545565.451525488,2010-12-12 20:07:15,375.120513871056,4,50,0.3519882261753082,4.199653148651123,45.45643055794305,44.61989159890104,182.29636098664756,161.71362426175304,-3.23295607813634e-05,0.0939245000481605,0,0,0
15073,545710.1501636788,2010-12-12 20:09:40,519.8191519716371,4,50,0.3019594550132751,4.199814796447754,45.46955893528517,44.61989159890104,182.35149748793228,161.71362426175304,0.0,0.0939245000481605,0,0,0
15074,545881.8036878216,2010-12-12 20:12:32,691.4726761745574,4,50,0.251930683851242,4.199653148651123,45.48274384672963,44.61989159890104,182.4068713823023,161.71362426175304,0.0,0.0939245000481605,0,0,0
15075,546097.9247274915,2010-12-12 20:16:08,907.5937158043284,4,50,0.2019019275903701,4.199814796447754,45.49632155046892,44.61989159890104,182.46389503676787,161.71362426175304,3.23295607813634e-05,0.0939245000481605,0,0,0
15076,546384.4510482604,2010-12-12 20:20:54,1194.1200366434937,4,50,0.1518731564283371,4.199653148651123,45.51030851570226,44.61989159890104,182.52263753389605,161.71362426175304,-3.23295607813634e-05,0.0939245000481605,0,0,0
15077,546829.8183857553,2010-12-12 20:28:20,1639.4873740731744,4,50,0.1018443927168846,4.199653148651123,45.52577106828754,44.61989159890104,182.5875772126172,161.71362426175304,-3.23295607813634e-05,0.0939245000481605,0,0,0
15078,547704.5689919846,2010-12-12 20:42:54,2514.2379802975097,4,50,0.0518156178295612,4.199814796447754,45.54368807211832,44.61989159890104,182.66282503891964,161.71362426175304,3.23295607813634e-05,0.0939245000481605,0,0,0
15079,547764.3492548997,2010-12-12 20:43:54,2574.0182433027576,4,50,0.0498289167881011,4.199653148651123,45.544539711085136,44.61989159890104,182.66640174978176,161.71362426175304,-6.47544875391759e-05,0.0939245000481605,0,0,0
15080,547794.3326148591,2010-12-12 20:44:24,30.013350994590382,5,50,0.0,4.191720962524414,45.544539711085136,44.61989159890104,182.66640174978176,161.71362426175304,-3.23295607813634e-05,0.0939245000481605,0,0,0
15081,547824.3319680307,2010-12-12 20:44:54,60.01270418117392,5,50,0.0,4.190263748168945,45.544539711085136,44.61989159890104,182.66640174978176,161.71362426175304,-6.47544875391759e-05,0.0939245000481605,0,0,0
15082,547824.5531669977,2010-12-12 20:44:55,0.203225985047406,6,50,-1.9243103452026844e-05,4.190587520599365,45.544539711085136,44.61989159998734,182.66640174978176,161.7136242663052,3.23295607813634e-05,0.0955438911914825,0,0,0
15083,547829.3653975033,2010-12-12 20:44:59,5.01545651563699,6,50,0.0008838032954372,4.190425872802734,45.5445407374528,44.6198916001535,182.66640605081932,161.71362426700156,-3.23295607813634e-05,0.0955438911914825,0,0,0
15084,547859.382922217,2010-12-12 20:45:29,30.0150899920186,7,50,-1.099568486213684,4.010408878326416,45.5445407374528,44.62906037053138,182.66640605081932,161.75060009945105,-0.0009388923645019,0.0955438911914825,0,0,0
15085,547889.3980506246,2010-12-12 20:46:00,60.03021846980756,7,50,-1.0997490882873535,3.9824025630950928,45.5445407374528,44.63822915117104,182.66640605081932,161.78723294973,-0.0006151676061563,0.0955438911914825,0,0,0
15086,547919.413270164,2010-12-12 20:46:30,90.04543801421228,7,50,-1.099568486213684,3.9631381034851074,45.5445407374528,44.64739781633522,182.66640605081932,161.82365344147013,-0.0004532813909463,0.0955438911914825,0,0,0
15087,547949.4302303849,2010-12-12 20:47:00,120.06239824524876,7,50,-1.0997490882873535,3.947920799255371,45.5445407374528,44.656566990350285,182.66640605081932,161.85992026953528,-0.0003885269106831,0.0955438911914825,0,0,0
15088,547979.4434889847,2010-12-12 20:47:30,150.07565675970588,7,50,-1.0997490882873535,3.934969902038574,45.5445407374528,44.665735070935135,182.66640605081932,161.89605474771048,-0.0002913951757363,0.0955438911914825,0,0,0
15089,548009.4584262467,2010-12-12 20:48:00,180.0905940216616,7,50,-1.0997490882873535,3.923152208328247,45.5445407374528,44.67490424986664,182.66640605081932,161.9320796679255,-0.0002913951757363,0.0955438911914825,0,0,0
15090,548039.4735580928,2010-12-12 20:48:30,210.10572595805715,7,50,-1.099929690361023,3.911820411682129,45.5445407374528,44.68407359482928,182.66640605081932,161.96799984001265,-0.0003237724304199,0.0955438911914825,0,0,0
15091,548069.4887997722,2010-12-12 20:49:00,240.12096754731968,7,50,-1.0997490882873535,3.9014596939086914,45.5445407374528,44.69324290695246,182.66640605081932,162.0038211351802,-0.0002266406954731,0.0955438911914825,0,0,0
15092,548099.5037710388,2010-12-12 20:49:30,270.1359388138946,7,50,-1.0997490882873535,3.891098976135254,45.5445407374528,44.702412158939545,182.66640605081932,162.03954755376273,-0.0002913951757363,0.0955438911914825,0,0,0
15093,548129.5190140967,2010-12-12 20:50:00,300.1511818718118,7,50,-1.0997490882873535,3.881547689437866,45.5445407374528,44.71158153344158,182.66640605081932,162.075183198661,-0.0002266406954731,0.0955438911914825,0,0,0
15094,548159.5340114733,2010-12-12 20:50:30,330.1661792483603,7,50,-1.0997490882873535,3.871834516525269,45.5445407374528,44.72075088829104,182.66640605081932,162.11072981350537,-0.0002590179501567,0.0955438911914825,0,0,0
15095,548189.5491153148,2010-12-12 20:51:00,360.18128308984285,7,50,-1.0997490882873535,3.862607002258301,45.5445407374528,44.72991974622175,182.66640605081932,162.14618762898357,-0.0002266406954731,0.0955438911914825,0,0,0
15096,548219.5642505795,2010-12-12 20:51:30,390.19641835953314,7,50,-1.0997490882873535,3.853379487991333,45.5445407374528,44.73908827238055,182.66640605081932,162.1815596037912,-0.0002590179501567,0.0955438911914825,0,0,0
15097,548249.5793313385,2010-12-12 20:52:00,420.2114991135634,7,50,-1.099568486213684,3.844475746154785,45.5445407374528,44.74825677613718,182.66640605081932,162.2168481703637,-0.0001942634553415,0.0955438911914825,0,0,0
15098,548279.5944356612,2010-12-12 20:52:30,450.2266034362432,7,50,-1.099568486213684,3.8357338905334473,45.5445407374528,44.757425308272616,182.66640605081932,162.25205567073095,-0.0002266406954731,0.0955438911914825,0,0,0
15099,548309.6096796263,2010-12-12 20:53:00,480.24184740141806,7,50,-1.099568486213684,3.8271541595458975,45.5445407374528,44.76659384807519,182.66640605081932,162.28718394647927,-0.0002266406954731,0.0955438911914825,0,0,0
15100,548339.6246500859,2010-12-12 20:53:30,510.25681784594747,7,50,-1.099568486213684,3.818736076354981,45.5445407374528,44.77576237285327,182.66640605081932,162.32223461985495,-0.0001942634553415,0.0955438911914825,0,0,0
15101,548369.6399117,2010-12-12 20:54:00,540.2720795151781,7,50,-1.099568486213684,3.810479879379273,45.5445407374528,44.784930941021656,182.66640605081932,162.35720941112788,-0.0001942634553415,0.0955438911914825,0,0,0
15102,548399.6549907348,2010-12-12 20:54:30,570.2871585098302,7,50,-1.0997490882873535,3.8023855686187744,45.5445407374528,44.79409951911494,182.66640605081932,162.39210937572358,-0.0002266406954731,0.0955438911914825,0,0,0
15103,548429.6723855021,2010-12-12 20:55:00,600.3045533674181,7,50,-1.0997490882873535,3.794615030288696,45.5445407374528,44.80326889926642,182.66640605081932,162.42693961059007,-0.0001942634553415,0.0955438911914825,0,0,0
15104,548459.6872571709,2010-12-12 20:55:30,630.3194250561976,7,50,-1.0997490882873535,3.786844491958618,45.5445407374528,44.812437492700376,182.66640605081932,162.4616961749475,-0.0002266406954731,0.0955438911914825,0,0,0
15105,548489.700304991,2010-12-12 20:56:00,660.3324727761005,7,50,-1.099568486213684,3.77955961227417,45.5445407374528,44.82160550516782,182.66640605081932,162.49638101764046,-0.0001942634553415,0.0955438911914825,0,0,0
15106,548519.7153401115,2010-12-12 20:56:30,690.3475078765235,7,50,-1.099568486213684,3.7722747325897217,45.5445407374528,44.830774081624746,182.66640605081932,162.53100017622413,-0.0001942634553415,0.0955438911914825,0,0,0
15107,548549.7323775546,2010-12-12 20:57:00,720.3645454049115,7,50,-1.099568486213684,3.765313625335693,45.5445407374528,44.83994312299431,182.66640605081932,162.56555519013253,-0.0001618862152099,0.0955438911914825,0,0,0
15108,548579.7455966311,2010-12-12 20:57:30,750.3777644010288,7,50,-1.0997490882873535,3.758190631866455,45.5445407374528,44.84911111837515,182.66640605081932,162.6000419651607,-0.0001942634553415,0.0955438911914825,0,0,0
15109,548609.7607827222,2010-12-12 20:58:00,780.3929504971989,7,50,-1.099568486213684,3.751391649246216,45.5445407374528,44.85827972812981,182.66640605081932,162.63446774475693,-0.0001618862152099,0.0955438911914825,0,0,0
15110,548639.7758103991,2010-12-12 20:58:30,810.4079781691363,7,50,-1.099568486213684,3.744754314422608,45.5445407374528,44.86744821421048,182.66640605081932,162.66883160424908,-0.0001295089750783,0.0955438911914825,0,0,0
15111,548669.790888687,2010-12-12 20:59:00,840.423056462042,7,50,-1.099568486213684,3.738278865814209,45.5445407374528,44.87661679416208,182.66640605081932,162.70313534141542,-0.0001942634553415,0.0955438911914825,0,0,0
15112,548699.8059844985,2010-12-12 20:59:30,870.4381522735423,7,50,-1.099568486213684,3.7318034172058105,45.5445407374528,44.88578534828561,182.66640605081932,162.7373799060138,-0.0001618862152099,0.0955438911914825,0,0,0
15113,548729.8211112319,2010-12-12 21:00:00,900.4532790069904,7,50,-1.0997490882873535,3.725489854812622,45.5445407374528,44.89495390135238,182.66640605081932,162.7715666420743,-0.0001942634553415,0.0955438911914825,0,0,0
15114,548759.8362075046,2010-12-12 21:00:30,930.4683752796384,7,50,-1.099568486213684,3.7195000648498535,45.5445407374528,44.904122443870016,182.66640605081932,162.80569685210426,-0.0001942634553415,0.0955438911914825,0,0,0
15115,548789.8514711538,2010-12-12 21:01:00,960.4836389037335,7,50,-1.0997490882873535,3.713510274887085,45.5445407374528,44.91329109993266,182.66640605081932,162.83977162643694,-0.0001618862152099,0.0955438911914825,0,0,0
15116,548819.8664272425,2010-12-12 21:01:30,990.498595022614,7,50,-1.099568486213684,3.707520484924317,45.5445407374528,44.92245963090795,182.66640605081932,162.87379103840956,-0.0001618862152099,0.0955438911914825,0,0,0
15117,548849.8816621151,2010-12-12 21:02:00,1020.5138298751124,7,50,-1.099568486213684,3.701692581176758,45.5445407374528,44.931628260558064,182.66640605081932,162.9077568350798,-0.0001295089750783,0.0955438911914825,0,0,0
15118,548879.8967747034,2010-12-12 21:02:30,1050.528942483411,7,50,-1.0997490882873535,3.695864677429199,45.5445407374528,44.94079679421464,182.66640605081932,162.9416690407596,-0.0001618862152099,0.0955438911914825,0,0,0
15119,548909.911767318,2010-12-12 21:03:00,1080.5439350930972,7,50,-1.0997490882873535,3.6901986598968506,45.5445407374528,44.94996540873985,182.66640605081932,162.97552920176037,-0.0001942634553415,0.0955438911914825,0,0,0
15120,548939.9268710543,2010-12-12 21:03:30,1110.55903883433,7,50,-1.0997490882873535,3.684694528579712,45.5445407374528,44.9591340099652,182.66640605081932,163.00933800300004,-0.0001295089750783,0.0955438911914825,0,0,0
15121,548969.9419766151,2010-12-12 21:04:00,1140.5741443900786,7,50,-1.099568486213684,3.679190397262573,45.5445407374528,44.96830259578201,182.66640605081932,163.04309626449665,-0.0001618862152099,0.0955438911914825,0,0,0
15122,548999.9573278873,2010-12-12 21:04:30,1170.5894957174198,7,50,-1.0997490882873535,3.673848152160645,45.5445407374528,44.97747126821515,182.66640605081932,163.07680526198112,-0.0001618862152099,0.0955438911914825,0,0,0
15123,549029.9722482321,2010-12-12 21:05:00,1200.6044160071408,7,50,-1.0997490882873535,3.668668031692505,45.5445407374528,44.986639815429314,182.66640605081932,163.11046483275786,-9.713172767078504e-05,0.0955438911914825,0,0,0
15124,549059.9873115327,2010-12-12 21:05:30,1230.6194793127515,7,50,-1.0997490882873535,3.663325786590576,45.5445407374528,44.99580836658961,182.66640605081932,163.14407632404453,-0.0001295089750783,0.0955438911914825,0,0,0
15125,549090.0024202012,2010-12-12 21:06:00,1260.6345879762332,7,50,-1.099568486213684,3.6583073139190674,45.5445407374528,45.00497692362519,182.66640605081932,163.1776404292381,-0.0001295089750783,0.0955438911914825,0,0,0
15126,549120.0175072759,2010-12-12 21:06:30,1290.6496750509923,7,50,-1.099568486213684,3.653288841247559,45.5445407374528,45.01414552314984,182.66640605081932,163.21115804339286,-9.713172767078504e-05,0.0955438911914825,0,0,0
15127,549150.0348941135,2010-12-12 21:07:00,1320.6670619638098,7,50,-1.0993878841400146,3.64827036857605,45.5445407374528,45.02331478451516,182.66640605081932,163.2446324928752,-0.0001618862152099,0.0955438911914825,0,0,0
15128,549180.0478004818,2010-12-12 21:07:30,1350.6799683319643,7,50,-1.0997490882873535,3.643251895904541,45.5445407374528,45.032482644259225,182.66640605081932,163.27805651292908,-0.0001295089750783,0.0955438911914825,0,0,0
15129,549210.0629056515,2010-12-12 21:08:00,1380.6950734315778,7,50,-1.0997490882873535,3.638395309448242,45.5445407374528,45.04165119170604,182.66640605081932,163.31143878376022,-0.0001618862152099,0.0955438911914825,0,0,0
15130,549240.0779939995,2010-12-12 21:08:30,1410.7101617744927,7,50,-1.0997490882873535,3.6338624954223633,45.5445407374528,45.05081975249293,182.66640605081932,163.34477771638467,-0.0001295089750783,0.0955438911914825,0,0,0
15131,549270.0931153545,2010-12-12 21:09:00,1440.7252831345695,7,50,-1.0997490882873535,3.629329681396485,45.5445407374528,45.05998831802887,182.66640605081932,163.37807415875204,-0.0001295089750783,0.0955438911914825,0,0,0
15132,549300.1082105645,2010-12-12 21:09:30,1470.7403783395605,7,50,-1.099568486213684,3.624958753585816,45.5445407374528,45.06915695966806,182.66640605081932,163.4113290824661,-6.47544875391759e-05,0.0955438911914825,0,0,0
15133,549330.1233223157,2010-12-12 21:10:00,1500.7554900907255,7,50,-1.099568486213684,3.6205878257751465,45.5445407374528,45.07832557184664,182.66640605081932,163.4445433874104,-6.47544875391759e-05,0.0955438911914825,0,0,0
15134,549360.1384326884,2010-12-12 21:10:30,1530.7706004634608,7,50,-1.0997490882873535,3.6158931255340576,45.5445407374528,45.08749418577593,182.66640605081932,163.4777178387237,-0.0001618862152099,0.0955438911914825,0,0,0
15135,549390.153729455,2010-12-12 21:11:00,1560.7858972350427,7,50,-1.099929690361023,3.6118459701538086,45.5445407374528,45.096662814442446,182.66640605081932,163.51085351244222,-0.0001295089750783,0.0955438911914825,0,0,0
15136,549420.168689263,2010-12-12 21:11:30,1590.8008571082655,7,50,-1.0997490882873535,3.60779881477356,45.5445407374528,45.105831377253,182.66640605081932,163.543951004869,-0.0001295089750783,0.0955438911914825,0,0,0
15137,549450.1837597366,2010-12-12 21:12:00,1620.8159275115383,7,50,-1.0997490882873535,3.603913545608521,45.5445407374528,45.11499994967642,182.66640605081932,163.57701178671425,-9.713172767078504e-05,0.0955438911914825,0,0,0
15138,549480.1988754575,2010-12-12 21:12:30,1650.8310432325825,7,50,-1.099568486213684,3.6001901626586914,45.5445407374528,45.12416853307212,182.66640605081932,163.61003678598794,-6.47544875391759e-05,0.0955438911914825,0,0,0
15139,549510.2140240755,2010-12-12 21:13:00,1680.8461918805644,7,50,-1.0997490882873535,3.5963048934936523,45.5445407374528,45.133337129599006,182.66640605081932,163.64302695487086,-9.713172767078504e-05,0.0955438911914825,0,0,0
15140,549540.2290979674,2010-12-12 21:13:30,1710.8612657274064,7,50,-1.0997490882873535,3.592743396759033,45.5445407374528,45.14250570841029,182.66640605081932,163.67598315445534,-3.237724376958795e-05,0.0955438911914825,0,0,0
15141,549570.2443453862,2010-12-12 21:14:00,1740.8765131612126,7,50,-1.099568486213684,3.589182138442993,45.5445407374528,45.15167437264465,182.66640605081932,163.70890658169125,-6.47544875391759e-05,0.0955438911914825,0,0,0
15142,549600.2594807511,2010-12-12 21:14:30,1770.8916485111026,7,50,-1.099568486213684,3.585782527923584,45.5445407374528,45.16084293579792,182.66640605081932,163.74179754259208,-6.47544875391759e-05,0.0955438911914825,0,0,0
15143,549630.2744800525,2010-12-12 21:15:00,1800.906647897653,7,50,-1.0997490882873535,3.582221031188965,45.5445407374528,45.17001148692095,182.66640605081932,163.7746568943275,-9.713172767078504e-05,0.0955438911914825,0,0,0
15144,549660.2895383555,2010-12-12 21:15:30,1830.921706115603,7,50,-1.099568486213684,3.578821420669556,45.5445407374528,45.17918003619188,182.66640605081932,163.80748525985572,-9.713172767078504e-05,0.0955438911914825,0,0,0
15145,549690.3046545879,2010-12-12 21:16:00,1860.9368223629567,7,50,-1.0997490882873535,3.5755836963653564,45.5445407374528,45.18834858274188,182.66640605081932,163.84028337050154,-6.47544875391759e-05,0.0955438911914825,0,0,0
15146,549720.319759482,2010-12-12 21:16:30,1890.951927257059,7,50,-1.0997490882873535,3.572345972061157,45.5445407374528,45.19751714087296,182.66640605081932,163.87305151913787,-9.713172767078504e-05,0.0955438911914825,0,0,0
15147,549750.336673072,2010-12-12 21:17:00,1920.9688408620684,7,50,-1.0997490882873535,3.569108247756958,45.5445407374528,45.206686283120135,182.66640605081932,163.90579217918778,-6.47544875391759e-05,0.0955438911914825,0,0,0
15148,549780.3499806034,2010-12-12 21:17:30,1950.982148383477,7,50,-1.099568486213684,3.5660324096679688,45.5445407374528,45.21585430386476,182.66640605081932,163.93849951643435,-6.47544875391759e-05,0.0955438911914825,0,0,0
15149,549810.3651118831,2010-12-12 21:18:01,1980.9972796582265,7,50,-1.099568486213684,3.5629565715789795,45.5445407374528,45.225022883110576,182.66640605081932,163.97117962026522,-6.47544875391759e-05,0.0955438911914825,0,0,0
15150,549840.3804712805,2010-12-12 21:18:31,2011.0126391107872,7,50,-1.0997490882873535,3.5595569610595703,45.5445407374528,45.234191536566,182.66640605081932,164.00383146760888,-9.713172767078504e-05,0.0955438911914825,0,0,0
15151,549870.3953190198,2010-12-12 21:19:01,2041.0274867797943,7,50,-1.0997490882873535,3.556319236755371,45.5445407374528,45.24336006657575,182.66640605081932,164.03645379233473,-0.0001295089750783,0.0955438911914825,0,0,0
15152,549900.4104229414,2010-12-12 21:19:31,2071.0425907165136,7,50,-1.099568486213684,3.553405284881592,45.5445407374528,45.25252862241883,182.66640605081932,164.06904691092137,-6.47544875391759e-05,0.0955438911914825,0,0,0
15153,549930.4255240562,2010-12-12 21:20:01,2101.057691821186,7,50,-1.099568486213684,3.5501675605773926,45.5445407374528,45.26169723850757,182.66640605081932,164.10161074234645,-3.237724376958795e-05,0.0955438911914825,0,0,0
15154,549960.4406387096,2010-12-12 21:20:31,2131.0728064745736,7,50,-1.0997490882873535,3.5467679500579834,45.5445407374528,45.27086589410824,182.66640605081932,164.13414494968274,-9.713172767078504e-05,0.0955438911914825,0,0,0
15155,549990.4557551274,2010-12-12 21:21:01,2161.087922902376,7,50,-1.0997490882873535,3.543368339538574,45.5445407374528,45.28003454256195,182.66640605081932,164.16664881670394,-0.0001295089750783,0.0955438911914825,0,0,0
15156,550020.4708820062,2010-12-12 21:21:31,2191.1030498363234,7,50,-1.099568486213684,3.539968729019165,45.5445407374528,45.28920314094473,182.66640605081932,164.19912157920328,-9.713172767078504e-05,0.0955438911914825,0,0,0
15157,550050.4859808852,2010-12-12 21:22:01,2221.1181486653327,7,50,-1.099568486213684,3.536569118499756,45.5445407374528,45.29837171815798,182.66640605081932,164.2315628100879,-6.47544875391759e-05,0.0955438911914825,0,0,0
15158,550080.5010834787,2010-12-12 21:22:31,2251.133251243672,7,50,-1.0993878841400146,3.5330076217651367,45.5445407374528,45.30754038070047,182.66640605081932,164.26397194243071,-9.713172767078504e-05,0.0955438911914825,0,0,0
15159,550110.516198112,2010-12-12 21:23:01,2281.1483658870343,7,50,-1.0997490882873535,3.529284238815308,45.5445407374528,45.31670901081318,182.66640605081932,164.296347925337,-9.713172767078504e-05,0.0955438911914825,0,0,0
15160,550140.5313384242,2010-12-12 21:23:31,2311.1635062945097,7,50,-1.0997490882873535,3.5255608558654785,45.5445407374528,45.32587765321623,182.66640605081932,164.32868978988014,-9.713172767078504e-05,0.0955438911914825,0,0,0
15161,550170.5464105518,2010-12-12 21:24:01,2341.178578326836,7,50,-1.099929690361023,3.5213518142700195,45.5445407374528,45.33504630109538,182.66640605081932,164.3609961031923,-0.0001295089750783,0.0955438911914825,0,0,0
15162,550200.5615529141,2010-12-12 21:24:31,2371.1937206891766,7,50,-1.0997490882873535,3.5174665451049805,45.5445407374528,45.34421492123763,182.66640605081932,164.39326581632673,-0.0001295089750783,0.0955438911914825,0,0,0
15163,550230.5767687142,2010-12-12 21:25:01,2401.208936489264,7,50,-1.0997490882873535,3.513257503509521,45.5445407374528,45.35338357989277,182.66640605081932,164.42549732108702,-9.713172767078504e-05,0.0955438911914825,0,0,0
15164,550260.5917542664,2010-12-12 21:25:31,2431.2239220514125,7,50,-1.0997490882873535,3.5087249279022217,45.5445407374528,45.3625522069982,182.66640605081932,164.45768861160553,-0.0001295089750783,0.0955438911914825,0,0,0
15165,550290.6068470452,2010-12-12 21:26:01,2461.2390148203417,7,50,-1.099568486213684,3.5041921138763428,45.5445407374528,45.3717208543955,182.66640605081932,164.4898376757835,-9.713172767078504e-05,0.0955438911914825,0,0,0
15166,550320.6223849719,2010-12-12 21:26:31,2491.2545528021656,7,50,-1.0997490882873535,3.498849868774414,45.5445407374528,45.38088959831452,182.66640605081932,164.5219417761812,-0.0001295089750783,0.0955438911914825,0,0,0
15167,550350.6397816291,2010-12-12 21:27:01,2521.2719494943185,7,50,-1.0997490882873535,3.4933457374572754,45.5445407374528,45.390059000139296,182.66640605081932,164.55399960340208,-0.0001942634553415,0.0955438911914825,0,0,0
15168,550380.654384168,2010-12-12 21:27:31,2551.286552023304,7,50,-1.099929690361023,3.487032175064087,45.5445407374528,45.39922750007874,182.66640605081932,164.58600118151517,-0.0002266406954731,0.0955438911914825,0,0,0
15169,550410.6673072579,2010-12-12 21:28:01,2581.2994750278576,7,50,-1.0997490882873535,3.4803948402404785,45.5445407374528,45.40839550007568,182.66640605081932,164.61794176946557,-0.0002266406954731,0.0955438911914825,0,0,0
15170,550440.6824206029,2010-12-12 21:28:31,2611.314588362965,7,50,-1.0997490882873535,3.4726243019104004,45.5445407374528,45.41756418931656,182.66640605081932,164.6498178070067,-0.0002590179501567,0.0955438911914825,0,0,0
15171,550470.6977080663,2010-12-12 21:29:01,2641.3298759416703,7,50,-1.099568486213684,3.4637205600738525,45.5445407374528,45.42673291424222,182.66640605081932,164.6816176800652,-0.0002266406954731,0.0955438911914825,0,0,0
15172,550500.7126230128,2010-12-12 21:29:31,2671.344790787845,7,50,-1.099568486213684,3.453197956085205,45.5445407374528,45.43590158657146,182.66640605081932,164.71332822689945,-0.0002913951757363,0.0955438911914825,0,0,0
15173,550530.7279406965,2010-12-12 21:30:01,2701.360108546653,7,50,-1.0997490882873535,3.440408945083618,45.5445407374528,45.4450703691212,182.66640605081932,164.74493287874645,-0.0003561496851034,0.0955438911914825,0,0,0
15174,550560.7428692868,2010-12-12 21:30:31,2731.375037066855,7,50,-1.0997490882873535,3.424706220626831,45.5445407374528,45.45423897254252,182.66640605081932,164.77640746540337,-0.0004856586456298,0.0955438911914825,0,0,0
15175,550590.7579765468,2010-12-12 21:31:01,2761.3901443218315,7,50,-1.099568486213684,3.404956102371216,45.5445407374528,45.46340762152624,182.66640605081932,164.80772044862812,-0.0005827903514727,0.0955438911914825,0,0,0
15176,550620.7730768694,2010-12-12 21:31:31,2791.4052446495702,7,50,-1.099929690361023,3.378892421722412,45.5445407374528,45.4725762639611,182.66640605081932,164.8388253516206,-0.0008094310760498,0.0955438911914825,0,0,0
15177,550650.788191964,2010-12-12 21:32:01,2821.420359739043,7,50,-1.0997490882873535,3.344410896301269,45.5445407374528,45.481744992135226,182.66640605081932,164.86965564521128,-0.0010360718006268,0.0955438911914825,0,0,0
15178,550680.8033165422,2010-12-12 21:32:31,2851.435484317128,7,50,-1.099929690361023,3.297463893890381,45.5445407374528,45.49091360238982,182.66640605081932,164.90011546975398,-0.0014569759368896,0.0955438911914825,0,0,0
15179,550710.8185141018,2010-12-12 21:33:01,2881.4506819319613,7,50,-1.099929690361023,3.232709646224976,45.5445407374528,45.50008230242102,182.66640605081932,164.93006932445547,-0.0020073889754712,0.0955438911914825,0,0,0
15180,550740.8335182603,2010-12-12 21:33:31,2911.4656860352493,7,50,-1.099568486213684,3.140758514404297,45.5445407374528,45.509250956605385,182.66640605081932,164.9593147836609,-0.0028815746773034,0.0955438911914825,0,0,0
15181,550770.8487559498,2010-12-12 21:34:01,2941.480923724808,7,50,-1.099568486213684,2.9970040321350098,45.5445407374528,45.518419642443455,182.66640605081932,164.98750979891125,-0.0048889638856053,0.0955438911914825,0,0,0
15182,550794.2233768649,2010-12-12 21:34:24,2964.855544624894,7,50,-1.0997490882873535,2.7962656021118164,45.5445407374528,45.52555982008928,182.66640605081932,165.00825382040173,-0.008320951834321,0.0955438911914825,0,0,0
15183,550803.1136979971,2010-12-12 21:34:33,2973.7458657721327,7,50,-1.0997490882873535,2.699943780899048,45.5445407374528,45.52827553464639,182.66640605081932,165.0157180360057,-0.00870943069458,0.0955438911914825,0,0,0
15184,550863.1037046342,2010-12-12 21:35:33,60.01470419312675,8,50,0.0,3.383910894393921,45.5445407374528,45.52827553464639,182.66640605081932,165.0157180360057,0.0013922214275225,0.0955438911914825,0,0,0
15185,550863.3142999717,2010-12-12 21:35:34,0.187507334790806,9,50,-1.9243103452026844e-05,3.383910894393921,45.5445407374528,45.52827553564868,182.66640605081932,165.01571803939757,-9.713172767078504e-05,0.0945633500814437,0,0,0
15186,550868.1424600424,2010-12-12 21:35:39,5.015667385378229,9,50,0.0010644125286489,3.392167091369629,45.544541735898,45.52827553581569,182.66640943432137,165.0157180399627,0.0011332035064697,0.0945633500814437,0,0,0
