Data_Point,Test_Time(s),Date_Time,Step_Time(s),Step_Index,Cycle_Index,Current(A),Voltage(V),Charge_Capacity(Ah),Discharge_Capacity(Ah),Charge_Energy(Wh),Discharge_Energy(Wh),dV/dt(V/s),Internal_Resistance(Ohm),Is_FC_Data,AC_Impedance(Ohm),ACI_Phase_Angle(Deg)
5225,189793.30710634848,2010-12-08 17:17:01,30.014981161197287,1,18,0.0,3.457892656326294,15.714985774255112,15.701221853242028,63.03302484680383,56.91216235273548,0.0006799221155233,0.0955438911914825,0,0,0
5226,189823.3221499801,2010-12-08 17:17:31,60.0300247928499,1,18,0.0,3.4805567264556885,15.714985774255112,15.701221853242028,63.03302484680383,56.91216235273548,0.0004856586456298,0.0955438911914825,0,0,0
5227,189853.3371641635,2010-12-08 17:18:01,90.04503897622159,1,18,0.0,3.498364210128784,15.714985774255112,15.701221853242028,63.03302484680383,56.91216235273548,0.0004209041653666,0.0955438911914825,0,0,0
5228,189883.3062442116,2010-12-08 17:18:31,120.01411913955113,1,18,0.0,3.5122861862182617,15.714985774255112,15.701221853242028,63.03302484680383,56.91216235273548,0.0003884792386088,0.0955438911914825,0,0,0
5229,189913.32615350516,2010-12-08 17:19:01,30.015126482824567,2,18,0.5501165986061096,3.664620876312256,15.719573043757642,15.701221853242028,63.04969787611616,56.91216235273548,0.0013274669181555,0.0955438911914825,0,0,0
5230,189943.3410555043,2010-12-08 17:19:31,60.03002847701781,2,18,0.550297200679779,3.703149557113648,15.724160249950655,15.701221853242028,63.06660287947365,56.91216235273548,0.0008418083307333,0.0955438911914825,0,0,0
5231,189973.35618202225,2010-12-08 17:20:01,90.04515490971765,2,18,0.550297200679779,3.730670213699341,15.72874759065065,15.701221853242028,63.08365724582632,56.91216235273548,0.0006151676061563,0.0955438911914825,0,0,0
5232,190003.3712908311,2010-12-08 17:20:31,120.06026373861108,2,18,0.5501165986061096,3.7518773078918457,15.733334908918588,15.701221853242028,63.10082174603106,56.91216235273548,0.0004856586456298,0.0955438911914825,0,0,0
5233,190033.38627046847,2010-12-08 17:21:01,150.07524337601646,2,18,0.5501165986061096,3.7677419185638423,15.737922151107588,15.701221853242028,63.1180706629668,56.91216235273548,0.0003885269106831,0.0955438911914825,0,0,0
5234,190063.40133185431,2010-12-08 17:21:31,180.09030474179977,2,18,0.5501165986061096,3.77875018119812,15.742509464998111,15.701221853242028,63.13538141267605,56.91216235273548,0.0002590179501567,0.0955438911914825,0,0,0
5235,190093.4162288912,2010-12-08 17:22:01,210.1052017936943,2,18,0.5504778623580933,3.7861969470977774,15.747096653270338,15.701221853242028,63.15273314323334,56.91216235273548,0.0001942634553415,0.0955438911914825,0,0,0
5236,190123.4312921968,2010-12-08 17:22:32,240.1202650842674,2,18,0.550297200679779,3.791701078414917,15.751683854602542,15.701221853242028,63.17011438238112,56.91216235273548,0.0001295089750783,0.0955438911914825,0,0,0
5237,190153.44634620423,2010-12-08 17:23:02,270.1353191117897,2,18,0.5501165986061096,3.796881437301636,15.756271046964777,15.701221853242028,63.1875200271665,56.91216235273548,0.0001618862152099,0.0955438911914825,0,0,0
5238,190183.4615559844,2010-12-08 17:23:32,300.15052888688393,2,18,0.550297200679779,3.801738023757935,15.760858316184992,15.701221853242028,63.20494844417867,56.91216235273548,0.0001618862152099,0.0955438911914825,0,0,0
5239,190213.476348055,2010-12-08 17:24:02,330.1653209725741,2,18,0.550297200679779,3.8062708377838135,15.765445489790292,15.701221853242028,63.22239769036344,56.91216235273548,0.0001295089750783,0.0955438911914825,0,0,0
5240,190243.491389396,2010-12-08 17:24:32,360.1803623035014,2,18,0.5499359965324402,3.810479879379273,15.770032683488424,15.701221853242028,63.239867427422254,56.91216235273548,0.0001295089750783,0.0955438911914825,0,0,0
5241,190273.50644136337,2010-12-08 17:25:02,390.1954142658847,2,18,0.5501165986061096,3.814850807189941,15.774619913577158,15.701221853242028,63.25735701650766,56.91216235273548,9.713172767078504e-05,0.0955438911914825,0,0,0
5242,190303.52156247283,2010-12-08 17:25:32,420.21053536030047,2,18,0.550297200679779,3.8188979625701904,15.779207132324244,15.701221853242028,63.27486565708932,56.91216235273548,0.0001295089750783,0.0955438911914825,0,0,0
5243,190333.53668093067,2010-12-08 17:26:02,450.22565381314274,2,18,0.5501165986061096,3.82262134552002,15.78379430842632,15.701221853242028,63.29239246478666,56.91216235273548,6.47544875391759e-05,0.0955438911914825,0,0,0
5244,190363.5516101376,2010-12-08 17:26:32,480.2405830401037,2,18,0.550297200679779,3.826668500900269,15.788381447706657,15.701221853242028,63.30993701259875,56.91216235273548,0.0001295089750783,0.0955438911914825,0,0,0
5245,190393.56650394137,2010-12-08 17:27:02,510.2554768439154,2,18,0.550297200679779,3.830553770065308,15.792968630370162,15.701221853242028,63.327499167213226,56.91216235273548,0.0001295089750783,0.0955438911914825,0,0,0
5246,190423.5851867189,2010-12-08 17:27:32,540.2741596966297,2,18,0.5501165986061096,3.834115028381348,15.797556406158987,15.701221853242028,63.34508076704801,56.91216235273548,6.47544875391759e-05,0.0955438911914825,0,0,0
5247,190453.59663320423,2010-12-08 17:28:02,570.285606171897,2,18,0.5501165986061096,3.8378384113311768,15.802143027130258,15.701221853242028,63.362674947736814,56.91216235273548,6.47544875391759e-05,0.0955438911914825,0,0,0
5248,190483.6116147113,2010-12-08 17:28:32,600.3005876137927,2,18,0.5501165986061096,3.841399908065796,15.806730202943871,15.701221853242028,63.38028816253689,56.91216235273548,6.47544875391759e-05,0.0955438911914825,0,0,0
5249,190513.6266453556,2010-12-08 17:29:02,630.315618258127,2,18,0.550297200679779,3.845285177230835,15.811317397394795,15.701221853242028,63.39791832765314,56.91216235273548,0.0001295089750783,0.0955438911914825,0,0,0
5250,190543.641748761,2010-12-08 17:29:32,660.3307216635243,2,18,0.550297200679779,3.848846673965454,15.81590460472824,15.701221853242028,63.415565401960905,56.91216235273548,0.0001295089750783,0.0955438911914825,0,0,0
5251,190573.6567872348,2010-12-08 17:30:02,690.3457601223043,2,18,0.5501165986061096,3.852570056915283,15.820491810970722,15.701221853242028,63.433229313090514,56.91216235273548,0.0001295089750783,0.0955438911914825,0,0,0
5252,190603.67194372232,2010-12-08 17:30:32,720.360916679969,2,18,0.5501165986061096,3.8561315536499023,15.825079069397429,15.701221853242028,63.45091020300723,56.91216235273548,9.713172767078504e-05,0.0955438911914825,0,0,0
5253,190633.68674334176,2010-12-08 17:31:02,750.3757162442695,2,18,0.5501165986061096,3.859854936599731,15.829666344667675,15.701221853242028,63.4686079882578,56.91216235273548,9.713172767078504e-05,0.0955438911914825,0,0,0
5254,190663.7052754042,2010-12-08 17:31:32,780.3942483969724,2,18,0.550297200679779,3.863416433334351,15.834254113122078,15.701221853242028,63.48632428958312,56.91216235273548,9.713172767078504e-05,0.0955438911914825,0,0,0
5255,190693.71680770308,2010-12-08 17:32:02,810.4057806055838,2,18,0.5501165986061096,3.8669779300689697,15.838840795927377,15.701221853242028,63.504052728358346,56.91216235273548,9.713172767078504e-05,0.0955438911914825,0,0,0
5256,190723.7319073792,2010-12-08 17:32:32,840.4208803669129,2,18,0.550297200679779,3.870377540588379,15.843428106823543,15.701221853242028,63.52179976229471,56.91216235273548,6.47544875391759e-05,0.0955438911914825,0,0,0
5257,190753.74682580927,2010-12-08 17:33:02,870.435798706782,2,18,0.5501165986061096,3.873777151107788,15.848015322050594,15.701221853242028,63.539562164171805,56.91216235273548,9.713172767078504e-05,0.0955438911914825,0,0,0
5258,190783.76187501985,2010-12-08 17:33:32,900.4508479173173,2,18,0.5499359965324402,3.8770148754119873,15.852602552048856,15.701221853242028,63.55733972653826,56.91216235273548,0.0001295089750783,0.0955438911914825,0,0,0
5259,190813.7769200249,2010-12-08 17:34:02,930.4658929274002,2,18,0.5501165986061096,3.880090713500977,15.8571897876093,15.701221853242028,63.575132112178494,56.91216235273548,6.47544875391759e-05,0.0955438911914825,0,0,0
5260,190843.79207192097,2010-12-08 17:34:32,960.4810448284768,2,18,0.5501165986061096,3.883328437805176,15.861777080307151,15.701221853242028,63.59293892431641,56.91216235273548,9.713172767078504e-05,0.0955438911914825,0,0,0
5261,190873.80702439576,2010-12-08 17:35:02,990.4959973032894,2,18,0.550297200679779,3.886080503463745,15.866364386372192,15.701221853242028,63.61075941327234,56.91216235273548,3.237724376958795e-05,0.0955438911914825,0,0,0
5262,190903.821986274,2010-12-08 17:35:32,1020.5109591764892,2,18,0.5501165986061096,3.888994455337525,15.870951638630851,15.701221853242028,63.6285927081526,56.91216235273548,6.47544875391759e-05,0.0955438911914825,0,0,0
5263,190933.83715320745,2010-12-08 17:36:02,1050.526126114986,2,18,0.5501165986061096,3.891584634780884,15.87553898597304,15.701221853242028,63.6464387279749,56.91216235273548,6.47544875391759e-05,0.0955438911914825,0,0,0
5264,190963.8520343247,2010-12-08 17:36:32,1080.5410072272157,2,18,0.550297200679779,3.894174814224243,15.880126266329269,15.701221853242028,63.66429614196886,56.91216235273548,9.713172767078504e-05,0.0955438911914825,0,0,0
5265,190993.8671891731,2010-12-08 17:37:02,1110.5561620605893,2,18,0.5501165986061096,3.8962793350219727,15.884713600259833,15.701221853242028,63.68216438432703,56.91216235273548,6.47544875391759e-05,0.0955438911914825,0,0,0
5266,191023.88217159244,2010-12-08 17:37:32,1140.571144550092,2,18,0.550297200679779,3.898545742034912,15.889300837467305,15.701221853242028,63.70004257026486,56.91216235273548,6.47544875391759e-05,0.0955438911914825,0,0,0
5267,191053.89711798207,2010-12-08 17:38:02,1170.5860908896368,2,18,0.550297200679779,3.9006502628326416,15.893888058928868,15.701221853242028,63.71793039150264,56.91216235273548,6.47544875391759e-05,0.0955438911914825,0,0,0
5268,191083.91229015865,2010-12-08 17:38:32,1200.6012630661685,2,18,0.5501165986061096,3.902431011199951,15.898475325663227,15.701221853242028,63.73582762728804,56.91216235273548,3.237724376958795e-05,0.0955438911914825,0,0,0
5269,191113.9274632625,2010-12-08 17:39:02,1230.6164362552197,2,18,0.550297200679779,3.904373645782471,15.903062603372552,15.701221853242028,63.753733643061786,56.91216235273548,3.237724376958795e-05,0.0955438911914825,0,0,0
5270,191143.9425140419,2010-12-08 17:39:32,1260.6314869945595,2,18,0.5501165986061096,3.90615439414978,15.907649872916265,15.701221853242028,63.771647956152,56.91216235273548,6.47544875391759e-05,0.0955438911914825,0,0,0
5271,191173.9572406296,2010-12-08 17:40:02,1290.6462136223602,2,18,0.5501165986061096,3.90761137008667,15.912237022527153,15.701221853242028,63.78956983491332,56.91216235273548,0.0,0.0955438911914825,0,0,0
5272,191203.9722547328,2010-12-08 17:40:32,1320.661227635308,2,18,0.5501165986061096,3.9095540046691895,15.91682431364306,15.701221853242028,63.80750006958719,56.91216235273548,6.47544875391759e-05,0.0955438911914825,0,0,0
5273,191233.9876899589,2010-12-08 17:41:02,1350.676662931603,2,18,0.550297200679779,3.911172866821289,15.921411631325698,15.701221853242028,63.82543795824349,56.91216235273548,6.47544875391759e-05,0.0955438911914825,0,0,0
5274,191264.00232867297,2010-12-08 17:41:32,1380.6913015754587,2,18,0.5501165986061096,3.9127917289733887,15.9259987972819,15.701221853242028,63.843382726601135,56.91216235273548,3.237724376958795e-05,0.0955438911914825,0,0,0
5275,191294.0173691217,2010-12-08 17:42:02,1410.7063420241911,2,18,0.550297200679779,3.914410352706909,15.930586107423268,15.701221853242028,63.861335391913016,56.91216235273548,6.47544875391759e-05,0.0955438911914825,0,0,0
5276,191324.0323781873,2010-12-08 17:42:32,1440.7213510898275,2,18,0.550297200679779,3.916029214859009,15.935173378228033,15.701221853242028,63.87929511492171,56.91216235273548,6.47544875391759e-05,0.0955438911914825,0,0,0
5277,191354.0474192676,2010-12-08 17:43:02,1470.736392170131,2,18,0.5501165986061096,3.9174861907958975,15.939760588306411,15.701221853242028,63.89726176065186,56.91216235273548,6.47544875391759e-05,0.0955438911914825,0,0,0
5278,191384.06249154056,2010-12-08 17:43:32,1500.7514644280193,2,18,0.550297200679779,3.918943166732788,15.94434778395726,15.701221853242028,63.91523553423711,56.91216235273548,3.237724376958795e-05,0.0955438911914825,0,0,0
5279,191414.07754596404,2010-12-08 17:44:02,1530.7665188715766,2,18,0.5501165986061096,3.920562028884888,15.948935007036622,15.701221853242028,63.93321661963979,56.91216235273548,0.0,0.0955438911914825,0,0,0
5280,191444.0924868149,2010-12-08 17:44:32,1560.7814597174506,2,18,0.550297200679779,3.9221808910369873,15.953522259436824,15.701221853242028,63.95120487282279,56.91216235273548,6.47544875391759e-05,0.0955438911914825,0,0,0
5281,191474.10766665556,2010-12-08 17:45:02,1590.7966395630667,2,18,0.5501165986061096,3.923475980758667,15.958109473471264,15.701221853242028,63.96920005424778,56.91216235273548,3.237724376958795e-05,0.0955438911914825,0,0,0
5282,191504.12259636368,2010-12-08 17:45:32,1620.8115692662125,2,18,0.5501165986061096,3.925256729125977,15.962696749960202,15.701221853242028,63.98720266328672,56.91216235273548,3.237724376958795e-05,0.0955438911914825,0,0,0
5283,191534.1375982214,2010-12-08 17:46:02,1650.82657109885,2,18,0.5501165986061096,3.926713705062866,15.967284061322774,15.701221853242028,64.00521249646944,56.91216235273548,3.237724376958795e-05,0.0955438911914825,0,0,0
5284,191564.15261492104,2010-12-08 17:46:32,1680.8415878235455,2,18,0.5501165986061096,3.928332567214966,15.97187132284082,15.701221853242028,64.02322930031141,56.91216235273548,3.237724376958795e-05,0.0955438911914825,0,0,0
5285,191594.16765403643,2010-12-08 17:47:02,1710.8566269389596,2,18,0.550297200679779,3.9299514293670654,15.976458539360433,15.701221853242028,64.04125314122624,56.91216235273548,3.237724376958795e-05,0.0955438911914825,0,0,0
5286,191624.1860526669,2010-12-08 17:47:32,1740.875025679672,2,18,0.5501165986061096,3.931570291519165,15.981046325586862,15.701221853242028,64.05928644137337,56.91216235273548,6.47544875391759e-05,0.0955438911914825,0,0,0
5287,191654.19789782423,2010-12-08 17:48:02,1770.88687072677,2,18,0.550297200679779,3.9331891536712646,15.98563314361186,15.701221853242028,64.07732319148323,56.91216235273548,6.47544875391759e-05,0.0955438911914825,0,0,0
5288,191684.21282039463,2010-12-08 17:48:32,1800.9017933723535,2,18,0.5501165986061096,3.9346461296081534,15.990220344740436,15.701221853242028,64.09536868770012,56.91216235273548,3.237724376958795e-05,0.0955438911914825,0,0,0
5289,191714.22798411516,2010-12-08 17:49:02,1830.9169570076303,2,18,0.550297200679779,3.936264991760254,15.99480763713661,15.701221853242028,64.11342184034574,56.91216235273548,6.47544875391759e-05,0.0955438911914825,0,0,0
5290,191744.24281722796,2010-12-08 17:49:32,1860.93179013044,2,18,0.5499359965324402,3.9378838539123535,15.99939486813823,15.701221853242028,64.13148192186411,56.91216235273548,6.47544875391759e-05,0.0955438911914825,0,0,0
5291,191774.25795164047,2010-12-08 17:50:02,1890.9469245429973,2,18,0.550297200679779,3.939502716064453,16.003982181220415,15.701221853242028,64.1495497846835,56.91216235273548,6.47544875391759e-05,0.0955438911914825,0,0,0
5292,191804.27285007585,2010-12-08 17:50:32,1920.9618229783343,2,18,0.5501165986061096,3.9411215782165527,16.008569424241426,15.701221853242028,64.1676247272912,56.91216235273548,6.47544875391759e-05,0.0955438911914825,0,0,0
5293,191834.2878902288,2010-12-08 17:51:02,1950.976863131331,2,18,0.5501165986061096,3.9425785541534415,16.01315668113327,15.701221853242028,64.18570702529662,56.91216235273548,0.0,0.0955438911914825,0,0,0
5294,191864.3029262465,2010-12-08 17:51:32,1980.9918991540487,2,18,0.550297200679779,3.944359302520752,16.017743914707932,15.701221853242028,64.20379665562001,56.91216235273548,6.47544875391759e-05,0.0955438911914825,0,0,0
5295,191894.31795267036,2010-12-08 17:52:02,2011.006925572868,2,18,0.5501165986061096,3.9458162784576416,16.022331177934582,15.701221853242028,64.22189382141993,56.91216235273548,3.237724376958795e-05,0.0955438911914825,0,0,0
5296,191924.3330606371,2010-12-08 17:52:32,2041.022033534604,2,18,0.5501165986061096,3.947435140609741,16.026918508358673,15.701221853242028,64.23999863565183,56.91216235273548,6.47544875391759e-05,0.0955438911914825,0,0,0
5297,191954.34809401823,2010-12-08 17:53:02,2071.037066905724,2,18,0.5504778623580933,3.9493777751922607,16.031505717828185,15.701221853242028,64.25811044128542,56.91216235273548,9.713172767078504e-05,0.0955438911914825,0,0,0
5298,191984.36308605148,2010-12-08 17:53:32,2101.0520589540124,2,18,0.550297200679779,3.95099663734436,16.036092996947747,15.701221853242028,64.27622997680187,56.91216235273548,9.713172767078504e-05,0.0955438911914825,0,0,0
5299,192014.3782968491,2010-12-08 17:54:02,2131.0672698468884,2,18,0.5501165986061096,3.95229172706604,16.04068026591038,15.701221853242028,64.29435710582815,56.91216235273548,3.237724376958795e-05,0.0955438911914825,0,0,0
5300,192044.39310920023,2010-12-08 17:54:33,2161.082082102771,2,18,0.550297200679779,3.9540724754333496,16.04526749685252,15.701221853242028,64.31249171450555,56.91216235273548,6.47544875391759e-05,0.0955438911914825,0,0,0
5301,192074.4082622793,2010-12-08 17:55:03,2191.097235181779,2,18,0.5501165986061096,3.955691337585449,16.04985477805224,15.701221853242028,64.3306341155653,56.91216235273548,6.47544875391759e-05,0.0955438911914825,0,0,0
5302,192104.4233898448,2010-12-08 17:55:33,2221.1123628475475,2,18,0.550297200679779,3.957310199737549,16.054442128771047,15.701221853242028,64.3487844188647,56.91216235273548,3.237724376958795e-05,0.0955438911914825,0,0,0
5303,192134.4383506904,2010-12-08 17:56:03,2251.127323582916,2,18,0.5501165986061096,3.9590909481048575,16.059029382919473,15.701221853242028,64.36694198866971,56.91216235273548,3.237724376958795e-05,0.0955438911914825,0,0,0
5304,192164.4532240333,2010-12-08 17:56:33,2281.142196920799,2,18,0.5501165986061096,3.960709810256958,16.063616619153496,15.701221853242028,64.38510719944676,56.91216235273548,0.0,0.0955438911914825,0,0,0
5305,192194.4685507996,2010-12-08 17:57:03,2311.1575237020584,2,18,0.550297200679779,3.9623286724090576,16.068203953398665,15.701221853242028,64.40328055456258,56.91216235273548,3.237724376958795e-05,0.0955438911914825,0,0,0
5306,192224.4833357776,2010-12-08 17:57:33,2341.172308665024,2,18,0.550297200679779,3.964109420776367,16.072791192236064,15.701221853242028,64.42146130550294,56.91216235273548,0.0,0.0955438911914825,0,0,0
5307,192254.49850176368,2010-12-08 17:58:03,2371.187474651151,2,18,0.5501165986061096,3.9658901691436768,16.07737855114539,15.701221853242028,64.43965038044263,56.91216235273548,3.237724376958795e-05,0.0955438911914825,0,0,0
5308,192284.5133421245,2010-12-08 17:58:33,2401.2023150270097,2,18,0.5499359965324402,3.967509031295776,16.081965811171763,15.701221853242028,64.45784692321607,56.91216235273548,3.237724376958795e-05,0.0955438911914825,0,0,0
5309,192314.52851225596,2010-12-08 17:59:03,2431.2174851634645,2,18,0.5501165986061096,3.969289779663086,16.086553144262776,15.701221853242028,64.47605162516858,56.91216235273548,3.237724376958795e-05,0.0955438911914825,0,0,0
5310,192344.54673192604,2010-12-08 17:59:33,2461.2357049037414,2,18,0.5497553944587708,3.9709086418151855,16.091140891834193,15.701221853242028,64.49426595440241,56.91216235273548,3.237724376958795e-05,0.0955438911914825,0,0,0
5311,192374.5585910782,2010-12-08 18:00:03,2491.247564050927,2,18,0.550297200679779,3.972851276397705,16.095727737494997,15.701221853242028,64.51248478647435,56.91216235273548,6.47544875391759e-05,0.0955438911914825,0,0,0
5312,192404.573611843,2010-12-08 18:00:33,2521.2625847505137,2,18,0.550297200679779,3.9747939109802246,16.100315151044995,15.701221853242028,64.53071398122871,56.91216235273548,6.47544875391759e-05,0.0955438911914825,0,0,0
5313,192434.58852443355,2010-12-08 18:01:03,2551.277497336063,2,18,0.5501165986061096,3.976250886917114,16.104902456662526,15.701221853242028,64.54895094404728,56.91216235273548,0.0,0.0955438911914825,0,0,0
5314,192464.60358243092,2010-12-08 18:01:33,2581.292555403639,2,18,0.550297200679779,3.977869749069214,16.109489861862517,15.701221853242028,64.56719632491036,56.91216235273548,0.0,0.0955438911914825,0,0,0
5315,192494.61866661356,2010-12-08 18:02:03,2611.307639500989,2,18,0.5501165986061096,3.979974269866944,16.11407712965096,15.701221853242028,64.58544953173255,56.91216235273548,0.0,0.0955438911914825,0,0,0
5316,192524.63363732872,2010-12-08 18:02:33,2641.322610216192,2,18,0.550297200679779,3.982078790664673,16.118664313289177,15.701221853242028,64.60371096067094,56.91216235273548,9.713172767078504e-05,0.0955438911914825,0,0,0
5317,192554.64865901577,2010-12-08 18:03:03,2671.3376319032363,2,18,0.550297200679779,3.9838595390319824,16.12325162296736,15.701221853242028,64.6219813677124,56.91216235273548,9.713172767078504e-05,0.0955438911914825,0,0,0
5318,192584.6639348753,2010-12-08 18:03:33,2701.3529077778167,2,18,0.5501165986061096,3.985478401184082,16.1278384561538,15.701221853242028,64.64025833052953,56.91216235273548,3.237724376958795e-05,0.0955438911914825,0,0,0
5319,192614.67875646945,2010-12-08 18:04:03,2731.3677294621616,2,18,0.5501165986061096,3.987582921981812,16.132424846149068,15.701221853242028,64.65854201356817,56.91216235273548,6.47544875391759e-05,0.0955438911914825,0,0,0
5320,192644.69372044783,2010-12-08 18:04:33,2761.382693350376,2,18,0.5499359965324402,3.989363670349121,16.137011324143526,15.701221853242028,64.6768346798224,56.91216235273548,3.237724376958795e-05,0.0955438911914825,0,0,0
5321,192674.708736952,2010-12-08 18:05:03,2791.397709854523,2,18,0.5501165986061096,3.991144418716431,16.141597686130012,15.701221853242028,64.6951356619087,56.91216235273548,3.237724376958795e-05,0.0955438911914825,0,0,0
5322,192704.72379658849,2010-12-08 18:05:33,2821.4127694910026,2,18,0.550297200679779,3.99324893951416,16.146184415640523,15.701221853242028,64.71344708026052,56.91216235273548,6.47544875391759e-05,0.0955438911914825,0,0,0
5323,192734.7389245399,2010-12-08 18:06:03,2851.427897422432,2,18,0.550297200679779,3.995353221893311,16.150771624094368,15.701221853242028,64.73176941760123,56.91216235273548,9.713172767078504e-05,0.0955438911914825,0,0,0
5324,192764.7540610778,2010-12-08 18:06:33,2881.44303404549,2,18,0.5501165986061096,3.99713397026062,16.155358789383158,15.701221853242028,64.75010065196923,56.91216235273548,3.237724376958795e-05,0.0955438911914825,0,0,0
5325,192794.7690720482,2010-12-08 18:07:03,2911.4580449356667,2,18,0.550297200679779,3.9992384910583496,16.15994599906123,15.701221853242028,64.7684411466384,56.91216235273548,6.47544875391759e-05,0.0955438911914825,0,0,0
5326,192824.78390399308,2010-12-08 18:07:33,2941.4728768955824,2,18,0.550297200679779,4.001181125640869,16.164533150322338,15.701221853242028,64.78679072332642,56.91216235273548,3.23295607813634e-05,0.0955438911914825,0,0,0
5327,192854.79892592577,2010-12-08 18:08:03,2971.4878988332507,2,18,0.550297200679779,4.003285884857178,16.16912035737999,15.701221853242028,64.8051498832278,56.91216235273548,9.71794142969884e-05,0.0955438911914825,0,0,0
5328,192884.8140346293,2010-12-08 18:08:33,3001.503007622044,2,18,0.5501165986061096,4.005552291870117,16.173707515313595,15.701221853242028,64.82351833437473,56.91216235273548,9.71794142969884e-05,0.0955438911914825,0,0,0
5329,192914.829013189,2010-12-08 18:09:03,3031.517986076506,2,18,0.5501165986061096,4.007656574249268,16.178294696895744,15.701221853242028,64.84189657418966,56.91216235273548,6.47544875391759e-05,0.0955438911914825,0,0,0
5330,192944.84403289112,2010-12-08 18:09:33,3061.533005793648,2,18,0.5501165986061096,4.009599208831787,16.18288191077556,15.701221853242028,64.86028461665542,56.91216235273548,3.23295607813634e-05,0.0955438911914825,0,0,0
5331,192974.8590771644,2010-12-08 18:10:03,3091.5480500668973,2,18,0.550297200679779,4.011865615844727,16.187469051837372,15.701221853242028,64.8786821519155,56.91216235273548,6.47544875391759e-05,0.0955438911914825,0,0,0
5332,193004.87417108612,2010-12-08 18:10:33,3121.563143988695,2,18,0.550297200679779,4.013970375061035,16.192056303168414,15.701221853242028,64.89709013912982,56.91216235273548,9.71794142969884e-05,0.0955438911914825,0,0,0
5333,193034.88941382832,2010-12-08 18:11:03,3151.5783867308264,2,18,0.5501165986061096,4.0163984298706055,16.196643584376424,15.701221853242028,64.91550836566671,56.91216235273548,9.70840483205393e-05,0.0955438911914825,0,0,0
5334,193064.90447931932,2010-12-08 18:11:33,3181.593452287037,2,18,0.5501165986061096,4.018341064453125,16.201230862576136,15.701221853242028,64.93393688674328,56.91216235273548,6.47544875391759e-05,0.0955438911914825,0,0,0
5335,193094.9191802332,2010-12-08 18:12:03,3211.608153135688,2,18,0.5501165986061096,4.020931243896484,16.205818027484916,15.701221853242028,64.9523751887387,56.91216235273548,0.0001295089750783,0.0955438911914825,0,0,0
5336,193124.93420788503,2010-12-08 18:12:33,3241.623180827675,2,18,0.5499359965324402,4.022712230682373,16.21040525781409,15.701221853242028,64.97082434217289,56.91216235273548,3.24249267578125e-05,0.0955438911914825,0,0,0
5337,193154.94945442164,2010-12-08 18:13:03,3271.638427324149,2,18,0.550297200679779,4.025464057922363,16.21499252585483,15.701221853242028,64.98928420677689,56.91216235273548,9.70840483205393e-05,0.0955438911914825,0,0,0
5338,193184.96432438112,2010-12-08 18:13:33,3301.6532972736,2,18,0.550297200679779,4.027730464935303,16.219579757749916,15.701221853242028,65.0077545688413,56.91216235273548,6.47544875391759e-05,0.0955438911914825,0,0,0
5339,193214.9794485983,2010-12-08 18:14:03,3331.6684215509367,2,18,0.5501165986061096,4.029996871948242,16.22416702032188,15.701221853242028,65.02623580651202,56.91216235273548,9.70840483205393e-05,0.0955438911914825,0,0,0
5340,193244.99432454768,2010-12-08 18:14:33,3361.683297450193,2,18,0.550297200679779,4.032587051391602,16.22875417629566,15.701221853242028,65.04472749126987,56.91216235273548,9.70840483205393e-05,0.0955438911914825,0,0,0
5341,193275.00951992697,2010-12-08 18:15:03,3391.698492914676,2,18,0.550297200679779,4.034853458404541,16.23334141312085,15.701221853242028,65.06323059602344,56.91216235273548,6.47544875391759e-05,0.0955438911914825,0,0,0
5342,193305.02458448568,2010-12-08 18:15:33,3421.7135573731557,2,18,0.5501165986061096,4.037281513214111,16.237928643470532,15.701221853242028,65.08174478034192,56.91216235273548,6.47544875391759e-05,0.0955438911914825,0,0,0
5343,193335.0394997178,2010-12-08 18:16:03,3451.7284726303533,2,18,0.550297200679779,4.03971004486084,16.242515888801986,15.701221853242028,65.10027035032095,56.91216235273548,3.24249267578125e-05,0.0955438911914825,0,0,0
5344,193365.05475006887,2010-12-08 18:16:33,3481.7437229713946,2,18,0.5501165986061096,4.042300224304199,16.24710314812999,15.701221853242028,65.11880729339191,56.91216235273548,9.71794142969884e-05,0.0955438911914825,0,0,0
5345,193395.06948665145,2010-12-08 18:17:03,3511.758459553967,2,18,0.550297200679779,4.0447282791137695,16.251690356975445,15.701221853242028,65.1373555973902,56.91216235273548,6.47544875391759e-05,0.0955438911914825,0,0,0
5346,193425.08453520032,2010-12-08 18:17:33,3541.773508102856,2,18,0.5501165986061096,4.047156810760498,16.256277589665107,15.701221853242028,65.155915497741,56.91216235273548,3.24249267578125e-05,0.0955438911914825,0,0,0
5347,193455.09954297275,2010-12-08 18:18:03,3571.7885158752742,2,18,0.550297200679779,4.049746990203857,16.26086489870632,15.701221853242028,65.17448745425973,56.91216235273548,6.47544875391759e-05,0.0955438911914825,0,0,0
5348,193485.11456680516,2010-12-08 18:18:33,3601.803539697632,2,18,0.5501165986061096,4.052337169647217,16.265452123502527,15.701221853242028,65.19307074251974,56.91216235273548,6.47544875391759e-05,0.0955438911914825,0,0,0
5349,193515.12961307832,2010-12-08 18:19:03,3631.818586051058,2,18,0.5501165986061096,4.055088996887207,16.27003932953181,15.701221853242028,65.21166591034444,56.91216235273548,6.47544875391759e-05,0.0955438911914825,0,0,0
5350,193545.1480540993,2010-12-08 18:19:33,3661.837027076995,2,18,0.550297200679779,4.057679176330566,16.27462714684243,15.701221853242028,65.23027562869362,56.91216235273548,6.47544875391759e-05,0.0955438911914825,0,0,0
5351,193575.1598456132,2010-12-08 18:20:03,3691.848818515691,2,18,0.5501165986061096,4.060269355773926,16.27921393619944,15.701221853242028,65.24889338774722,56.91216235273548,3.23295607813634e-05,0.0955438911914825,0,0,0
5352,193605.1747969301,2010-12-08 18:20:33,3721.8637698225966,2,18,0.5501165986061096,4.062859535217285,16.2838011854239,15.701221853242028,65.26752488705934,56.91216235273548,9.70840483205393e-05,0.0955438911914825,0,0,0
5353,193635.1897379364,2010-12-08 18:21:03,3751.8787109140826,2,18,0.5501165986061096,4.065611839294434,16.28838839223465,15.701221853242028,65.28616867765967,56.91216235273548,6.47544875391759e-05,0.0955438911914825,0,0,0
5354,193665.20476427,2010-12-08 18:21:33,3781.8937371725024,2,18,0.550297200679779,4.068363666534424,16.2929756004444,15.701221853242028,65.30482496538556,56.91216235273548,6.47544875391759e-05,0.0955438911914825,0,0,0
5355,193695.2198906676,2010-12-08 18:22:03,3811.9088635751273,2,18,0.5501165986061096,4.071115970611572,16.297562883176084,15.701221853242028,65.32349422420769,56.91216235273548,6.47544875391759e-05,0.0955438911914825,0,0,0
5356,193725.2347773988,2010-12-08 18:22:33,3841.923750291302,2,18,0.5501165986061096,4.074029922485352,16.302150033388276,15.701221853242028,65.34217566108362,56.91216235273548,9.71794142969884e-05,0.0955438911914825,0,0,0
5357,193755.24991528,2010-12-08 18:23:03,3871.938888277753,2,18,0.550297200679779,4.076781749725342,16.30673736173365,15.701221853242028,65.36087082690945,56.91216235273548,6.47544875391759e-05,0.0955438911914825,0,0,0
5358,193785.2648703212,2010-12-08 18:23:33,3901.9538432237146,2,18,0.550297200679779,4.079695701599121,16.311324615551236,15.701221853242028,65.37957872269067,56.91216235273548,6.47544875391759e-05,0.0955438911914825,0,0,0
5359,193815.280045826,2010-12-08 18:24:03,3931.969018733541,2,18,0.5501165986061096,4.0824480056762695,16.315911860939995,15.701221853242028,65.3982996608332,56.91216235273548,6.47544875391759e-05,0.0955438911914825,0,0,0
5360,193845.29513092584,2010-12-08 18:24:33,3961.98410388351,2,18,0.550297200679779,4.085685729980469,16.320499040893512,15.701221853242028,65.41703357998158,56.91216235273548,0.0001295089750783,0.0955438911914825,0,0,0
5361,193875.31007852856,2010-12-08 18:25:03,3991.999051416024,2,18,0.550297200679779,4.088437557220459,16.325086255770493,15.701221853242028,65.43578088170337,56.91216235273548,0.0001295089750783,0.0955438911914825,0,0,0
5362,193905.32523276543,2010-12-08 18:25:33,4022.014205677975,2,18,0.5501165986061096,4.091189861297607,16.329673469976406,15.701221853242028,65.45454166635723,56.91216235273548,6.47544875391759e-05,0.0955438911914825,0,0,0
5363,193935.34005163776,2010-12-08 18:26:03,4052.0290245352858,2,18,0.550297200679779,4.094265460968018,16.33426061028691,15.701221853242028,65.47331567922913,56.91216235273548,9.70840483205393e-05,0.0955438911914825,0,0,0
5364,193965.35509079832,2010-12-08 18:26:34,4082.0440637058377,2,18,0.550297200679779,4.097179412841797,16.3388476973792,15.701221853242028,65.49210314328373,56.91216235273548,9.70840483205393e-05,0.0955438911914825,0,0,0
5365,193995.37024298013,2010-12-08 18:27:04,4112.059215867563,2,18,0.5501165986061096,4.100255489349365,16.343434838701413,15.701221853242028,65.5109046096594,56.91216235273548,6.47544875391759e-05,0.0955438911914825,0,0,0
5366,194025.3853979187,2010-12-08 18:27:34,4142.074370821236,2,18,0.550297200679779,4.103331089019775,16.348022039428308,15.701221853242028,65.52972010567062,56.91216235273548,6.47544875391759e-05,0.0955438911914825,0,0,0
5367,194055.400185418,2010-12-08 18:28:04,4172.089158305475,2,18,0.5501165986061096,4.106407165527344,16.35260917838181,15.701221853242028,65.54854935302608,56.91216235273548,9.71794142969884e-05,0.0955438911914825,0,0,0
5368,194085.4152073356,2010-12-08 18:28:34,4202.104180223093,2,18,0.5501165986061096,4.109321117401123,16.357196393284642,15.701221853242028,65.56739305460316,56.91216235273548,6.47544875391759e-05,0.0955438911914825,0,0,0
5369,194115.43041285512,2010-12-08 18:29:04,4232.119385822797,2,18,0.550297200679779,4.112396717071533,16.36178365807609,15.701221853242028,65.58625117323533,56.91216235273548,3.23295607813634e-05,0.0955438911914825,0,0,0
5370,194145.4448657267,2010-12-08 18:29:34,4262.133838313419,2,18,0.5501165986061096,4.115634441375732,16.36637074043802,15.701221853242028,65.60512278907149,56.91216235273548,6.47544875391759e-05,0.0955438911914825,0,0,0
5371,194175.46036337316,2010-12-08 18:30:04,4292.149336330792,2,18,0.5504778623580933,4.118872165679932,16.370958030375633,15.701221853242028,65.62400980938695,56.91216235273548,6.47544875391759e-05,0.0955438911914825,0,0,0
5372,194205.4753368853,2010-12-08 18:30:34,4322.164309772781,2,18,0.5501165986061096,4.122109889984131,16.37554519391534,15.701221853242028,65.64291093851703,56.91216235273548,9.71794142969884e-05,0.0955438911914825,0,0,0
5373,194235.4903858252,2010-12-08 18:31:04,4352.179358717654,2,18,0.5501165986061096,4.12534761428833,16.380132390050253,15.701221853242028,65.66182693946199,56.91216235273548,9.71794142969884e-05,0.0955438911914825,0,0,0
5374,194265.50885031951,2010-12-08 18:31:34,4382.197823297205,2,18,0.5501165986061096,4.12842321395874,16.384720129942117,15.701221853242028,65.68075998665849,56.91216235273548,9.70840483205393e-05,0.0955438911914825,0,0,0
5375,194295.5204502817,2010-12-08 18:32:04,4412.20942317922,2,18,0.550297200679779,4.13166093826294,16.38930677891491,15.701221853242028,65.69970344011303,56.91216235273548,6.47544875391759e-05,0.0955438911914825,0,0,0
5376,194325.535451568,2010-12-08 18:32:34,4442.224424540684,2,18,0.5501165986061096,4.135222434997559,16.393893985219975,15.701221853242028,65.71866429103802,56.91216235273548,0.0001618385285837,0.0955438911914825,0,0,0
5377,194355.5504799016,2010-12-08 18:33:04,4472.2394527890565,2,18,0.550297200679779,4.138460159301758,16.398481165434223,15.701221853242028,65.73764027536004,56.91216235273548,9.70840483205393e-05,0.0955438911914825,0,0,0
5378,194385.5656938972,2010-12-08 18:33:34,4502.254666804702,2,18,0.5501165986061096,4.141860008239746,16.403068453261263,15.701221853242028,65.75663202198184,56.91216235273548,9.71794142969884e-05,0.0955438911914825,0,0,0
5379,194415.58059701417,2010-12-08 18:34:04,4532.269569901639,2,18,0.550297200679779,4.145421504974365,16.407655672090215,15.701221853242028,65.77563906556101,56.91216235273548,0.0001295089750783,0.0955438911914825,0,0,0
5380,194445.595654796,2010-12-08 18:34:34,4562.284627708567,2,18,0.5501165986061096,4.1486592292785645,16.412242821017845,15.701221853242028,65.79466171209661,56.91216235273548,9.71794142969884e-05,0.0955438911914825,0,0,0
5381,194475.6106019376,2010-12-08 18:35:04,4592.299574825046,2,18,0.5501165986061096,4.1520586013793945,16.416830017290987,15.701221853242028,65.81370023401715,56.91216235273548,9.70840483205393e-05,0.0955438911914825,0,0,0
5382,194505.62899354057,2010-12-08 18:35:34,4622.317966518221,2,18,0.550297200679779,4.155620098114014,16.42141768984975,15.701221853242028,65.83275654878815,56.91216235273548,0.0001295089750783,0.0955438911914825,0,0,0
5383,194535.64068542147,2010-12-08 18:36:04,4652.329658328996,2,18,0.5501165986061096,4.159019947052002,16.42600431378489,15.701221853242028,65.8518244716787,56.91216235273548,6.47544875391759e-05,0.0955438911914825,0,0,0
5384,194565.655693645,2010-12-08 18:36:34,4682.3446665375,2,18,0.550297200679779,4.162581443786621,16.430591486391187,15.701221853242028,65.8709106901858,56.91216235273548,9.71794142969884e-05,0.0955438911914825,0,0,0
5385,194595.67073065016,2010-12-08 18:37:04,4712.359703557699,2,18,0.5499359965324402,4.165980815887451,16.43517865647282,15.701221853242028,65.89001296369997,56.91216235273548,9.70840483205393e-05,0.0955438911914825,0,0,0
5386,194625.68577714896,2010-12-08 18:37:34,4742.374750056487,2,18,0.550297200679779,4.169704437255859,16.439765826981763,15.701221853242028,65.9091315041958,56.91216235273548,0.0001295089750783,0.0955438911914825,0,0,0
5387,194655.7008480635,2010-12-08 18:38:04,4772.389821031181,2,18,0.5501165986061096,4.1731038093566895,16.444352955160642,15.701221853242028,65.92826614783507,56.91216235273548,9.70840483205393e-05,0.0955438911914825,0,0,0
5388,194685.7160189017,2010-12-08 18:38:34,4802.404991879407,2,18,0.5501165986061096,4.176827430725098,16.448940094793013,15.701221853242028,65.94741724950092,56.91216235273548,9.71794142969884e-05,0.0955438911914825,0,0,0
5389,194715.730892415,2010-12-08 18:39:04,4832.419865302503,2,18,0.550297200679779,4.180550575256348,16.453527223185493,15.701221853242028,65.96658485239533,56.91216235273548,0.0001295089750783,0.0955438911914825,0,0,0
5390,194745.74588869885,2010-12-08 18:39:34,4862.434861601369,2,18,0.5501165986061096,4.183950424194336,16.4581143841745,15.701221853242028,65.98576927607053,56.91216235273548,9.71794142969884e-05,0.0955438911914825,0,0,0
5391,194775.76090286212,2010-12-08 18:40:04,4892.449875764692,2,18,0.5501165986061096,4.187673568725586,16.46270151957315,15.701221853242028,66.00497029299436,56.91216235273548,9.70840483205393e-05,0.0955438911914825,0,0,0
5392,194805.77595310027,2010-12-08 18:40:34,4922.464926007796,2,18,0.5501165986061096,4.191235065460205,16.46728862632998,15.701221853242028,66.02418803986647,56.91216235273548,6.47544875391759e-05,0.0955438911914825,0,0,0
5393,194835.79096036643,2010-12-08 18:41:04,4952.479933268942,2,18,0.550297200679779,4.195120334625244,16.47187579259366,15.701221853242028,66.04342304678626,56.91216235273548,9.70840483205393e-05,0.0955438911914825,0,0,0
5394,194865.8060284489,2010-12-08 18:41:34,4982.49500135144,2,18,0.550297200679779,4.198843479156494,16.47646300257605,15.701221853242028,66.0626752228989,56.91216235273548,0.0001295089750783,0.0955438911914825,0,0,0
5395,194873.6184826908,2010-12-08 18:41:42,4990.307455673542,2,18,0.550297200679779,4.200138568878174,16.477656985405833,15.701221853242028,66.06768912200431,56.91216235273548,0.0001618385285837,0.0955438911914825,0,0,0
5396,194903.62847716268,2010-12-08 18:42:12,30.01485890697235,3,18,0.0,4.107702255249023,16.477656985405833,15.701221853242028,66.06768912200431,56.91216235273548,-0.0004208564641885,0.0955438911914825,0,0,0
5397,194933.64336350287,2010-12-08 18:42:42,60.02974524721133,3,18,0.0,4.096208095550537,16.477656985405833,15.701221853242028,66.06768912200431,56.91216235273548,-0.0002266883820993,0.0955438911914825,0,0,0
5398,194963.65838196696,2010-12-08 18:43:12,90.04476371624773,3,18,0.0,4.089085102081299,16.477656985405833,15.701221853242028,66.06768912200431,56.91216235273548,-0.0001942634553415,0.0955438911914825,0,0,0
5399,194993.6265339004,2010-12-08 18:43:42,120.01291564470048,3,18,0.0,4.08455228805542,16.477656985405833,15.701221853242028,66.06768912200431,56.91216235273548,-6.47544875391759e-05,0.0955438911914825,0,0,0
5400,194993.63978741376,2010-12-08 18:43:42,0.01559746870096,4,18,1.0052520036697388,4.199814796447754,16.4776613407908,15.701221853242028,66.06770741381452,56.91216235273548,0.0,0.0955438911914825,0,0,0
5401,194994.45260080864,2010-12-08 18:43:43,0.828410888634409,4,18,0.9548619985580444,4.199814796447754,16.47788104514695,15.701221853242028,66.06863013438318,56.91216235273548,0.0,0.0955438911914825,0,0,0
5402,194996.4678819031,2010-12-08 18:43:45,2.84369197811477,4,18,0.9046525955200196,4.199814796447754,16.47840058032853,15.701221853242028,66.07081208671002,56.91216235273548,0.0,0.0955438911914825,0,0,0
5403,194999.54592553133,2010-12-08 18:43:48,5.921735596272263,4,18,0.8544432520866394,4.199814796447754,16.47915152478609,15.701221853242028,66.07396592222211,56.91216235273548,-3.24249267578125e-05,0.0955438911914825,0,0,0
5404,195003.76464334835,2010-12-08 18:43:52,10.140453503526082,4,18,0.8040532469749451,4.199814796447754,16.48012213199874,15.701221853242028,66.07804230470785,56.91216235273548,0.0,0.0955438911914825,0,0,0
5405,195009.37390027347,2010-12-08 18:43:58,15.74971032839412,4,18,0.7538439035415649,4.199814796447754,16.481334404065052,15.701221853242028,66.08313364685264,56.91216235273548,0.0,0.0955438911914825,0,0,0
5406,195016.63947240528,2010-12-08 18:44:05,23.015282540398605,4,18,0.7038151025772095,4.199976921081543,16.48280299088089,15.701221853242028,66.08930148568274,56.91216235273548,3.24249267578125e-05,0.0955438911914825,0,0,0
5407,195026.23655737707,2010-12-08 18:44:15,32.61236754731967,4,18,0.6536057591438293,4.199814796447754,16.484609191745893,15.701221853242028,66.0968872620035,56.91216235273548,0.0,0.0955438911914825,0,0,0
5408,195039.7327639932,2010-12-08 18:44:28,46.10857404811203,4,18,0.6035769581794739,4.199814796447754,16.486960768769784,15.701221853242028,66.10676354392753,56.91216235273548,-3.24249267578125e-05,0.0955438911914825,0,0,0
5409,195060.12285588263,2010-12-08 18:44:49,66.49866596260695,4,18,0.5535482168197632,4.199814796447754,16.490227431249817,15.701221853242028,66.12048305014702,56.91216235273548,0.0,0.0955438911914825,0,0,0
5410,195095.24725353523,2010-12-08 18:45:24,101.62306360018972,4,18,0.5033388137817383,4.199814796447754,16.495361567647528,15.701221853242028,66.14204568785233,56.91216235273548,0.0,0.0955438911914825,0,0,0
5411,195161.5584334861,2010-12-08 18:46:30,167.93424355106745,4,18,0.4533100426197052,4.199814796447754,16.50413444591017,15.701221853242028,66.17889047419699,56.91216235273548,-3.24249267578125e-05,0.0955438911914825,0,0,0
5412,195266.10337758853,2010-12-08 18:48:15,272.4791877437316,4,18,0.4032812714576721,4.199814796447754,16.51654728793165,15.701221853242028,66.23102256792117,56.91216235273548,3.23295607813634e-05,0.0955438911914825,0,0,0
5413,195397.69429367705,2010-12-08 18:50:26,404.0701037570416,4,18,0.3530718982219696,4.199653148651123,16.530359395080442,15.701221853242028,66.28903120250976,56.91216235273548,0.0,0.0955438911914825,0,0,0
5414,195557.5661399075,2010-12-08 18:53:06,563.9419499874688,4,18,0.3030431270599365,4.199814796447754,16.544911671208894,15.701221853242028,66.35014837048713,56.91216235273548,0.0,0.0955438911914825,0,0,0
5415,195748.5782234808,2010-12-08 18:56:17,754.9540335457851,4,18,0.2530143558979034,4.199653148651123,16.559631388408793,15.701221853242028,66.41196902929867,56.91216235273548,0.0,0.0955438911914825,0,0,0
5416,195983.5735595764,2010-12-08 19:00:12,989.9493696564142,4,18,0.2029855847358703,4.199653148651123,16.574471021677358,15.701221853242028,66.47429334357273,56.91216235273548,-3.23295607813634e-05,0.0955438911914825,0,0,0
5417,196295.92652794963,2010-12-08 19:05:24,1302.3023380246227,4,18,0.1529568135738372,4.199976921081543,16.58982720025181,15.701221853242028,66.53878711448168,56.91216235273548,0.0,0.0955438911914825,0,0,0
5418,196756.05816278057,2010-12-08 19:13:05,1762.433972845504,4,18,0.1029280424118042,4.199814796447754,16.605966508773296,15.701221853242028,66.60656986279474,56.91216235273548,0.0,0.0955438911914825,0,0,0
5419,197660.0558789932,2010-12-08 19:28:09,2666.431689068181,4,18,0.0528992749750614,4.199814796447754,16.624721931883194,15.701221853242028,66.68533983207297,56.91216235273548,0.0,0.0955438911914825,0,0,0
5420,197748.4132534161,2010-12-08 19:29:37,2754.7890634810474,4,18,0.0496483072638511,4.199814796447754,16.625992269831475,15.701221853242028,66.69067505975671,56.91216235273548,0.0,0.0955438911914825,0,0,0
5421,197778.4338296744,2010-12-08 19:30:07,30.0151345077944,5,18,0.0,4.191235065460205,16.625992269831475,15.701221853242028,66.69067505975671,56.91216235273548,-3.24249267578125e-05,0.0955438911914825,0,0,0
5422,197808.43328704525,2010-12-08 19:30:37,60.01459187863646,5,18,0.0,4.1901021003723145,16.625992269831475,15.701221853242028,66.69067505975671,56.91216235273548,0.0,0.0955438911914825,0,0,0
5423,197808.62730051324,2010-12-08 19:30:37,0.187554020967562,6,18,-1.9243103452026844e-05,4.1896162033081055,16.625992269831475,15.70122185424456,66.69067505975671,56.91216235693571,0.0,0.0986935049295425,0,0,0
5424,197813.45541383253,2010-12-08 19:30:42,5.015667345278443,6,18,0.0007031940040178,4.189939975738525,16.625993357522166,15.701221854329011,66.69067961720219,56.91216235728954,-3.24249267578125e-05,0.0986935049295425,0,0,0
5425,197843.47700870165,2010-12-08 19:31:12,30.015054243058685,7,18,-1.0997490882873535,3.99826717376709,16.625993357522166,15.710389213978244,66.69067961720219,56.94903377495657,-0.0010684967273846,0.0986935049295425,0,0,0
5426,197873.49528036616,2010-12-08 19:31:42,60.03332591255933,7,18,-1.099568486213684,3.968318462371826,16.625993357522166,15.719557485177992,66.69067961720219,56.98554507501625,-0.0006799221155233,0.0986935049295425,0,0,0
5427,197903.50700229185,2010-12-08 19:32:12,90.04504776308738,7,18,-1.099568486213684,3.9472732543945312,16.625993357522166,15.72872368693962,66.69067961720219,57.0218187523986,-0.0005180359003134,0.0986935049295425,0,0,0
5428,197933.52197775387,2010-12-08 19:32:42,120.06002332033944,7,18,-1.099568486213684,3.931084632873535,16.625993357522166,15.7378908554641,66.69067961720219,57.05792775629759,-0.0003885269106831,0.0986935049295425,0,0,0
5429,197963.53719319307,2010-12-08 19:33:12,150.07523866429153,7,18,-1.099568486213684,3.917324304580689,16.625993357522166,15.747058204769138,66.69067961720219,57.09390089847455,-0.0003237724304199,0.0986935049295425,0,0,0
5430,197993.55211633487,2010-12-08 19:33:42,180.09016180610982,7,18,-1.099568486213684,3.905021190643311,16.625993357522166,15.75622544480345,66.69067961720219,57.12975463815373,-0.0003237724304199,0.0986935049295425,0,0,0
5431,198023.5671295759,2010-12-08 19:34:12,210.10517504713653,7,18,-1.0993878841400146,3.8938510417938232,16.625993357522166,15.765392663503908,66.69067961720219,57.165500778963725,-0.0002913951757363,0.0986935049295425,0,0,0
5432,198053.5821609671,2010-12-08 19:34:42,240.1202064383292,7,18,-1.0993878841400146,3.883166551589966,16.625993357522166,15.774559873022222,66.69067961720219,57.20114669253521,-0.0002590179501567,0.0986935049295425,0,0,0
5433,198083.5973526472,2010-12-08 19:35:12,270.1353981183946,7,18,-1.0993878841400146,3.8729677200317374,16.625993357522166,15.783727201650144,66.69067961720219,57.23669731383185,-0.0002266406954731,0.0986935049295425,0,0,0
5434,198113.61243150648,2010-12-08 19:35:42,300.1504769777099,7,18,-1.0993878841400146,3.8632545471191406,16.625993357522166,15.792894485731717,66.69067961720219,57.272156628639706,-0.0002266406954731,0.0986935049295425,0,0,0
5435,198143.6273269594,2010-12-08 19:36:12,330.16537243563795,7,18,-1.099568486213684,3.853379487991333,16.625993357522166,15.802061682686992,66.69067961720219,57.3075277584487,-0.0002913951757363,0.0986935049295425,0,0,0
5436,198173.64254251888,2010-12-08 19:36:42,360.1805880803384,7,18,-1.0993878841400146,3.844475746154785,16.625993357522166,15.811228974815924,66.69067961720219,57.34281393092324,-0.0002266406954731,0.0986935049295425,0,0,0
5437,198203.6573049959,2010-12-08 19:37:12,390.195350467124,7,18,-1.099568486213684,3.835572004318237,16.625993357522166,15.820396161218827,66.69067961720219,57.3780166261637,-0.0002266406954731,0.0986935049295425,0,0,0
5438,198233.67235801087,2010-12-08 19:37:42,420.21040348212665,7,18,-1.0997490882873535,3.826992273330689,16.625993357522166,15.82956346184984,66.69067961720219,57.41313949821829,-0.0002266406954731,0.0986935049295425,0,0,0
5439,198263.68737148755,2010-12-08 19:38:12,450.2254169437022,7,18,-1.099568486213684,3.8185741901397705,16.625993357522166,15.838730721540337,66.69067961720219,57.44818382737943,-0.0002266406954731,0.0986935049295425,0,0,0
5440,198293.70242378075,2010-12-08 19:38:43,480.24046934217074,7,18,-1.0997490882873535,3.810156106948853,16.625993357522166,15.847897966596928,66.69067961720219,57.48315122545788,-0.0002590179501567,0.0986935049295425,0,0,0
5441,198323.7179871808,2010-12-08 19:39:13,510.25603270715976,7,18,-1.099568486213684,3.801899909973145,16.625993357522166,15.857065436098145,66.69067961720219,57.51804376210311,-0.0002590179501567,0.0986935049295425,0,0,0
5442,198353.73277748207,2010-12-08 19:39:43,540.2708230234468,7,18,-1.099568486213684,3.7941293716430655,16.625993357522166,15.86623259935334,66.69067961720219,57.55286161042913,-0.0001942634553415,0.0986935049295425,0,0,0
5443,198383.7475390969,2010-12-08 19:40:13,570.2855845631243,7,18,-1.0993878841400146,3.786035060882568,16.625993357522166,15.875399808347511,66.69067961720219,57.58760707036844,-0.0002590179501567,0.0986935049295425,0,0,0
5444,198413.76261190115,2010-12-08 19:40:43,600.3006573623595,7,18,-1.099568486213684,3.77858829498291,16.625993357522166,15.884567074337005,66.69067961720219,57.622281750287705,-0.0001942634553415,0.0986935049295425,0,0,0
5445,198443.77754419576,2010-12-08 19:41:13,630.315589666979,7,18,-1.0993878841400146,3.771303415298462,16.625993357522166,15.893734375438148,66.69067961720219,57.65688725090364,-0.0001942634553415,0.0986935049295425,0,0,0
5446,198473.79259595263,2010-12-08 19:41:43,660.3306414138259,7,18,-1.099568486213684,3.763856649398804,16.625993357522166,15.902901726685585,66.69067961720219,57.691425542011466,-0.0001942634553415,0.0986935049295425,0,0,0
5447,198503.8076079305,2010-12-08 19:42:13,690.3456534017344,7,18,-1.0997490882873535,3.756733655929565,16.625993357522166,15.912069053314749,66.69067961720219,57.72589810703444,-0.0002266406954731,0.0986935049295425,0,0,0
5448,198533.82275313497,2010-12-08 19:42:43,720.3607986963714,7,18,-1.099568486213684,3.749934673309326,16.625993357522166,15.921236469278934,66.69067961720219,57.76030733329581,-0.0001942634553415,0.0986935049295425,0,0,0
5449,198563.83766991596,2010-12-08 19:43:13,750.3757153871364,7,18,-1.099568486213684,3.743135452270508,16.625993357522166,15.930403762919727,66.69067961720219,57.794653057470896,-0.0001618862152099,0.0986935049295425,0,0,0
5450,198593.8560854434,2010-12-08 19:43:43,780.3941309847968,7,18,-1.099568486213684,3.7364981174468994,16.625993357522166,15.939572075343971,66.69067961720219,57.82894055699207,-0.0001618862152099,0.0986935049295425,0,0,0
5451,198623.867771956,2010-12-08 19:44:13,810.4058174272132,7,18,-1.0993878841400146,3.730022668838501,16.625993357522166,15.948738378967962,66.69067961720219,57.86315989240863,-0.0001942634553415,0.0986935049295425,0,0,0
5452,198653.8829602426,2010-12-08 19:44:43,840.4210057890211,7,18,-1.099568486213684,3.723547220230103,16.625993357522166,15.957905729080911,66.69067961720219,57.89732417287172,-0.0001942634553415,0.0986935049295425,0,0,0
5453,198683.8978460315,2010-12-08 19:45:13,870.4358914876635,7,18,-1.099568486213684,3.717233657836914,16.625993357522166,15.967073034413684,66.69067961720219,57.93143037136112,-0.0001942634553415,0.0986935049295425,0,0,0
5454,198713.9128444055,2010-12-08 19:45:43,900.4508898616943,7,18,-1.099568486213684,3.711081981658936,16.625993357522166,15.976240384840128,66.69067961720219,57.965479311319584,-0.0001618862152099,0.0986935049295425,0,0,0
5455,198743.92788625773,2010-12-08 19:46:13,930.4659317289564,7,18,-1.0993878841400146,3.705092191696167,16.625993357522166,15.985407729395773,66.69067961720219,57.99947191843353,-0.0001618862152099,0.0986935049295425,0,0,0
5456,198773.94288644125,2010-12-08 19:46:43,960.4809318974524,7,18,-1.0993878841400146,3.6991024017333984,16.625993357522166,15.994575113918456,66.69067961720219,58.03340951730679,-0.0001618862152099,0.0986935049295425,0,0,0
5457,198803.9579052712,2010-12-08 19:47:13,990.4959507424244,7,18,-1.099568486213684,3.69327449798584,16.625993357522166,16.003742464702505,66.69067961720219,58.06729275508473,-9.713172767078504e-05,0.0986935049295425,0,0,0
5458,198833.9761546352,2010-12-08 19:47:43,1020.5142001816058,7,18,-1.099568486213684,3.6872847080230713,16.625993357522166,16.01291090407186,66.69067961720219,58.101126467079965,-0.0001295089750783,0.0986935049295425,0,0,0
5459,198863.9880793305,2010-12-08 19:48:13,1050.5261248769052,7,18,-1.099568486213684,3.6817805767059326,16.625993357522166,16.02207728007229,66.69067961720219,58.1349001751498,-0.0001295089750783,0.0986935049295425,0,0,0
5460,198894.0030105725,2010-12-08 19:48:43,1080.5410561389303,7,18,-1.099568486213684,3.675952672958374,16.625993357522166,16.03124470518305,66.69067961720219,58.16862568902154,-0.0001942634553415,0.0986935049295425,0,0,0
5461,198924.01845338743,2010-12-08 19:49:13,1110.5564988436613,7,18,-1.0993878841400146,3.6704487800598153,16.625993357522166,16.04041221811536,66.69067961720219,58.20230025229898,-0.0001942634553415,0.0986935049295425,0,0,0
5462,198954.03320215532,2010-12-08 19:49:43,1140.5712476115564,7,18,-1.099568486213684,3.664782762527466,16.625993357522166,16.04957948730531,66.69067961720219,58.23592345196244,-0.0001942634553415,0.0986935049295425,0,0,0
5463,198984.04842716336,2010-12-08 19:50:13,1170.586472724819,7,18,-1.099568486213684,3.659764289855957,16.625993357522166,16.058746899116073,66.69067961720219,58.26949729889753,-0.0001295089750783,0.0986935049295425,0,0,0
5464,199014.06323893304,2010-12-08 19:50:43,1200.6012844042675,7,18,-1.099568486213684,3.654422044754028,16.625993357522166,16.067914202619903,66.69067961720219,58.30302184239282,-9.713172767078504e-05,0.0986935049295425,0,0,0
5465,199044.07815391457,2010-12-08 19:51:13,1230.6161993857793,7,18,-1.0993878841400146,3.6490797996521,16.625993357522166,16.077081575016965,66.69067961720219,58.33649859470081,-0.0001295089750783,0.0986935049295425,0,0,0
5466,199074.0931931904,2010-12-08 19:51:43,1260.6312386465547,7,18,-1.099568486213684,3.643899440765381,16.625993357522166,16.086248899780376,66.69067961720219,58.36992769132256,-0.0001295089750783,0.0986935049295425,0,0,0
5467,199104.10833568804,2010-12-08 19:52:13,1290.6463811592696,7,18,-1.099568486213684,3.638719081878662,16.625993357522166,16.095416272518047,66.69067961720219,58.40331028951817,-0.0001618862152099,0.0986935049295425,0,0,0
5468,199134.12327123573,2010-12-08 19:52:43,1320.6613166919217,7,18,-1.099568486213684,3.6338624954223633,16.625993357522166,16.104583532347498,66.69067961720219,58.43664696288275,-0.0001618862152099,0.0986935049295425,0,0,0
5469,199164.138287389,2010-12-08 19:53:13,1350.6763328652455,7,18,-1.0993878841400146,3.6291677951812735,16.625993357522166,16.11375084436875,66.69067961720219,58.46993883166834,-0.0001295089750783,0.0986935049295425,0,0,0
5470,199194.1534964273,2010-12-08 19:53:43,1380.691541883456,7,18,-1.099568486213684,3.6244730949401855,16.625993357522166,16.12291820682648,66.69067961720219,58.50318630185145,-9.713172767078504e-05,0.0986935049295425,0,0,0
5471,199224.16846426032,2010-12-08 19:54:13,1410.7065097365369,7,18,-1.0997490882873535,3.6194546222686768,16.625993357522166,16.13208549965778,66.69067961720219,58.53638980293473,-0.0001295089750783,0.0986935049295425,0,0,0
5472,199254.1833618836,2010-12-08 19:54:43,1440.7214073648656,7,18,-1.0993878841400146,3.614921808242798,16.625993357522166,16.14125280733896,66.69067961720219,58.569550575086886,-0.0001295089750783,0.0986935049295425,0,0,0
5473,199284.198510291,2010-12-08 19:55:13,1470.7365557471862,7,18,-1.099568486213684,3.610550880432129,16.625993357522166,16.150420205083126,66.69067961720219,58.60266998407222,-9.713172767078504e-05,0.0986935049295425,0,0,0
5474,199314.2137906768,2010-12-08 19:55:43,1500.7518361530422,7,18,-1.099568486213684,3.60601806640625,16.625993357522166,16.15958762473297,66.69067961720219,58.63574828049214,-0.0001618862152099,0.0986935049295425,0,0,0
5475,199344.22848818213,2010-12-08 19:56:13,1530.7665337285475,7,18,-1.0993878841400146,3.601809024810791,16.625993357522166,16.16875486479735,66.69067961720219,58.6687857389034,-0.0001295089750783,0.0986935049295425,0,0,0
5476,199374.24363661456,2010-12-08 19:56:43,1560.7816820707685,7,18,-1.099568486213684,3.597599983215332,16.625993357522166,16.177922243051572,66.69067961720219,58.70178443929529,-9.713172767078504e-05,0.0986935049295425,0,0,0
5477,199404.25872774943,2010-12-08 19:57:13,1590.796773300868,7,18,-1.099568486213684,3.593390941619873,16.625993357522166,16.187089618748537,66.69067961720219,58.73474519368192,-0.0001295089750783,0.0986935049295425,0,0,0
5478,199434.27353177484,2010-12-08 19:57:43,1620.8115772310323,7,18,-1.099568486213684,3.589344024658203,16.625993357522166,16.1962570074235,66.69067961720219,58.76766880340487,-0.0001295089750783,0.0986935049295425,0,0,0
5479,199464.2887163472,2010-12-08 19:58:13,1650.8267618735854,7,18,-1.099568486213684,3.585458755493164,16.625993357522166,16.205424415428688,66.69067961720219,58.80055619945048,-9.713172767078504e-05,0.0986935049295425,0,0,0
5480,199494.30372452567,2010-12-08 19:58:43,1680.8417700520142,7,18,-1.0993878841400146,3.581573486328125,16.625993357522166,16.214591700310013,66.69067961720219,58.83340731295044,-9.713172767078504e-05,0.0986935049295425,0,0,0
5481,199524.31904260023,2010-12-08 19:59:13,1710.8570880814952,7,18,-1.0997490882873535,3.577850103378296,16.625993357522166,16.223759121728154,66.69067961720219,58.8662245635073,-9.713172767078504e-05,0.0986935049295425,0,0,0
5482,199554.33381137796,2010-12-08 19:59:43,1740.8718568391344,7,18,-1.0993878841400146,3.5742886066436768,16.625993357522166,16.232926400406058,66.69067961720219,58.89900746872039,-6.47544875391759e-05,0.0986935049295425,0,0,0
5483,199584.34871914148,2010-12-08 20:00:13,1770.8867646177218,7,18,-1.099568486213684,3.5707271099090576,16.625993357522166,16.242093685399933,66.69067961720219,58.93175727948848,-6.47544875391759e-05,0.0986935049295425,0,0,0
5484,199614.36381498308,2010-12-08 20:00:43,1800.9018605244592,7,18,-1.0993878841400146,3.5673274993896484,16.625993357522166,16.251261097014275,66.69067961720219,58.96447537998111,-0.0001295089750783,0.0986935049295425,0,0,0
5485,199644.37874919243,2010-12-08 20:01:13,1830.9167946486064,7,18,-1.0993878841400146,3.56360411643982,16.625993357522166,16.260428356357984,66.69067961720219,58.997161346857325,-9.713172767078504e-05,0.0986935049295425,0,0,0
5486,199674.393956762,2010-12-08 20:01:43,1860.932002288387,7,18,-1.099568486213684,3.56036639213562,16.625993357522166,16.269595731943802,66.69067961720219,59.029816527572976,-6.47544875391759e-05,0.0986935049295425,0,0,0
5487,199704.40881806496,2010-12-08 20:02:13,1890.9468635211467,7,18,-1.0993878841400146,3.556966781616211,16.625993357522166,16.27876302487304,66.69067961720219,59.06244022302844,-9.713172767078504e-05,0.0986935049295425,0,0,0
5488,199734.42390056836,2010-12-08 20:02:43,1920.9619460245303,7,18,-1.0993878841400146,3.553729057312012,16.625993357522166,16.287930421649342,66.69067961720219,59.09503353656659,-9.713172767078504e-05,0.0986935049295425,0,0,0
5489,199764.43897861065,2010-12-08 20:03:13,1950.9770240868625,7,18,-1.0993878841400146,3.5503294467926025,16.625993357522166,16.29709775748968,66.69067961720219,59.12759672576362,-0.0001295089750783,0.0986935049295425,0,0,0
5490,199794.4573330812,2010-12-08 20:03:43,1980.9953786275848,7,18,-1.099568486213684,3.5472536087036133,16.625993357522166,16.306266129100237,66.69067961720219,59.16013390368532,-9.713172767078504e-05,0.0986935049295425,0,0,0
5491,199824.46907528737,2010-12-08 20:04:13,2011.0071208137167,7,18,-1.099568486213684,3.544015884399414,16.625993357522166,16.315432545088424,66.69067961720219,59.19263413784363,-6.47544875391759e-05,0.0986935049295425,0,0,0
5492,199854.48395892588,2010-12-08 20:04:43,2041.0220043820584,7,18,-1.099568486213684,3.540616273880005,16.625993357522166,16.324599878555027,66.69067961720219,59.22510783681073,-9.713172767078504e-05,0.0986935049295425,0,0,0
5493,199884.49912008,2010-12-08 20:05:13,2071.037165536161,7,18,-1.0993878841400146,3.537540435791016,16.625993357522166,16.33376727107052,66.69067961720219,59.25755191342229,-6.47544875391759e-05,0.0986935049295425,0,0,0
5494,199914.51404798368,2010-12-08 20:05:43,2101.0520934448414,7,18,-1.099568486213684,3.5341408252716064,16.625993357522166,16.342934630445228,66.69067961720219,59.289965955681474,-9.713172767078504e-05,0.0986935049295425,0,0,0
5495,199944.52919892737,2010-12-08 20:06:13,2131.067244398561,7,18,-1.0993878841400146,3.5309031009674072,16.625993357522166,16.352102039956893,66.69067961720219,59.322350295022886,-9.713172767078504e-05,0.0986935049295425,0,0,0
5496,199974.5440767213,2010-12-08 20:06:43,2161.0821221774954,7,18,-1.099568486213684,3.527503490447998,16.625993357522166,16.36126929040564,66.69067961720219,59.35470365375415,-9.713172767078504e-05,0.0986935049295425,0,0,0
5497,200004.55918182596,2010-12-08 20:07:13,2191.097227282122,7,18,-1.0993878841400146,3.524265766143799,16.625993357522166,16.370436667966803,66.69067961720219,59.3870264992161,-6.47544875391759e-05,0.0986935049295425,0,0,0
5498,200034.57433214303,2010-12-08 20:07:43,2221.1123776744435,7,18,-1.099568486213684,3.52070426940918,16.625993357522166,16.379604031119523,66.69067961720219,59.41931783486911,-9.713172767078504e-05,0.0986935049295425,0,0,0
5499,200064.58937557923,2010-12-08 20:08:13,2251.127421040436,7,18,-1.0997490882873535,3.5169808864593506,16.625993357522166,16.38877134114478,66.69067961720219,59.45157702324641,-0.0001295089750783,0.0986935049295425,0,0,0
5500,200094.60419595032,2010-12-08 20:08:43,2281.1422414065,7,18,-1.099568486213684,3.5135812759399414,16.625993357522166,16.397938548821987,66.69067961720219,59.48380320687463,-6.47544875391759e-05,0.0986935049295425,0,0,0
5501,200124.6192904836,2010-12-08 20:09:13,2311.157335954857,7,18,-1.099568486213684,3.509696245193481,16.625993357522166,16.407105937878544,66.69067961720219,59.51599601246112,-9.713172767078504e-05,0.0986935049295425,0,0,0
5502,200154.63426542436,2010-12-08 20:09:43,2341.172310895575,7,18,-1.099568486213684,3.5059728622436523,16.625993357522166,16.41627327362223,66.69067961720219,59.5481538096156,-9.713172767078504e-05,0.0986935049295425,0,0,0
5503,200184.649278896,2010-12-08 20:10:13,2371.1873243521377,7,18,-1.099568486213684,3.5019257068634038,16.625993357522166,16.42544069341816,66.69067961720219,59.58027647913938,-9.713172767078504e-05,0.0986935049295425,0,0,0
5504,200214.6643280363,2010-12-08 20:10:44,2401.2023735125485,7,18,-1.0993878841400146,3.4978785514831543,16.625993357522166,16.43460805666711,66.69067961720219,59.61236126856841,-9.713172767078504e-05,0.0986935049295425,0,0,0
5505,200244.67958111412,2010-12-08 20:11:14,2431.217626555313,7,18,-1.099568486213684,3.4933457374572754,16.625993357522166,16.44377549942283,66.69067961720219,59.64440702444672,-9.713172767078504e-05,0.0986935049295425,0,0,0
5506,200274.69483953028,2010-12-08 20:11:44,2461.2328849864857,7,18,-1.099568486213684,3.4886510372161865,16.625993357522166,16.452942911577527,66.69067961720219,59.676410810497735,-0.0001295089750783,0.0986935049295425,0,0,0
5507,200304.70958492983,2010-12-08 20:12:14,2491.247630466198,7,18,-1.099568486213684,3.483470678329468,16.625993357522166,16.462110200042886,66.69067961720219,59.70836863577606,-0.0001295089750783,0.0986935049295425,0,0,0
5508,200334.7246566714,2010-12-08 20:12:44,2521.262702212814,7,18,-1.0993878841400146,3.477966547012329,16.625993357522166,16.471277526393166,66.69067961720219,59.74027740552173,-0.0001618862152099,0.0986935049295425,0,0,0
5509,200364.7394512784,2010-12-08 20:13:14,2551.2774967345667,7,18,-1.099568486213684,3.4716529846191406,16.625993357522166,16.480444728247154,66.69067961720219,59.772131688012834,-0.0001618862152099,0.0986935049295425,0,0,0
5510,200394.7544972208,2010-12-08 20:13:44,2581.2925426769693,7,18,-1.099568486213684,3.4646918773651123,16.625993357522166,16.489612014811346,66.69067961720219,59.803926607073215,-0.0002590179501567,0.0986935049295425,0,0,0
5511,200424.76953137887,2010-12-08 20:14:14,2611.30757684006,7,18,-1.099568486213684,3.456921339035034,16.625993357522166,16.498779310424847,66.69067961720219,59.83565496409656,-0.0002590179501567,0.0986935049295425,0,0,0
5512,200454.78453521148,2010-12-08 20:14:44,2641.3225806726737,7,18,-1.0993878841400146,3.4481794834136963,16.625993357522166,16.507946646520974,66.69067961720219,59.86730726790274,-0.0002590179501567,0.0986935049295425,0,0,0
5513,200484.7995642468,2010-12-08 20:15:14,2671.337609702992,7,18,-1.099568486213684,3.437818765640259,16.625993357522166,16.517113982196737,66.69067961720219,59.89887132617636,-0.0002590179501567,0.0986935049295425,0,0,0
5514,200514.81810693076,2010-12-08 20:15:44,2701.356152482138,7,18,-1.099568486213684,3.425353765487671,16.625993357522166,16.52628242767446,66.69067961720219,59.9303350614695,-0.0003885269106831,0.0986935049295425,0,0,0
5515,200544.82981690168,2010-12-08 20:16:14,2731.367862448092,7,18,-1.099568486213684,3.4104602336883545,16.625993357522166,16.535448752225165,66.69067961720219,59.9616666557165,-0.0003885269106831,0.0986935049295425,0,0,0
5516,200574.8449566826,2010-12-08 20:16:44,2761.3830021387835,7,18,-1.099568486213684,3.391519546508789,16.625993357522166,16.54461607322142,66.69067961720219,59.99284705502159,-0.0005827903514727,0.0986935049295425,0,0,0
5517,200604.8597772291,2010-12-08 20:17:14,2791.397822685298,7,18,-1.099568486213684,3.367398500442505,16.625993357522166,16.553783365149382,66.69067961720219,60.02383240460316,-0.0007122993702068,0.0986935049295425,0,0,0
5518,200634.87486663467,2010-12-08 20:17:44,2821.4129121109067,7,18,-1.0993878841400146,3.3363165855407715,16.625993357522166,16.56295074145775,66.69067961720219,60.05456633572483,-0.0009389400365762,0.0986935049295425,0,0,0
5519,200664.88990205087,2010-12-08 20:18:14,2851.4279475922776,7,18,-1.0993878841400146,3.294388055801392,16.625993357522166,16.572118045413145,66.69067961720219,60.08496802075035,-0.0012303352123126,0.0986935049295425,0,0,0
5520,200694.90476175485,2010-12-08 20:18:44,2881.4428072260584,7,18,-1.0997490882873535,3.2377281188964844,16.625993357522166,16.581285333291643,66.69067961720219,60.11492274923415,-0.0017483711708337,0.0986935049295425,0,0,0
5521,200724.91985959132,2010-12-08 20:19:14,2911.457905062598,7,18,-1.099568486213684,3.1587278842926025,16.625993357522166,16.590452710299246,66.69067961720219,60.14426371315321,-0.0025578022468835,0.0986935049295425,0,0,0
5522,200754.938325394,2010-12-08 20:19:44,2941.476370955416,7,18,-1.099568486213684,3.04168438911438,16.625993357522166,16.5996211333821,66.69067961720219,60.17272798023626,-0.0038205147720873,0.0986935049295425,0,0,0
5523,200784.4185815175,2010-12-08 20:20:13,2970.956626993712,7,18,-1.099568486213684,2.841593742370605,16.625993357522166,16.60862506366645,66.69067961720219,60.199309832264646,-0.0070258141495287,0.0986935049295425,0,0,0
5524,200798.6842724958,2010-12-08 20:20:28,2985.22231801213,7,18,-1.0993878841400146,2.699943780899048,16.625993357522166,16.612982137938424,66.69067961720219,60.211389354519575,-0.0082561494782567,0.0986935049295425,0,0,0
5525,200858.70534537788,2010-12-08 20:21:28,60.01799299217669,8,18,0.0,3.4104602336883545,16.625993357522166,16.612982137938424,66.69067961720219,60.211389354519575,0.0012950897216796,0.0986935049295425,0,0,0
5526,200858.909703324,2010-12-08 20:21:28,0.203317858671386,9,18,-1.9243103452026844e-05,3.4104602336883545,16.625993357522166,16.61298213902522,66.69067961720219,60.21138935822605,0.0,0.0955438911914825,0,0,0
5527,200863.7065420376,2010-12-08 20:21:33,5.000156597378862,9,18,0.0008838032954372,3.4183926582336426,16.62599443491638,16.61298213902522,66.69068329681345,60.21138935822605,0.0011008263099938,0.0955438911914825,0,0,0
