Data_Point,Test_Time(s),Date_Time,Step_Time(s),Step_Index,Cycle_Index,Current(A),Voltage(V),Charge_Capacity(Ah),Discharge_Capacity(Ah),Charge_Energy(Wh),Discharge_Energy(Wh),dV/dt(V/s),Internal_Resistance(Ohm),Is_FC_Data,AC_Impedance(Ohm),ACI_Phase_Angle(Deg)
1,30.000847399875845,2010-12-06 12:33:56,30.000848086584693,1,1,0.0,3.6730387210845943,0.0,0.0,0.0,0.0,3.237724376958795e-05,0.0,0,0,0
2,60.01556799767113,2010-12-06 12:34:26,60.01556865931761,1,1,0.0,3.6730387210845943,0.0,0.0,0.0,0.0,0.0,0.0,0,0,0
3,90.03047607700701,2010-12-06 12:34:56,90.0304766785038,1,1,0.0,3.6728768348693848,0.0,0.0,0.0,0.0,-3.237724376958795e-05,0.0,0,0,0
4,120.01393976317992,2010-12-06 12:35:26,120.01394040477648,1,1,0.0,3.6730387210845943,0.0,0.0,0.0,0.0,0.0,0.0,0,0,0
5,150.02986294066517,2010-12-06 12:35:56,30.01534477603883,2,1,0.5501165986061096,3.7816641330718994,0.00458656033287,0.0,0.017285750321595,0.0,0.0005180359003134,0.0,0,0,0
6,180.04484831234006,2010-12-06 12:36:26,60.03033013768879,2,1,0.5501165986061096,3.795262575149536,0.009173052610729,0.0,0.034665334893701,0.0,0.0002913951757363,0.0,0,0,0
7,210.06025446110257,2010-12-06 12:36:56,90.04573631151365,2,1,0.5499359965324402,3.8027093410491934,0.013759588943484,0.0,0.052091099029264,0.0,0.0001295089750783,0.0,0,0,0
8,240.06049816370097,2010-12-06 12:37:26,120.04598008929914,2,1,0.5501165986061096,3.807889699935913,0.018343857322632,0.0,0.069536074149182,0.0,0.0001295089750783,0.0,0,0,0
9,270.0743390172866,2010-12-06 12:37:56,150.0598208476478,2,1,0.5499359965324402,3.811774969100952,0.022930165756998,0.0,0.087009480030312,0.0,9.713172767078504e-05,0.0,0,0,0
10,300.08940191688674,2010-12-06 12:38:26,180.07488374724795,2,1,0.550297200679779,3.815660238265991,0.027516641973302,0.0,0.104501260146184,0.0,0.0001295089750783,0.0,0,0,0
11,330.1044134135728,2010-12-06 12:38:56,210.08989523892149,2,1,0.5499359965324402,3.8188979625701904,0.032103115440766,0.0,0.122009178948347,0.0,9.713172767078504e-05,0.0,0,0,0
12,360.11945167185394,2010-12-06 12:39:26,240.10493350221515,2,1,0.550297200679779,3.8221356868743896,0.036689493481628,0.0,0.139531733692563,0.0,6.47544875391759e-05,0.0,0,0,0
13,390.1345685858669,2010-12-06 12:39:56,270.1200505265025,2,1,0.5501165986061096,3.825211524963379,0.041275928110702,0.0,0.157068846174502,0.0,6.47544875391759e-05,0.0,0,0,0
14,420.149528353828,2010-12-06 12:40:26,300.1350101791766,2,1,0.5501165986061096,3.828287363052368,0.045862405305166,0.0,0.17462005868043,0.0,9.713172767078504e-05,0.0,0,0,0
15,450.16454937421327,2010-12-06 12:40:56,330.150031199562,2,1,0.5501165986061096,3.831201314926148,0.050448880250618,0.0,0.192184804956773,0.0,9.713172767078504e-05,0.0,0,0,0
16,480.17966018303366,2010-12-06 12:41:26,360.1651421236693,2,1,0.5501165986061096,3.8339531421661377,0.055035374645033,0.0,0.209762743774627,0.0,9.713172767078504e-05,0.0,0,0,0
17,510.1946463617168,2010-12-06 12:41:56,390.1801282171403,2,1,0.5497553944587708,3.836543321609497,0.059621412134474,0.0,0.227351798485305,0.0,3.237724376958795e-05,0.0,0,0,0
18,540.2096735273944,2010-12-06 12:42:26,420.1951553527432,2,1,0.5499359965324402,3.8392953872680655,0.064206985497002,0.0,0.244951805210987,0.0,3.237724376958795e-05,0.0,0,0,0
19,570.2247109235302,2010-12-06 12:42:56,450.2101927589038,2,1,0.5499359965324402,3.842371225357056,0.068792928325377,0.0,0.262566028967789,0.0,9.713172767078504e-05,0.0,0,0,0
20,600.2399003078829,2010-12-06 12:43:26,480.2253822084186,2,1,0.5499359965324402,3.844961404800415,0.073379415865946,0.0,0.28019516584226,0.0,3.237724376958795e-05,0.0,0,0,0
21,630.2547933297487,2010-12-06 12:43:56,510.2402751701349,2,1,0.5501165986061096,3.8478753566741934,0.077965826217823,0.0,0.297836924489114,0.0,6.47544875391759e-05,0.0,0,0,0
22,660.2699112813436,2010-12-06 12:44:26,540.2553931969169,2,1,0.550297200679779,3.850951194763184,0.082552287697862,0.0,0.315491998159934,0.0,9.713172767078504e-05,0.0,0,0,0
23,690.2848550946021,2010-12-06 12:44:56,570.2703369199508,2,1,0.5501165986061096,3.853541374206543,0.087138730283688,0.0,0.333160380113726,0.0,3.237724376958795e-05,0.0,0,0,0
24,720.2999205255012,2010-12-06 12:45:26,600.2854023809248,2,1,0.5501165986061096,3.856779098510742,0.091725168265314,0.0,0.350842437296448,0.0,9.713172767078504e-05,0.0,0,0,0
25,750.3149235661448,2010-12-06 12:45:56,630.3004053914934,2,1,0.5501165986061096,3.859854936599731,0.096311648065193,0.0,0.368538564354459,0.0,6.47544875391759e-05,0.0,0,0,0
26,780.3304221449158,2010-12-06 12:46:27,660.3159040805389,2,1,0.5501165986061096,3.86309266090393,0.100898192915181,0.0,0.38624903476765,0.0,9.713172767078504e-05,0.0,0,0,0
27,810.3451251238672,2010-12-06 12:46:57,690.3306070244031,2,1,0.5501165986061096,3.8658447265625,0.105484612039755,0.0,0.403972981367839,0.0,6.47544875391759e-05,0.0,0,0,0
28,840.3601617280322,2010-12-06 12:47:27,720.345643553381,2,1,0.5501165986061096,3.869082450866699,0.110071015550036,0.0,0.421710972631968,0.0,9.713172767078504e-05,0.0,0,0,0
29,870.3750699076176,2010-12-06 12:47:57,750.3605517379788,2,1,0.550297200679779,3.872158288955689,0.114657486266773,0.0,0.439463255244751,0.0,6.47544875391759e-05,0.0,0,0,0
30,900.3902504299173,2010-12-06 12:48:27,780.3757322552659,2,1,0.5501165986061096,3.8752341270446777,0.119243981257723,0.0,0.457229548228475,0.0,0.0001295089750783,0.0,0,0,0
31,930.405183807206,2010-12-06 12:48:57,810.3906656576173,2,1,0.5501165986061096,3.877986192703247,0.123830388262959,0.0,0.475009247088793,0.0,6.47544875391759e-05,0.0,0,0,0
32,960.420170948284,2010-12-06 12:49:27,840.4056527736329,2,1,0.5501165986061096,3.8809001445770255,0.128416760060558,0.0,0.492802308267212,0.0,3.237724376958795e-05,0.0,0,0,0
33,990.4352004848618,2010-12-06 12:49:57,870.4206823102104,2,1,0.550297200679779,3.883975982666016,0.133003182105974,0.0,0.510608770913889,0.0,6.47544875391759e-05,0.0,0,0,0
34,1020.4505040182698,2010-12-06 12:50:27,900.4359858436186,2,1,0.5499359965324402,3.886566162109375,0.137589685300426,0.0,0.52842836619465,0.0,6.47544875391759e-05,0.0,0,0,0
35,1050.4652793221992,2010-12-06 12:50:57,930.4507611525604,2,1,0.5501165986061096,3.889318227767944,0.142176122365165,0.0,0.546260148367902,0.0,9.713172767078504e-05,0.0,0,0,0
36,1080.4804440201206,2010-12-06 12:51:27,960.4659258504818,2,1,0.5497553944587708,3.891908407211304,0.146762656761829,0.0,0.564104325486279,0.0,9.713172767078504e-05,0.0,0,0,0
37,1110.4953486458624,2010-12-06 12:51:57,990.4808304762236,2,1,0.550297200679779,3.894498586654663,0.151349151355263,0.0,0.581959924931404,0.0,0.0001295089750783,0.0,0,0,0
38,1140.5104836649289,2010-12-06 12:52:27,1020.495965620602,2,1,0.5501165986061096,3.8966031074523926,0.15593568993776,0.0,0.599826354940301,0.0,6.47544875391759e-05,0.0,0,0,0
39,1170.5257008685087,2010-12-06 12:52:57,1050.511182784082,2,1,0.5501165986061096,3.898869514465332,0.160522197904524,0.0,0.617703156055749,0.0,9.713172767078504e-05,0.0,0,0,0
40,1200.540653659107,2010-12-06 12:53:27,1080.5261355496175,2,1,0.5501165986061096,3.9009740352630615,0.165108688925862,0.0,0.635589807359447,0.0,6.47544875391759e-05,0.0,0,0,0
41,1230.555482110291,2010-12-06 12:53:57,1110.5409639456648,2,1,0.550297200679779,3.903078556060791,0.169695107523064,0.0,0.65348558230548,0.0,9.713172767078504e-05,0.0,0,0,0
42,1260.5705328245688,2010-12-06 12:54:27,1140.5560146499174,2,1,0.5501165986061096,3.90469741821289,0.174281601431062,0.0,0.671390595846503,0.0,0.0,0.0,0,0,0
43,1290.5855540955777,2010-12-06 12:54:57,1170.5710359209263,2,1,0.5501165986061096,3.90664005279541,0.178868062030268,0.0,0.689303755902798,0.0,9.713172767078504e-05,0.0,0,0,0
44,1320.6005938225137,2010-12-06 12:55:27,1200.5860756528746,2,1,0.550297200679779,3.90842080116272,0.183454491378783,0.0,0.707224801175044,0.0,9.713172767078504e-05,0.0,0,0,0
45,1350.6157739588527,2010-12-06 12:55:57,1230.6012558142763,2,1,0.5499359965324402,3.9097158908844,0.188040998534,0.0,0.725153849332147,0.0,0.0,0.0,0,0,0
46,1380.6306700182777,2010-12-06 12:56:27,1260.6161518486388,2,1,0.5501165986061096,3.911496639251709,0.19262751064616,0.0,0.743090280551373,0.0,3.237724376958795e-05,0.0,0,0,0
47,1410.6459901780595,2010-12-06 12:56:57,1290.6314720234584,2,1,0.5501165986061096,3.912953615188599,0.197214043590826,0.0,0.761033957940602,0.0,0.0,0.0,0,0,0
48,1440.6607245551445,2010-12-06 12:57:27,1320.646206380493,2,1,0.5501165986061096,3.914572238922119,0.201800452906092,0.0,0.778984087526093,0.0,3.237724376958795e-05,0.0,0,0,0
49,1470.675892095138,2010-12-06 12:57:57,1350.6613739204868,2,1,0.550297200679779,3.9161911010742183,0.206387068849973,0.0,0.796941754213493,0.0,9.713172767078504e-05,0.0,0,0,0
50,1500.6909375663683,2010-12-06 12:58:27,1380.6764193967294,2,1,0.5501165986061096,3.9174861907958975,0.210973541100003,0.0,0.814905534862628,0.0,3.237724376958795e-05,0.0,0,0,0
51,1530.7058371244996,2010-12-06 12:58:57,1410.6913189799232,2,1,0.5501165986061096,3.918781280517578,0.215560071946819,0.0,0.832876217158637,0.0,0.0,0.0,0,0,0
52,1560.7210647089116,2010-12-06 12:59:27,1440.706546564335,2,1,0.5501165986061096,3.9204001426696777,0.220146561775353,0.0,0.850853310991835,0.0,3.237724376958795e-05,0.0,0,0,0
53,1590.7358951650851,2010-12-06 12:59:57,1470.7213769904338,2,1,0.5499359965324402,3.921695232391357,0.224732978527886,0.0,0.868836572262577,0.0,3.237724376958795e-05,0.0,0,0,0
54,1620.7509610120196,2010-12-06 13:00:27,1500.7364428373685,2,1,0.5499359965324402,3.922990322113037,0.229319413696737,0.0,0.88682643730136,0.0,0.0,0.0,0,0,0
55,1650.7659710751384,2010-12-06 13:00:57,1530.7514529054993,2,1,0.550297200679779,3.9246091842651367,0.233905870307108,0.0,0.904822878558005,0.0,6.47544875391759e-05,0.0,0,0,0
56,1680.7810077595027,2010-12-06 13:01:27,1560.7664895848516,2,1,0.550297200679779,3.925904273986816,0.238492342939321,0.0,0.922825921710233,0.0,3.237724376958795e-05,0.0,0,0,0
57,1710.7960003491394,2010-12-06 13:01:57,1590.781482174488,2,1,0.550297200679779,3.927361249923706,0.243079523883085,0.0,0.940838101309478,0.0,6.47544875391759e-05,0.0,0,0,0
58,1740.8110441812908,2010-12-06 13:02:27,1620.796526031702,2,1,0.550297200679779,3.928818225860596,0.247666814813021,0.0,0.958857274464321,0.0,3.237724376958795e-05,0.0,0,0,0
59,1770.8263138654663,2010-12-06 13:02:57,1650.8117958111145,2,1,0.5501165986061096,3.9301133155822754,0.252253981343257,0.0,0.976882489707238,0.0,3.237724376958795e-05,0.0,0,0,0
60,1800.841124497308,2010-12-06 13:03:27,1680.8266063226567,2,1,0.5501165986061096,3.931570291519165,0.256841322524824,0.0,0.994914931245256,0.0,3.237724376958795e-05,0.0,0,0,0
61,1830.8561828806696,2010-12-06 13:03:57,1710.841664801255,2,1,0.550297200679779,3.933027267456055,0.261428623613583,0.0,1.012953767273635,0.0,3.237724376958795e-05,0.0,0,0,0
62,1860.871234151332,2010-12-06 13:04:27,1740.8567160719174,2,1,0.5501165986061096,3.934484243392944,0.266015966685514,0.0,1.030999370230946,0.0,0.0,0.0,0,0,0
63,1890.8865082414711,2010-12-06 13:04:57,1770.871990071833,2,1,0.5497553944587708,3.935779333114624,0.270602768308818,0.0,1.049049496029811,0.0,0.0,0.0,0,0,0
64,1920.901297535214,2010-12-06 13:05:27,1800.8867794257249,2,1,0.5501165986061096,3.937398195266724,0.275189369538489,0.0,1.067105323708932,0.0,3.237724376958795e-05,0.0,0,0,0
65,1950.9162993528137,2010-12-06 13:05:57,1830.9017811781628,2,1,0.5501165986061096,3.938855171203613,0.279775992757986,0.0,1.085168051314882,0.0,3.237724376958795e-05,0.0,0,0,0
66,1980.9313725279844,2010-12-06 13:06:27,1860.9168543633584,2,1,0.5499359965324402,3.940312147140503,0.284362608578474,0.0,1.103237455233299,0.0,3.237724376958795e-05,0.0,0,0,0
67,2010.9463703857305,2010-12-06 13:06:57,1890.931852211079,2,1,0.5501165986061096,3.9419310092926025,0.288949270340634,0.0,1.121313818119318,0.0,9.713172767078504e-05,0.0,0,0,0
68,2040.9614152253887,2010-12-06 13:07:27,1920.946897110888,2,1,0.5501165986061096,3.943387985229492,0.293535917962103,0.0,1.139396885975923,0.0,6.47544875391759e-05,0.0,0,0,0
69,2070.9764422607423,2010-12-06 13:07:57,1950.9619240860911,2,1,0.5501165986061096,3.944844961166382,0.298122554207851,0.0,1.157486703781762,0.0,6.47544875391759e-05,0.0,0,0,0
70,2100.991489461276,2010-12-06 13:08:27,1980.9769712866248,2,1,0.550297200679779,3.946301937103272,0.302709259250251,0.0,1.175583676729106,0.0,9.713172767078504e-05,0.0,0,0,0
71,2131.006634765938,2010-12-06 13:08:57,2010.9921165962992,2,1,0.5501165986061096,3.947758913040161,0.307295853083416,0.0,1.19368689565648,0.0,6.47544875391759e-05,0.0,0,0,0
72,2161.0217718351064,2010-12-06 13:09:27,2041.00725375068,2,1,0.5497553944587708,3.949215888977051,0.311882476994237,0.0,1.211797133389996,0.0,3.237724376958795e-05,0.0,0,0,0
73,2191.036598952973,2010-12-06 13:09:57,2071.0220807883466,2,1,0.5499359965324402,3.9508347511291504,0.316469014491401,0.0,1.229913847070006,0.0,0.0001295089750783,0.0,0,0,0
74,2221.051633060926,2010-12-06 13:10:27,2101.0371148862746,2,1,0.5501165986061096,3.95229172706604,0.321055671555648,0.0,1.248038022174921,0.0,9.713172767078504e-05,0.0,0,0,0
75,2251.06667781036,2010-12-06 13:10:57,2131.0521596357084,2,1,0.5499359965324402,3.9537487030029297,0.325642318293902,0.0,1.266169196677226,0.0,6.47544875391759e-05,0.0,0,0,0
76,2281.081680825941,2010-12-06 13:11:27,2161.06716265129,2,1,0.5499359965324402,3.9552056789398193,0.330228964609028,0.0,1.284307359794232,0.0,3.237724376958795e-05,0.0,0,0,0
77,2311.0967291392435,2010-12-06 13:11:57,2191.082210964593,2,1,0.5501165986061096,3.956824541091919,0.334815694035381,0.0,1.302452927754032,0.0,3.237724376958795e-05,0.0,0,0,0
78,2341.111770560396,2010-12-06 13:12:27,2221.097252400782,2,1,0.5501165986061096,3.9582815170288086,0.339402346536906,0.0,1.320605068063749,0.0,3.237724376958795e-05,0.0,0,0,0
79,2371.1269129477982,2010-12-06 13:12:57,2251.112394838309,2,1,0.5501165986061096,3.959900379180908,0.343989027365111,0.0,1.338764534900427,0.0,3.237724376958795e-05,0.0,0,0,0
80,2401.1418602748004,2010-12-06 13:13:27,2281.127342195386,2,1,0.5501165986061096,3.961519241333008,0.348575722714074,0.0,1.356931302302974,0.0,3.237724376958795e-05,0.0,0,0,0
81,2431.1568455161514,2010-12-06 13:13:57,2311.142327351525,2,1,0.5501165986061096,3.9631381034851074,0.353162465757611,0.0,1.37510542470166,0.0,6.47544875391759e-05,0.0,0,0,0
82,2461.172042033253,2010-12-06 13:14:27,2341.157523863614,2,1,0.5501165986061096,3.964756965637207,0.35774911789143,0.0,1.393286416388507,0.0,3.237724376958795e-05,0.0,0,0,0
83,2491.1869218322145,2010-12-06 13:14:57,2371.172403662576,2,1,0.550297200679779,3.966375827789306,0.362335763788852,0.0,1.411474668372252,0.0,6.47544875391759e-05,0.0,0,0,0
84,2521.201981373458,2010-12-06 13:15:27,2401.1874632639683,2,1,0.5501165986061096,3.967832803726196,0.366922476532006,0.0,1.429670479318685,0.0,6.47544875391759e-05,0.0,0,0,0
85,2551.216996343788,2010-12-06 13:15:57,2431.202478169136,2,1,0.5501165986061096,3.969613552093506,0.371509167704114,0.0,1.447873664729666,0.0,3.237724376958795e-05,0.0,0,0,0
86,2581.2320896039387,2010-12-06 13:16:27,2461.217571519512,2,1,0.5501165986061096,3.9712324142456055,0.376095894587733,0.0,1.466084457324187,0.0,6.47544875391759e-05,0.0,0,0,0
87,2611.247156282944,2010-12-06 13:16:57,2491.2326382336046,2,1,0.5501165986061096,3.972689390182495,0.38068257462526,0.0,1.484302630923665,0.0,3.237724376958795e-05,0.0,0,0,0
88,2641.262091910833,2010-12-06 13:17:27,2521.247573746207,2,1,0.5499359965324402,3.9743082523345943,0.385269282209812,0.0,1.502528475550962,0.0,3.237724376958795e-05,0.0,0,0,0
89,2671.2771238433734,2010-12-06 13:17:57,2551.262605678747,2,1,0.5501165986061096,3.9759271144866943,0.389855994456941,0.0,1.520761989680235,0.0,3.237724376958795e-05,0.0,0,0,0
90,2701.2921912141,2010-12-06 13:18:28,2581.277673039448,2,1,0.5501165986061096,3.977869749069214,0.39444274925395,0.0,1.539003385514869,0.0,3.237724376958795e-05,0.0,0,0,0
91,2731.3073280075814,2010-12-06 13:18:58,2611.29280991313,2,1,0.5501165986061096,3.9794886112213135,0.399029382549777,0.0,1.557251606614708,0.0,6.47544875391759e-05,0.0,0,0,0
92,2761.3223164920023,2010-12-06 13:19:28,2641.3077984176007,2,1,0.5499359965324402,3.981269359588623,0.403616017960775,0.0,1.57550823088306,0.0,3.237724376958795e-05,0.0,0,0,0
93,2791.33726291676,2010-12-06 13:19:58,2671.322744742108,2,1,0.5501165986061096,3.982888221740722,0.408202572066286,0.0,1.593772480787879,0.0,3.237724376958795e-05,0.0,0,0,0
94,2821.3523546581314,2010-12-06 13:20:28,2701.33783648348,2,1,0.550297200679779,3.984830856323242,0.412789167217045,0.0,1.6120448687004,0.0,6.47544875391759e-05,0.0,0,0,0
95,2851.3674612765244,2010-12-06 13:20:58,2731.3529431118977,2,1,0.5499359965324402,3.986449718475342,0.417375767441991,0.0,1.630325419235634,0.0,0.0,0.0,0,0,0
96,2881.3825247074465,2010-12-06 13:21:28,2761.36800654282,2,1,0.5497553944587708,3.9880685806274414,0.421962426378098,0.0,1.64861437312413,0.0,0.0,0.0,0,0,0
97,2911.3974490672954,2010-12-06 13:21:58,2791.382930902669,2,1,0.5501165986061096,3.990011215209961,0.426549024745558,0.0,1.666911260025003,0.0,3.237724376958795e-05,0.0,0,0,0
98,2941.412460584032,2010-12-06 13:22:28,2821.3979424093804,2,1,0.5501165986061096,3.9917919635772714,0.431135648812731,0.0,1.685216576602352,0.0,3.237724376958795e-05,0.0,0,0,0
99,2971.427477454089,2010-12-06 13:22:58,2851.4129592844506,2,1,0.5499359965324402,3.99373459815979,0.43572232000421,0.0,1.703530538162465,0.0,3.237724376958795e-05,0.0,0,0,0
100,3001.442656442572,2010-12-06 13:23:28,2881.4281382679205,2,1,0.5501165986061096,3.9956769943237305,0.440308978569215,0.0,1.72185296230685,0.0,0.0,0.0,0,0,0
101,3031.457614090257,2010-12-06 13:23:58,2911.443095990792,2,1,0.550297200679779,3.99761962890625,0.444895606929512,0.0,1.740183875369421,0.0,3.237724376958795e-05,0.0,0,0,0
102,3061.472598028364,2010-12-06 13:24:28,2941.458079853713,2,1,0.5501165986061096,3.99940037727356,0.449482261924371,0.0,1.758523506474696,0.0,3.237724376958795e-05,0.0,0,0,0
103,3091.4876590683366,2010-12-06 13:24:58,2971.473140993935,2,1,0.5501165986061096,4.001343250274658,0.454068798816881,0.0,1.776871465628037,0.0,6.47544875391759e-05,0.0,0,0,0
104,3121.502873018821,2010-12-06 13:25:28,3001.488354909332,2,1,0.5501165986061096,4.003285884857178,0.458655445372254,0.0,1.795228831947008,0.0,3.24249267578125e-05,0.0,0,0,0
105,3151.517680006594,2010-12-06 13:25:58,3031.5031618319435,2,1,0.550297200679779,4.005390167236328,0.463241968754364,0.0,1.813594655773897,0.0,9.70840483205393e-05,0.0,0,0,0
106,3181.5328564888405,2010-12-06 13:26:28,3061.5183383242143,2,1,0.5501165986061096,4.007332801818848,0.467828593958993,0.0,1.831970073571617,0.0,6.47544875391759e-05,0.0,0,0,0
107,3211.5478681409136,2010-12-06 13:26:58,3091.533349976288,2,1,0.550297200679779,4.009437561035156,0.472415229293466,0.0,1.85035467892459,0.0,6.47544875391759e-05,0.0,0,0,0
108,3241.562849146724,2010-12-06 13:27:28,3121.548330997135,2,1,0.5499359965324402,4.011218070983887,0.477001784459588,0.0,1.868748251272702,0.0,3.23295607813634e-05,0.0,0,0,0
109,3271.5778161877843,2010-12-06 13:27:58,3151.5632980131327,2,1,0.5501165986061096,4.013484477996826,0.481588383297818,0.0,1.887151497905128,0.0,6.47544875391759e-05,0.0,0,0,0
110,3301.5928787715984,2010-12-06 13:28:28,3181.578360596947,2,1,0.550297200679779,4.015589237213135,0.486174945783694,0.0,1.905564152752825,0.0,6.47544875391759e-05,0.0,0,0,0
111,3331.608044141191,2010-12-06 13:28:58,3211.593526061777,2,1,0.550297200679779,4.017855644226074,0.490761570359904,0.0,1.923986784633091,0.0,6.47544875391759e-05,0.0,0,0,0
112,3361.622918481569,2010-12-06 13:29:28,3241.6084003069177,2,1,0.5501165986061096,4.019798278808594,0.495348181710845,0.0,1.942419067677864,0.0,6.47544875391759e-05,0.0,0,0,0
113,3391.6379615217497,2010-12-06 13:29:58,3271.6234433721606,2,1,0.5501165986061096,4.021902561187744,0.499934664607878,0.0,1.960860745745026,0.0,3.23295607813634e-05,0.0,0,0,0
114,3421.653131698304,2010-12-06 13:30:28,3301.638613543703,2,1,0.5501165986061096,4.024168968200684,0.504521301804845,0.0,1.979313140481367,0.0,6.47544875391759e-05,0.0,0,0,0
115,3451.668063411452,2010-12-06 13:30:58,3331.6535452668754,2,1,0.5501165986061096,4.026273727416992,0.509107863472269,0.0,1.997775280202098,0.0,3.24249267578125e-05,0.0,0,0,0
116,3481.6830718304795,2010-12-06 13:31:28,3361.6685536608406,2,1,0.5499359965324402,4.028540134429932,0.513694426487789,0.0,2.016247705749556,0.0,3.24249267578125e-05,0.0,0,0,0
117,3511.69810589332,2010-12-06 13:31:58,3391.683587718669,2,1,0.5501165986061096,4.030806541442871,0.518280983590356,0.0,2.034730386012285,0.0,3.24249267578125e-05,0.0,0,0,0
118,3541.7131778755224,2010-12-06 13:32:28,3421.6986597058835,2,1,0.5501165986061096,4.033234596252441,0.522867536487034,0.0,2.053223412216539,0.0,6.47544875391759e-05,0.0,0,0,0
119,3571.728242108441,2010-12-06 13:32:58,3451.713724029026,2,1,0.5501165986061096,4.035338878631592,0.527454068888795,0.0,2.071726813900196,0.0,3.23295607813634e-05,0.0,0,0,0
120,3601.743336030238,2010-12-06 13:33:28,3481.728817930774,2,1,0.550297200679779,4.037929058074951,0.532040751042101,0.0,2.090241390350098,0.0,9.70840483205393e-05,0.0,0,0,0
121,3631.7582399642574,2010-12-06 13:33:58,3511.743721799632,2,1,0.5501165986061096,4.04003381729126,0.536627308816155,0.0,2.108766110578288,0.0,3.24249267578125e-05,0.0,0,0,0
122,3661.7734344513087,2010-12-06 13:34:28,3541.7589162766576,2,1,0.5501165986061096,4.04246187210083,0.54121395412316,0.0,2.127301899707113,0.0,6.47544875391759e-05,0.0,0,0,0
123,3691.7885194659416,2010-12-06 13:34:58,3571.774001396552,2,1,0.5499359965324402,4.044890403747559,0.545800526821792,0.0,2.145848281251285,0.0,6.47544875391759e-05,0.0,0,0,0
124,3721.8033506038114,2010-12-06 13:35:28,3601.788832434173,2,1,0.5499359965324402,4.046994686126709,0.550387069591349,0.0,2.164405506156538,0.0,3.23295607813634e-05,0.0,0,0,0
125,3751.8183875738873,2010-12-06 13:35:58,3631.803869399236,2,1,0.5501165986061096,4.049584865570068,0.55497368848131,0.0,2.182974120771739,0.0,3.23295607813634e-05,0.0,0,0,0
126,3781.833432213047,2010-12-06 13:36:28,3661.818914043408,2,1,0.5501165986061096,4.052175045013428,0.55956029796328,0.0,2.201553875249713,0.0,6.47544875391759e-05,0.0,0,0,0
127,3811.848855895441,2010-12-06 13:36:58,3691.834337816027,2,1,0.5501165986061096,4.054603576660156,0.564146886351172,0.0,2.220144911953605,0.0,6.47544875391759e-05,0.0,0,0,0
128,3841.863492018023,2010-12-06 13:37:28,3721.848973843372,2,1,0.550297200679779,4.057193756103516,0.568733492857374,0.0,2.238747567542701,0.0,6.47544875391759e-05,0.0,0,0,0
129,3871.8786983345103,2010-12-06 13:37:58,3751.864180169884,2,1,0.5501165986061096,4.059621810913086,0.573320114938893,0.0,2.257361909780761,0.0,6.47544875391759e-05,0.0,0,0,0
130,3901.8935959026894,2010-12-06 13:38:28,3781.879077733051,2,1,0.5501165986061096,4.062050342559815,0.577906766677784,0.0,2.275987750207197,0.0,6.47544875391759e-05,0.0,0,0,0
131,3931.9087214882816,2010-12-06 13:38:58,3811.8942033136304,2,1,0.5501165986061096,4.064802169799805,0.582493382849895,0.0,2.294625201080894,0.0,6.47544875391759e-05,0.0,0,0,0
132,3961.9236543442735,2010-12-06 13:39:28,3841.909136264859,2,1,0.550297200679779,4.067392349243164,0.587079927765117,0.0,2.313274279449959,0.0,6.47544875391759e-05,0.0,0,0,0
133,3991.9386686730063,2010-12-06 13:39:58,3871.924150498355,2,1,0.5501165986061096,4.069982528686523,0.591666510009424,0.0,2.331935567623916,0.0,6.47544875391759e-05,0.0,0,0,0
134,4021.953727973651,2010-12-06 13:40:28,3901.939209799,2,1,0.550297200679779,4.072572708129883,0.596253096304588,0.0,2.350608925530894,0.0,6.47544875391759e-05,0.0,0,0,0
135,4051.9687382021807,2010-12-06 13:40:58,3931.9542200325423,2,1,0.5501165986061096,4.075325012207031,0.600839689908395,0.0,2.369294588450986,0.0,9.71794142969884e-05,0.0,0,0,0
136,4081.9840034904178,2010-12-06 13:41:28,3961.9694854059903,2,1,0.5501165986061096,4.0780768394470215,0.605426319768499,0.0,2.387992793573825,0.0,9.70840483205393e-05,0.0,0,0,0
137,4111.998820407901,2010-12-06 13:41:58,3991.9843022382624,2,1,0.550297200679779,4.08082914352417,0.610012920572363,0.0,2.406703388380981,0.0,6.47544875391759e-05,0.0,0,0,0
138,4142.013868625967,2010-12-06 13:42:28,4021.9993504513154,2,1,0.550297200679779,4.08358097076416,0.614599532856351,0.0,2.42542649940733,0.0,6.47544875391759e-05,0.0,0,0,0
139,4172.028882568739,2010-12-06 13:42:58,4052.014364399101,2,1,0.5501165986061096,4.086333274841309,0.61918614666772,0.0,2.444162366855094,0.0,6.47544875391759e-05,0.0,0,0,0
140,4202.044046239104,2010-12-06 13:43:28,4082.029528089515,2,1,0.5499359965324402,4.089085102081299,0.62377274787979,0.0,2.462910973312171,0.0,3.23295607813634e-05,0.0,0,0,0
141,4232.058964378474,2010-12-06 13:43:58,4112.044446203823,2,1,0.5499359965324402,4.091837406158447,0.62835933402829,0.0,2.481672489868695,0.0,6.47544875391759e-05,0.0,0,0,0
142,4262.074020972383,2010-12-06 13:44:28,4142.059502862893,2,1,0.5499359965324402,4.094751358032227,0.63294593436995,0.0,2.500447059485023,0.0,6.47544875391759e-05,0.0,0,0,0
143,4292.089052774598,2010-12-06 13:44:58,4172.074534630022,2,1,0.5499359965324402,4.097665309906006,0.637532556781537,0.0,2.519234916174887,0.0,6.47544875391759e-05,0.0,0,0,0
144,4322.104186109474,2010-12-06 13:45:28,4202.089667934823,2,1,0.550297200679779,4.100579261779785,0.642119173182643,0.0,2.538036016065968,0.0,6.47544875391759e-05,0.0,0,0,0
145,4352.119097782754,2010-12-06 13:45:58,4232.104579613114,2,1,0.5501165986061096,4.103654861450195,0.646705769273698,0.0,2.55685043690867,0.0,9.70840483205393e-05,0.0,0,0,0
146,4382.134144446953,2010-12-06 13:46:28,4262.119626272301,2,1,0.550297200679779,4.106568813323975,0.65129236314593,0.0,2.575678371287733,0.0,0.0001295089750783,0.0,0,0,0
147,4412.149169412154,2010-12-06 13:46:58,4292.134651237503,2,1,0.5501165986061096,4.109482765197754,0.655878950266025,0.0,2.594519844787948,0.0,9.70840483205393e-05,0.0,0,0,0
148,4442.164363793942,2010-12-06 13:47:28,4322.149845679441,2,1,0.5501165986061096,4.112396717071533,0.66046559427939,0.0,2.613375308864095,0.0,6.47544875391759e-05,0.0,0,0,0
149,4472.179249337199,2010-12-06 13:47:58,4352.164731187609,2,1,0.5501165986061096,4.115472316741943,0.665052198093824,0.0,2.632244346103775,0.0,6.47544875391759e-05,0.0,0,0,0
150,4502.194500244648,2010-12-06 13:48:28,4382.179982180272,2,1,0.5499359965324402,4.118386268615723,0.669638819867869,0.0,2.651127445768317,0.0,3.23295607813634e-05,0.0,0,0,0
151,4532.209443060425,2010-12-06 13:48:58,4412.194924960961,2,1,0.5501165986061096,4.121623992919922,0.674225361572706,0.0,2.670024249955854,0.0,9.70840483205393e-05,0.0,0,0,0
152,4562.224388567899,2010-12-06 13:49:28,4442.209870483472,2,1,0.550297200679779,4.12470006942749,0.678812015979541,0.0,2.688935750052627,0.0,9.71794142969884e-05,0.0,0,0,0
153,4592.239382039731,2010-12-06 13:49:58,4472.224863875105,2,1,0.5501165986061096,4.1276140213012695,0.683398570112039,0.0,2.707861155785182,0.0,3.24249267578125e-05,0.0,0,0,0
154,4622.254436097329,2010-12-06 13:50:29,4502.239917937714,2,1,0.5501165986061096,4.1310133934021,0.68798522719282,0.0,2.726801459577348,0.0,9.70840483205393e-05,0.0,0,0,0
155,4652.269712508242,2010-12-06 13:50:59,4532.255194408779,2,1,0.5501165986061096,4.134089469909668,0.692571920776946,0.0,2.745756533626264,0.0,3.24249267578125e-05,0.0,0,0,0
156,4682.284491606614,2010-12-06 13:51:29,4562.269973436976,2,1,0.5501165986061096,4.137488842010498,0.697158527452928,0.0,2.764725899745487,0.0,9.70840483205393e-05,0.0,0,0,0
157,4712.299664514967,2010-12-06 13:51:59,4592.285146340316,2,1,0.550297200679779,4.140726566314697,0.701745198605196,0.0,2.783710363422624,0.0,9.70840483205393e-05,0.0,0,0,0
158,4742.314583180648,2010-12-06 13:52:29,4622.300065051108,2,1,0.5499359965324402,4.143802642822266,0.706331845469279,0.0,2.802709628809939,0.0,6.47544875391759e-05,0.0,0,0,0
159,4772.329706059503,2010-12-06 13:52:59,4652.315187894877,2,1,0.5501165986061096,4.147364139556885,0.710918410015269,0.0,2.821723963461728,0.0,0.0001295089750783,0.0,0,0,0
160,4802.344627281544,2010-12-06 13:53:29,4682.330109126943,2,1,0.5501165986061096,4.150601863861084,0.715504912299287,0.0,2.840753218687526,0.0,9.71794142969884e-05,0.0,0,0,0
161,4832.359654883308,2010-12-06 13:53:59,4712.345136728706,2,1,0.5501165986061096,4.153839588165283,0.720091431413196,0.0,2.859797759446528,0.0,6.47544875391759e-05,0.0,0,0,0
162,4862.374702244239,2010-12-06 13:54:29,4742.360184099664,2,1,0.550297200679779,4.157238960266113,0.72467789872047,0.0,2.878857291916863,0.0,9.70840483205393e-05,0.0,0,0,0
163,4892.389750181607,2010-12-06 13:54:59,4772.375232027005,2,1,0.5499359965324402,4.160638809204102,0.729264407542791,0.0,2.8979324116693,0.0,9.71794142969884e-05,0.0,0,0,0
164,4922.404782956242,2010-12-06 13:55:29,4802.390264776579,2,1,0.5501165986061096,4.164038181304932,0.733850928556077,0.0,2.917023075467111,0.0,9.70840483205393e-05,0.0,0,0,0
165,4952.419934315972,2010-12-06 13:55:59,4832.40541616137,2,1,0.5499359965324402,4.16743803024292,0.738437442246174,0.0,2.936129192629194,0.0,9.71794142969884e-05,0.0,0,0,0
166,4982.434908860705,2010-12-06 13:56:29,4862.420390776278,2,1,0.5501165986061096,4.17083740234375,0.743023977617372,0.0,2.955251301991971,0.0,6.47544875391759e-05,0.0,0,0,0
167,5012.436603208177,2010-12-06 13:56:59,4892.422085153825,2,1,0.5501165986061096,4.174237251281738,0.747608497410246,0.0,2.974380859020754,0.0,6.47544875391759e-05,0.0,0,0,0
168,5042.449328736318,2010-12-06 13:57:29,4922.434810651892,2,1,0.5497553944587708,4.177798748016357,0.752194744642855,0.0,2.993533463007528,0.0,9.71794142969884e-05,0.0,0,0,0
169,5072.464746684444,2010-12-06 13:57:59,4952.450228595004,2,1,0.5501165986061096,4.181360244750977,0.756781332820201,0.0,3.012703558693705,0.0,0.0001295089750783,0.0,0,0,0
170,5102.4793481608085,2010-12-06 13:58:29,4982.4648299911705,2,1,0.5501165986061096,4.184759616851807,0.76136785502403,0.0,3.031889519167976,0.0,6.47544875391759e-05,0.0,0,0,0
171,5132.494418819718,2010-12-06 13:58:59,5012.479900750329,2,1,0.5501165986061096,4.188321113586426,0.76595440821248,0.0,3.051091692075673,0.0,0.0001295089750783,0.0,0,0,0
172,5162.509413835392,2010-12-06 13:59:29,5042.49489566074,2,1,0.5501165986061096,4.192044734954834,0.770540977909022,0.0,3.070310368675238,0.0,0.0001295089750783,0.0,0,0,0
173,5192.524444720324,2010-12-06 13:59:59,5072.509926545673,2,1,0.550297200679779,4.195605754852295,0.775127570693671,0.0,3.089545606604344,0.0,9.70840483205393e-05,0.0,0,0,0
174,5222.539476818276,2010-12-06 14:00:29,5102.524958643625,2,1,0.5499359965324402,4.199167251586914,0.77971403139258,0.0,3.108796830611505,0.0,6.47544875391759e-05,0.0,0,0,0
175,5228.32076840002,2010-12-06 14:00:35,5108.306250255443,2,1,0.5501165986061096,4.200138568878174,0.780597438212527,0.0,3.112506774379315,0.0,0.0001618385285837,0.0,0,0,0
176,5258.336537942035,2010-12-06 14:01:05,30.015233228456967,3,1,0.0,4.110939979553223,0.780597438212527,0.0,3.112506774379315,0.0,-0.0003561019839253,0.0,0,0,0
177,5288.351349706696,2010-12-06 14:01:35,60.03004490790544,3,1,0.0,4.099607944488525,0.780597438212527,0.0,3.112506774379315,0.0,-0.0002590179501567,0.0,0,0,0
178,5318.366378777114,2010-12-06 14:02:05,90.04507395326061,3,1,0.0,4.093132495880127,0.780597438212527,0.0,3.112506774379315,0.0,-0.0001295089750783,0.0,0,0,0
179,5348.334583030775,2010-12-06 14:02:35,120.01327829714714,3,1,0.0,4.088437557220459,0.780597438212527,0.0,3.112506774379315,0.0,-0.0001295089750783,0.0,0,0,0
180,5348.335151257425,2010-12-06 14:02:35,2.671648294e-06,4,1,0.9976664185523988,4.199976921081543,0.78059743895292,0.0,3.112506777488948,0.0,0.0,0.0,0,0,0
181,5349.100606097354,2010-12-06 14:02:36,0.765457526614306,4,1,0.9474570155143738,4.199814796447754,0.7808025883512,0.0,3.113368362574408,0.0,-3.24249267578125e-05,0.0,0,0,0
182,5351.147455703876,2010-12-06 14:02:38,2.812307133135148,4,1,0.8967058062553406,4.199814796447754,0.781325629226012,0.0,3.115565031524815,0.0,-3.24249267578125e-05,0.0,0,0,0
183,5354.288168592101,2010-12-06 14:02:41,5.953020096547948,4,1,0.8464964628219604,4.199814796447754,0.782084813777727,0.0,3.118753455577605,0.0,-3.24249267578125e-05,0.0,0,0,0
184,5358.600538829576,2010-12-06 14:02:45,10.265390268861358,4,1,0.796467661857605,4.199653148651123,0.783067437950246,0.0,3.122880282890852,0.0,0.0,0.0,0,0,0
185,5364.334815160678,2010-12-06 14:02:51,15.999666599962213,4,1,0.7460776567459106,4.199976921081543,0.784294219523429,0.0,3.128032533296838,0.0,6.47544875391759e-05,0.0,0,0,0
186,5371.787663056017,2010-12-06 14:02:58,23.45251448026435,4,1,0.6960489153862,4.199814796447754,0.785784683807454,0.0,3.134292213655461,0.0,0.0,0.0,0,0,0
187,5381.803091730064,2010-12-06 14:03:08,33.46794317436081,4,1,0.6460201144218445,4.199814796447754,0.787648073264719,0.0,3.142118101572806,0.0,0.0,0.0,0,0,0
188,5395.849684240271,2010-12-06 14:03:22,47.51453566953149,4,1,0.5959913730621338,4.199814796447754,0.790065543787843,0.0,3.152271066117596,0.0,0.0,0.0,0,0,0
189,5417.646155676114,2010-12-06 14:03:44,69.31100710537376,4,1,0.5459625720977783,4.199814796447754,0.793511119263376,0.0,3.1667419110429,0.0,0.0,0.0,0,0,0
190,5456.004869680579,2010-12-06 14:04:23,107.66972111986368,4,1,0.4957532286643982,4.199814796447754,0.799036122973825,0.0,3.189945955227688,0.0,0.0,0.0,0,0,0
191,5528.5189550179375,2010-12-06 14:05:35,180.183806442185,4,1,0.4457244575023651,4.199814796447754,0.808477303646353,0.0,3.229597253801741,0.0,0.0,0.0,0,0,0
192,5637.032432137154,2010-12-06 14:07:24,288.6972835664133,4,1,0.395695686340332,4.199653148651123,0.821133189201259,0.0,3.282749833411156,0.0,0.0,0.0,0,0,0
193,5772.389174088471,2010-12-06 14:09:39,424.05402554279306,4,1,0.3456669151782989,4.199653148651123,0.83505244117752,0.0,3.341208371817058,0.0,-3.23295607813634e-05,0.0,0,0,0
194,5935.557787191462,2010-12-06 14:12:22,587.2226386207216,4,1,0.2956381440162658,4.199814796447754,0.849564066397693,0.0,3.402154744728407,0.0,3.23295607813634e-05,0.0,0,0,0
195,6135.6788490369,2010-12-06 14:15:42,787.34370046616,4,1,0.2456093728542328,4.199814796447754,0.864579761501877,0.0,3.465218112850615,0.0,0.0,0.0,0,0,0
196,6388.345720849449,2010-12-06 14:19:55,1040.0105722736964,4,1,0.1955806016921997,4.199653148651123,0.880011741699812,0.0,3.530029770790171,0.0,-3.23295607813634e-05,0.0,0,0,0
197,6727.1983877682815,2010-12-06 14:25:34,1378.863239202554,4,1,0.1451906114816665,4.199653148651123,0.895960061572631,0.0,3.597009433814693,0.0,-3.23295607813634e-05,0.0,0,0,0
198,7230.625953788724,2010-12-06 14:33:57,1882.290805243047,4,1,0.095161847770214,4.199653148651123,0.912589800936881,0.0,3.666851601582779,0.0,0.0,0.0,0,0,0
199,8102.4213978005555,2010-12-06 14:48:29,2754.0862492548767,4,1,0.0498289167881011,4.199814796447754,0.929538530067512,0.0,3.738033278674588,0.0,0.0,0.0,0,0,0
200,8132.437076479283,2010-12-06 14:48:59,30.015033792167436,5,1,0.0,4.191397190093994,0.929538530067512,0.0,3.738033278674588,0.0,-3.23295607813634e-05,0.0,0,0,0
201,8162.43646761029,2010-12-06 14:49:29,60.01442495324904,5,1,0.0,4.190263748168945,0.929538530067512,0.0,3.738033278674588,0.0,3.23295607813634e-05,0.0,0,0,0
202,8162.624398183066,2010-12-06 14:49:29,0.187437450887401,6,1,-1.9243103452026844e-05,4.190263748168945,0.929538530067512,1.001911e-09,3.738033278674588,4.19827e-09,0.0,0.0971632748842239,0,0,0
203,8167.45255934141,2010-12-06 14:49:34,5.01559858918154,6,1,0.0003419754502829,4.1901021003723145,0.929539490484082,1.168842e-09,3.738037303059506,4.897754e-09,-6.47544875391759e-05,0.0971632748842239,0,0,0
204,8197.468003756361,2010-12-06 14:50:04,30.01500323612991,7,1,-1.099568486213684,4.004580974578857,0.929539490484082,0.009168148199061,3.738037303059506,0.036921253138331,-0.0009713172912597,0.0971632748842239,0,0,0
205,8227.48302161889,2010-12-06 14:50:34,60.03002110366952,7,1,-1.099568486213684,3.9759271144866943,0.929539490484082,0.018336150596247,3.738037303059506,0.073494267436703,-0.0006475448608398,0.0971632748842239,0,0,0
206,8257.498049125415,2010-12-06 14:51:04,90.045048585133,7,1,-1.099568486213684,3.956176996231079,0.929539490484082,0.027504049909351,3.738037303059506,0.109850128006927,-0.0004532813909463,0.0971632748842239,0,0,0
207,8287.513181422708,2010-12-06 14:51:34,120.06018096262622,7,1,-1.0997490882873535,3.940797805786133,0.929539490484082,0.0366720932892,3.738037303059506,0.146048506106249,-0.0003885269106831,0.0971632748842239,0,0,0
208,8317.52818881418,2010-12-06 14:52:04,150.07518836913394,7,1,-1.0993878841400146,3.928170680999756,0.929539490484082,0.045840025850898,3.738037303059506,0.182119393733123,-0.0003237724304199,0.0971632748842239,0,0,0
209,8347.543150231244,2010-12-06 14:52:34,180.09014971101163,7,1,-1.0997490882873535,3.9168386459350586,0.929539490484082,0.055007936933388,3.738037303059506,0.218079743925279,-0.0002913951757363,0.0971632748842239,0,0,0
210,8377.558207582037,2010-12-06 14:53:04,210.10520705679133,7,1,-1.099568486213684,3.90615439414978,0.929539490484082,0.064175980102997,3.738037303059506,0.253939815507567,-0.0002913951757363,0.0971632748842239,0,0,0
211,8407.573209615173,2010-12-06 14:53:34,240.1202090949401,7,1,-1.0997490882873535,3.8959555625915527,0.929539490484082,0.073343980561663,3.738037303059506,0.289704912832334,-0.0002913951757363,0.0971632748842239,0,0,0
212,8437.58826780806,2010-12-06 14:54:05,270.1352672878278,7,1,-1.0997490882873535,3.886404275894165,0.929539490484082,0.082511925636947,3.738037303059506,0.325379840977028,-0.0002590179501567,0.0971632748842239,0,0,0
213,8467.603402676752,2010-12-06 14:54:35,300.1504022266949,7,1,-1.099568486213684,3.877176761627197,0.929539490484082,0.091679881575294,3.738037303059506,0.360967628028534,-0.0002590179501567,0.0971632748842239,0,0,0
214,8497.618317923925,2010-12-06 14:55:05,330.16531737361817,7,1,-1.0993878841400146,3.8679492473602295,0.929539490484082,0.100847789669067,3.738037303059506,0.396470551632724,-0.0002266406954731,0.0971632748842239,0,0,0
215,8527.633343625961,2010-12-06 14:55:35,360.180343100716,7,1,-1.099568486213684,3.8590455055236816,0.929539490484082,0.11001582272829,3.738037303059506,0.431890780513009,-0.0002266406954731,0.0971632748842239,0,0,0
216,8557.648389087166,2010-12-06 14:56:05,390.1953885619213,7,1,-1.0993878841400146,3.850303649902344,0.929539490484082,0.119183797422015,3.738037303059506,0.467229730641381,-0.0001942634553415,0.0971632748842239,0,0,0
217,8587.663456142107,2010-12-06 14:56:35,420.21045571209896,7,1,-1.099568486213684,3.841561794281006,0.929539490484082,0.128351804909862,3.738037303059506,0.502489382749485,-0.0002590179501567,0.0971632748842239,0,0,0
218,8617.678614243614,2010-12-06 14:57:05,450.225613798568,7,1,-1.0997490882873535,3.833143949508667,0.929539490484082,0.137519867208712,3.738037303059506,0.537670847030622,-0.0002265930233988,0.0971632748842239,0,0,0
219,8647.693469691978,2010-12-06 14:57:35,480.2404691416718,7,1,-1.099568486213684,3.824887752532959,0.929539490484082,0.146687768627869,3.738037303059506,0.572775059831933,-0.0001942634553415,0.0971632748842239,0,0,0
220,8677.708524531521,2010-12-06 14:58:05,510.2555239862273,7,1,-1.099568486213684,3.816793441772461,0.929539490484082,0.155855780540108,3.738037303059506,0.607804273260812,-0.0002266406954731,0.0971632748842239,0,0,0
221,8707.723532364089,2010-12-06 14:58:35,540.2705318187952,7,1,-1.0997490882873535,3.808537244796753,0.929539490484082,0.165023735700142,3.738037303059506,0.642758455574288,-0.0001942634553415,0.0971632748842239,0,0,0
222,8737.738573399281,2010-12-06 14:59:05,570.285572879049,7,1,-1.099568486213684,3.800766706466675,0.929539490484082,0.174191735691423,3.738037303059506,0.677639378888408,-0.0001618862152099,0.0971632748842239,0,0,0
223,8767.753609026013,2010-12-06 14:59:35,600.3006085057817,7,1,-1.0997490882873535,3.793158054351807,0.929539490484082,0.183359757363277,3.738037303059506,0.712449479249807,-0.0001618862152099,0.0971632748842239,0,0,0
224,8797.76865971523,2010-12-06 15:00:05,630.3156591899843,7,1,-1.0997490882873535,3.785387516021729,0.929539490484082,0.192527779756831,3.738037303059506,0.74719026916932,-0.0002913951757363,0.0971632748842239,0,0,0
225,8827.783667527747,2010-12-06 15:00:35,660.3306670927269,7,1,-1.099568486213684,3.77826452255249,0.929539490484082,0.201695843753776,3.738037303059506,0.781862921215523,-0.0001618862152099,0.0971632748842239,0,0,0
226,8857.79885618529,2010-12-06 15:01:05,690.3458557051586,7,1,-1.0997490882873535,3.770979642868042,0.929539490484082,0.21086395341275,3.738037303059506,0.81646855136498,-0.0001942634553415,0.0971632748842239,0,0,0
227,8887.813771166804,2010-12-06 15:01:35,720.3607706215081,7,1,-1.0997490882873535,3.763856649398804,0.929539490484082,0.220031989140143,3.738037303059506,0.851008533582943,-0.0002266406954731,0.0971632748842239,0,0,0
228,8917.828945528772,2010-12-06 15:02:05,750.3759450085405,7,1,-1.0997490882873535,3.756895542144776,0.929539490484082,0.2292001233512,3.738037303059506,0.885484518691733,-0.0001942634553415,0.0971632748842239,0,0,0
229,8947.843844731018,2010-12-06 15:02:35,780.3908441907362,7,1,-1.099568486213684,3.749934673309326,0.929539490484082,0.238368183266236,3.738037303059506,0.919897015648005,-0.0001942634553415,0.0971632748842239,0,0,0
230,8977.858285642826,2010-12-06 15:03:05,810.4052848068078,7,1,-1.099568486213684,3.743459224700928,0.929539490484082,0.247536048754237,3.738037303059506,0.954247691891593,-0.0001942634553415,0.0971632748842239,0,0,0
231,9007.873880746796,2010-12-06 15:03:35,840.4208802165389,7,1,-1.099568486213684,3.736983776092529,0.929539490484082,0.256704204499014,3.738037303059506,0.98853906679622,-0.0001618862152099,0.0971632748842239,0,0,0
232,9037.888912659286,2010-12-06 15:04:05,870.4359121190039,7,1,-1.099929690361023,3.730508327484131,0.929539490484082,0.265872205180288,3.738037303059506,1.022770291535619,-0.0001618862152099,0.0971632748842239,0,0,0
233,9067.90505863909,2010-12-06 15:04:35,900.4520582040694,7,1,-1.099568486213684,3.724356651306152,0.929539490484082,0.275040581360905,3.738037303059506,1.056944747411908,-0.0001295089750783,0.0971632748842239,0,0,0
234,9097.91916903843,2010-12-06 15:05:05,930.466168568322,7,1,-1.099568486213684,3.718204975128174,0.929539490484082,0.284208468656706,3.738037303059506,1.091060019094875,-0.0001295089750783,0.0971632748842239,0,0,0
235,9127.9340730727,2010-12-06 15:05:35,960.4810725574796,7,1,-1.0997490882873535,3.711891412734986,0.929539490484082,0.293376618100175,3.738037303059506,1.125119522569227,-0.0001618862152099,0.0971632748842239,0,0,0
236,9157.949480193882,2010-12-06 15:06:05,990.4964798039736,7,1,-1.099568486213684,3.705901622772217,0.929539490484082,0.302544886647991,3.738037303059506,1.159123948845345,-0.0001942634553415,0.0971632748842239,0,0,0
237,9187.96413801546,2010-12-06 15:06:35,1020.5111374852036,7,1,-1.0997490882873535,3.700073719024658,0.929539490484082,0.311712927564381,3.738037303059506,1.193072985499671,-0.0001618862152099,0.0971632748842239,0,0,0
238,9217.979322161778,2010-12-06 15:07:05,1050.5263216214964,7,1,-1.0997490882873535,3.6940839290618896,0.929539490484082,0.32088118301542,3.738037303059506,1.226968726196513,-0.0001295089750783,0.0971632748842239,0,0,0
239,9247.994227123356,2010-12-06 15:07:35,1080.5412266833234,7,1,-1.099568486213684,3.688417911529541,0.929539490484082,0.330049320235498,3.738037303059506,1.260810417596142,-0.0001295089750783,0.0971632748842239,0,0,0
240,9278.009289677097,2010-12-06 15:08:05,1110.5562891518507,7,1,-1.0993878841400146,3.6829137802124015,0.929539490484082,0.339217478988607,3.738037303059506,1.294600067686153,-9.713172767078504e-05,0.0971632748842239,0,0,0
241,9308.024273595152,2010-12-06 15:08:35,1140.571273064896,7,1,-1.0997490882873535,3.677085876464844,0.929539490484082,0.348385645357434,3.738037303059506,1.328338376693338,-0.0001618862152099,0.0971632748842239,0,0,0
242,9338.039309282034,2010-12-06 15:09:05,1170.586308746766,7,1,-1.0997490882873535,3.671581983566284,0.929539490484082,0.357553850732934,3.738037303059506,1.362026079108994,-0.0001295089750783,0.0971632748842239,0,0,0
243,9368.054340116843,2010-12-06 15:09:35,1200.601339571549,7,1,-1.0997490882873535,3.666239738464356,0.929539490484082,0.36672200170112,3.738037303059506,1.395664006631999,-0.0001295089750783,0.0971632748842239,0,0,0
244,9398.069504569154,2010-12-06 15:10:05,1230.6165040489216,7,1,-1.1001102924346924,3.660735607147217,0.929539490484082,0.37589026132394,3.738037303059506,1.429253094749118,-0.0001942634553415,0.0971632748842239,0,0,0
245,9428.084559253311,2010-12-06 15:10:35,1260.6315587180409,7,1,-1.0997490882873535,3.655717134475708,0.929539490484082,0.385058419413281,3.738037303059506,1.462793455014849,-0.0001618862152099,0.0971632748842239,0,0,0
246,9458.099437884364,2010-12-06 15:11:05,1290.646437354108,7,1,-1.099568486213684,3.650698661804199,0.929539490484082,0.394226574811161,3.738037303059506,1.496286077381156,-9.713172767078504e-05,0.0971632748842239,0,0,0
247,9488.114605454432,2010-12-06 15:11:35,1320.6616049342017,7,1,-1.0997490882873535,3.645518302917481,0.929539490484082,0.403394837706957,3.738037303059506,1.529731877378334,-9.713172767078504e-05,0.0971632748842239,0,0,0
248,9518.12952782433,2010-12-06 15:12:05,1350.6765273742735,7,1,-1.0997490882873535,3.640499830245972,0.929539490484082,0.412562895964802,3.738037303059506,1.563130615392546,-0.0001295089750783,0.0971632748842239,0,0,0
249,9548.144815723834,2010-12-06 15:12:35,1380.6918152988396,7,1,-1.099568486213684,3.635805130004883,0.929539490484082,0.421731049885014,3.738037303059506,1.596484133942543,-3.237724376958795e-05,0.0971632748842239,0,0,0
250,9578.159578832416,2010-12-06 15:13:05,1410.7065783572968,7,1,-1.099568486213684,3.630786657333374,0.929539490484082,0.430899069451218,3.738037303059506,1.629793872945242,-0.0001618862152099,0.0971632748842239,0,0,0
251,9608.174610258697,2010-12-06 15:13:35,1440.721609713402,7,1,-1.099568486213684,3.626253843307495,0.929539490484082,0.440067265972043,3.738037303059506,1.663061151234067,-0.0001295089750783,0.0971632748842239,0,0,0
252,9638.18966455188,2010-12-06 15:14:05,1470.7366640366604,7,1,-1.0997490882873535,3.6215591430664062,0.929539490484082,0.449235432795572,3.738037303059506,1.696285901491892,-0.0001295089750783,0.0971632748842239,0,0,0
253,9668.20468497578,2010-12-06 15:14:35,1500.7516844555491,7,1,-1.0997490882873535,3.6170263290405273,0.929539490484082,0.458403559703438,3.738037303059506,1.729468799447589,-0.0001295089750783,0.0971632748842239,0,0,0
254,9698.219709961031,2010-12-06 15:15:05,1530.7667094157384,7,1,-1.099568486213684,3.612817287445069,0.929539490484082,0.467571730038344,3.738037303059506,1.762610854609087,-6.47544875391759e-05,0.0971632748842239,0,0,0
255,9728.234739166786,2010-12-06 15:15:35,1560.7817386214929,7,1,-1.099568486213684,3.6084463596344,0.929539490484082,0.476739914356732,3.738037303059506,1.795713099251885,-0.0001295089750783,0.0971632748842239,0,0,0
256,9758.24978219193,2010-12-06 15:16:05,1590.7967816516484,7,1,-1.099568486213684,3.604237318038941,0.929539490484082,0.485908140315188,3.738037303059506,1.828776410982547,-9.713172767078504e-05,0.0971632748842239,0,0,0
257,9788.26480824484,2010-12-06 15:16:35,1620.811807724607,7,1,-1.099568486213684,3.6001901626586914,0.929539490484082,0.495076375727869,3.738037303059506,1.861802025407228,-9.713172767078504e-05,0.0971632748842239,0,0,0
258,9818.280178474217,2010-12-06 15:17:05,1650.8271779289232,7,1,-1.0997490882873535,3.5961430072784424,0.929539490484082,0.504244653607456,3.738037303059506,1.894790590600057,-9.713172767078504e-05,0.0971632748842239,0,0,0
259,9848.294895698618,2010-12-06 15:17:35,1680.841895163349,7,1,-1.099568486213684,3.5922577381134038,0.929539490484082,0.513412790357072,3.738037303059506,1.9277422065642,-6.47544875391759e-05,0.0971632748842239,0,0,0
260,9878.309942929229,2010-12-06 15:18:05,1710.8569423839324,7,1,-1.0997490882873535,3.5882108211517334,0.929539490484082,0.522581070263242,3.738037303059506,1.960658844455566,-0.0001295089750783,0.0971632748842239,0,0,0
261,9908.324938160436,2010-12-06 15:18:35,1740.8719376151423,7,1,-1.099568486213684,3.5846493244171143,0.929539490484082,0.531749249727654,3.738037303059506,1.993540505292357,-9.713172767078504e-05,0.0971632748842239,0,0,0
262,9938.339974323504,2010-12-06 15:19:05,1770.8869737782095,7,1,-1.099568486213684,3.581087827682495,0.929539490484082,0.540917436586554,3.738037303059506,2.026388416258355,-6.47544875391759e-05,0.0971632748842239,0,0,0
263,9968.355017549144,2010-12-06 15:19:35,1800.902017013877,7,1,-1.099568486213684,3.577526330947876,0.929539490484082,0.550085617037337,3.738037303059506,2.059203356954315,-6.47544875391759e-05,0.0971632748842239,0,0,0
264,9998.370149114618,2010-12-06 15:20:05,1830.917148669574,7,1,-1.0997490882873535,3.573802947998047,0.929539490484082,0.559253870334624,3.738037303059506,2.091986150027837,-0.0001295089750783,0.0971632748842239,0,0,0
265,10028.38516536814,2010-12-06 15:20:35,1860.9321649130725,7,1,-1.099568486213684,3.570565223693848,0.929539490484082,0.568422084367838,3.738037303059506,2.12473707375144,-6.47544875391759e-05,0.0971632748842239,0,0,0
266,10058.40012973254,2010-12-06 15:21:05,1890.9471292123087,7,1,-1.0997490882873535,3.5671656131744385,0.929539490484082,0.577590295296612,3.738037303059506,2.157456548976414,-6.47544875391759e-05,0.0971632748842239,0,0,0
267,10088.415142888356,2010-12-06 15:21:35,1920.9621423430613,7,1,-1.0997490882873535,3.56360411643982,0.929539490484082,0.58675852419975,3.738037303059506,2.190144997397277,-9.713172767078504e-05,0.0971632748842239,0,0,0
268,10118.430189682878,2010-12-06 15:22:05,1950.977189137585,7,1,-1.0993878841400146,3.56069016456604,0.929539490484082,0.595926601236392,3.738037303059506,2.222803326743416,-6.47544875391759e-05,0.0971632748842239,0,0,0
269,10148.445211044113,2010-12-06 15:22:35,1980.9922105238809,7,1,-1.0997490882873535,3.557452440261841,0.929539490484082,0.60509480239904,3.738037303059506,2.255432871280253,-6.47544875391759e-05,0.0971632748842239,0,0,0
270,10178.460247492892,2010-12-06 15:23:05,2011.0072469776712,7,1,-1.099568486213684,3.5542147159576416,0.929539490484082,0.614263031334166,3.738037303059506,2.288033221986025,-6.47544875391759e-05,0.0971632748842239,0,0,0
271,10208.477554491848,2010-12-06 15:23:35,2041.0245540518133,7,1,-1.099568486213684,3.5509769916534424,0.929539490484082,0.623431914264539,3.738037303059506,2.320606675130466,-0.0001295089750783,0.0971632748842239,0,0,0
272,10238.490517465862,2010-12-06 15:24:05,2071.0375170358543,7,1,-1.099568486213684,3.547739267349243,0.929539490484082,0.632599504462587,3.738037303059506,2.353145850757973,-6.47544875391759e-05,0.0971632748842239,0,0,0
273,10268.505419269582,2010-12-06 15:24:35,2101.052418754362,7,1,-1.099568486213684,3.544501543045044,0.929539490484082,0.641767677222665,3.738037303059506,2.385657552030089,-9.713172767078504e-05,0.0971632748842239,0,0,0
274,10298.5203965411,2010-12-06 15:25:05,2131.0673960008176,7,1,-1.099568486213684,3.5414257049560547,0.929539490484082,0.650935847322274,3.738037303059506,2.418139907968824,-6.47544875391759e-05,0.0971632748842239,0,0,0
275,10328.535422273208,2010-12-06 15:25:35,2161.0824217579902,7,1,-1.099568486213684,3.5381879806518555,0.929539490484082,0.660104141356633,3.738037303059506,2.450593602352379,-9.713172767078504e-05,0.0971632748842239,0,0,0
276,10358.550472892251,2010-12-06 15:26:06,2191.0974723720183,7,1,-1.099568486213684,3.534950256347656,0.929539490484082,0.669272365533456,3.738037303059506,2.483017473096787,-6.47544875391759e-05,0.0971632748842239,0,0,0
277,10388.565621630456,2010-12-06 15:26:36,2221.112621150324,7,1,-1.099568486213684,3.531712532043457,0.929539490484082,0.678440124134174,3.738037303059506,2.515410204924528,-9.713172767078504e-05,0.0971632748842239,0,0,0
278,10418.580538912693,2010-12-06 15:27:06,2251.127538367399,7,1,-1.099568486213684,3.528474807739258,0.929539490484082,0.68760761925401,3.738037303059506,2.547772296731059,-6.47544875391759e-05,0.0971632748842239,0,0,0
279,10448.595577411574,2010-12-06 15:27:36,2281.142576871291,7,1,-1.0997490882873535,3.5250751972198486,0.929539490484082,0.696775703650604,3.738037303059506,2.580106106505467,-9.713172767078504e-05,0.0971632748842239,0,0,0
280,10478.610787888414,2010-12-06 15:28:06,2311.157787353144,7,1,-1.0997490882873535,3.5216755867004395,0.929539490484082,0.705943997641509,3.738037303059506,2.612409245093585,-6.47544875391759e-05,0.0971632748842239,0,0,0
281,10508.62564329668,2010-12-06 15:28:36,2341.172642751385,7,1,-1.0997490882873535,3.5179522037506104,0.929539490484082,0.715112182793654,3.738037303059506,2.644679807410262,-9.713172767078504e-05,0.0971632748842239,0,0,0
282,10538.64068641706,2010-12-06 15:29:06,2371.1876858717656,7,1,-1.0997490882873535,3.514228820800781,0.929539490484082,0.724280522299179,3.738037303059506,2.676917762750044,-0.0001618862152099,0.0971632748842239,0,0,0
283,10568.655710951189,2010-12-06 15:29:36,2401.20271041592,7,1,-1.099568486213684,3.510667562484741,0.929539490484082,0.733448816522225,3.738037303059506,2.709121017771211,-9.713172767078504e-05,0.0971632748842239,0,0,0
284,10598.67075908404,2010-12-06 15:30:06,2431.2177585638105,7,1,-1.099568486213684,3.5064585208892822,0.929539490484082,0.742617190635902,3.738037303059506,2.741289070662636,-0.0001295089750783,0.0971632748842239,0,0,0
285,10628.68578355301,2010-12-06 15:30:36,2461.232783007715,7,1,-1.099568486213684,3.502411365509033,0.929539490484082,0.751785516747835,3.738037303059506,2.773419314092682,-9.713172767078504e-05,0.0971632748842239,0,0,0
286,10658.700822984209,2010-12-06 15:31:06,2491.247822438915,7,1,-1.0997490882873535,3.4977166652679443,0.929539490484082,0.760953770958348,3.738037303059506,2.805509646006245,-0.0001618862152099,0.0971632748842239,0,0,0
287,10688.71587724732,2010-12-06 15:31:36,2521.262876737111,7,1,-1.0997490882873535,3.4930219650268555,0.929539490484082,0.770122061274024,3.738037303059506,2.837557675416302,-0.0001295089750783,0.0971632748842239,0,0,0
288,10718.73090314484,2010-12-06 15:32:06,2551.277902599545,7,1,-1.099568486213684,3.4880034923553467,0.929539490484082,0.779290408168724,3.738037303059506,2.869559868422569,-0.0001295089750783,0.0971632748842239,0,0,0
289,10748.746091967794,2010-12-06 15:32:36,2581.293091512726,7,1,-1.099568486213684,3.482175588607788,0.929539490484082,0.788458778789727,3.738037303059506,2.901511979583588,-0.0001618862152099,0.0971632748842239,0,0,0
290,10778.761203197664,2010-12-06 15:33:06,2611.3082027175315,7,1,-1.099568486213684,3.4757001399993896,0.929539490484082,0.797627060209287,3.738037303059506,2.933407779078466,-0.0001618862152099,0.0971632748842239,0,0,0
291,10808.77599039118,2010-12-06 15:33:36,2641.3229898508985,7,1,-1.0997490882873535,3.468577146530152,0.929539490484082,0.80679529308904,3.738037303059506,2.965241888802058,-0.0001942634553415,0.0971632748842239,0,0,0
292,10838.791042518977,2010-12-06 15:34:06,2671.338041973681,7,1,-1.099568486213684,3.460806608200073,0.929539490484082,0.81596354716647,3.738037303059506,2.997007818835363,-0.0001942634553415,0.0971632748842239,0,0,0
293,10868.806095714428,2010-12-06 15:34:36,2701.353095249332,7,1,-1.0997490882873535,3.4517409801483154,0.929539490484082,0.825131879208422,3.738037303059506,3.028696863396058,-0.0002590179501567,0.0971632748842239,0,0,0
294,10898.821122118208,2010-12-06 15:35:06,2731.3681215829392,7,1,-1.0997490882873535,3.441380262374878,0.929539490484082,0.834300219152914,3.738037303059506,3.060297900060353,-0.0002913951757363,0.0971632748842239,0,0,0
295,10928.836126697684,2010-12-06 15:35:36,2761.383126152387,7,1,-1.099568486213684,3.42923903465271,0.929539490484082,0.843468571587585,3.738037303059506,3.09179581108861,-0.0003237724304199,0.0971632748842239,0,0,0
296,10958.851174434552,2010-12-06 15:36:06,2791.3981738942675,7,1,-1.099568486213684,3.4145073890686035,0.929539490484082,0.852636942214126,3.738037303059506,3.123171568614592,-0.0004532813909463,0.0971632748842239,0,0,0
297,10988.866515947468,2010-12-06 15:36:36,2821.413515482373,7,1,-1.099568486213684,3.397023677825928,0.929539490484082,0.86180541276283,3.738037303059506,3.154399656425232,-0.0004856586456298,0.0971632748842239,0,0,0
298,11018.881233663093,2010-12-06 15:37:06,2851.428233117797,7,1,-1.0997490882873535,3.3741977214813232,0.929539490484082,0.8709736703404,3.738037303059506,3.185443255276722,-0.0006799221155233,0.0971632748842239,0,0,0
299,11048.896262893908,2010-12-06 15:37:36,2881.4432623486136,7,1,-1.099929690361023,3.3450584411621094,0.929539490484082,0.880142047957076,3.738037303059506,3.216251973446151,-0.0008418083307333,0.0971632748842239,0,0,0
300,11078.911428709613,2010-12-06 15:38:06,2911.458428164317,7,1,-1.099568486213684,3.3066914081573486,0.929539490484082,0.889310390586142,3.738037303059506,3.246753438829047,-0.0011332035064697,0.0971632748842239,0,0,0
301,11108.926431835467,2010-12-06 15:38:36,2941.473431410471,7,1,-1.0997490882873535,3.2547261714935303,0.929539490484082,0.898478710283153,3.738037303059506,3.276844774226611,-0.0016188621520996,0.0971632748842239,0,0,0
302,11138.941369393158,2010-12-06 15:39:06,2971.488368847864,7,1,-1.0997490882873535,3.1830108165740967,0.929539490484082,0.90764695780454,3.738037303059506,3.30637584079374,-0.0022016048897057,0.0971632748842239,0,0,0
303,11168.956405075029,2010-12-06 15:39:36,3001.503404534746,7,1,-1.0997490882873535,3.0772993564605717,0.929539490484082,0.916815262938159,3.738037303059506,3.335107824553866,-0.0033672333229333,0.0971632748842239,0,0,0
304,11198.971579005924,2010-12-06 15:40:06,3031.518578470656,7,1,-1.0997490882873535,2.8940446376800537,0.929539490484082,0.92598363709678,3.738037303059506,3.362576323786832,-0.0064106942154467,0.0971632748842239,0,0,0
305,11218.67429458585,2010-12-06 15:40:26,3051.221294070629,7,1,-1.099929690361023,2.699781894683838,0.929539490484082,0.932001988167013,3.738037303059506,3.379432661785438,-0.0085151670500636,0.0971632748842239,0,0,0
306,11278.688678134553,2010-12-06 15:41:26,60.01443136420246,8,1,0.0,3.380511283874512,0.929539490484082,0.932001988167013,3.738037303059506,3.379432661785438,0.0014245987404137,0.0971632748842239,0,0,0
307,11278.876368623802,2010-12-06 15:41:26,0.187430423399768,9,1,-0.001102898735553,3.381320714950561,0.929539490484082,0.93200204558834,3.738037303059506,3.379432855945362,0.0,0.0947341993451118,0,0,0
308,11283.704514494102,2010-12-06 15:41:31,5.015576213500519,9,1,0.0005225847125984,3.38876748085022,0.92954029952345,0.932002046154026,3.738040042137739,3.379432857860712,0.0011332035064697,0.0947341993451118,0,0,0
