Data_Point,Test_Time(s),Date_Time,Step_Time(s),Step_Index,Cycle_Index,Current(A),Voltage(V),Charge_Capacity(Ah),Discharge_Capacity(Ah),Charge_Energy(Wh),Discharge_Energy(Wh),dV/dt(V/s),Internal_Resistance(Ohm),Is_FC_Data,AC_Impedance(Ohm),ACI_Phase_Angle(Deg)
10359,377906.3901750088,2010-12-10 21:32:37,30.015201865411235,1,35,0.0,3.452064752578736,31.1504668665874,31.131023287022757,124.99247156426658,112.76052267587316,0.0007446765666827,0.0954576581716537,0,0,0
10360,377936.4050434143,2010-12-10 21:33:07,60.03007026600811,1,35,0.0,3.4757001399993896,31.1504668665874,31.131023287022757,124.99247156426658,112.76052267587316,0.0005504131549969,0.0954576581716537,0,0,0
10361,377966.4202251196,2010-12-10 21:33:37,90.04525199631391,1,35,0.0,3.4936695098876958,31.1504668665874,31.131023287022757,124.99247156426658,112.76052267587316,0.0004209041653666,0.0954576581716537,0,0,0
10362,377996.3884072032,2010-12-10 21:34:07,120.0134340747938,1,35,0.0,3.507591724395752,31.1504668665874,31.131023287022757,124.99247156426658,112.76052267587316,0.0002913951757363,0.0954576581716537,0,0,0
10363,378026.4054889879,2010-12-10 21:34:37,30.015018078063488,2,35,0.550297200679779,3.658792972564697,31.15505403756336,31.131023287022757,125.00911478104396,112.76052267587316,0.0013274669181555,0.0954576581716537,0,0,0
10364,378056.4205435668,2010-12-10 21:35:07,60.03007265695789,2,35,0.550297200679779,3.697807312011719,31.159641220972077,31.131023287022757,125.02599328588492,112.76052267587316,0.0008741855854168,0.0954576581716537,0,0,0
10365,378086.4379653164,2010-12-10 21:35:37,90.04749452676468,2,35,0.5501165986061096,3.725489854812622,31.16422876223459,31.131023287022757,125.04302346663908,112.76052267587316,0.0006475448608398,0.0954576581716537,0,0,0
10366,378116.4529292195,2010-12-10 21:36:07,120.0624584350287,2,35,0.5501165986061096,3.746696949005127,31.168815878068266,31.131023287022757,125.06016330911716,112.76052267587316,0.0004856586456298,0.0954576581716537,0,0,0
10367,378146.4658176832,2010-12-10 21:36:37,150.07534675827924,2,35,0.5501165986061096,3.762723445892334,31.173402608928136,31.131023287022757,125.0773871074452,112.76052267587316,0.0003885269106831,0.0954576581716537,0,0,0
10368,378176.4807358777,2010-12-10 21:37:07,180.09026496782377,2,35,0.5501165986061096,3.773893594741821,31.177989677118205,31.131023287022757,125.09467419855868,112.76052267587316,0.0002266406954731,0.0954576581716537,0,0,0
10369,378206.49582260655,2010-12-10 21:37:37,210.1053517017347,2,35,0.5501165986061096,3.78134036064148,31.182576782930244,31.131023287022757,125.11200326542632,112.76052267587316,0.0001618862152099,0.0954576581716537,0,0,0
10370,378236.5108344541,2010-12-10 21:38:07,240.12036354929384,2,35,0.5501165986061096,3.787168264389038,31.18716391314961,31.131023287022757,125.1293621810946,112.76052267587316,0.0001618862152099,0.0954576581716537,0,0,0
10371,378266.5260092121,2010-12-10 21:38:37,270.1355383072492,2,35,0.5501165986061096,3.792186737060547,31.191751060912384,31.131023287022757,125.1467459210052,112.76052267587316,0.0001618862152099,0.0954576581716537,0,0,0
10372,378296.5410756104,2010-12-10 21:39:07,300.1506047005433,2,35,0.5501165986061096,3.796881437301636,31.19633821522813,31.131023287022757,125.16415216102146,112.76052267587316,0.0001295089750783,0.0954576581716537,0,0,0
10373,378326.555985399,2010-12-10 21:39:37,330.1655144740951,2,35,0.5501165986061096,3.8015761375427246,31.20092527270482,31.131023287022757,125.18157931473598,112.76052267587316,0.0001295089750783,0.0954576581716537,0,0,0
10374,378356.57102350687,2010-12-10 21:40:07,360.18055258701463,2,35,0.5501165986061096,3.8056232929229736,31.205512426780977,31.131023287022757,125.1990270485226,112.76052267587316,3.237724376958795e-05,0.0954576581716537,0,0,0
10375,378386.5861484308,2010-12-10 21:40:37,390.195677596172,2,35,0.550297200679779,3.810156106948853,31.21009968160865,31.131023287022757,125.21649475715635,112.76052267587316,0.0001618862152099,0.0954576581716537,0,0,0
10376,378416.6011608046,2010-12-10 21:41:07,420.21068989986617,2,35,0.5501165986061096,3.8138794898986816,31.214686829503275,31.131023287022757,125.23398099584634,112.76052267587316,9.713172767078504e-05,0.0954576581716537,0,0,0
10377,378446.61620187,2010-12-10 21:41:37,450.22573096513247,2,35,0.550297200679779,3.8180885314941406,31.21927394590692,31.131023287022757,125.25148561629082,112.76052267587316,0.0001295089750783,0.0954576581716537,0,0,0
10378,378476.6312355769,2010-12-10 21:42:07,480.2407646670754,2,35,0.5501165986061096,3.8218119144439697,31.22386106520118,31.131023287022757,125.26900811460192,112.76052267587316,9.713172767078504e-05,0.0954576581716537,0,0,0
10379,378506.6463023612,2010-12-10 21:42:37,510.2558314413174,2,35,0.5501165986061096,3.825697183609009,31.228448184669656,31.131023287022757,125.28654806252848,112.76052267587316,9.713172767078504e-05,0.0954576581716537,0,0,0
10380,378536.66146012186,2010-12-10 21:43:07,540.2709891969632,2,35,0.550297200679779,3.829582452774048,31.23303526437178,31.131023287022757,125.30410520767497,112.76052267587316,0.0001618862152099,0.0954576581716537,0,0,0
10381,378566.6782513975,2010-12-10 21:43:37,570.2877805677977,2,35,0.5501165986061096,3.832982063293457,31.23762263445738,31.131023287022757,125.321680736714,112.76052267587316,3.237724376958795e-05,0.0954576581716537,0,0,0
10382,378596.6914317424,2010-12-10 21:44:07,600.3009608325333,2,35,0.550297200679779,3.836867094039917,31.242209470858725,31.131023287022757,125.339271356582,112.76052267587316,6.47544875391759e-05,0.0954576581716537,0,0,0
10383,378626.70649571466,2010-12-10 21:44:37,630.3160248048027,2,35,0.5501165986061096,3.840752363204956,31.24679653428156,31.131023287022757,125.35688002066172,112.76052267587316,0.0001295089750783,0.0954576581716537,0,0,0
10384,378656.721937447,2010-12-10 21:45:07,660.3314665220761,2,35,0.5501165986061096,3.844313859939575,31.251383688236448,31.131023287022757,125.37450623252246,112.76052267587316,6.47544875391759e-05,0.0954576581716537,0,0,0
10385,378686.73659857176,2010-12-10 21:45:37,690.3461276619125,2,35,0.5501165986061096,3.8481991291046143,31.25597077141414,31.131023287022757,125.39214937264768,112.76052267587316,9.713172767078504e-05,0.0954576581716537,0,0,0
10386,378716.7516298126,2010-12-10 21:46:07,720.3611589027311,2,35,0.5501165986061096,3.8519225120544434,31.260557867763097,31.131023287022757,125.40980976995576,112.76052267587316,0.0001295089750783,0.0954576581716537,0,0,0
10387,378746.7666682814,2010-12-10 21:46:37,750.3761973765486,2,35,0.5501165986061096,3.855645895004273,31.265144968663197,31.131023287022757,125.4274872270826,112.76052267587316,9.713172767078504e-05,0.0954576581716537,0,0,0
10388,378776.7817207149,2010-12-10 21:47:07,780.3912498050919,2,35,0.5501165986061096,3.8593692779541016,31.269732059882102,31.131023287022757,125.44518170575874,112.76052267587316,6.47544875391759e-05,0.0954576581716537,0,0,0
10389,378806.7967796446,2010-12-10 21:47:37,810.4063087197759,2,35,0.550297200679779,3.8629307746887207,31.27431914911012,31.131023287022757,125.46289294559422,112.76052267587316,9.713172767078504e-05,0.0954576581716537,0,0,0
10390,378836.8118420029,2010-12-10 21:48:07,840.4213710780288,2,35,0.5501165986061096,3.86633038520813,31.278906197595195,31.131023287022757,125.48062036763984,112.76052267587316,6.47544875391759e-05,0.0954576581716537,0,0,0
10391,378866.82687127386,2010-12-10 21:48:37,870.4364003689952,2,35,0.5501165986061096,3.869891881942749,31.2834933634839,31.131023287022757,125.49836427019314,112.76052267587316,6.47544875391759e-05,0.0954576581716537,0,0,0
10392,378896.8419300632,2010-12-10 21:49:07,900.4514591583672,2,35,0.550297200679779,3.873291492462158,31.288080506083407,31.131023287022757,125.5161236152612,112.76052267587316,0.0001295089750783,0.0954576581716537,0,0,0
10393,378926.85698144406,2010-12-10 21:49:37,930.4665105342912,2,35,0.5501165986061096,3.876367330551148,31.29266766350106,31.131023287022757,125.53389803375713,112.76052267587316,6.47544875391759e-05,0.0954576581716537,0,0,0
10394,378956.87202296057,2010-12-10 21:50:07,960.4815520556924,2,35,0.5501165986061096,3.879281282424927,31.297254838313748,31.131023287022757,125.55168697932692,112.76052267587316,0.0,0.0954576581716537,0,0,0
10395,378986.88707610586,2010-12-10 21:50:37,990.4966051960068,2,35,0.5501165986061096,3.882357120513916,31.30184196381122,31.131023287022757,125.56948951216332,112.76052267587316,9.713172767078504e-05,0.0954576581716537,0,0,0
10396,379016.90212567226,2010-12-10 21:51:07,1020.5116547524032,2,35,0.550297200679779,3.8852710723876953,31.30642914492284,31.131023287022757,125.58730543263796,112.76052267587316,9.713172767078504e-05,0.0954576581716537,0,0,0
10397,379046.9174073012,2010-12-10 21:51:37,1050.52693645649,2,35,0.550297200679779,3.8880231380462646,31.311016342843565,31.131023287022757,125.60513388595491,112.76052267587316,9.713172767078504e-05,0.0954576581716537,0,0,0
10398,379076.9322608097,2010-12-10 21:52:07,1080.5417898848286,2,35,0.5501165986061096,3.890289545059204,31.31560347658997,31.131023287022757,125.62297396553456,112.76052267587316,6.47544875391759e-05,0.0954576581716537,0,0,0
10399,379106.9473021807,2010-12-10 21:52:37,1110.556831270893,2,35,0.5501165986061096,3.8927178382873535,31.32019065927281,31.131023287022757,125.64082543910742,112.76052267587316,6.47544875391759e-05,0.0954576581716537,0,0,0
10400,379136.96234639885,2010-12-10 21:53:07,1140.5718755641924,2,35,0.5501165986061096,3.894822359085083,31.32477784727977,31.131023287022757,125.65868750398649,112.76052267587316,0.0,0.0954576581716537,0,0,0
10401,379166.97752617433,2010-12-10 21:53:37,1170.587055249409,2,35,0.5499359965324402,3.8970887660980233,31.32936501766082,31.131023287022757,125.67655907569996,112.76052267587316,0.0,0.0954576581716537,0,0,0
10402,379196.978703816,2010-12-10 21:54:07,1200.5882329813037,2,35,0.550297200679779,3.899193286895752,31.333950048772856,31.131023287022757,125.69443191393592,112.76052267587316,6.47544875391759e-05,0.0954576581716537,0,0,0
10403,379226.99189382495,2010-12-10 21:54:37,1230.6014229902871,2,35,0.550297200679779,3.901135921478272,31.338536967139216,31.131023287022757,125.71232121212736,112.76052267587316,6.47544875391759e-05,0.0954576581716537,0,0,0
10404,379257.0070389492,2010-12-10 21:55:07,1260.6165680944505,2,35,0.5501165986061096,3.902916669845581,31.343124143452176,31.131023287022757,125.73022021978372,112.76052267587316,6.47544875391759e-05,0.0954576581716537,0,0,0
10405,379287.0220007021,2010-12-10 21:55:37,1290.6315297922138,2,35,0.5501165986061096,3.90469741821289,31.347711281923885,31.131023287022757,125.7481275505672,112.76052267587316,3.237724376958795e-05,0.0954576581716537,0,0,0
10406,379317.037029186,2010-12-10 21:56:07,1320.6465582811843,2,35,0.5499359965324402,3.9064781665802,31.352298433360467,31.131023287022757,125.76604301772544,112.76052267587316,6.47544875391759e-05,0.0954576581716537,0,0,0
10407,379347.05205853714,2010-12-10 21:56:37,1350.661587627288,2,35,0.5501165986061096,3.9080970287323,31.356885572525627,31.131023287022757,125.78396645720544,112.76052267587316,3.237724376958795e-05,0.0954576581716537,0,0,0
10408,379377.06712098565,2010-12-10 21:57:07,1380.6766500757656,2,35,0.550297200679779,3.90987777709961,31.36147273510717,31.131023287022757,125.80189785356087,112.76052267587316,6.47544875391759e-05,0.0954576581716537,0,0,0
10409,379407.082201504,2010-12-10 21:57:37,1410.6917305942095,2,35,0.5501165986061096,3.911658525466919,31.366059878843817,31.131023287022757,125.81983684219632,112.76052267587316,6.47544875391759e-05,0.0954576581716537,0,0,0
10410,379437.09737174073,2010-12-10 21:58:07,1440.7069009010886,2,35,0.550297200679779,3.9132773876190186,31.370647042313973,31.131023287022757,125.83778357972236,112.76052267587316,6.47544875391759e-05,0.0954576581716537,0,0,0
10411,379467.1122718352,2010-12-10 21:58:37,1470.7218009253795,2,35,0.550297200679779,3.914896011352539,31.37523418010871,31.131023287022757,125.85573786115424,112.76052267587316,3.237724376958795e-05,0.0954576581716537,0,0,0
10412,379497.1273274066,2010-12-10 21:59:08,1500.7368564817066,2,35,0.5499359965324402,3.9163529872894287,31.37982137501456,31.131023287022757,125.8736998235203,112.76052267587316,3.237724376958795e-05,0.0954576581716537,0,0,0
10413,379527.1426080481,2010-12-10 21:59:38,1530.7521371933233,2,35,0.5501165986061096,3.9181337356567374,31.384408489226185,31.131023287022757,125.89166904744896,112.76052267587316,3.237724376958795e-05,0.0954576581716537,0,0,0
10414,379557.15743039903,2010-12-10 22:00:08,1560.7669594741528,2,35,0.5501165986061096,3.919752597808838,31.38899557434781,31.131023287022757,125.909645721494,112.76052267587316,0.0,0.0954576581716537,0,0,0
10415,379587.17259293655,2010-12-10 22:00:38,1590.7821220267356,2,35,0.5501165986061096,3.9213714599609375,31.393582685480247,31.131023287022757,125.92763000697953,112.76052267587316,6.47544875391759e-05,0.0954576581716537,0,0,0
10416,379617.1875381032,2010-12-10 22:01:08,1620.797067193362,2,35,0.5501165986061096,3.922990322113037,31.39816983069705,31.131023287022757,125.94562199562677,112.76052267587316,3.237724376958795e-05,0.0954576581716537,0,0,0
10417,379647.2025805419,2010-12-10 22:01:38,1650.812109632046,2,35,0.550297200679779,3.9246091842651367,31.402757003112782,31.131023287022757,125.96362159125935,112.76052267587316,0.0,0.0954576581716537,0,0,0
10418,379677.2176616267,2010-12-10 22:02:08,1680.8271907168994,2,35,0.5501165986061096,3.926228046417236,31.407344210980742,31.131023287022757,125.9816288181332,112.76052267587316,0.0,0.0954576581716537,0,0,0
10419,379707.2327974629,2010-12-10 22:02:38,1710.8423265379618,2,35,0.5501165986061096,3.927846908569336,31.411931309499245,31.131023287022757,125.9996430901486,112.76052267587316,3.237724376958795e-05,0.0954576581716537,0,0,0
10420,379737.2477015623,2010-12-10 22:03:08,1740.8572306574436,2,35,0.550297200679779,3.9296276569366455,31.416518447874395,31.131023287022757,126.01766504866484,112.76052267587316,3.237724376958795e-05,0.0954576581716537,0,0,0
10421,379767.262856556,2010-12-10 22:03:38,1770.8723856512163,2,35,0.550297200679779,3.931246519088745,31.421105574008784,31.131023287022757,126.03569455328272,112.76052267587316,3.237724376958795e-05,0.0954576581716537,0,0,0
10422,379797.2796631999,2010-12-10 22:04:08,1800.8891923802694,2,35,0.5501165986061096,3.9328653812408447,31.425693006613148,31.131023287022757,126.05373278756338,112.76052267587316,0.0,0.0954576581716537,0,0,0
10423,379827.2928868926,2010-12-10 22:04:38,1830.902415987862,2,35,0.5501165986061096,3.9346461296081534,31.430279906184644,31.131023287022757,126.07177648927149,112.76052267587316,3.237724376958795e-05,0.0954576581716537,0,0,0
10424,379857.30789348215,2010-12-10 22:05:08,1860.9174225723243,2,35,0.550297200679779,3.936264991760254,31.43486711117303,31.131023287022757,126.08982899135422,112.76052267587316,3.237724376958795e-05,0.0954576581716537,0,0,0
10425,379887.3230797838,2010-12-10 22:05:38,1890.932608879018,2,35,0.550297200679779,3.9378838539123535,31.43945441713577,31.131023287022757,126.10788934601226,112.76052267587316,3.237724376958795e-05,0.0954576581716537,0,0,0
10426,379917.3379853018,2010-12-10 22:06:08,1920.9475143869552,2,35,0.550297200679779,3.939502716064453,31.44404158613566,31.131023287022757,126.12595684386685,112.76052267587316,3.237724376958795e-05,0.0954576581716537,0,0,0
10427,379947.35303288326,2010-12-10 22:06:38,1950.9625619784613,2,35,0.5504778623580933,3.9412834644317623,31.44862880437389,31.131023287022757,126.14403215450896,112.76052267587316,6.47544875391759e-05,0.0954576581716537,0,0,0
10428,379977.3680754473,2010-12-10 22:07:08,1980.977604537445,2,35,0.5501165986061096,3.942740440368652,31.45321601282362,31.131023287022757,126.1621149847343,112.76052267587316,0.0,0.0954576581716537,0,0,0
10429,380007.383132372,2010-12-10 22:07:38,2010.992661472202,2,35,0.5501165986061096,3.944359302520752,31.457803186590716,31.131023287022757,126.18020533841307,112.76052267587316,3.237724376958795e-05,0.0954576581716537,0,0,0
10430,380037.400715057,2010-12-10 22:08:08,2041.010244237391,2,35,0.5501165986061096,3.9461400508880615,31.462390787196245,31.131023287022757,126.19830504182768,112.76052267587316,3.237724376958795e-05,0.0954576581716537,0,0,0
10431,380067.41537709406,2010-12-10 22:08:38,2071.0249062594226,2,35,0.5501165986061096,3.947758913040161,31.46697794568337,31.131023287022757,126.21641057175886,112.76052267587316,3.237724376958795e-05,0.0954576581716537,0,0,0
10432,380097.4283005398,2010-12-10 22:09:08,2101.037829629887,2,35,0.550297200679779,3.949539661407471,31.47156487445008,31.131023287022757,126.23452297244054,112.76052267587316,6.47544875391759e-05,0.0954576581716537,0,0,0
10433,380127.44334389066,2010-12-10 22:09:38,2131.052872970816,2,35,0.5501165986061096,3.9511585235595694,31.47615214994964,31.131023287022757,126.25264447688852,112.76052267587316,3.237724376958795e-05,0.0954576581716537,0,0,0
10434,380157.4584096875,2010-12-10 22:10:08,2161.067938767625,2,35,0.550297200679779,3.95293927192688,31.48073940773789,31.131023287022757,126.27077364478168,112.76052267587316,6.47544875391759e-05,0.0954576581716537,0,0,0
10435,380187.4734519357,2010-12-10 22:10:38,2191.0829810960354,2,35,0.550297200679779,3.9547200202941895,31.485326682429008,31.131023287022757,126.28891070095716,112.76052267587316,6.47544875391759e-05,0.0954576581716537,0,0,0
10436,380217.48864831246,2010-12-10 22:11:08,2221.0981774978504,2,35,0.550297200679779,3.956338882446289,31.48991397718424,31.131023287022757,126.30705567386158,112.76052267587316,6.47544875391759e-05,0.0954576581716537,0,0,0
10437,380247.50360230106,2010-12-10 22:11:38,2251.113131391193,2,35,0.5501165986061096,3.9579577445983887,31.494501265334744,31.131023287022757,126.32520839753856,112.76052267587316,0.0,0.0954576581716537,0,0,0
10438,380277.518629587,2010-12-10 22:12:08,2281.128158667145,2,35,0.5504778623580933,3.959738492965698,31.499088519058592,31.131023287022757,126.34336889949228,112.76052267587316,3.237724376958795e-05,0.0954576581716537,0,0,0
10439,380307.53366737405,2010-12-10 22:12:38,2311.1431965394654,2,35,0.5501165986061096,3.961519241333008,31.503675839315235,31.131023287022757,126.36153759110846,112.76052267587316,3.237724376958795e-05,0.0954576581716537,0,0,0
10440,380337.5488476709,2010-12-10 22:13:08,2341.158376761017,2,35,0.5501165986061096,3.963299989700317,31.50826315883545,31.131023287022757,126.37971424781396,112.76052267587316,3.237724376958795e-05,0.0954576581716537,0,0,0
10441,380367.56375564,2010-12-10 22:13:38,2371.1732847200533,2,35,0.550297200679779,3.964918851852417,31.512850366791483,31.131023287022757,126.3978984622394,112.76052267587316,3.237724376958795e-05,0.0954576581716537,0,0,0
10442,380397.5806602426,2010-12-10 22:14:08,2401.1901895031097,2,35,0.550297200679779,3.966861486434937,31.517437951216465,31.131023287022757,126.41609226150318,112.76052267587316,6.47544875391759e-05,0.0954576581716537,0,0,0
10443,380427.5938683917,2010-12-10 22:14:38,2431.2033974717856,2,35,0.5501165986061096,3.968480348587036,31.52202502985089,31.131023287022757,126.43429211725278,112.76052267587316,3.237724376958795e-05,0.0954576581716537,0,0,0
10444,380457.6089269254,2010-12-10 22:15:08,2461.2184560055216,2,35,0.5501165986061096,3.9702610969543457,31.526612206233818,31.131023287022757,126.45250043795232,112.76052267587316,6.47544875391759e-05,0.0954576581716537,0,0,0
10445,380487.6240730772,2010-12-10 22:15:38,2491.2336022224536,2,35,0.550297200679779,3.972203731536865,31.531199481587308,31.131023287022757,126.47071742377076,112.76052267587316,6.47544875391759e-05,0.0954576581716537,0,0,0
10446,380517.6390079532,2010-12-10 22:16:08,2521.2485370483478,2,35,0.5501165986061096,3.973822593688965,31.535786720756857,31.131023287022757,126.4889425373832,112.76052267587316,3.237724376958795e-05,0.0954576581716537,0,0,0
10447,380547.6541731624,2010-12-10 22:16:38,2551.263702257541,2,35,0.550297200679779,3.975765228271485,31.54037410438731,31.131023287022757,126.50717660146776,112.76052267587316,3.237724376958795e-05,0.0954576581716537,0,0,0
10448,380577.6691097226,2010-12-10 22:17:08,2581.2786388779,2,35,0.5501165986061096,3.977384090423584,31.544961442771665,31.131023287022757,126.52541888558592,112.76052267587316,0.0,0.0954576581716537,0,0,0
10449,380607.6843786298,2010-12-10 22:17:38,2611.293907775117,2,35,0.550297200679779,3.9794886112213135,31.549548830275416,31.131023287022757,126.54366936102096,112.76052267587316,6.47544875391759e-05,0.0954576581716537,0,0,0
10450,380637.69922314095,2010-12-10 22:18:08,2641.308752326366,2,35,0.5501165986061096,3.981269359588623,31.55413602255474,31.131023287022757,126.56192810347062,112.76052267587316,6.47544875391759e-05,0.0954576581716537,0,0,0
10451,380667.7144280289,2010-12-10 22:18:38,2671.3239571040244,2,35,0.550297200679779,3.983373880386353,31.558723308549315,31.131023287022757,126.58019585692902,112.76052267587316,6.47544875391759e-05,0.0954576581716537,0,0,0
10452,380697.7297218081,2010-12-10 22:19:08,2701.3392509533337,2,35,0.5501165986061096,3.984992742538452,31.563310537081325,31.131023287022757,126.59847205490138,112.76052267587316,6.47544875391759e-05,0.0954576581716537,0,0,0
10453,380727.7443755795,2010-12-10 22:19:38,2731.3539046747096,2,35,0.5501165986061096,3.9870972633361816,31.567897723414024,31.131023287022757,126.61675686966308,112.76052267587316,6.47544875391759e-05,0.0954576581716537,0,0,0
10454,380757.75955793145,2010-12-10 22:20:08,2761.369087076687,2,35,0.550297200679779,3.989039897918701,31.57248492123449,31.131023287022757,126.63505060270155,112.76052267587316,6.47544875391759e-05,0.0954576581716537,0,0,0
10455,380787.77447406587,2010-12-10 22:20:38,2791.3840031559303,2,35,0.5499359965324402,3.9909825325012207,31.57707213071339,31.131023287022757,126.65335339410184,112.76052267587316,6.47544875391759e-05,0.0954576581716537,0,0,0
10456,380817.7895521382,2010-12-10 22:21:08,2821.399081323525,2,35,0.550297200679779,3.99292516708374,31.58165937286557,31.131023287022757,126.67166542742368,112.76052267587316,3.237724376958795e-05,0.0954576581716537,0,0,0
10457,380847.8045803765,2010-12-10 22:21:38,2851.4141094666343,2,35,0.550297200679779,3.99502944946289,31.58624660981082,31.131023287022757,126.68998659346084,112.76052267587316,9.713172767078504e-05,0.0954576581716537,0,0,0
10458,380877.81965874456,2010-12-10 22:22:08,2881.429187834727,2,35,0.5501165986061096,3.99697208404541,31.590833849315743,31.131023287022757,126.70831709891654,112.76052267587316,3.237724376958795e-05,0.0954576581716537,0,0,0
10459,380907.8348094627,2010-12-10 22:22:38,2911.4443385528607,2,35,0.5501165986061096,3.99907660484314,31.595421153560483,31.131023287022757,126.72665724441724,112.76052267587316,9.713172767078504e-05,0.0954576581716537,0,0,0
10460,380937.84974282497,2010-12-10 22:23:08,2941.459271905087,2,35,0.5501165986061096,4.001181125640869,31.60000834132165,31.131023287022757,126.74500642557112,112.76052267587316,6.47544875391759e-05,0.0954576581716537,0,0,0
10461,380967.8648347618,2010-12-10 22:23:38,2971.474363907107,2,35,0.550297200679779,4.003447532653809,31.604595569381623,31.131023287022757,126.76336537615032,112.76052267587316,0.0001295089750783,0.0954576581716537,0,0,0
10462,380997.8818864354,2010-12-10 22:24:08,3001.491415615782,2,35,0.5501165986061096,4.005228519439697,31.609183104111384,31.131023287022757,126.78173531780018,112.76052267587316,3.24249267578125e-05,0.0954576581716537,0,0,0
10463,381027.89490378974,2010-12-10 22:24:38,3031.50443288491,2,35,0.5501165986061096,4.007656574249268,31.613770006340086,31.131023287022757,126.80011261941,112.76052267587316,9.70840483205393e-05,0.0954576581716537,0,0,0
10464,381057.90995757165,2010-12-10 22:25:08,3061.5194866618085,2,35,0.550297200679779,4.009599208831787,31.61835731693847,31.131023287022757,126.81850148189883,112.76052267587316,3.23295607813634e-05,0.0954576581716537,0,0,0
10465,381087.9250321804,2010-12-10 22:25:38,3091.534561270546,2,35,0.5501165986061096,4.012027740478516,31.622944541517096,31.131023287022757,126.83690003661847,112.76052267587316,6.47544875391759e-05,0.0954576581716537,0,0,0
10466,381117.9400660277,2010-12-10 22:26:08,3121.549595122864,2,35,0.550297200679779,4.014132022857666,31.62753177345241,31.131023287022757,126.85530881899795,112.76052267587316,3.23295607813634e-05,0.0954576581716537,0,0,0
10467,381147.955122366,2010-12-10 22:26:38,3151.564651456124,2,35,0.550297200679779,4.0163984298706055,31.63211907732652,31.131023287022757,126.87372818164512,112.76052267587316,3.23295607813634e-05,0.0954576581716537,0,0,0
10468,381177.97015805286,2010-12-10 22:27:08,3181.579687132981,2,35,0.550297200679779,4.018826961517334,31.63670634281868,31.131023287022757,126.8921577828074,112.76052267587316,6.47544875391759e-05,0.0954576581716537,0,0,0
10469,381207.98523107264,2010-12-10 22:27:38,3211.59476014274,2,35,0.5501165986061096,4.020931243896484,31.641293563356083,31.131023287022757,126.91059761339794,112.76052267587316,3.23295607813634e-05,0.0954576581716537,0,0,0
10470,381238.00030334055,2010-12-10 22:28:08,3241.6098325209277,2,35,0.5501165986061096,4.023359775543213,31.64588079938977,31.131023287022757,126.92904828034663,112.76052267587316,6.47544875391759e-05,0.0954576581716537,0,0,0
10471,381268.0153301554,2010-12-10 22:28:38,3271.624859245507,2,35,0.5501165986061096,4.025787830352783,31.65046808086573,31.131023287022757,126.94750997530232,112.76052267587316,9.70840483205393e-05,0.0954576581716537,0,0,0
10472,381298.0304677108,2010-12-10 22:29:08,3301.639996866048,2,35,0.5501165986061096,4.028054237365723,31.65505533933945,31.131023287022757,126.96598250034938,112.76052267587316,6.47544875391759e-05,0.0954576581716537,0,0,0
10473,381328.04543417535,2010-12-10 22:29:38,3331.6549632404485,2,35,0.5501165986061096,4.030482769012451,31.65964256025812,31.131023287022757,126.98446582932912,112.76052267587316,6.47544875391759e-05,0.0954576581716537,0,0,0
10474,381358.0604935813,2010-12-10 22:30:08,3361.6700226463545,2,35,0.550297200679779,4.0330729484558105,31.66422977172245,31.131023287022757,127.00296021485272,112.76052267587316,6.47544875391759e-05,0.0954576581716537,0,0,0
10475,381388.0755331979,2010-12-10 22:30:38,3391.685062293091,2,35,0.5501165986061096,4.035338878631592,31.668816996314927,31.131023287022757,127.02146596317615,112.76052267587316,3.23295607813634e-05,0.0954576581716537,0,0,0
10476,381418.0905996714,2010-12-10 22:31:09,3421.7001287415223,2,35,0.5501165986061096,4.037929058074951,31.673404251634217,31.131023287022757,127.03998323095112,112.76052267587316,6.47544875391759e-05,0.0954576581716537,0,0,0
10477,381448.1057782188,2010-12-10 22:31:39,3451.715307409207,2,35,0.5501165986061096,4.04035758972168,31.67799152735327,31.131023287022757,127.0585119794215,112.76052267587316,9.71794142969884e-05,0.0954576581716537,0,0,0
10478,381478.1207074708,2010-12-10 22:32:09,3481.730236555968,2,35,0.550297200679779,4.042947769165039,31.682578702632476,31.131023287022757,127.07705185309604,112.76052267587316,6.47544875391759e-05,0.0954576581716537,0,0,0
10479,381508.1357674181,2010-12-10 22:32:39,3511.7452965032217,2,35,0.550297200679779,4.045537948608398,31.687165978736743,31.131023287022757,127.0956038627855,112.76052267587316,6.47544875391759e-05,0.0954576581716537,0,0,0
10480,381538.1508351145,2010-12-10 22:33:09,3541.7603642047707,2,35,0.550297200679779,4.048128128051758,31.69175324886857,31.131023287022757,127.1141676641488,112.76052267587316,3.24249267578125e-05,0.0954576581716537,0,0,0
10481,381568.1658639044,2010-12-10 22:33:39,3571.77539299449,2,35,0.5501165986061096,4.050879955291748,31.69634053461306,31.131023287022757,127.1327434621616,112.76052267587316,0.0001295089750783,0.0954576581716537,0,0,0
10482,381598.1828117345,2010-12-10 22:34:09,3601.792340904867,2,35,0.5501165986061096,4.053308486938477,31.70092808193877,31.131023287022757,127.15133231796943,112.76052267587316,6.47544875391759e-05,0.0954576581716537,0,0,0
10483,381628.1959732376,2010-12-10 22:34:39,3631.805502332728,2,35,0.5501165986061096,4.055898666381836,31.70551510919876,31.131023287022757,127.169931238646,112.76052267587316,6.47544875391759e-05,0.0954576581716537,0,0,0
10484,381658.2110390845,2010-12-10 22:35:09,3661.8205681746495,2,35,0.5501165986061096,4.058812618255615,31.710102429089737,31.131023287022757,127.18854364396375,112.76052267587316,6.47544875391759e-05,0.0954576581716537,0,0,0
10485,381688.2262202384,2010-12-10 22:35:39,3691.835749313484,2,35,0.5501165986061096,4.0612406730651855,31.71468977372885,31.131023287022757,127.20716836928077,112.76052267587316,9.70840483205393e-05,0.0954576581716537,0,0,0
10486,381718.2411751843,2010-12-10 22:36:09,3721.8507042694714,2,35,0.550297200679779,4.064154624938965,31.719276974108983,31.131023287022757,127.22580485788264,112.76052267587316,6.47544875391759e-05,0.0954576581716537,0,0,0
10487,381748.256190701,2010-12-10 22:36:39,3751.86571976611,2,35,0.5501165986061096,4.066906929016113,31.72386422140209,31.131023287022757,127.24445416063534,112.76052267587316,9.71794142969884e-05,0.0954576581716537,0,0,0
10488,381778.2712359917,2010-12-10 22:37:09,3781.880765086966,2,35,0.550297200679779,4.069658756256104,31.72845140326124,31.131023287022757,127.26311590968356,112.76052267587316,6.47544875391759e-05,0.0954576581716537,0,0,0
10489,381808.2862894028,2010-12-10 22:37:39,3811.895818477904,2,35,0.550297200679779,4.072411060333252,31.73303870654688,31.131023287022757,127.28179095269188,112.76052267587316,6.47544875391759e-05,0.0954576581716537,0,0,0
10490,381838.3013539816,2010-12-10 22:38:09,3841.910883071721,2,35,0.5501165986061096,4.075162887573242,31.73762594064491,31.131023287022757,127.3004785991014,112.76052267587316,6.47544875391759e-05,0.0954576581716537,0,0,0
10491,381868.3165218424,2010-12-10 22:38:39,3871.9260509325127,2,35,0.5501165986061096,4.0780768394470215,31.742213205898487,31.131023287022757,127.31917938478246,112.76052267587316,9.70840483205393e-05,0.0954576581716537,0,0,0
10492,381898.3314539165,2010-12-10 22:39:09,3901.9409830065583,2,35,0.5501165986061096,4.080990791320801,31.74680046881248,31.131023287022757,127.33789338194012,112.76052267587316,6.47544875391759e-05,0.0954576581716537,0,0,0
10493,381928.3465308961,2010-12-10 22:39:39,3931.956059981184,2,35,0.5501165986061096,4.083743095397949,31.751387701378963,31.131023287022757,127.35662042296786,112.76052267587316,6.47544875391759e-05,0.0954576581716537,0,0,0
10494,381958.36176274606,2010-12-10 22:40:09,3961.971291836224,2,35,0.5501165986061096,4.086818695068359,31.75597495321378,31.131023287022757,127.37536097447637,112.76052267587316,6.47544875391759e-05,0.0954576581716537,0,0,0
10495,381988.36339315947,2010-12-10 22:40:39,3991.9729223348095,2,35,0.5501165986061096,4.089732646942139,31.76056008826487,31.131023287022757,127.39410639827952,112.76052267587316,9.70840483205393e-05,0.0954576581716537,0,0,0
10496,382018.3761454944,2010-12-10 22:41:09,4021.9856745694096,2,35,0.5501165986061096,4.092808723449707,31.765146957800297,31.131023287022757,127.4128725742107,112.76052267587316,6.47544875391759e-05,0.0954576581716537,0,0,0
10497,382048.3777165399,2010-12-10 22:41:39,4051.987245720312,2,35,0.550297200679779,4.095884323120117,31.76973210123784,31.131023287022757,127.43164541617936,112.76052267587316,9.70840483205393e-05,0.0954576581716537,0,0,0
10498,382078.3905616005,2010-12-10 22:42:09,4082.0000907859176,2,35,0.5501165986061096,4.0987982749938965,31.774319037919177,31.131023287022757,127.45043949247996,112.76052267587316,6.47544875391759e-05,0.0954576581716537,0,0,0
10499,382108.4057186093,2010-12-10 22:42:39,4112.015247749592,2,35,0.550297200679779,4.101874351501465,31.778906324551304,31.131023287022757,127.46924899651492,112.76052267587316,9.71794142969884e-05,0.0954576581716537,0,0,0
10500,382138.4206528989,2010-12-10 22:43:09,4142.0301819890265,2,35,0.5501165986061096,4.104788303375244,31.78349358726923,31.131023287022757,127.4880723337056,112.76052267587316,3.24249267578125e-05,0.0954576581716537,0,0,0
10501,382168.43568915216,2010-12-10 22:43:39,4172.045218247331,2,35,0.5501165986061096,4.108026027679443,31.788080866517618,31.131023287022757,127.50690993999535,112.76052267587316,9.71794142969884e-05,0.0954576581716537,0,0,0
10502,382198.4508879499,2010-12-10 22:44:09,4202.060417040096,2,35,0.550297200679779,4.111263751983643,31.79266811344257,31.131023287022757,127.5257617608935,112.76052267587316,9.71794142969884e-05,0.0954576581716537,0,0,0
10503,382228.4658250415,2010-12-10 22:44:39,4232.07535413664,2,35,0.5501165986061096,4.114339351654053,31.79725536918292,31.131023287022757,127.54462801180526,112.76052267587316,9.70840483205393e-05,0.0954576581716537,0,0,0
10504,382258.4826693841,2010-12-10 22:45:09,4262.092198564505,2,35,0.5501165986061096,4.117577075958252,31.801842916204627,31.131023287022757,127.56350999001184,112.76052267587316,9.71794142969884e-05,0.0954576581716537,0,0,0
10505,382288.4960419975,2010-12-10 22:45:39,4292.105571077643,2,35,0.550297200679779,4.120814800262451,31.806429942395013,31.131023287022757,127.58240451856638,112.76052267587316,9.71794142969884e-05,0.0954576581716537,0,0,0
10506,382318.510971034,2010-12-10 22:46:09,4322.1205001091175,2,35,0.5501165986061096,4.123890399932861,31.8110171588492,31.131023287022757,127.60131460815124,112.76052267587316,6.47544875391759e-05,0.0954576581716537,0,0,0
10507,382348.52602909657,2010-12-10 22:46:39,4352.135558186718,2,35,0.550297200679779,4.1271281242370605,31.81560441662724,31.131023287022757,127.62023978178232,112.76052267587316,6.47544875391759e-05,0.0954576581716537,0,0,0
10508,382378.54108060285,2010-12-10 22:47:09,4382.150609692967,2,35,0.5501165986061096,4.13036584854126,31.82019169006917,31.131023287022757,127.63918000635988,112.76052267587316,6.47544875391759e-05,0.0954576581716537,0,0,0
10509,382408.5561344599,2010-12-10 22:47:39,4412.165663550065,2,35,0.550297200679779,4.134089469909668,31.82477898432575,31.131023287022757,127.65813544539476,112.76052267587316,0.0001619339018361,0.0954576581716537,0,0,0
10510,382438.57123229146,2010-12-10 22:48:09,4442.180761476829,2,35,0.5501165986061096,4.137003421783447,31.82936630684593,31.131023287022757,127.67710627255693,112.76052267587316,6.47544875391759e-05,0.0954576581716537,0,0,0
10511,382468.5863852903,2010-12-10 22:48:39,4472.195914455588,2,35,0.550297200679779,4.140564918518066,31.83395363852195,31.131023287022757,127.69609250988158,112.76052267587316,9.71794142969884e-05,0.0954576581716537,0,0,0
10512,382498.6013155097,2010-12-10 22:49:09,4502.210844599831,2,35,0.550297200679779,4.143802642822266,31.838540974345925,31.131023287022757,127.71509423535684,112.76052267587316,6.47544875391759e-05,0.0954576581716537,0,0,0
10513,382528.6163462342,2010-12-10 22:49:39,4532.225875329377,2,35,0.550297200679779,4.147364139556885,31.843128216667324,31.131023287022757,127.7341114722021,112.76052267587316,6.47544875391759e-05,0.0954576581716537,0,0,0
10514,382558.6313939761,2010-12-10 22:50:09,4562.240923071257,2,35,0.5499359965324402,4.150763511657715,31.84771547842065,31.131023287022757,127.7531445200693,112.76052267587316,6.47544875391759e-05,0.0954576581716537,0,0,0
10515,382588.6466794947,2010-12-10 22:50:39,4592.256208680062,2,35,0.550297200679779,4.154163360595703,31.852302795146905,31.131023287022757,127.77219351013804,112.76052267587316,6.47544875391759e-05,0.0954576581716537,0,0,0
10516,382618.66151606606,2010-12-10 22:51:09,4622.271045156215,2,35,0.5501165986061096,4.157562732696533,31.856890021557465,31.131023287022757,127.79125802460426,112.76052267587316,6.47544875391759e-05,0.0954576581716537,0,0,0
10517,382648.6765804544,2010-12-10 22:51:39,4652.2861095445205,2,35,0.550297200679779,4.161448001861572,31.86147725477452,31.131023287022757,127.81033863730008,112.76052267587316,0.0001295089750783,0.0954576581716537,0,0,0
10518,382678.6917374031,2010-12-10 22:52:09,4682.301266498171,2,35,0.5501165986061096,4.164685726165772,31.866064465566858,31.131023287022757,127.82943525932068,112.76052267587316,9.70840483205393e-05,0.0954576581716537,0,0,0
10519,382708.7066250465,2010-12-10 22:52:39,4712.31615413664,2,35,0.5499359965324402,4.168247222900391,31.87065129423599,31.131023287022757,127.84854641527949,112.76052267587316,6.47544875391759e-05,0.0954576581716537,0,0,0
10520,382738.7218137892,2010-12-10 22:53:09,4742.331342879396,2,35,0.5499359965324402,4.17180871963501,31.87523782098046,31.131023287022757,127.86767263533652,112.76052267587316,9.70840483205393e-05,0.0954576581716537,0,0,0
10521,382768.7368855909,2010-12-10 22:53:39,4772.346414681148,2,35,0.5501165986061096,4.175370216369629,31.87982444547933,31.131023287022757,127.88681569730112,112.76052267587316,9.70840483205393e-05,0.0954576581716537,0,0,0
10522,382798.7518311687,2010-12-10 22:54:09,4802.361360258798,2,35,0.5501165986061096,4.179093837738037,31.884410906544037,31.131023287022757,127.90597454731544,112.76052267587316,0.0001295089750783,0.0954576581716537,0,0,0
10523,382828.76686272526,2010-12-10 22:54:39,4832.376391815403,2,35,0.550297200679779,4.182816982269287,31.888997438791737,31.131023287022757,127.92515033670348,112.76052267587316,0.0001295089750783,0.0954576581716537,0,0,0
10524,382858.7837571425,2010-12-10 22:55:09,4862.393286232664,2,35,0.5499359965324402,4.186378479003906,31.893584280227973,31.131023287022757,127.94434416439114,112.76052267587316,6.47544875391759e-05,0.0954576581716537,0,0,0
10525,382888.7971059165,2010-12-10 22:55:39,4892.406634996702,2,35,0.550297200679779,4.190263748168945,31.898170808086967,31.131023287022757,127.96355364817268,112.76052267587316,0.0001618385285837,0.0954576581716537,0,0,0
10526,382918.8121590418,2010-12-10 22:56:09,4922.421688116968,2,35,0.550297200679779,4.1939873695373535,31.902758140918436,31.131023287022757,127.98278356554752,112.76052267587316,0.0001295089750783,0.0954576581716537,0,0,0
10527,382948.8270851611,2010-12-10 22:56:39,4952.436614251233,2,35,0.5501165986061096,4.197710514068604,31.90734551687524,31.131023287022757,128.00203079610992,112.76052267587316,9.71794142969884e-05,0.0954576581716537,0,0,0
10528,382967.139262891,2010-12-10 22:56:58,4970.748791966162,2,35,0.550297200679779,4.200138568878174,31.910144267678373,31.131023287022757,128.0137819527255,112.76052267587316,0.0001618385285837,0.0954576581716537,0,0,0
10529,382997.1421676858,2010-12-10 22:57:28,30.01515041237233,3,35,0.0,4.109644889831543,31.910144267678373,31.131023287022757,128.0137819527255,112.76052267587316,-0.0004208564641885,0.0954576581716537,0,0,0
10530,383027.15719344286,2010-12-10 22:57:58,60.030176154507565,3,35,0.0,4.098150730133057,31.910144267678373,31.131023287022757,128.0137819527255,112.76052267587316,-0.0002266883820993,0.0954576581716537,0,0,0
10531,383057.1722106288,2010-12-10 22:58:28,90.04519344561274,3,35,0.0,4.091351509094238,31.910144267678373,31.131023287022757,128.0137819527255,112.76052267587316,-9.71794142969884e-05,0.0954576581716537,0,0,0
10532,383087.1403888225,2010-12-10 22:58:58,120.01337163441332,3,35,0.0,4.086818695068359,31.910144267678373,31.131023287022757,128.0137819527255,112.76052267587316,-0.0001295089750783,0.0954576581716537,0,0,0
10533,383087.14599490765,2010-12-10 22:58:58,2.566386354e-06,4,35,1.0108509063720703,4.199814796447754,31.91014426839899,31.131023287022757,128.013781955752,112.76052267587316,0.0,0.0954576581716537,0,0,0
10534,383087.8801294684,2010-12-10 22:58:59,0.734137172116767,4,35,0.9600996971130372,4.199814796447754,31.910343758851926,31.131023287022757,128.01461977878796,112.76052267587316,0.0,0.0954576581716537,0,0,0
10535,383089.77071480727,2010-12-10 22:59:01,2.624722511017802,4,35,0.9098902940750122,4.199814796447754,31.91083369799072,31.131023287022757,128.01667742189082,112.76052267587316,0.0,0.0954576581716537,0,0,0
10536,383092.6769196963,2010-12-10 22:59:03,5.53092740010719,4,35,0.8595002889633179,4.199653148651123,31.91154678690133,31.131023287022757,128.0196722435769,112.76052267587316,0.0,0.0954576581716537,0,0,0
10537,383096.7081121437,2010-12-10 22:59:07,9.562119842454107,4,35,0.8092909455299377,4.199814796447754,31.9124800060343,31.131023287022757,128.02359157191697,112.76052267587316,0.0,0.0954576581716537,0,0,0
10538,383102.05425719504,2010-12-10 22:59:13,14.908264968980502,4,35,0.7590815424919128,4.199814796447754,31.91364322780649,31.131023287022757,128.02847688021544,112.76052267587316,0.0,0.0954576581716537,0,0,0
10539,383108.98911342304,2010-12-10 22:59:20,21.843121106754115,4,35,0.7085109353065491,4.199814796447754,31.91505541172637,31.131023287022757,128.03440778955317,112.76052267587316,0.0,0.0954576581716537,0,0,0
10540,383118.2389394344,2010-12-10 22:59:29,31.09294714308298,4,35,0.6584821939468384,4.199814796447754,31.91680950845295,31.131023287022757,128.04177466708072,112.76052267587316,-3.24249267578125e-05,0.0954576581716537,0,0,0
10541,383130.9730549209,2010-12-10 22:59:42,43.82706262468528,4,35,0.6084533929824829,4.199814796447754,31.91904578468546,31.131023287022757,128.05116663732755,112.76052267587316,0.0,0.0954576581716537,0,0,0
10542,383150.1134630403,2010-12-10 23:00:01,62.9674708092831,4,35,0.5584246516227722,4.199814796447754,31.92213854968552,31.131023287022757,128.06415570855793,112.76052267587316,0.0,0.0954576581716537,0,0,0
10543,383182.4408299997,2010-12-10 23:00:33,95.29483769842648,4,35,0.5083958506584167,4.199814796447754,31.926908266594232,31.131023287022757,128.08418765212326,112.76052267587316,0.0,0.0954576581716537,0,0,0
10544,383242.9865658397,2010-12-10 23:01:34,155.84057352334463,4,35,0.458367109298706,4.199653148651123,31.93499931936337,31.131023287022757,128.11816864135045,112.76052267587316,-3.23295607813634e-05,0.0954576581716537,0,0,0
10545,383340.7659857804,2010-12-10 23:03:12,253.6199935493324,4,35,0.408338338136673,4.199814796447754,31.94673829747543,31.131023287022757,128.16747032773384,112.76052267587316,0.0,0.0954576581716537,0,0,0
10546,383466.2793110128,2010-12-10 23:05:17,379.1333186965256,4,35,0.3581289649009704,4.199814796447754,31.960084747889464,31.131023287022757,128.22352317242425,112.76052267587316,0.0,0.0954576581716537,0,0,0
10547,383617.1826099281,2010-12-10 23:07:48,530.0366176119035,4,35,0.3081001937389374,4.199814796447754,31.97403269299318,31.131023287022757,128.28210214957645,112.76052267587316,0.0,0.0954576581716537,0,0,0
10548,383796.04111108417,2010-12-10 23:10:47,708.8951188731189,4,35,0.2580714225769043,4.199653148651123,31.988072912371585,31.131023287022757,128.3410685756686,112.76052267587316,0.0,0.0954576581716537,0,0,0
10549,384017.0187669968,2010-12-10 23:14:28,929.8727747005048,4,35,0.20804263651371,4.199814796447754,32.00234684676369,31.131023287022757,128.40101656985473,112.76052267587316,0.0,0.0954576581716537,0,0,0
10550,384311.04678351706,2010-12-10 23:19:22,1223.9007912910204,4,35,0.1578332632780075,4.199814796447754,32.01721356677605,31.131023287022757,128.46345422751702,112.76052267587316,0.0,0.0954576581716537,0,0,0
10551,384746.4268054462,2010-12-10 23:26:37,1659.2808131450186,4,35,0.1078044921159744,4.199653148651123,32.03308703393333,31.131023287022757,128.5301199637292,112.76052267587316,-3.23295607813634e-05,0.0954576581716537,0,0,0
10552,385578.645414351,2010-12-10 23:40:29,2491.4994220298204,4,35,0.0577757246792316,4.199653148651123,32.05158162784924,31.131023287022757,128.60779406524367,112.76052267587316,-3.23295607813634e-05,0.0954576581716537,0,0,0
10553,385798.2662646652,2010-12-10 23:44:09,2711.120272368933,4,35,0.0498289167881011,4.199814796447754,32.054889033747244,31.131023287022757,128.62168460584948,112.76052267587316,0.0,0.0954576581716537,0,0,0
10554,385828.2915453111,2010-12-10 23:44:39,30.015087360470098,5,35,0.0,4.191235065460205,32.054889033747244,31.131023287022757,128.62168460584948,112.76052267587316,-6.47544875391759e-05,0.0954576581716537,0,0,0
10555,385858.2909942409,2010-12-10 23:45:09,60.01453629531951,5,35,0.0,4.190263748168945,32.054889033747244,31.131023287022757,128.62168460584948,112.76052267587316,0.0,0.0954576581716537,0,0,0
10556,385858.47398694186,2010-12-10 23:45:09,0.187335637528774,6,35,-1.9243103452026844e-05,4.1901021003723145,32.054889033747244,31.13102328802412,128.62168460584948,112.760522680069,0.0,0.098061554133892,0,0,0
10557,385863.3021164865,2010-12-10 23:45:14,5.015465102003833,6,35,0.0008838032954372,4.1901021003723145,32.05489013393434,31.131023288108658,128.6216892158531,112.7605226804232,-3.23295607813634e-05,0.098061554133892,0,0,0
10558,385893.3285813483,2010-12-10 23:45:44,30.01519152467872,7,35,-1.099568486213684,4.003285884857178,32.05489013393434,31.14019125810904,128.6216892158531,112.7974367148746,-0.001003646873869,0.098061554133892,0,0,0
10559,385923.3435125303,2010-12-10 23:46:14,60.03012271151674,7,35,-1.099568486213684,3.973984479904175,32.05489013393434,31.14935907653351,128.6216892158531,112.8339941317262,-0.0006799221155233,0.098061554133892,0,0,0
10560,385953.3585851089,2010-12-10 23:46:44,90.04519529020293,7,35,-1.099568486213684,3.9537487030029297,32.05489013393434,31.158526870156752,128.6216892158531,112.87032941259046,-0.0004856586456298,0.098061554133892,0,0,0
10561,385983.3736315475,2010-12-10 23:47:14,120.06024173385308,7,35,-1.0997490882873535,3.9378838539123535,32.05489013393434,31.167694612019066,128.6216892158531,112.90650165423824,-0.0004209041653666,0.098061554133892,0,0,0
10562,386013.3886769536,2010-12-10 23:47:44,150.07528713992127,7,35,-1.099568486213684,3.9246091842651367,32.05489013393434,31.176862360654702,128.6216892158531,112.94254131694044,-0.0002913951757363,0.098061554133892,0,0,0
10563,386043.4037380386,2010-12-10 23:48:14,180.09034822500607,7,35,-1.099568486213684,3.912306070327759,32.05489013393434,31.18603014885696,128.6216892158531,112.97846372719388,-0.0003237247583456,0.098061554133892,0,0,0
10564,386073.4187860713,2010-12-10 23:48:44,210.10539625761027,7,35,-1.099568486213684,3.9009740352630615,32.05489013393434,31.195197930186804,128.6216892158531,113.0142783387398,-0.0002913951757363,0.098061554133892,0,0,0
10565,386103.43384718144,2010-12-10 23:49:15,240.12045736775744,7,35,-1.099568486213684,3.890289545059204,32.05489013393434,31.20436570910061,128.6216892158531,113.04999203979509,-0.0002590179501567,0.098061554133892,0,0,0
10566,386133.44903768855,2010-12-10 23:49:45,270.13564794006624,7,35,-1.099568486213684,3.879928827285767,32.05489013393434,31.21353353968997,128.6216892158531,113.08560991502075,-0.0002590179501567,0.098061554133892,0,0,0
10567,386163.46579293953,2010-12-10 23:50:15,300.1524031960301,7,35,-1.099568486213684,3.870053768157959,32.05489013393434,31.222701861839475,128.6216892158531,113.12113718218478,-0.0002266406954731,0.098061554133892,0,0,0
10568,386193.47902405576,2010-12-10 23:50:45,330.1656342471458,7,35,-1.0997490882873535,3.860340595245361,32.05489013393434,31.231869149459104,128.6216892158531,113.15657081364586,-0.0002590179501567,0.098061554133892,0,0,0
10569,386223.4940757927,2010-12-10 23:51:15,360.1806859789553,7,35,-1.099568486213684,3.8514368534088135,32.05489013393434,31.241037029091427,128.6216892158531,113.1919200301838,-0.0001942634553415,0.098061554133892,0,0,0
10570,386253.5092613374,2010-12-10 23:51:45,390.1958715087159,7,35,-1.099568486213684,3.8422093391418457,32.05489013393434,31.250204908425147,128.6216892158531,113.2271856224334,-0.0002590179501567,0.098061554133892,0,0,0
10571,386283.5242067497,2010-12-10 23:52:15,420.2108169359907,7,35,-1.099568486213684,3.832982063293457,32.05489013393434,31.259372760927583,128.6216892158531,113.2623690835064,-0.0002913475036621,0.098061554133892,0,0,0
10572,386313.5392455743,2010-12-10 23:52:45,450.2258557606814,7,35,-1.0993878841400146,3.824725866317749,32.05489013393434,31.26854056338321,128.6216892158531,113.29747236250353,-0.0002266406954731,0.098061554133892,0,0,0
10573,386343.5543274262,2010-12-10 23:53:15,480.2409376174557,7,35,-1.099568486213684,3.816145896911621,32.05489013393434,31.277708457603268,128.6216892158531,113.3324977220967,-0.0002266406954731,0.098061554133892,0,0,0
10574,386373.56939635566,2010-12-10 23:53:45,510.2560065420489,7,35,-1.099568486213684,3.807889699935913,32.05489013393434,31.28687634438236,128.6216892158531,113.36744613522688,-0.0002266406954731,0.098061554133892,0,0,0
10575,386403.5849781215,2010-12-10 23:54:15,540.2715884481769,7,35,-1.099568486213684,3.799957275390625,32.05489013393434,31.29604435096914,128.6216892158531,113.40232000790893,-0.0001942634553415,0.098061554133892,0,0,0
10576,386433.5995031977,2010-12-10 23:54:45,570.286113384075,7,35,-1.099568486213684,3.792024850845337,32.05489013393434,31.30521200776678,128.6216892158531,113.43711988048722,-0.0001942634553415,0.098061554133892,0,0,0
10577,386463.61466074287,2010-12-10 23:55:15,600.3012709141594,7,35,-1.0993878841400146,3.7844161987304688,32.05489013393434,31.314379920991865,128.6216892158531,113.47184972008644,-0.0001942634553415,0.098061554133892,0,0,0
10578,386493.6295967618,2010-12-10 23:55:45,630.3162069480593,7,35,-1.099568486213684,3.7768075466156006,32.05489013393434,31.323547696870108,128.6216892158531,113.5065094629756,-0.0001942634553415,0.098061554133892,0,0,0
10579,386523.64466187183,2010-12-10 23:56:15,660.3312720631725,7,35,-1.099568486213684,3.7693607807159424,32.05489013393434,31.332715537761665,128.6216892158531,113.54110127172883,-0.0002266406954731,0.098061554133892,0,0,0
10580,386553.6597062654,2010-12-10 23:56:45,690.3463164517086,7,35,-1.0997490882873535,3.762399673461914,32.05489013393434,31.34188338716372,128.6216892158531,113.57562647634415,-0.0001942634553415,0.098061554133892,0,0,0
10581,386583.6748034804,2010-12-10 23:57:15,720.3614136667014,7,35,-1.099929690361023,3.755276679992676,32.05489013393434,31.351051284610428,128.6216892158531,113.61008719268864,-0.0001942634553415,0.098061554133892,0,0,0
10582,386613.68988300127,2010-12-10 23:57:45,750.3764932177381,7,35,-1.099568486213684,3.748477697372437,32.05489013393434,31.360219200605613,128.6216892158531,113.64448434545412,-0.0001618862152099,0.098061554133892,0,0,0
10583,386643.7052302285,2010-12-10 23:58:15,780.3918404148015,7,35,-1.0997490882873535,3.741678476333618,32.05489013393434,31.36938717532562,128.6216892158531,113.67881959075883,-0.0001942634553415,0.098061554133892,0,0,0
10584,386673.7067041022,2010-12-10 23:58:45,810.3933144089331,7,35,-1.0997490882873535,3.73520302772522,32.05489013393434,31.37855091820872,128.6216892158531,113.71307777001635,-0.0001618862152099,0.098061554133892,0,0,0
10585,386703.7202515759,2010-12-10 23:59:15,840.4068617621542,7,35,-1.099568486213684,3.7288894653320312,32.05489013393434,31.38771829698221,128.6216892158531,113.74728986072532,-0.0001295089750783,0.098061554133892,0,0,0
10586,386733.7344966954,2010-12-10 23:59:45,870.4211069719648,7,35,-1.099568486213684,3.7225759029388423,32.05489013393434,31.39688590335557,128.6216892158531,113.7814452393948,-0.0001295089750783,0.098061554133892,0,0,0
10587,386763.74953446747,2010-12-11 00:00:15,900.4361447089487,7,35,-1.099568486213684,3.7162623405456543,32.05489013393434,31.4060537811005,128.6216892158531,113.81554424733746,-0.0001942634553415,0.098061554133892,0,0,0
10588,386793.76633272046,2010-12-11 00:00:45,930.4529429819588,7,35,-1.0993878841400146,3.7102725505828857,32.05489013393434,31.415222213814044,128.6216892158531,113.8495895219412,-0.0001618862152099,0.098061554133892,0,0,0
10589,386823.779610989,2010-12-11 00:01:15,960.4662211753864,7,35,-1.099568486213684,3.704282760620117,32.05489013393434,31.42438955768587,128.6216892158531,113.88357561595458,-0.0001618862152099,0.098061554133892,0,0,0
10590,386853.7948092856,2010-12-11 00:01:45,990.4814195019916,7,35,-1.099568486213684,3.698454856872559,32.05489013393434,31.43355751201837,128.6216892158531,113.9175097832198,-0.0001618862152099,0.098061554133892,0,0,0
10591,386883.8097300414,2010-12-11 00:02:15,1020.4963402277976,7,35,-1.099568486213684,3.69278883934021,32.05489013393434,31.44272534654321,128.6216892158531,113.95139046901916,-0.0001618862152099,0.098061554133892,0,0,0
10592,386913.82481973775,2010-12-11 00:02:45,1050.511429899018,7,35,-1.099568486213684,3.687122821807861,32.05489013393434,31.45189320825327,128.6216892158531,113.98521885375771,-9.713172767078504e-05,0.098061554133892,0,0,0
10593,386943.8398602517,2010-12-11 00:03:15,1080.526470432962,7,35,-1.0997490882873535,3.681294918060303,32.05489013393434,31.461061127317027,128.6216892158531,114.01899562760885,-0.0001942634553415,0.098061554133892,0,0,0
10594,386973.8549179032,2010-12-11 00:03:45,1110.5415280895152,7,35,-1.099568486213684,3.675952672958374,32.05489013393434,31.47022908272727,128.6216892158531,114.05272161705471,-0.0001295089750783,0.098061554133892,0,0,0
10595,387003.86995956994,2010-12-11 00:04:15,1140.5565697312156,7,35,-1.099568486213684,3.6704487800598153,32.05489013393434,31.47939700881753,128.6216892158531,114.08639748080388,-0.0001618862152099,0.098061554133892,0,0,0
10596,387033.8851514956,2010-12-11 00:04:45,1170.5717616819545,7,35,-1.099568486213684,3.6651065349578857,32.05489013393434,31.48856489938326,128.6216892158531,114.1200237594216,-0.0001295089750783,0.098061554133892,0,0,0
10597,387063.90006965504,2010-12-11 00:05:15,1200.5866798463867,7,35,-1.099568486213684,3.659926176071167,32.05489013393434,31.497732849326265,128.6216892158531,114.1536016318852,-9.713172767078504e-05,0.098061554133892,0,0,0
10598,387093.91513391805,2010-12-11 00:05:45,1230.6017441043675,7,35,-1.0997490882873535,3.6545839309692383,32.05489013393434,31.50690075906754,128.6216892158531,114.18713149848053,-0.0001618862152099,0.098061554133892,0,0,0
10599,387123.9303195831,2010-12-11 00:06:15,1260.6169297544277,7,35,-1.0997490882873535,3.64972734451294,32.05489013393434,31.516068675237207,128.6216892158531,114.22061435932976,-9.713172767078504e-05,0.098061554133892,0,0,0
10600,387153.9452722183,2010-12-11 00:06:45,1290.6318824046762,7,35,-1.099568486213684,3.644708871841431,32.05489013393434,31.52523647477335,128.6216892158531,114.25405034330036,-0.0001295089750783,0.098061554133892,0,0,0
10601,387183.9603066771,2010-12-11 00:07:15,1320.6469168384403,7,35,-1.0997490882873535,3.639528512954712,32.05489013393434,31.53440433123001,128.6216892158531,114.28744092989886,-0.0001618862152099,0.098061554133892,0,0,0
10602,387213.97536145657,2010-12-11 00:07:45,1350.661971642896,7,35,-1.0997490882873535,3.634833812713623,32.05489013393434,31.54357221464031,128.6216892158531,114.320786933838,-0.0001295089750783,0.098061554133892,0,0,0
10603,387243.9906948844,2010-12-11 00:08:15,1380.6773050757076,7,35,-1.099568486213684,3.630139112472534,32.05489013393434,31.552740140442022,128.6216892158531,114.35408906781606,-9.713172767078504e-05,0.098061554133892,0,0,0
10604,387274.0054907845,2010-12-11 00:08:45,1410.6921010410522,7,35,-1.099568486213684,3.6256062984466553,32.05489013393434,31.561907941354324,128.6216892158531,114.3873476454088,-9.713172767078504e-05,0.098061554133892,0,0,0
10605,387304.0205418597,2010-12-11 00:09:15,1440.7071520209906,7,35,-1.0997490882873535,3.6209115982055664,32.05489013393434,31.571075879654757,128.6216892158531,114.4205651596581,-0.0001295089750783,0.098061554133892,0,0,0
10606,387334.0355943936,2010-12-11 00:09:45,1470.7222045598085,7,35,-1.0997490882873535,3.616378784179688,32.05489013393434,31.580243763600933,128.6216892158531,114.45374158398742,-0.0001618862152099,0.098061554133892,0,0,0
10607,387364.05067724775,2010-12-11 00:10:15,1500.7372874391274,7,35,-1.099568486213684,3.6123316287994394,32.05489013393434,31.589411633175523,128.6216892158531,114.48687790854332,-9.713172767078504e-05,0.098061554133892,0,0,0
10608,387394.0676425615,2010-12-11 00:10:45,1530.7542528229862,7,35,-1.099568486213684,3.60812258720398,32.05489013393434,31.59858014527236,128.6216892158531,114.51997733756572,-9.713172767078504e-05,0.098061554133892,0,0,0
10609,387424.08083614433,2010-12-11 00:11:15,1560.7674463306769,7,35,-1.099568486213684,3.603751659393311,32.05489013393434,31.60774752293602,128.6216892158531,114.55303433613363,-0.0001295089750783,0.098061554133892,0,0,0
10610,387454.095842418,2010-12-11 00:11:45,1590.782452609378,7,35,-1.099568486213684,3.600028276443481,32.05489013393434,31.616915374681124,128.6216892158531,114.58605585666956,-6.47544875391759e-05,0.098061554133892,0,0,0
10611,387484.11097385816,2010-12-11 00:12:15,1620.7975841648256,7,35,-1.0997490882873535,3.5958192348480225,32.05489013393434,31.626083248828404,128.6216892158531,114.6190410688962,-0.0001295089750783,0.098061554133892,0,0,0
10612,387514.126100787,2010-12-11 00:12:45,1650.8127109584236,7,35,-1.0993878841400146,3.5919342041015625,32.05489013393434,31.63525115199748,128.6216892158531,114.65199032992612,-9.70840483205393e-05,0.098061554133892,0,0,0
10613,387544.14099950815,2010-12-11 00:13:15,1680.8276096694467,7,35,-1.0993878841400146,3.5885345935821533,32.05489013393434,31.644419031196826,128.6216892158531,114.68490482981366,-6.47544875391759e-05,0.098061554133892,0,0,0
10614,387574.1562079751,2010-12-11 00:13:45,1710.8428181463105,7,35,-1.0993878841400146,3.5846493244171143,32.05489013393434,31.653586995466863,128.6216892158531,114.71778567977442,-9.713172767078504e-05,0.098061554133892,0,0,0
10615,387604.1712470704,2010-12-11 00:14:15,1740.8578572416743,7,35,-1.099568486213684,3.581249713897705,32.05489013393434,31.662754937859976,128.6216892158531,114.75063312650354,-3.237724376958795e-05,0.098061554133892,0,0,0
10616,387634.1861918711,2010-12-11 00:14:45,1770.8728020373776,7,35,-1.0993878841400146,3.577850103378296,32.05489013393434,31.67192279481129,128.6216892158531,114.78344816684468,-3.237724376958795e-05,0.098061554133892,0,0,0
10617,387664.2012388811,2010-12-11 00:15:15,1800.887849067487,7,35,-1.0997490882873535,3.574126720428467,32.05489013393434,31.68109076339097,128.6216892158531,114.8162320992795,-0.0001295089750783,0.098061554133892,0,0,0
10618,387694.2162966881,2010-12-11 00:15:45,1830.902906859377,7,35,-1.099568486213684,3.570888996124268,32.05489013393434,31.69025870416481,128.6216892158531,114.8489849068731,-6.47544875391759e-05,0.098061554133892,0,0,0
10619,387724.2313499888,2010-12-11 00:16:15,1860.9179601550784,7,35,-1.0993878841400146,3.5676512718200684,32.05489013393434,31.69942667634606,128.6216892158531,114.8817072403656,-6.47544875391759e-05,0.098061554133892,0,0,0
10620,387754.24654682673,2010-12-11 00:16:45,1890.933157013029,7,35,-1.0997490882873535,3.564251661300659,32.05489013393434,31.708594590197865,128.6216892158531,114.91439902311512,-9.713172767078504e-05,0.098061554133892,0,0,0
10621,387784.2614413623,2010-12-11 00:17:15,1920.9480515486616,7,35,-1.099568486213684,3.56101393699646,32.05489013393434,31.717762480102184,128.6216892158531,114.9470609379527,-9.713172767078504e-05,0.098061554133892,0,0,0
10622,387814.276523996,2010-12-11 00:17:45,1950.963134182369,7,35,-1.0997490882873535,3.5577762126922607,32.05489013393434,31.7269312029548,128.6216892158531,114.9796960045582,-6.47544875391759e-05,0.098061554133892,0,0,0
10623,387844.29170712485,2010-12-11 00:18:15,1980.9783173111557,7,35,-1.0997490882873535,3.554376602172852,32.05489013393434,31.736099924677287,128.6216892158531,115.01230150440595,-9.713172767078504e-05,0.098061554133892,0,0,0
10624,387874.3066550283,2010-12-11 00:18:45,2010.9932651945417,7,35,-1.0997490882873535,3.5513007640838623,32.05489013393434,31.7452686320414,128.6216892158531,115.04487724928264,-9.713172767078504e-05,0.098061554133892,0,0,0
10625,387904.32179397705,2010-12-11 00:19:15,2041.00840416845,7,35,-1.099568486213684,3.548063039779663,32.05489013393434,31.754437278629272,128.6216892158531,115.07742334375948,-9.713172767078504e-05,0.098061554133892,0,0,0
10626,387934.3367666472,2010-12-11 00:19:45,2071.023376813455,7,35,-1.099568486213684,3.544825315475464,32.05489013393434,31.763605197396423,128.6216892158531,115.10993744268036,-9.713172767078504e-05,0.098061554133892,0,0,0
10627,387964.35193822224,2010-12-11 00:20:15,2101.03854840854,7,35,-1.0997490882873535,3.5417494773864746,32.05489013393434,31.77277314225593,128.6216892158531,115.14242184980382,-6.47544875391759e-05,0.098061554133892,0,0,0
10628,387994.3687603546,2010-12-11 00:20:45,2131.0553706211226,7,35,-1.099568486213684,3.5385117530822754,32.05489013393434,31.78194163441239,128.6216892158531,115.17487805517683,-6.47544875391759e-05,0.098061554133892,0,0,0
10629,388024.3819408398,2010-12-11 00:21:15,2161.06855103122,7,35,-1.0997490882873535,3.534950256347656,32.05489013393434,31.791109029792917,128.6216892158531,115.20729991945196,-9.713172767078504e-05,0.098061554133892,0,0,0
10630,388054.39699564927,2010-12-11 00:21:46,2191.083605840688,7,35,-1.099568486213684,3.531550645828247,32.05489013393434,31.80027695880711,128.6216892158531,115.2396927926634,-9.713172767078504e-05,0.098061554133892,0,0,0
10631,388084.412186768,2010-12-11 00:22:16,2221.098797029531,7,35,-1.0993878841400146,3.528312921524048,32.05489013393434,31.80944503777444,128.6216892158531,115.27205474402892,-3.237724376958795e-05,0.098061554133892,0,0,0
10632,388114.4271712525,2010-12-11 00:22:46,2251.113781513998,7,35,-1.099568486213684,3.524427652359009,32.05489013393434,31.818613000621493,128.6216892158531,115.3043840448856,-0.0001618862152099,0.098061554133892,0,0,0
10633,388144.4421661228,2010-12-11 00:23:16,2281.128776309123,7,35,-1.099568486213684,3.5208661556243896,32.05489013393434,31.82778102713839,128.6216892158531,115.33668051949032,-6.47544875391759e-05,0.098061554133892,0,0,0
10634,388174.4572243657,2010-12-11 00:23:46,2311.1438345320857,7,35,-1.099568486213684,3.5173046588897705,32.05489013393434,31.83694897174521,128.6216892158531,115.36894292971374,-6.47544875391759e-05,0.098061554133892,0,0,0
10635,388204.4723130595,2010-12-11 00:24:16,2341.158923245924,7,35,-1.099568486213684,3.513257503509521,32.05489013393434,31.84611704875094,128.6216892158531,115.40117052266226,-0.0001295089750783,0.098061554133892,0,0,0
10636,388234.487333308,2010-12-11 00:24:46,2371.173943494388,7,35,-1.099568486213684,3.509210586547852,32.05489013393434,31.855284949056752,128.6216892158531,115.43336099600948,-9.713172767078504e-05,0.098061554133892,0,0,0
10637,388264.5023872403,2010-12-11 00:25:16,2401.188997411636,7,35,-1.099568486213684,3.5048396587371826,32.05489013393434,31.8644528224698,128.6216892158531,115.4655129455166,-0.0001618862152099,0.098061554133892,0,0,0
10638,388294.5174881194,2010-12-11 00:25:46,2431.2040983107963,7,35,-1.099568486213684,3.500306844711304,32.05489013393434,31.87362078227633,128.6216892158531,115.49762480160966,-0.0001295089750783,0.098061554133892,0,0,0
10639,388324.5326740251,2010-12-11 00:26:16,2461.21928421148,7,35,-1.099568486213684,3.495612144470215,32.05489013393434,31.88278877849278,128.6216892158531,115.52969424443108,-9.713172767078504e-05,0.098061554133892,0,0,0
10640,388354.5478971484,2010-12-11 00:26:46,2491.234507389928,7,35,-1.099568486213684,3.490431785583496,32.05489013393434,31.891956814905363,128.6216892158531,115.561717743204,-0.0001295089750783,0.098061554133892,0,0,0
10641,388384.5626890837,2010-12-11 00:27:16,2521.2492992450448,7,35,-1.099568486213684,3.4847657680511475,32.05489013393434,31.901124778957715,128.6216892158531,115.59369169084256,-0.0001295089750783,0.098061554133892,0,0,0
10642,388414.57787552575,2010-12-11 00:27:46,2551.264485702113,7,35,-1.0993878841400146,3.478614091873169,32.05489013393434,31.910292840082317,128.6216892158531,115.62561111152849,-0.0001295089750783,0.098061554133892,0,0,0
10643,388444.5927724574,2010-12-11 00:28:16,2581.2793826186703,7,35,-1.099568486213684,3.4711673259735107,32.05489013393434,31.91946078988189,128.6216892158531,115.65746927629652,-0.0002266406954731,0.098061554133892,0,0,0
10644,388474.6078333871,2010-12-11 00:28:46,2611.2944435734307,7,35,-1.099568486213684,3.4632349014282227,32.05489013393434,31.928628766474105,128.6216892158531,115.68925828711598,-0.0002590179501567,0.098061554133892,0,0,0
10645,388504.62292872753,2010-12-11 00:29:16,2641.309538918771,7,35,-1.099568486213684,3.454007387161255,32.05489013393434,31.937796789516973,128.6216892158531,115.72096750263417,-0.0001942634553415,0.098061554133892,0,0,0
10646,388534.6379777826,2010-12-11 00:29:46,2671.324587948857,7,35,-1.0997490882873535,3.4426753520965576,32.05489013393434,31.94696483759922,128.6216892158531,115.75258281080713,-0.0003237724304199,0.098061554133892,0,0,0
10647,388564.6530201561,2010-12-11 00:30:16,2701.339630327392,7,35,-1.099568486213684,3.42923903465271,32.05489013393434,31.956132908935285,128.6216892158531,115.78408617625595,-0.0003885269106831,0.098061554133892,0,0,0
10648,388594.67054589937,2010-12-11 00:30:46,2731.357156150883,7,35,-1.099568486213684,3.412726640701294,32.05489013393434,31.965301696677223,128.6216892158531,115.81545507166231,-0.0004856586456298,0.098061554133892,0,0,0
10649,388624.6854019492,2010-12-11 00:31:16,2761.3720122107707,7,35,-1.099568486213684,3.391681432723999,32.05489013393434,31.974469684245143,128.6216892158531,115.8466499075574,-0.0006151676061563,0.098061554133892,0,0,0
10650,388654.698262744,2010-12-11 00:31:46,2791.3848730506297,7,35,-1.0997490882873535,3.364322662353516,32.05489013393434,31.98363707844596,128.6216892158531,115.87762412256198,-0.0008418083307333,0.098061554133892,0,0,0
10651,388684.7133188867,2010-12-11 00:32:16,2821.3999290731167,7,35,-1.0997490882873535,3.328222274780273,32.05489013393434,31.99280515014591,128.6216892158531,115.90831239541023,-0.0011008263099938,0.098061554133892,0,0,0
10652,388714.7283929392,2010-12-11 00:32:46,2851.4150032207067,7,35,-1.099568486213684,3.279332637786865,32.05489013393434,32.001973171512304,128.6216892158531,115.9386138858368,-0.0015217304462566,0.098061554133892,0,0,0
10653,388744.7434167765,2010-12-11 00:33:16,2881.430026967878,7,35,-1.099568486213684,3.2121500968933105,32.05489013393434,32.01114118833172,128.6216892158531,115.96838760519036,-0.0020397664047777,0.098061554133892,0,0,0
10654,388774.7586134641,2010-12-11 00:33:46,2911.445223650392,7,35,-1.099568486213684,3.115018606185913,32.05489013393434,32.020309305226675,128.6216892158531,115.99741991176846,-0.0030434608925133,0.098061554133892,0,0,0
10655,388804.773580059,2010-12-11 00:34:16,2941.460190315516,7,35,-1.1001102924346924,2.958960771560669,32.05489013393434,32.0294773758833,128.6216892158531,116.02533404115816,-0.0054393769241869,0.098061554133892,0,0,0
10656,388827.148242536,2010-12-11 00:34:38,2963.834852722352,7,35,-1.099568486213684,2.7588701248168945,32.05489013393434,32.036311692696735,128.6216892158531,116.04491976489469,-0.0082885269075632,0.098061554133892,0,0,0
10657,388832.7419017168,2010-12-11 00:34:44,2969.4285118880443,7,35,-1.0993878841400146,2.699781894683838,32.05489013393434,32.03802026455796,128.6216892158531,116.04958318250992,-0.0084504131227731,0.098061554133892,0,0,0
10658,388892.7610826689,2010-12-11 00:35:44,60.01438942985044,8,35,0.0,3.3975093364715576,32.05489013393434,32.03802026455796,128.6216892158531,116.04958318250992,0.0012627125252038,0.098061554133892,0,0,0
10659,388892.9547507795,2010-12-11 00:35:44,0.187525404757223,9,35,-1.9243103452026844e-05,3.397671222686768,32.05489013393434,32.038020265560334,128.6216892158531,116.04958318591572,0.0,0.0940944999456405,0,0,0
10660,388897.7673157925,2010-12-11 00:35:49,5.000090397643366,9,35,0.0008838032954372,3.405927419662476,32.0548911555824,32.03802026564478,128.62169269213942,116.04958318620264,0.0011655807029455,0.0940944999456405,0,0,0
