Data_Point,Test_Time(s),Date_Time,Step_Time(s),Step_Index,Cycle_Index,Current(A),Voltage(V),Charge_Capacity(Ah),Discharge_Capacity(Ah),Charge_Energy(Wh),Discharge_Energy(Wh),dV/dt(V/s),Internal_Resistance(Ohm),Is_FC_Data,AC_Impedance(Ohm),ACI_Phase_Angle(Deg)
6749,245296.8283455434,2010-12-09 08:42:11,30.01839270569456,1,23,0.0,3.458702087402344,20.290237843659884,20.274654778865784,81.38863559501215,73.48704688973395,0.0007770538213662,0.0949056595563888,0,0,0
6750,245326.8401967358,2010-12-09 08:42:41,60.03024389307237,1,23,0.0,3.481689929962158,20.290237843659884,20.274654778865784,81.38863559501215,73.48704688973395,0.0005504131549969,0.0949056595563888,0,0,0
6751,245356.8551329401,2010-12-09 08:43:11,90.04518003223406,1,23,0.0,3.499011754989624,20.290237843659884,20.274654778865784,81.38863559501215,73.48704688973395,0.0004532813909463,0.0949056595563888,0,0,0
6752,245386.82319395232,2010-12-09 08:43:41,120.01324102439531,1,23,0.0,3.5129337310791016,20.290237843659884,20.274654778865784,81.38863559501215,73.48704688973395,0.0003561019839253,0.0949056595563888,0,0,0
6753,245416.8359387348,2010-12-09 08:44:11,30.01501760187852,2,23,0.5499359965324402,3.664458990097046,20.294825028075376,20.274654778865784,81.40530858755004,73.48704688973395,0.0012950897216796,0.0949056595563888,0,0,0
6754,245446.850991429,2010-12-09 08:44:41,60.030070281045525,2,23,0.5501165986061096,3.703149557113648,20.29941214902055,20.274654778865784,81.42221319821654,73.48704688973395,0.0008741855854168,0.0949056595563888,0,0,0
6755,245476.8660522083,2010-12-09 08:45:11,90.04513106538194,2,23,0.5501165986061096,3.730508327484131,20.303999262142625,20.274654778865784,81.43926613201512,73.48704688973395,0.0006151676061563,0.0949056595563888,0,0,0
6756,245506.88124041972,2010-12-09 08:45:41,120.06031927180328,2,23,0.550297200679779,3.751553535461426,20.308586363513555,20.274654778865784,81.4564289170901,73.48704688973395,0.0004856586456298,0.0949056595563888,0,0,0
6757,245536.8961234718,2010-12-09 08:46:11,150.07520232385977,2,23,0.550297200679779,3.767418146133423,20.31317342688116,20.274654778865784,81.47367567717136,73.48704688973395,0.0003561496851034,0.0949056595563888,0,0,0
6758,245566.91104027283,2010-12-09 08:46:42,180.0901192301612,2,23,0.5499359965324402,3.77810263633728,20.31776048938423,20.274654778865784,81.49098339590287,73.48704688973395,0.0002266406954731,0.0949056595563888,0,0,0
6759,245596.92622347185,2010-12-09 08:47:12,210.10530232385972,2,23,0.5501165986061096,3.7855494022369385,20.32234763777761,20.274654778865784,81.50833247793905,73.48704688973395,0.0001618862152099,0.0949056595563888,0,0,0
6760,245626.94133027564,2010-12-09 08:47:42,240.1204091477639,2,23,0.5504778623580933,3.791377305984497,20.3269347495735,20.274654778865784,81.52571085201636,73.48704688973395,0.0001618862152099,0.0949056595563888,0,0,0
6761,245656.95634575223,2010-12-09 08:48:12,270.1354246945283,2,23,0.5501165986061096,3.796233892440796,20.331521832287184,20.274654778865784,81.54311369319842,73.48704688973395,9.713172767078504e-05,0.0949056595563888,0,0,0
6762,245686.97114680024,2010-12-09 08:48:42,300.1502256673337,2,23,0.5501165986061096,3.8012523651123047,20.336108870314423,20.274654778865784,81.56053900661834,73.48704688973395,9.713172767078504e-05,0.0949056595563888,0,0,0
6763,245716.986155094,2010-12-09 08:49:12,330.16523396104924,2,23,0.5499359965324402,3.805785179138184,20.34069594403446,20.274654778865784,81.57798574542483,73.48704688973395,0.0001295089750783,0.0949056595563888,0,0,0
6764,245747.0012969901,2010-12-09 08:49:42,360.1803758421919,2,23,0.5501165986061096,3.810156106948853,20.34528311151637,20.274654778865784,81.59545339657565,73.48704688973395,0.0001295089750783,0.0949056595563888,0,0,0
6765,245777.01641286656,2010-12-09 08:50:12,390.19549171862286,2,23,0.5501165986061096,3.8145270347595215,20.34987027661144,20.274654778865784,81.61294087080366,73.48704688973395,9.713172767078504e-05,0.0949056595563888,0,0,0
6766,245807.0314088296,2010-12-09 08:50:42,420.2104877718785,2,23,0.5501165986061096,3.818412303924561,20.35445738519108,20.274654778865784,81.6304473844521,73.48704688973395,0.0001295089750783,0.0949056595563888,0,0,0
6767,245837.0462472205,2010-12-09 08:51:12,450.2253260926228,2,23,0.5501165986061096,3.8224594593048096,20.35904444736738,20.274654778865784,81.64797219771818,73.48704688973395,9.713172767078504e-05,0.0949056595563888,0,0,0
6768,245867.0647797692,2010-12-09 08:51:42,480.2438587114858,2,23,0.5501165986061096,3.8263447284698486,20.363632061207003,20.274654778865784,81.66551709363144,73.48704688973395,0.0001295089750783,0.0949056595563888,0,0,0
6769,245897.076342574,2010-12-09 08:52:12,510.25542151122215,2,23,0.550297200679779,3.8300681114196777,20.36821858235369,20.274654778865784,81.68307545476402,73.48704688973395,9.713172767078504e-05,0.0949056595563888,0,0,0
6770,245927.09132219636,2010-12-09 08:52:42,540.2704010634154,2,23,0.5501165986061096,3.8339531421661377,20.372805675685445,20.274654778865784,81.70065334952908,73.48704688973395,0.0001295089750783,0.0949056595563888,0,0,0
6771,245957.10653599643,2010-12-09 08:53:12,570.2856149537503,2,23,0.550297200679779,3.837676525115967,20.37739277447244,20.274654778865784,81.71824852915056,73.48704688973395,9.713172767078504e-05,0.0949056595563888,0,0,0
6772,245987.12152046588,2010-12-09 08:53:42,600.3005993179181,2,23,0.5501165986061096,3.841238021850586,20.38197985526787,20.274654778865784,81.73586077391508,73.48704688973395,6.47544875391759e-05,0.0949056595563888,0,0,0
6773,246017.1364924392,2010-12-09 08:54:12,630.3155712912517,2,23,0.5501165986061096,3.845123291015625,20.386566901304302,20.274654778865784,81.75349009136504,73.48704688973395,9.713172767078504e-05,0.0949056595563888,0,0,0
6774,246047.15146981092,2010-12-09 08:54:42,660.330548663019,2,23,0.550297200679779,3.848846673965454,20.391153994122675,20.274654778865784,81.77113679449432,73.48704688973395,9.713172767078504e-05,0.0949056595563888,0,0,0
6775,246077.16666933053,2010-12-09 08:55:12,690.3457481976303,2,23,0.5499359965324402,3.852408170700073,20.39574109877278,20.274654778865784,81.7888007200288,73.48704688973395,0.0,0.0949056595563888,0,0,0
6776,246107.1850031246,2010-12-09 08:55:42,720.3640820669127,2,23,0.5501165986061096,3.856293439865112,20.400328735160738,20.274654778865784,81.80648380017391,73.48704688973395,6.47544875391759e-05,0.0949056595563888,0,0,0
6777,246137.19655446085,2010-12-09 08:56:12,750.3756334031224,2,23,0.550297200679779,3.860178709030152,20.40491527750736,20.274654778865784,81.82417978946984,73.48704688973395,0.0001295089750783,0.0949056595563888,0,0,0
6778,246167.21153522105,2010-12-09 08:56:42,780.3906141783593,2,23,0.5501165986061096,3.8637402057647705,20.409502365735847,20.274654778865784,81.84189484064201,73.48704688973395,9.713172767078504e-05,0.0949056595563888,0,0,0
6779,246197.2265365424,2010-12-09 08:57:12,810.4056153994749,2,23,0.5499359965324402,3.86713981628418,20.41408943914217,20.274654778865784,81.85962647608977,73.48704688973395,3.237724376958795e-05,0.0949056595563888,0,0,0
6780,246227.24172060352,2010-12-09 08:57:42,840.4207995407805,2,23,0.5501165986061096,3.870863199234009,20.418676514173804,20.274654778865784,81.87737458809919,73.48704688973395,9.713172767078504e-05,0.0949056595563888,0,0,0
6781,246257.2565726885,2010-12-09 08:58:12,870.4356515556019,2,23,0.5501165986061096,3.874262809753418,20.42326365471729,20.274654778865784,81.89513894728435,73.48704688973395,6.47544875391759e-05,0.0949056595563888,0,0,0
6782,246287.27198476705,2010-12-09 08:58:42,900.4510636391328,2,23,0.5499359965324402,3.877662420272827,20.42785079434611,20.274654778865784,81.91291872082488,73.48704688973395,9.713172767078504e-05,0.0949056595563888,0,0,0
6783,246317.2866648941,2010-12-09 08:59:12,930.4657437461684,2,23,0.5501165986061096,3.8809001445770255,20.432437844811112,20.274654778865784,81.93071314217076,73.48704688973395,9.713172767078504e-05,0.0949056595563888,0,0,0
6784,246347.30184151168,2010-12-09 08:59:42,960.4809203687638,2,23,0.5501165986061096,3.883975982666016,20.43702502184679,20.274654778865784,81.94852257255518,73.48704688973395,9.713172767078504e-05,0.0949056595563888,0,0,0
6785,246377.3166649955,2010-12-09 09:00:12,990.4957438676244,2,23,0.550297200679779,3.886889934539795,20.441612134168125,20.274654778865784,81.96634552192504,73.48704688973395,6.47544875391759e-05,0.0949056595563888,0,0,0
6786,246407.33169941927,2010-12-09 09:00:42,1020.5107782913636,2,23,0.5501165986061096,3.889803886413574,20.446199228756665,20.274654778865784,81.98418162153325,73.48704688973395,9.713172767078504e-05,0.0949056595563888,0,0,0
6787,246437.3467242842,2010-12-09 09:01:12,1050.5258031513035,2,23,0.550297200679779,3.8923940658569336,20.45078632479076,20.274654778865784,82.0020302753948,73.48704688973395,6.47544875391759e-05,0.0949056595563888,0,0,0
6788,246467.3617486379,2010-12-09 09:01:42,1080.5408275651334,2,23,0.5501165986061096,3.894822359085083,20.45537350066541,20.274654778865784,82.01989121602595,73.48704688973395,3.237724376958795e-05,0.0949056595563888,0,0,0
6789,246497.37678112683,2010-12-09 09:02:12,1110.5558599888957,2,23,0.5501165986061096,3.897250652313232,20.459960601126703,20.274654778865784,82.0377626215278,73.48704688973395,6.47544875391759e-05,0.0949056595563888,0,0,0
6790,246527.3919103816,2010-12-09 09:02:42,1140.5709892386053,2,23,0.550297200679779,3.899517059326172,20.464547763744203,20.274654778865784,82.05564501875553,73.48704688973395,6.47544875391759e-05,0.0949056595563888,0,0,0
6791,246557.40695520115,2010-12-09 09:03:12,1170.586034068239,2,23,0.5501165986061096,3.901621580123901,20.469134847076305,20.274654778865784,82.07353702819529,73.48704688973395,6.47544875391759e-05,0.0949056595563888,0,0,0
6792,246587.42217985325,2010-12-09 09:03:42,1200.6012587754913,2,23,0.5501165986061096,3.903564214706421,20.47372198207872,20.274654778865784,82.09143870575251,73.48704688973395,3.237724376958795e-05,0.0949056595563888,0,0,0
6793,246617.43690719284,2010-12-09 09:04:12,1230.6159860649386,2,23,0.550297200679779,3.905506849288941,20.478309071066796,20.274654778865784,82.1093491581085,73.48704688973395,6.47544875391759e-05,0.0949056595563888,0,0,0
6794,246647.45187344195,2010-12-09 09:04:42,1260.6309522939775,2,23,0.550297200679779,3.90744948387146,20.4828961637094,20.274654778865784,82.12726819290965,73.48704688973395,9.713172767078504e-05,0.0949056595563888,0,0,0
6795,246677.4671155575,2010-12-09 09:05:12,1290.646194504787,2,23,0.550297200679779,3.9092302322387695,20.48748328777444,20.274654778865784,82.14519566121955,73.48704688973395,6.47544875391759e-05,0.0949056595563888,0,0,0
6796,246707.48194605377,2010-12-09 09:05:42,1320.6610249208609,2,23,0.550297200679779,3.910849094390869,20.49207036266509,20.274654778865784,82.16313095914778,73.48704688973395,6.47544875391759e-05,0.0949056595563888,0,0,0
6797,246737.49692210724,2010-12-09 09:06:12,1350.6760009593102,2,23,0.550297200679779,3.9124679565429688,20.496657480860044,20.274654778865784,82.18107428279147,73.48704688973395,0.0,0.0949056595563888,0,0,0
6798,246767.511935228,2010-12-09 09:06:42,1380.6910140800376,2,23,0.5501165986061096,3.914086580276489,20.50124459655774,20.274654778865784,82.19902525220483,73.48704688973395,0.0,0.0949056595563888,0,0,0
6799,246797.52700172152,2010-12-09 09:07:12,1410.7060805735812,2,23,0.550297200679779,3.915867328643799,20.50583169053933,20.274654778865784,82.21698367808575,73.48704688973395,6.47544875391759e-05,0.0949056595563888,0,0,0
6800,246827.542231737,2010-12-09 09:07:42,1440.721310594055,2,23,0.5501165986061096,3.9174861907958975,20.510418821589244,20.274654778865784,82.234949720909,73.48704688973395,6.47544875391759e-05,0.0949056595563888,0,0,0
6801,246857.5570900876,2010-12-09 09:08:12,1470.7361689396305,2,23,0.550297200679779,3.918943166732788,20.515005934070928,20.274654778865784,82.25292318752335,73.48704688973395,3.237724376958795e-05,0.0949056595563888,0,0,0
6802,246887.57236092963,2010-12-09 09:08:42,1500.7514397967248,2,23,0.5501165986061096,3.920562028884888,20.51959305517981,20.274654778865784,82.2709040935019,73.48704688973395,0.0,0.0949056595563888,0,0,0
6803,246917.58723549056,2010-12-09 09:09:12,1530.766314342614,2,23,0.5501165986061096,3.922342777252197,20.52418006406741,20.274654778865784,82.288891908395,73.48704688973395,3.237724376958795e-05,0.0949056595563888,0,0,0
6804,246947.6023285903,2010-12-09 09:09:42,1560.781407547628,2,23,0.550297200679779,3.923961639404297,20.528767167575666,20.274654778865784,82.30688756095934,73.48704688973395,6.47544875391759e-05,0.0949056595563888,0,0,0
6805,246977.6171335079,2010-12-09 09:10:12,1590.7962123750256,2,23,0.5501165986061096,3.9254186153411865,20.53335426522766,20.274654778865784,82.32489060154371,73.48704688973395,3.237724376958795e-05,0.0949056595563888,0,0,0
6806,247007.63215939543,2010-12-09 09:10:42,1620.8112382524976,2,23,0.550297200679779,3.927199363708496,20.537941421907696,20.274654778865784,82.34290115790746,73.48704688973395,6.47544875391759e-05,0.0949056595563888,0,0,0
6807,247037.6471955635,2010-12-09 09:11:12,1650.8262745108018,2,23,0.5501165986061096,3.928818225860596,20.542528568230487,20.274654778865784,82.36091910932741,73.48704688973395,6.47544875391759e-05,0.0949056595563888,0,0,0
6808,247067.6656508149,2010-12-09 09:11:42,1680.844729777176,2,23,0.5501165986061096,3.930275201797485,20.54711621122537,20.274654778865784,82.3789463975676,73.48704688973395,6.47544875391759e-05,0.0949056595563888,0,0,0
6809,247097.67727587456,2010-12-09 09:12:12,1710.856354741607,2,23,0.5501165986061096,3.931894063949585,20.5517028651562,20.274654778865784,82.39697720888677,73.48704688973395,0.0,0.0949056595563888,0,0,0
6810,247127.6923592952,2010-12-09 09:12:42,1740.8714381472355,2,23,0.5501165986061096,3.9336748123168954,20.556290007495125,20.274654778865784,82.41501735694607,73.48704688973395,6.47544875391759e-05,0.0949056595563888,0,0,0
6811,247157.70726488836,2010-12-09 09:13:12,1770.8863437453972,2,23,0.5501165986061096,3.935293674468994,20.56087715989416,20.274654778865784,82.43306495853034,73.48704688973395,6.47544875391759e-05,0.0949056595563888,0,0,0
6812,247187.7224390097,2010-12-09 09:13:42,1800.901517861756,2,23,0.550297200679779,3.936750650405884,20.56546437505164,20.274654778865784,82.45112013604864,73.48704688973395,3.237724376958795e-05,0.0949056595563888,0,0,0
6813,247217.7373057161,2010-12-09 09:14:12,1830.916384568137,2,23,0.550297200679779,3.938531398773194,20.570051446689572,20.274654778865784,82.46918225437722,73.48704688973395,6.47544875391759e-05,0.0949056595563888,0,0,0
6814,247247.75246199305,2010-12-09 09:14:42,1860.9315408501152,2,23,0.5501165986061096,3.939988374710083,20.574638556064084,20.274654778865784,82.48725203635614,73.48704688973395,3.237724376958795e-05,0.0949056595563888,0,0,0
6815,247277.76737412743,2010-12-09 09:15:12,1890.9464529845425,2,23,0.550297200679779,3.9417691230773926,20.579225670733035,20.274654778865784,82.50532935970391,73.48704688973395,6.47544875391759e-05,0.0949056595563888,0,0,0
6816,247307.7823973333,2010-12-09 09:15:42,1920.9614761853536,2,23,0.550297200679779,3.943387985229492,20.58381279682659,20.274654778865784,82.52341421731384,73.48704688973395,3.237724376958795e-05,0.0949056595563888,0,0,0
6817,247337.7975467883,2010-12-09 09:16:12,1950.9766256403432,2,23,0.5501165986061096,3.944844961166382,20.58839994611917,20.274654778865784,82.54150674995137,73.48704688973395,0.0,0.0949056595563888,0,0,0
6818,247367.8126135926,2010-12-09 09:16:42,1980.9916924446604,2,23,0.5501165986061096,3.9466257095336914,20.59298704475934,20.274654778865784,82.55960667914977,73.48704688973395,6.47544875391759e-05,0.0949056595563888,0,0,0
6819,247397.82748369745,2010-12-09 09:17:12,2011.0065625545103,2,23,0.5501165986061096,3.948244571685791,20.597574189301145,20.274654778865784,82.57771420425564,73.48704688973395,6.47544875391759e-05,0.0949056595563888,0,0,0
6820,247427.84249132453,2010-12-09 09:17:42,2041.0215701765549,2,23,0.5501165986061096,3.94986343383789,20.60216133220719,20.274654778865784,82.59582937012577,73.48704688973395,3.237724376958795e-05,0.0949056595563888,0,0,0
6821,247457.85748195928,2010-12-09 09:18:12,2071.0365608313764,2,23,0.550297200679779,3.9516441822052,20.6067484102103,20.274654778865784,82.61395191773208,73.48704688973395,3.237724376958795e-05,0.0949056595563888,0,0,0
6822,247487.87251125023,2010-12-09 09:18:43,2101.051590102293,2,23,0.5501165986061096,3.9532630443573,20.611335563571327,20.274654778865784,82.63208237592006,73.48704688973395,3.237724376958795e-05,0.0949056595563888,0,0,0
6823,247517.88759543785,2010-12-09 09:19:13,2131.0666742898675,2,23,0.5501165986061096,3.9548819065094,20.61592271926844,20.274654778865784,82.65022057887444,73.48704688973395,3.237724376958795e-05,0.0949056595563888,0,0,0
6824,247547.90256316052,2010-12-09 09:19:43,2161.0816420326737,2,23,0.5501165986061096,3.956500768661499,20.62050989482561,20.274654778865784,82.66836665661005,73.48704688973395,3.237724376958795e-05,0.0949056595563888,0,0,0
6825,247577.91754982044,2010-12-09 09:20:13,2191.0966286725043,2,23,0.550297200679779,3.9582815170288086,20.62509707634903,20.274654778865784,82.6865203956027,73.48704688973395,3.237724376958795e-05,0.0949056595563888,0,0,0
6826,247607.9325729661,2010-12-09 09:20:43,2221.111651838228,2,23,0.550297200679779,3.960062265396118,20.62968424650281,20.274654778865784,82.70468190333861,73.48704688973395,3.237724376958795e-05,0.0949056595563888,0,0,0
6827,247637.9476360261,2010-12-09 09:21:13,2251.126714898228,2,23,0.5501165986061096,3.9616811275482178,20.63427137984264,20.274654778865784,82.7228510264808,73.48704688973395,3.237724376958795e-05,0.0949056595563888,0,0,0
6828,247667.9628001276,2010-12-09 09:21:43,2281.1418789846275,2,23,0.5501165986061096,3.9634618759155273,20.63885863927321,20.274654778865784,82.74102839018468,73.48704688973395,6.47544875391759e-05,0.0949056595563888,0,0,0
6829,247697.9778072634,2010-12-09 09:22:13,2311.1568861354986,2,23,0.550297200679779,3.965080738067627,20.64344581375005,20.274654778865784,82.7592132786531,73.48704688973395,3.237724376958795e-05,0.0949056595563888,0,0,0
6830,247727.99265708777,2010-12-09 09:22:43,2341.171735959869,2,23,0.5501165986061096,3.966861486434937,20.64803299716213,20.274654778865784,82.77740615356859,73.48704688973395,3.237724376958795e-05,0.0949056595563888,0,0,0
6831,247758.00774551588,2010-12-09 09:23:13,2371.186824398021,2,23,0.550297200679779,3.968642234802246,20.65262021743913,20.274654778865784,82.79560698711899,73.48704688973395,3.237724376958795e-05,0.0949056595563888,0,0,0
6832,247788.0254546806,2010-12-09 09:23:43,2401.2045336229,2,23,0.5501165986061096,3.970422983169556,20.657207835292187,20.274654778865784,82.81381741200929,73.48704688973395,3.237724376958795e-05,0.0949056595563888,0,0,0
6833,247818.03775677507,2010-12-09 09:24:13,2431.2168356722304,2,23,0.5501165986061096,3.9720418453216553,20.661794628124927,20.274654778865784,82.83203264080409,73.48704688973395,3.237724376958795e-05,0.0949056595563888,0,0,0
6834,247848.05275224688,2010-12-09 09:24:43,2461.2318311139643,2,23,0.5501165986061096,3.973660707473755,20.666381894005315,20.274654778865784,82.85025778595454,73.48704688973395,0.0,0.0949056595563888,0,0,0
6835,247878.0677969161,2010-12-09 09:25:13,2491.246875783199,2,23,0.5501165986061096,3.9756033420562735,20.67096917758311,20.274654778865784,82.86849115740124,73.48704688973395,3.237724376958795e-05,0.0949056595563888,0,0,0
6836,247908.0829930322,2010-12-09 09:25:43,2521.2620718892786,2,23,0.5501165986061096,3.977384090423584,20.67555651603977,20.274654778865784,82.88673300591049,73.48704688973395,3.237724376958795e-05,0.0949056595563888,0,0,0
6837,247938.0978612624,2010-12-09 09:26:13,2551.276940104414,2,23,0.550297200679779,3.979326725006104,20.68014372312873,20.274654778865784,82.90498208586932,73.48704688973395,9.713172767078504e-05,0.0949056595563888,0,0,0
6838,247968.11286335063,2010-12-09 09:26:43,2581.2919422177497,2,23,0.5501165986061096,3.980945587158203,20.684730917238443,20.274654778865784,82.92323997010257,73.48704688973395,0.0,0.0949056595563888,0,0,0
6839,247998.12800758265,2010-12-09 09:27:13,2611.307086519917,2,23,0.5501165986061096,3.982888221740722,20.68931809790651,20.274654778865784,82.94150624559057,73.48704688973395,3.237724376958795e-05,0.0949056595563888,0,0,0
6840,248028.14636287524,2010-12-09 09:27:43,2641.325441817523,2,23,0.5501165986061096,3.984668970108032,20.693905739037717,20.274654778865784,82.95978271974725,73.48704688973395,3.237724376958795e-05,0.0949056595563888,0,0,0
6841,248058.158019328,2010-12-09 09:28:13,2671.3370982853485,2,23,0.550297200679779,3.986611604690552,20.698492389674,20.274654778865784,82.97806385150945,73.48704688973395,3.237724376958795e-05,0.0949056595563888,0,0,0
6842,248088.17293004892,2010-12-09 09:28:43,2701.352008916034,2,23,0.550297200679779,3.9885542392730713,20.703079579875297,20.274654778865784,82.99635574349402,73.48704688973395,6.47544875391759e-05,0.0949056595563888,0,0,0
6843,248118.18800533933,2010-12-09 09:29:13,2731.367084296692,2,23,0.5501165986061096,3.990334987640381,20.70766673759165,20.274654778865784,83.01465623153018,73.48704688973395,0.0,0.0949056595563888,0,0,0
6844,248148.20299527745,2010-12-09 09:29:43,2761.382074144506,2,23,0.550297200679779,3.9924395084381104,20.71225388757445,20.274654778865784,83.0329655333766,73.48704688973395,6.47544875391759e-05,0.0949056595563888,0,0,0
6845,248178.2182055487,2010-12-09 09:30:13,2791.397284470972,2,23,0.5501165986061096,3.994381904602051,20.716841071819573,20.274654778865784,83.05128390112468,73.48704688973395,6.47544875391759e-05,0.0949056595563888,0,0,0
6846,248208.23333014187,2010-12-09 09:30:43,2821.4124090139694,2,23,0.5501165986061096,3.99616265296936,20.721428212849364,20.274654778865784,83.0696110619982,73.48704688973395,3.237724376958795e-05,0.0949056595563888,0,0,0
6847,248238.2480413663,2010-12-09 09:31:13,2851.427120233426,2,23,0.550297200679779,3.9984290599823,20.72601531781921,20.274654778865784,83.08794717871247,73.48704688973395,6.47544875391759e-05,0.0949056595563888,0,0,0
6848,248268.2630795544,2010-12-09 09:31:43,2881.442158426546,2,23,0.550297200679779,4.000209808349609,20.73060250026548,20.274654778865784,83.10629260941857,73.48704688973395,0.0,0.0949056595563888,0,0,0
6849,248298.27808929177,2010-12-09 09:32:13,2911.4571681588413,2,23,0.550297200679779,4.002314567565918,20.735189609905923,20.274654778865784,83.12464714437202,73.48704688973395,3.24249267578125e-05,0.0949056595563888,0,0,0
6850,248328.2931185577,2010-12-09 09:32:43,2941.472197399683,2,23,0.550297200679779,4.004418849945068,20.739776772061845,20.274654778865784,83.14301134015106,73.48704688973395,6.47544875391759e-05,0.0949056595563888,0,0,0
6851,248358.30841775527,2010-12-09 09:33:13,2971.48749661234,2,23,0.5501165986061096,4.006523609161377,20.74436397134137,20.274654778865784,83.16138524014929,73.48704688973395,6.47544875391759e-05,0.0949056595563888,0,0,0
6852,248388.3231794453,2010-12-09 09:33:43,3001.502258312416,2,23,0.5501165986061096,4.008627891540527,20.748951055518237,20.274654778865784,83.17976837737615,73.48704688973395,6.47544875391759e-05,0.0949056595563888,0,0,0
6853,248418.3381804008,2010-12-09 09:34:13,3031.5172592678705,2,23,0.5501165986061096,4.010570526123047,20.75353819188472,20.274654778865784,83.19816137394454,73.48704688973395,6.47544875391759e-05,0.0949056595563888,0,0,0
6854,248448.3532412202,2010-12-09 09:34:43,3061.5323200923067,2,23,0.550297200679779,4.012836933135986,20.758125315105293,20.274654778865784,83.21656423155912,73.48704688973395,3.23295607813634e-05,0.0949056595563888,0,0,0
6855,248478.3685258265,2010-12-09 09:35:13,3091.54760476879,2,23,0.5501165986061096,4.015103340148926,20.76271248055017,20.274654778865784,83.23497721286215,73.48704688973395,6.47544875391759e-05,0.0949056595563888,0,0,0
6856,248508.3835753328,2010-12-09 09:35:43,3121.5626541798247,2,23,0.5501165986061096,4.017369747161865,20.767299636894386,20.274654778865784,83.25340024260316,73.48704688973395,6.47544875391759e-05,0.0949056595563888,0,0,0
6857,248538.3983912929,2010-12-09 09:36:13,3151.5774701449377,2,23,0.5501165986061096,4.019312381744385,20.7718868422448,20.274654778865784,83.2718336003258,73.48704688973395,3.23295607813634e-05,0.0949056595563888,0,0,0
6858,248568.41327006428,2010-12-09 09:36:43,3181.5923489363918,2,23,0.550297200679779,4.021740913391113,20.77647395572527,20.274654778865784,83.2902768401809,73.48704688973395,3.24249267578125e-05,0.0949056595563888,0,0,0
6859,248598.42853624976,2010-12-09 09:37:13,3211.607615192036,2,23,0.5501165986061096,4.024007320404053,20.781061127706977,20.274654778865784,83.30873075603127,73.48704688973395,6.47544875391759e-05,0.0949056595563888,0,0,0
6860,248628.443338596,2010-12-09 09:37:43,3241.622417553296,2,23,0.5501165986061096,4.026435375213623,20.785648285355183,20.274654778865784,83.32719516949176,73.48704688973395,6.47544875391759e-05,0.0949056595563888,0,0,0
6861,248658.45835916023,2010-12-09 09:38:13,3271.637438032334,2,23,0.5501165986061096,4.028863906860352,20.79023542080339,20.274654778865784,83.3456702416658,73.48704688973395,0.0001295089750783,0.0949056595563888,0,0,0
6862,248688.4733877294,2010-12-09 09:38:43,3301.652466596492,2,23,0.5501165986061096,4.031130313873291,20.79482262786114,20.274654778865784,83.36415636739646,73.48704688973395,6.47544875391759e-05,0.0949056595563888,0,0,0
6863,248718.4886019656,2010-12-09 09:39:13,3331.667680847725,2,23,0.5501165986061096,4.033558368682861,20.79940988865972,20.274654778865784,83.38265369339615,73.48704688973395,6.47544875391759e-05,0.0949056595563888,0,0,0
6864,248748.50359115176,2010-12-09 09:39:43,3361.6826699988046,2,23,0.550297200679779,4.035986423492432,20.80399701793174,20.274654778865784,83.4011614623578,73.48704688973395,6.47544875391759e-05,0.0949056595563888,0,0,0
6865,248778.51842237983,2010-12-09 09:40:13,3391.6975012469493,2,23,0.550297200679779,4.03841495513916,20.808584221211607,20.274654778865784,83.419680673329,73.48704688973395,3.24249267578125e-05,0.0949056595563888,0,0,0
6866,248808.5334780916,2010-12-09 09:40:43,3421.712557053899,2,23,0.5501165986061096,4.0408430099487305,20.813171314266533,20.274654778865784,83.43821063371708,73.48704688973395,9.70840483205393e-05,0.0949056595563888,0,0,0
6867,248838.54859152687,2010-12-09 09:41:13,3451.7276704641936,2,23,0.5501165986061096,4.043271541595459,20.817757682957104,20.274654778865784,83.45674892124677,73.48704688973395,3.24249267578125e-05,0.0949056595563888,0,0,0
6868,248868.56352856333,2010-12-09 09:41:43,3481.742607430413,2,23,0.5501165986061096,4.045861721038818,20.822344094803483,20.274654778865784,83.47529889140698,73.48704688973395,9.71794142969884e-05,0.0949056595563888,0,0,0
6869,248898.57850311807,2010-12-09 09:42:13,3511.757581985171,2,23,0.5501165986061096,4.048451900482178,20.82693044371816,20.274654778865784,83.49386021900207,73.48704688973395,9.71794142969884e-05,0.0949056595563888,0,0,0
6870,248928.59352300063,2010-12-09 09:42:43,3541.772601872737,2,23,0.550297200679779,4.051042079925537,20.83151703904164,20.274654778865784,83.51243426085395,73.48704688973395,9.71794142969884e-05,0.0949056595563888,0,0,0
6871,248958.60861401013,2010-12-09 09:43:13,3571.7876929424374,2,23,0.550297200679779,4.0536322593688965,20.83610420898082,20.274654778865784,83.5310224851086,73.48704688973395,9.71794142969884e-05,0.0949056595563888,0,0,0
6872,248988.6270531915,2010-12-09 09:43:43,3601.806132143835,2,23,0.550297200679779,4.056060314178467,20.840691931241693,20.274654778865784,83.54962486474354,73.48704688973395,9.70840483205393e-05,0.0949056595563888,0,0,0
6873,249018.63894457396,2010-12-09 09:44:13,3631.8180234309993,2,23,0.550297200679779,4.058812618255615,20.84527858632904,20.274654778865784,83.56823485753924,73.48704688973395,9.71794142969884e-05,0.0949056595563888,0,0,0
6874,249048.63971661628,2010-12-09 09:44:43,3661.8187955736007,2,23,0.5504778623580933,4.061402797698975,20.84986358192126,20.274654778865784,83.5868500110552,73.48704688973395,0.0001295089750783,0.0949056595563888,0,0,0
6875,249078.65300492488,2010-12-09 09:45:13,3691.832083791975,2,23,0.550297200679779,4.064154624938965,20.85445044764285,20.274654778865784,83.60548482444064,73.48704688973395,0.0001295089750783,0.0949056595563888,0,0,0
6876,249108.668155212,2010-12-09 09:45:43,3721.8472340790354,2,23,0.5501165986061096,4.066583156585693,20.859037632259064,20.274654778865784,83.62413334260059,73.48704688973395,6.47544875391759e-05,0.0949056595563888,0,0,0
6877,249138.68306423363,2010-12-09 09:46:13,3751.862143100717,2,23,0.5501165986061096,4.069497108459473,20.863624735179897,20.274654778865784,83.6427940228931,73.48704688973395,6.47544875391759e-05,0.0949056595563888,0,0,0
6878,249168.69826258023,2010-12-09 09:46:43,3781.8773414323337,2,23,0.5499359965324402,4.072248935699463,20.868211910420666,20.274654778865784,83.66146763824494,73.48704688973395,6.47544875391759e-05,0.0949056595563888,0,0,0
6879,249198.71309619432,2010-12-09 09:47:13,3811.892175061402,2,23,0.550297200679779,4.075001239776611,20.87279904664235,20.274654778865784,83.68015391121828,73.48704688973395,6.47544875391759e-05,0.0949056595563888,0,0,0
6880,249228.7282685864,2010-12-09 09:47:43,3841.9073474384327,2,23,0.5501165986061096,4.077915191650391,20.877386235501717,20.274654778865784,83.69885323136477,73.48704688973395,9.71794142969884e-05,0.0949056595563888,0,0,0
6881,249258.743325461,2010-12-09 09:48:13,3871.922404328077,2,23,0.5501165986061096,4.080667018890381,20.88197342968032,20.274654778865784,83.71756564019113,73.48704688973395,9.70840483205393e-05,0.0949056595563888,0,0,0
6882,249288.75823800144,2010-12-09 09:48:43,3901.9373168534776,2,23,0.5501165986061096,4.08358097076416,20.88656053023172,20.274654778865784,83.73629067368296,73.48704688973395,9.70840483205393e-05,0.0949056595563888,0,0,0
6883,249318.7733572412,2010-12-09 09:49:13,3931.952436103304,2,23,0.550297200679779,4.086333274841309,20.891147648321205,20.274654778865784,83.75502899477779,73.48704688973395,6.47544875391759e-05,0.0949056595563888,0,0,0
6884,249348.78819415343,2010-12-09 09:49:43,3961.9672730205552,2,23,0.5501165986061096,4.089085102081299,20.895734733366456,20.274654778865784,83.7737804204506,73.48704688973395,3.23295607813634e-05,0.0949056595563888,0,0,0
6885,249378.8032382162,2010-12-09 09:50:13,3991.982317088293,2,23,0.5501165986061096,4.092161178588867,20.900321844120693,20.274654778865784,83.7925453256477,73.48704688973395,6.47544875391759e-05,0.0949056595563888,0,0,0
6886,249408.8183729295,2010-12-09 09:50:43,4021.9974518517233,2,23,0.550297200679779,4.095236778259277,20.90490899416443,20.274654778865784,83.81132392726404,73.48704688973395,6.47544875391759e-05,0.0949056595563888,0,0,0
6887,249438.8333168931,2010-12-09 09:51:14,4052.0123957602186,2,23,0.550297200679779,4.098312854766846,20.909496189520407,20.274654778865784,83.83011642915469,73.48704688973395,9.71794142969884e-05,0.0949056595563888,0,0,0
6888,249468.84839853435,2010-12-09 09:51:44,4082.0274773763945,2,23,0.5499359965324402,4.101226806640625,20.91408339307812,20.274654778865784,83.84892280560962,73.48704688973395,6.47544875391759e-05,0.0949056595563888,0,0,0
6889,249498.86331244823,2010-12-09 09:52:14,4112.042391320324,2,23,0.5501165986061096,4.104302406311035,20.91867056836388,20.274654778865784,83.86774290304328,73.48704688973395,3.23295607813634e-05,0.0949056595563888,0,0,0
6890,249528.87851287503,2010-12-09 09:52:44,4142.057591742143,2,23,0.5501165986061096,4.107378482818604,20.92325774199506,20.274654778865784,83.88657705410108,73.48704688973395,9.71794142969884e-05,0.0949056595563888,0,0,0
6891,249558.89342078893,2010-12-09 09:53:14,4172.072499726242,2,23,0.5501165986061096,4.110292434692383,20.92784493136208,20.274654778865784,83.90542543493446,73.48704688973395,6.47544875391759e-05,0.0949056595563888,0,0,0
6892,249588.9087268236,2010-12-09 09:53:44,4202.087805705737,2,23,0.550297200679779,4.113691806793213,20.932432162783183,20.274654778865784,83.9242882798023,73.48704688973395,9.70840483205393e-05,0.0949056595563888,0,0,0
6893,249618.9235147289,2010-12-09 09:54:14,4232.102593686212,2,23,0.5501165986061096,4.116767406463623,20.937019285681178,20.274654778865784,83.94316514022528,73.48704688973395,9.70840483205393e-05,0.0949056595563888,0,0,0
6894,249648.9383962421,2010-12-09 09:54:44,4262.117475109214,2,23,0.550297200679779,4.120005130767822,20.941606394904017,20.274654778865784,83.9620564882903,73.48704688973395,9.70840483205393e-05,0.0949056595563888,0,0,0
6895,249678.9534096636,2010-12-09 09:55:14,4292.132488535703,2,23,0.5501165986061096,4.122919082641602,20.94619356388792,20.274654778865784,83.98096269739095,73.48704688973395,6.47544875391759e-05,0.0949056595563888,0,0,0
6896,249708.9685010641,2010-12-09 09:55:44,4322.147580021438,2,23,0.550297200679779,4.12631893157959,20.950780742756447,20.274654778865784,83.99988362668867,73.48704688973395,6.47544875391759e-05,0.0949056595563888,0,0,0
6897,249738.9869909366,2010-12-09 09:56:14,4352.166069893929,2,23,0.5501165986061096,4.129556655883789,20.95536840456777,20.274654778865784,84.01882142046826,73.48704688973395,3.24249267578125e-05,0.0949056595563888,0,0,0
6898,249768.99864130927,2010-12-09 09:56:44,4382.177720246536,2,23,0.550297200679779,4.132956027984619,20.95995504983381,20.274654778865784,84.03777009516496,73.48704688973395,9.70840483205393e-05,0.0949056595563888,0,0,0
6899,249799.0136967102,2010-12-09 09:57:14,4412.192775582314,2,23,0.5501165986061096,4.136193752288818,20.964542229917235,20.274654778865784,84.05673601704106,73.48704688973395,9.70840483205393e-05,0.0949056595563888,0,0,0
6900,249829.02858187756,2010-12-09 09:57:44,4442.207660744622,2,23,0.550297200679779,4.139593601226807,20.969129411893963,20.274654778865784,84.07571725929908,73.48704688973395,9.71794142969884e-05,0.0949056595563888,0,0,0
6901,249859.043761267,2010-12-09 09:58:14,4472.22284012909,2,23,0.550297200679779,4.143155097961426,20.97371665594289,20.274654778865784,84.0947141246026,73.48704688973395,0.0001619339018361,0.0949056595563888,0,0,0
6902,249889.05866299555,2010-12-09 09:58:44,4502.237741917772,2,23,0.5501165986061096,4.146230697631836,20.978303825621342,20.274654778865784,84.11372627151704,73.48704688973395,6.47544875391759e-05,0.0949056595563888,0,0,0
6903,249919.07355508508,2010-12-09 09:59:14,4532.252634022356,2,23,0.5501165986061096,4.149792194366455,20.982890927963517,20.274654778865784,84.13275386724071,73.48704688973395,9.70840483205393e-05,0.0949056595563888,0,0,0
6904,249949.08857875207,2010-12-09 09:59:44,4562.26765761414,2,23,0.550297200679779,4.153353691101074,20.987478017566776,20.274654778865784,84.15179714739058,73.48704688973395,0.0001295089750783,0.0949056595563888,0,0,0
6905,249979.10362538617,2010-12-09 10:00:14,4592.282704253277,2,23,0.5501165986061096,4.156591415405273,20.99206518901822,20.274654778865784,84.1708565232263,73.48704688973395,6.47544875391759e-05,0.0949056595563888,0,0,0
6906,250009.10639850312,2010-12-09 10:00:44,4622.285477475487,2,23,0.5501165986061096,4.160152912139893,20.996650440005283,20.274654778865784,84.18992386492025,73.48704688973395,9.70840483205393e-05,0.0949056595563888,0,0,0
6907,250039.1180652766,2010-12-09 10:01:14,4652.297144218884,2,23,0.5501165986061096,4.163714408874512,21.001237037725023,20.274654778865784,84.2090129280108,73.48704688973395,0.0001295089750783,0.0949056595563888,0,0,0
6908,250069.13328705155,2010-12-09 10:01:44,4682.312366008876,2,23,0.5501165986061096,4.1671142578125,21.005824203472663,20.274654778865784,84.22812049045916,73.48704688973395,6.47544875391759e-05,0.0949056595563888,0,0,0
6909,250099.1482380076,2010-12-09 10:02:14,4712.327316874685,2,23,0.5501165986061096,4.170675754547119,21.010411339803067,20.274654778865784,84.24724429206391,73.48704688973395,9.71794142969884e-05,0.0949056595563888,0,0,0
6910,250129.16314369097,2010-12-09 10:02:44,4742.34222254302,2,23,0.5501165986061096,4.174237251281738,21.01499852662858,20.274654778865784,84.26638476928701,73.48704688973395,3.24249267578125e-05,0.0949056595563888,0,0,0
6911,250159.17840859323,2010-12-09 10:03:14,4772.357487460334,2,23,0.5501165986061096,4.177960395812988,21.019585704950465,20.274654778865784,84.2855415409558,73.48704688973395,9.70840483205393e-05,0.0949056595563888,0,0,0
6912,250189.1932390344,2010-12-09 10:03:44,4802.372317906483,2,23,0.5501165986061096,4.181521892547607,21.024172779762413,20.274654778865784,84.30471449585713,73.48704688973395,9.70840483205393e-05,0.0949056595563888,0,0,0
6913,250219.20816300827,2010-12-09 10:04:14,4832.387241950546,2,23,0.550297200679779,4.185245513916016,21.028759936037588,20.274654778865784,84.32390446197293,73.48704688973395,9.71794142969884e-05,0.0949056595563888,0,0,0
6914,250249.22317140724,2010-12-09 10:04:44,4862.402250274337,2,23,0.550297200679779,4.188968658447266,21.033347078659272,20.274654778865784,84.34311121360786,73.48704688973395,9.70840483205393e-05,0.0949056595563888,0,0,0
6915,250279.23831218065,2010-12-09 10:05:14,4892.417391052735,2,23,0.550297200679779,4.192692279815674,21.03793425601883,20.274654778865784,84.36233512790625,73.48704688973395,9.71794142969884e-05,0.0949056595563888,0,0,0
6916,250309.2532193026,2010-12-09 10:05:44,4922.432298169676,2,23,0.5501165986061096,4.196415424346924,21.042521410366497,20.274654778865784,84.38157596541957,73.48704688973395,0.0001295089750783,0.0949056595563888,0,0,0
6917,250337.4246366712,2010-12-09 10:06:12,4950.603715523245,2,23,0.550297200679779,4.200138568878174,21.046826757615104,20.274654778865784,84.39965030002593,73.48704688973395,0.0001618385285837,0.0949056595563888,0,0,0
6918,250367.44301718136,2010-12-09 10:06:42,30.014983647384067,3,23,0.0,4.1068925857543945,21.046826757615104,20.274654778865784,84.39965030002593,73.48704688973395,-0.0003885269106831,0.0949056595563888,0,0,0
6919,250397.4580276004,2010-12-09 10:07:12,60.02999406638829,3,23,0.0,4.095075130462647,21.046826757615104,20.274654778865784,84.39965030002593,73.48704688973395,-0.0002590179501567,0.0949056595563888,0,0,0
6920,250427.47307454023,2010-12-09 10:07:42,90.04504101128578,3,23,0.0,4.087790012359619,21.046826757615104,20.274654778865784,84.39965030002593,73.48704688973395,-0.0001619339018361,0.0949056595563888,0,0,0
6921,250457.44122732585,2010-12-09 10:08:12,120.01319379185897,3,23,0.0,4.083095550537109,21.046826757615104,20.274654778865784,84.39965030002593,73.48704688973395,-0.0001295089750783,0.0949056595563888,0,0,0
6922,250457.44714484652,2010-12-09 10:08:12,2.511249147e-06,4,23,1.005793809890747,4.199814796447754,21.046826758316715,20.274654778865784,84.39965030297256,73.48704688973395,0.0,0.0949056595563888,0,0,0
6923,250458.2908747159,2010-12-09 10:08:13,0.843732420677609,4,23,0.9554038047790528,4.199653148651123,21.04705509237387,20.274654778865784,84.40060926754299,73.48704688973395,-3.23295607813634e-05,0.0949056595563888,0,0,0
6924,250460.31005768504,2010-12-09 10:08:15,2.862915465022576,4,23,0.905375063419342,4.199814796447754,21.0475758042122,20.274654778865784,84.40279617664052,73.48704688973395,0.0,0.0949056595563888,0,0,0
6925,250463.3689214098,2010-12-09 10:08:18,5.921779114565863,4,23,0.8551656603813171,4.199976921081543,21.04832259417829,20.274654778865784,84.40593256144298,73.48704688973395,0.0,0.0949056595563888,0,0,0
6926,250467.60318937773,2010-12-09 10:08:23,10.156047082547724,4,23,0.8051369190216064,4.199814796447754,21.04929766012855,20.274654778865784,84.41002767490143,73.48704688973395,0.0,0.0949056595563888,0,0,0
6927,250473.13433600345,2010-12-09 10:08:28,15.687193778363852,4,23,0.755108118057251,4.199814796447754,21.05049460214422,20.274654778865784,84.41505464242427,73.48704688973395,0.0,0.0949056595563888,0,0,0
6928,250480.3223023612,2010-12-09 10:08:35,22.875160121147623,4,23,0.7050793766975403,4.199653148651123,21.05195052903653,20.274654778865784,84.42116931298108,73.48704688973395,-3.23295607813634e-05,0.0949056595563888,0,0,0
6929,250489.99355503652,2010-12-09 10:08:45,32.54641272628425,4,23,0.6550505757331848,4.199976921081543,21.0537744107755,20.274654778865784,84.42882936231346,73.48704688973395,3.24249267578125e-05,0.0949056595563888,0,0,0
6930,250503.30908131652,2010-12-09 10:08:58,45.861939116570845,4,23,0.6044800281524658,4.199814796447754,21.05609905952254,20.274654778865784,84.43859254972254,73.48704688973395,0.0,0.0949056595563888,0,0,0
6931,250523.7583310931,2010-12-09 10:09:19,66.31118879789322,4,23,0.5544512271881104,4.199814796447754,21.059381508990143,20.274654778865784,84.45237835917091,73.48704688973395,0.0,0.0949056595563888,0,0,0
6932,250559.17961214867,2010-12-09 10:09:54,101.7324699085802,4,23,0.5044224858283997,4.199814796447754,21.06456717098731,20.274654778865784,84.47415735959981,73.48704688973395,0.0,0.0949056595563888,0,0,0
6933,250625.9596995126,2010-12-09 10:11:01,168.51255722239574,4,23,0.4543936848640442,4.199814796447754,21.073415230953096,20.274654778865784,84.51131791248028,73.48704688973395,-3.24249267578125e-05,0.0949056595563888,0,0,0
6934,250731.4574899866,2010-12-09 10:12:46,274.01034774650765,4,23,0.4043649137020111,4.199976921081543,21.085966895216345,20.274654778865784,84.56403307401295,73.48704688973395,3.24249267578125e-05,0.0949056595563888,0,0,0
6935,250864.1420802011,2010-12-09 10:14:59,406.6949379058658,4,23,0.3543361723423004,4.199653148651123,21.099938021533383,20.274654778865784,84.62270982106945,73.48704688973395,-3.23295607813634e-05,0.0949056595563888,0,0,0
6936,251026.404604131,2010-12-09 10:17:41,568.957461835799,4,23,0.3043074011802673,4.199976921081543,21.114765060797406,20.274654778865784,84.68498127488411,73.48704688973395,0.0,0.0949056595563888,0,0,0
6937,251219.30679545985,2010-12-09 10:20:54,761.8596531646056,4,23,0.2540979981422424,4.199653148651123,21.12970182366588,20.274654778865784,84.74771345969324,73.48704688973395,-6.47544875391759e-05,0.0949056595563888,0,0,0
6938,251460.69278826387,2010-12-09 10:24:56,1003.2456459535844,4,23,0.2040692418813705,4.199814796447754,21.1450216167927,20.274654778865784,84.81205427304532,73.48704688973395,-3.24249267578125e-05,0.0949056595563888,0,0,0
6939,251777.4362760407,2010-12-09 10:30:12,1319.9891338257123,4,23,0.1540404707193374,4.199653148651123,21.160672548035333,20.274654778865784,84.8777856590619,73.48704688973395,-3.23295607813634e-05,0.0949056595563888,0,0,0
6940,252241.97379370665,2010-12-09 10:37:57,1784.526651416409,4,23,0.1040116995573043,4.199653148651123,21.17711926529986,20.274654778865784,84.94685944388397,73.48704688973395,-6.47544875391759e-05,0.0949056595563888,0,0,0
6941,253153.72115349423,2010-12-09 10:53:09,2696.274011199022,4,23,0.0539829321205616,4.199814796447754,21.196345366151952,20.274654778865784,85.02760633512469,73.48704688973395,0.0,0.0949056595563888,0,0,0
6942,253272.84396407672,2010-12-09 10:55:08,2815.396821766473,4,23,0.0498289167881011,4.199814796447754,21.198077998390435,20.274654778865784,85.03488313603515,73.48704688973395,0.0,0.0949056595563888,0,0,0
6943,253302.85890249716,2010-12-09 10:55:38,30.015191364279573,5,23,0.0,4.191235065460205,21.198077998390435,20.274654778865784,85.03488313603515,73.48704688973395,-3.24249267578125e-05,0.0949056595563888,0,0,0
6944,253332.85814176025,2010-12-09 10:56:08,60.014430642406296,5,23,0.0,4.189939975738525,21.198077998390435,20.274654778865784,85.03488313603515,73.48704688973395,-3.24249267578125e-05,0.0949056595563888,0,0,0
6945,253333.04673680017,2010-12-09 10:56:08,0.187492583081746,6,23,0.0007031940040178,4.190425872802734,21.19807803501368,20.274654778865784,85.03488328950212,73.48704688973395,0.0,0.098061554133892,0,0,0
6946,253337.87476545377,2010-12-09 10:56:13,5.015521221655427,6,23,0.0010644125286489,4.189939975738525,21.19807913514376,20.274654778865784,85.03488789903996,73.48704688973395,-3.24249267578125e-05,0.098061554133892,0,0,0
6947,253367.8910020384,2010-12-09 10:56:43,30.014999196076392,7,23,-1.099568486213684,3.99713397026062,21.19807913514376,20.283822100854778,85.03488789903996,73.52390750424908,-0.0010361194144934,0.098061554133892,0,0,0
6948,253397.9059046692,2010-12-09 10:57:13,60.02990182685375,7,23,-1.099568486213684,3.966699600219727,21.19807913514376,20.29298936819367,85.03488789903996,73.5603998596656,-0.0006475448608398,0.098061554133892,0,0,0
6949,253427.92101693663,2010-12-09 10:57:43,90.04501418452843,7,23,-1.099568486213684,3.9451687335968018,21.19807913514376,20.30215660976012,85.03488789903996,73.59665884080536,-0.0005180359003134,0.098061554133892,0,0,0
6950,253457.93931972852,2010-12-09 10:58:13,120.06331697647607,7,23,-1.0997490882873535,3.928332567214966,21.19807913514376,20.311324884558125,85.03488789903996,73.63274994764575,-0.0004532813909463,0.098061554133892,0,0,0
6951,253487.95112955305,2010-12-09 10:58:43,150.07512671069932,7,23,-1.0993878841400146,3.914410352706909,21.19807913514376,20.320491192751284,85.03488789903996,73.66869345295275,-0.0003561496851034,0.098061554133892,0,0,0
6952,253517.96609216303,2010-12-09 10:59:13,180.09008932073274,7,23,-1.099568486213684,3.9017834663391113,21.19807913514376,20.32965842477682,85.03488789903996,73.70451875692824,-0.0003237724304199,0.098061554133892,0,0,0
6953,253547.9812024005,2010-12-09 10:59:43,210.10519962830583,7,23,-1.099568486213684,3.890451431274414,21.19807913514376,20.338825702359248,85.03488789903996,73.740234470373,-0.0003237724304199,0.098061554133892,0,0,0
6954,253577.996170429,2010-12-09 11:00:13,240.1201675916608,7,23,-1.099568486213684,3.8794431686401367,21.19807913514376,20.34799286480816,85.03488789903996,73.77584723312425,-0.0002590179501567,0.098061554133892,0,0,0
6955,253608.01122326852,2010-12-09 11:00:43,270.1352204412519,7,23,-1.0993878841400146,3.869244337081909,21.19807913514376,20.35716018325492,85.03488789903996,73.81136378013937,-0.0002590179501567,0.098061554133892,0,0,0
6956,253638.0260923408,2010-12-09 11:01:13,300.1500895034953,7,23,-1.099568486213684,3.8593692779541016,21.19807913514376,20.366327422363376,85.03488789903996,73.84678789229596,-0.0002266406954731,0.098061554133892,0,0,0
6957,253668.04124727444,2010-12-09 11:01:43,330.16524450228064,7,23,-1.0993878841400146,3.849817991256714,21.19807913514376,20.37549475734097,85.03488789903996,73.8821233892057,-0.0002266406954731,0.098061554133892,0,0,0
6958,253698.0561569678,2010-12-09 11:02:13,360.1801541254584,7,23,-1.099568486213684,3.840428590774536,21.19807913514376,20.38466203110844,85.03488789903996,73.9173725451146,-0.0002913951757363,0.098061554133892,0,0,0
6959,253728.07121542632,2010-12-09 11:02:43,390.19521259403206,7,23,-1.099568486213684,3.831363201141357,21.19807913514376,20.39382935148661,85.03488789903996,73.9525372783246,-0.0002590179501567,0.098061554133892,0,0,0
6960,253758.08660458785,2010-12-09 11:03:13,420.2106017454975,7,23,-1.0993878841400146,3.8224594593048096,21.19807913514376,20.4029967636953,85.03488789903996,73.98761985752782,-0.0002266406954731,0.098061554133892,0,0,0
6961,253788.1012860733,2010-12-09 11:03:43,450.22528323597567,7,23,-1.099568486213684,3.8135557174682617,21.19807913514376,20.41216395274025,85.03488789903996,74.02262100995443,-0.0002590179501567,0.098061554133892,0,0,0
6962,253818.116459112,2010-12-09 11:04:13,480.2404563899396,7,23,-1.0993878841400146,3.805137634277344,21.19807913514376,20.421331235619764,85.03488789903996,74.05754198310511,-0.0001942634553415,0.098061554133892,0,0,0
6963,253848.13138162225,2010-12-09 11:04:43,510.25537878489934,7,23,-1.099568486213684,3.796557664871216,21.19807913514376,20.4304984738599,85.03488789903996,74.09238508994228,-0.0002266406954731,0.098061554133892,0,0,0
6964,253878.14629077425,2010-12-09 11:05:14,540.2702880171041,7,23,-1.099568486213684,3.788625240325928,21.19807913514376,20.43966571962885,85.03488789903996,74.1271529055748,-0.0001618862152099,0.098061554133892,0,0,0
6965,253908.1614398984,2010-12-09 11:05:44,570.2854370761087,7,23,-1.099568486213684,3.7805309295654297,21.19807913514376,20.448833029913715,85.03488789903996,74.16184658268202,-0.0001942634553415,0.098061554133892,0,0,0
6966,253938.1766098644,2010-12-09 11:06:14,600.3006070922643,7,23,-1.0993878841400146,3.7725985050201416,21.19807913514376,20.458000399545316,85.03488789903996,74.19646765403829,-0.0001942634553415,0.098061554133892,0,0,0
6967,253968.19150746768,2010-12-09 11:06:44,630.3155046303687,7,23,-1.0993878841400146,3.7649898529052734,21.19807913514376,20.467167554768267,85.03488789903996,74.23101633469096,-0.0001942634553415,0.098061554133892,0,0,0
6968,253998.2064113566,2010-12-09 11:07:14,660.3304086095013,7,23,-1.099568486213684,3.7575430870056152,21.19807913514376,20.476334761947207,85.03488789903996,74.26549609615503,-0.0001618862152099,0.098061554133892,0,0,0
6969,254028.221414703,2010-12-09 11:07:44,690.3454118606687,7,23,-1.099568486213684,3.750258445739746,21.19807913514376,20.48550210292,85.03488789903996,74.2999093799504,-0.0001942634553415,0.098061554133892,0,0,0
6970,254058.236520775,2010-12-09 11:08:14,720.3605179377142,7,23,-1.0993878841400146,3.7432973384857178,21.19807913514376,20.494669375779782,85.03488789903996,74.334257879139,-0.0002266406954731,0.098061554133892,0,0,0
6971,254088.25164942825,2010-12-09 11:08:44,750.3756465859274,7,23,-1.0993878841400146,3.7368218898773193,21.19807913514376,20.503836727767432,85.03488789903996,74.36854337586084,-0.0001618862152099,0.098061554133892,0,0,0
6972,254118.2666660126,2010-12-09 11:09:14,780.3906631702738,7,23,-1.0993878841400146,3.729860782623291,21.19807913514376,20.513003951055268,85.03488789903996,74.40276685687397,-0.0001618862152099,0.098061554133892,0,0,0
6973,254148.2815566636,2010-12-09 11:09:44,810.4055538212399,7,23,-1.0993878841400146,3.7232234477996826,21.19807913514376,20.522171101778422,85.03488789903996,74.43692879973212,-0.0001618862152099,0.098061554133892,0,0,0
6974,254178.30032140503,2010-12-09 11:10:14,840.4243186529555,7,23,-1.099568486213684,3.716747999191284,21.19807913514376,20.531339494144586,85.03488789903996,74.47103486320623,-0.0001618862152099,0.098061554133892,0,0,0
6975,254208.31159347636,2010-12-09 11:10:44,870.4355906340008,7,23,-1.099568486213684,3.7102725505828857,21.19807913514376,20.54050566417429,85.03488789903996,74.5050735019809,-0.0001295089750783,0.098061554133892,0,0,0
6976,254238.32656664265,2010-12-09 11:11:14,900.450563800303,7,23,-1.099568486213684,3.703958988189697,21.19807913514376,20.549672977974968,85.03488789903996,74.53905739726478,-0.0001295089750783,0.098061554133892,0,0,0
6977,254268.34159252013,2010-12-09 11:11:44,930.4655896928124,7,23,-1.099568486213684,3.697483539581299,21.19807913514376,20.558840226857548,85.03488789903996,74.57298300462736,-0.0001942634553415,0.098061554133892,0,0,0
6978,254298.35663988604,2010-12-09 11:12:14,960.4806370687828,7,23,-1.0993878841400146,3.69165563583374,21.19807913514376,20.568007449479463,85.03488789903996,74.60685211711564,-0.0001618862152099,0.098061554133892,0,0,0
6979,254328.3717371612,2010-12-09 11:12:44,990.4957343439252,7,23,-1.099568486213684,3.685342073440552,21.19807913514376,20.57717468113489,85.03488789903996,74.64066567190612,-0.0001942634553415,0.098061554133892,0,0,0
6980,254358.38672476343,2010-12-09 11:13:14,1020.5107219411382,7,23,-1.099568486213684,3.679352283477783,21.19807913514376,20.58634195284445,85.03488789903996,74.67442411647377,-0.0001942634553415,0.098061554133892,0,0,0
6981,254388.4018630105,2010-12-09 11:13:44,1050.5258601681876,7,23,-1.099568486213684,3.6735243797302246,21.19807913514376,20.595509310155308,85.03488789903996,74.70812824605109,-0.0001618862152099,0.098061554133892,0,0,0
6982,254418.42022769147,2010-12-09 11:14:14,1080.5442249393684,7,23,-1.099568486213684,3.667696714401245,21.19807913514376,20.604677661711,85.03488789903996,74.7417824923982,-0.0001942634553415,0.098061554133892,0,0,0
6983,254448.43172541927,2010-12-09 11:14:44,1110.5557225919886,7,23,-1.099568486213684,3.6621925830841056,21.19807913514376,20.613843738819515,85.03488789903996,74.77537625232908,-0.0001295089750783,0.098061554133892,0,0,0
6984,254478.4467777225,2010-12-09 11:15:14,1140.5707749754197,7,23,-1.099568486213684,3.656526565551758,21.19807913514376,20.623010998623897,85.03488789903996,74.80892291789903,-0.0001618862152099,0.098061554133892,0,0,0
6985,254508.46177655767,2010-12-09 11:15:44,1170.5857737303984,7,23,-1.099568486213684,3.651022434234619,21.19807913514376,20.63217831111964,85.03488789903996,74.84241876505541,-0.0001942634553415,0.098061554133892,0,0,0
6986,254538.47683720168,2010-12-09 11:16:14,1200.6008344295228,7,23,-1.0997490882873535,3.645842075347901,21.19807913514376,20.64134560881189,85.03488789903996,74.87586483743756,-6.47544875391759e-05,0.098061554133892,0,0,0
6987,254568.4919928972,2010-12-09 11:16:44,1230.6159901601293,7,23,-1.099568486213684,3.6406617164611816,21.19807913514376,20.650512918233257,85.03488789903996,74.9092630929678,-0.0001295089750783,0.098061554133892,0,0,0
6988,254598.5073282348,2010-12-09 11:17:14,1260.6313253924188,7,23,-1.099568486213684,3.635319471359253,21.19807913514376,20.65968025762018,85.03488789903996,74.94261308660175,-0.0001295089750783,0.098061554133892,0,0,0
6989,254628.52191940547,2010-12-09 11:17:44,1290.6459165631395,7,23,-1.0993878841400146,3.630139112472534,21.19807913514376,20.668847423980367,85.03488789903996,74.97591476550896,-0.0001618862152099,0.098061554133892,0,0,0
6990,254658.53709707063,2010-12-09 11:18:14,1320.6610942483796,7,23,-1.099568486213684,3.624958753585816,21.19807913514376,20.678014715369983,85.03488789903996,75.00916982689898,-0.0001295089750783,0.098061554133892,0,0,0
6991,254688.55205099407,2010-12-09 11:18:44,1350.676048241971,7,23,-1.099568486213684,3.619940280914306,21.19807913514376,20.687181942569147,85.03488789903996,75.04237860056091,-0.0001618862152099,0.098061554133892,0,0,0
6992,254718.56696085283,2010-12-09 11:19:14,1380.690958025548,7,23,-1.099929690361023,3.614921808242798,21.19807913514376,20.696349236247595,85.03488789903996,75.07554246252879,-0.0001618862152099,0.098061554133892,0,0,0
6993,254748.5820989696,2010-12-09 11:19:44,1410.7060961423235,7,23,-1.0992072820663452,3.610388994216919,21.19807913514376,20.705516526730477,85.03488789903996,75.10866171141323,-0.0001295089750783,0.098061554133892,0,0,0
6994,254778.59703237697,2010-12-09 11:20:14,1440.7210295546995,7,23,-1.0993878841400146,3.60569429397583,21.19807913514376,20.71468377451911,85.03488789903996,75.14173689100106,-9.713172767078504e-05,0.098061554133892,0,0,0
6995,254808.61215623328,2010-12-09 11:20:44,1470.7361534109882,7,23,-1.099568486213684,3.601161479949951,21.19807913514376,20.72385105056528,85.03488789903996,75.17476988750222,-0.0001295089750783,0.098061554133892,0,0,0
6996,254838.6270744779,2010-12-09 11:21:14,1500.7510716405825,7,23,-1.099568486213684,3.5966286659240723,21.19807913514376,20.733018361691045,85.03488789903996,75.20776155810815,-9.713172767078504e-05,0.098061554133892,0,0,0
6997,254868.6423703272,2010-12-09 11:21:44,1530.7663674848566,7,23,-1.099568486213684,3.5920960903167725,21.19807913514376,20.742185707087856,85.03488789903996,75.24071261749343,-0.0001618385285837,0.098061554133892,0,0,0
6998,254898.657441738,2010-12-09 11:22:14,1560.7814389858609,7,23,-1.099568486213684,3.587887048721313,21.19807913514376,20.75135301918979,85.03488789903996,75.27362399342154,-9.713172767078504e-05,0.098061554133892,0,0,0
6999,254928.6721967965,2010-12-09 11:22:44,1590.7961940243606,7,23,-1.0993878841400146,3.5840017795562744,21.19807913514376,20.76052030337618,85.03488789903996,75.3064971066577,-9.713172767078504e-05,0.098061554133892,0,0,0
7000,254958.68716179748,2010-12-09 11:23:14,1620.811158975219,7,23,-1.0997490882873535,3.5799546241760254,21.19807913514376,20.769687546826795,85.03488789903996,75.339333482571,-9.713172767078504e-05,0.098061554133892,0,0,0
7001,254988.7026088932,2010-12-09 11:23:44,1650.8266060708763,7,23,-1.0993878841400146,3.5760693550109863,21.19807913514376,20.77885502575432,85.03488789903996,75.37213432951354,-0.0001295089750783,0.098061554133892,0,0,0
7002,255018.71723117636,2010-12-09 11:24:14,1680.841228338982,7,23,-1.099568486213684,3.572345972061157,21.19807913514376,20.78802225224483,85.03488789903996,75.40489918985423,-6.47544875391759e-05,0.098061554133892,0,0,0
7003,255048.7323632079,2010-12-09 11:24:44,1710.8563603806394,7,23,-1.099568486213684,3.568460702896118,21.19807913514376,20.79718961752614,85.03488789903996,75.43762979614945,-6.47544875391759e-05,0.098061554133892,0,0,0
7004,255078.7472491572,2010-12-09 11:25:14,1740.8712464251423,7,23,-1.099568486213684,3.564737319946289,21.19807913514376,20.806356897605266,85.03488789903996,75.47032596289563,-9.713172767078504e-05,0.098061554133892,0,0,0
7005,255108.76228057343,2010-12-09 11:25:44,1770.8862777361358,7,23,-1.0993878841400146,3.56133770942688,21.19807913514376,20.815524160153466,85.03488789903996,75.50298778443616,-3.237724376958795e-05,0.098061554133892,0,0,0
7006,255138.77761153516,2010-12-09 11:26:14,1800.901608697798,7,23,-1.099568486213684,3.557614326477051,21.19807913514376,20.82469154285753,85.03488789903996,75.53561700550378,-6.47544875391759e-05,0.098061554133892,0,0,0
7007,255168.79238194687,2010-12-09 11:26:44,1830.9163791095527,7,23,-1.0993878841400146,3.5538909435272217,21.19807913514376,20.833858843063805,85.03488789903996,75.56821374879385,-0.0001295089750783,0.098061554133892,0,0,0
7008,255198.8076026642,2010-12-09 11:27:14,1860.9315998419145,7,23,-1.099568486213684,3.5506532192230225,21.19807913514376,20.843026252631848,85.03488789903996,75.6007788041536,-9.713172767078504e-05,0.098061554133892,0,0,0
7009,255228.82254682333,2010-12-09 11:27:44,1890.9465439960209,7,23,-1.099568486213684,3.5472536087036133,21.19807913514376,20.852193572498027,85.03488789903996,75.63331278728306,-9.713172767078504e-05,0.098061554133892,0,0,0
7010,255258.837580816,2010-12-09 11:28:14,1920.9615779736496,7,23,-1.099568486213684,3.543853998184204,21.19807913514376,20.86136097419489,85.03488789903996,75.66581624071273,-9.713172767078504e-05,0.098061554133892,0,0,0
7011,255288.8524452868,2010-12-09 11:28:44,1950.9764424645173,7,23,-1.099568486213684,3.540454387664795,21.19807913514376,20.870528223397656,85.03488789903996,75.69828821443613,-9.713172767078504e-05,0.098061554133892,0,0,0
7012,255318.8674765126,2010-12-09 11:29:14,1980.9914736702488,7,23,-1.0993878841400146,3.5370547771453857,21.19807913514376,20.879695506801028,85.03488789903996,75.73072892575246,-9.713172767078504e-05,0.098061554133892,0,0,0
7013,255348.8824967911,2010-12-09 11:29:44,2011.0064939638253,7,23,-1.099568486213684,3.5338170528411865,21.19807913514376,20.88886290723083,85.03488789903996,75.76313971414235,-9.713172767078504e-05,0.098061554133892,0,0,0
7014,255378.90112572967,2010-12-09 11:30:14,2041.0251229775631,7,23,-1.0993878841400146,3.5304174423217773,21.19807913514376,20.89803136387629,85.03488789903996,75.79552397792034,-9.713172767078504e-05,0.098061554133892,0,0,0
7015,255408.91258695663,2010-12-09 11:30:44,2071.03658412434,7,23,-1.0993878841400146,3.527179718017578,21.19807913514376,20.907197650736105,85.03488789903996,75.82786986519451,-6.47544875391759e-05,0.098061554133892,0,0,0
7016,255438.92767083345,2010-12-09 11:31:14,2101.051668011166,7,23,-1.099568486213684,3.523780107498169,21.19807913514376,20.91636505142948,85.03488789903996,75.86018887883702,-0.0001295089750783,0.098061554133892,0,0,0
7017,255468.9426488268,2010-12-09 11:31:44,2131.066645999468,7,23,-1.099568486213684,3.52021861076355,21.19807913514376,20.92553241840945,85.03488789903996,75.89247647959137,-9.713172767078504e-05,0.098061554133892,0,0,0
7018,255498.95765383737,2010-12-09 11:32:14,2161.081651010013,7,23,-1.0993878841400146,3.5168190002441406,21.19807913514376,20.934699763998232,85.03488789903996,75.92473259955318,-9.713172767078504e-05,0.098061554133892,0,0,0
7019,255528.97265788543,2010-12-09 11:32:44,2191.0966550581643,7,23,-1.0997490882873535,3.5130956172943115,21.19807913514376,20.94386719740953,85.03488789903996,75.95695627827668,-0.0001295089750783,0.098061554133892,0,0,0
7020,255558.9876915874,2010-12-09 11:33:14,2221.111688760107,7,23,-1.0993878841400146,3.509696245193481,21.19807913514376,20.953034622038587,85.03488789903996,75.98914618936126,-6.47544875391759e-05,0.098061554133892,0,0,0
7021,255589.0027429533,2010-12-09 11:33:44,2251.126740201193,7,23,-1.099568486213684,3.5059728622436523,21.19807913514376,20.96220199377777,85.03488789903996,76.02130316379542,-0.0001295089750783,0.098061554133892,0,0,0
7022,255619.01776986333,2010-12-09 11:34:14,2281.14176704106,7,23,-1.099568486213684,3.502735137939453,21.19807913514376,20.971369417893253,85.03488789903996,76.05342859614494,-6.47544875391759e-05,0.098061554133892,0,0,0
7023,255649.03278498404,2010-12-09 11:34:44,2311.156782226926,7,23,-1.0993878841400146,3.499011754989624,21.19807913514376,20.98053678220668,85.03488789903996,76.0855215602709,-9.713172767078504e-05,0.098061554133892,0,0,0
7024,255679.04780167365,2010-12-09 11:35:14,2341.1717988313226,7,23,-1.0993878841400146,3.495288372039795,21.19807913514376,20.989704255832983,85.03488789903996,76.11758094040736,-6.47544875391759e-05,0.098061554133892,0,0,0
7025,255709.06286951053,2010-12-09 11:35:44,2371.186866668209,7,23,-1.0997490882873535,3.491079330444336,21.19807913514376,20.99887172508693,85.03488789903996,76.14960490129772,-0.0001295089750783,0.098061554133892,0,0,0
7026,255739.07804348657,2010-12-09 11:36:14,2401.202040644219,7,23,-1.0997490882873535,3.486708402633667,21.19807913514376,21.00803923272536,85.03488789903996,76.1815905941298,-0.0001618862152099,0.098061554133892,0,0,0
7027,255769.0929987483,2010-12-09 11:36:44,2431.216995976141,7,23,-1.0993878841400146,3.482499361038208,21.19807913514376,21.01720664972377,85.03488789903996,76.21353516116424,-9.713172767078504e-05,0.098061554133892,0,0,0
7028,255799.10789629145,2010-12-09 11:37:15,2461.2318934641203,7,23,-1.099568486213684,3.4773190021514893,21.19807913514376,21.026373966693,85.03488789903996,76.2454350835475,-9.713172767078504e-05,0.098061554133892,0,0,0
7029,255829.1231999752,2010-12-09 11:37:45,2491.247197198027,7,23,-1.099568486213684,3.4716529846191406,21.19807913514376,21.035541416796796,85.03488789903996,76.27728732729007,-0.0001942634553415,0.098061554133892,0,0,0
7030,255859.13797568515,2010-12-09 11:38:15,2521.261972842805,7,23,-1.0993878841400146,3.465663194656372,21.19807913514376,21.044708766945657,85.03488789903996,76.30908651761098,-0.0001618862152099,0.098061554133892,0,0,0
7031,255889.15302451976,2010-12-09 11:38:45,2551.2770216824174,7,23,-1.0993878841400146,3.4591877460479736,21.19807913514376,21.05387615251045,85.03488789903996,76.34082753503156,-0.0001295089750783,0.098061554133892,0,0,0
7032,255919.1680207936,2010-12-09 11:39:15,2581.2920180364213,7,23,-1.099568486213684,3.451579093933105,21.19807913514376,21.063043584568177,85.03488789903996,76.37250401649175,-0.0002266406954731,0.098061554133892,0,0,0
7033,255949.18315722112,2010-12-09 11:39:45,2611.307154378781,7,23,-1.099568486213684,3.442837238311768,21.19807913514376,21.072211064992885,85.03488789903996,76.4041074519654,-0.0002590179501567,0.098061554133892,0,0,0
7034,255979.1981883968,2010-12-09 11:40:15,2641.3221855444126,7,23,-1.0997490882873535,3.43280029296875,21.19807913514376,21.08137852525197,85.03488789903996,76.43562561467311,-0.0003237724304199,0.098061554133892,0,0,0
7035,256009.2131302652,2010-12-09 11:40:45,2671.3371274378933,7,23,-1.0993878841400146,3.420982837677002,21.19807913514376,21.09054601861915,85.03488789903996,76.46704343738729,-0.0003561496851034,0.098061554133892,0,0,0
7036,256039.2281387745,2010-12-09 11:41:15,2701.3521359471456,7,23,-1.0993878841400146,3.4065749645233154,21.19807913514376,21.099713369289297,85.03488789903996,76.49834081179766,-0.0004209041653666,0.098061554133892,0,0,0
7037,256069.24313926377,2010-12-09 11:41:45,2731.3671364264146,7,23,-1.099568486213684,3.38876748085022,21.19807913514376,21.10888080958665,85.03488789903996,76.52949175690176,-0.0005504131549969,0.098061554133892,0,0,0
7038,256099.26167370213,2010-12-09 11:42:15,2761.3856709800925,7,23,-1.0993878841400146,3.366265296936035,21.19807913514376,21.118049340747778,85.03488789903996,76.56046222721021,-0.0006475448608398,0.098061554133892,0,0,0
7039,256129.2732666118,2010-12-09 11:42:45,2791.397263874719,7,23,-1.099568486213684,3.3371260166168213,21.19807913514376,21.12721573227047,85.03488789903996,76.59119101647313,-0.0008741855854168,0.098061554133892,0,0,0
7040,256159.28822284093,2010-12-09 11:43:15,2821.4122200136494,7,23,-1.0993878841400146,3.2987589836120605,21.19807913514376,21.1363831338252,85.03488789903996,76.6216164815875,-0.0011008263099938,0.098061554133892,0,0,0
7041,256189.30325498403,2010-12-09 11:43:45,2851.427252141676,7,23,-1.099568486213684,3.246955633163452,21.19807913514376,21.14555053753656,85.03488789903996,76.65163211829561,-0.0015864849556237,0.098061554133892,0,0,0
7042,256219.318340139,2010-12-09 11:44:15,2881.4423373116947,7,23,-1.099568486213684,3.1757259368896484,21.19807913514376,21.15471796943745,85.03488789903996,76.68109018326471,-0.0022016526199877,0.098061554133892,0,0,0
7043,256249.33334697908,2010-12-09 11:44:45,2911.457344156805,7,23,-1.099568486213684,3.0719571113586426,21.19807913514376,21.163885431153705,85.03488789903996,76.70975845738377,-0.003270101500675,0.098061554133892,0,0,0
7044,256279.34852619816,2010-12-09 11:45:15,2941.472523446037,7,23,-1.0993878841400146,2.900196313858032,21.19807913514376,21.17305293733317,85.03488789903996,76.73721160520404,-0.0058602811768651,0.098061554133892,0,0,0
7045,256301.5043762088,2010-12-09 11:45:37,2963.6283734766903,7,23,-1.099568486213684,2.699943780899048,21.19807913514376,21.17981999924822,85.03488789903996,76.75619049464339,-0.0078999996185302,0.098061554133892,0,0,0
7046,256361.5168124492,2010-12-09 11:46:37,60.01472176184582,8,23,0.0,3.424706220626831,21.19807913514376,21.17981999924822,85.03488789903996,76.75619049464339,0.0012627125252038,0.098061554133892,0,0,0
7047,256361.70307191223,2010-12-09 11:46:37,0.187440398221729,9,23,-1.9243103452026844e-05,3.425191879272461,21.19807913514376,21.179820000250142,85.03488789903996,76.75619049807517,0.0,0.0940944999456405,0,0,0
7048,256366.5310883204,2010-12-09 11:46:42,5.01545680134797,9,23,0.0010644125286489,3.43296217918396,21.198080162146155,21.179820000250142,85.03489142132317,76.75619049807517,0.0011331557761877,0.0940944999456405,0,0,0
