Data_Point,Test_Time(s),Date_Time,Step_Time(s),Step_Index,Cycle_Index,Current(A),Voltage(V),Charge_Capacity(Ah),Discharge_Capacity(Ah),Charge_Energy(Wh),Discharge_Energy(Wh),dV/dt(V/s),Internal_Resistance(Ohm),Is_FC_Data,AC_Impedance(Ohm),ACI_Phase_Angle(Deg)
11570,421990.8611700226,2010-12-11 09:47:26,30.013210319525896,1,39,0.0,3.437818765640259,34.777346483809794,34.7608615052316,139.5399914766137,125.92825252229748,0.0007446765666827,0.0938397273421287,0,0,0
11571,422020.8762078196,2010-12-11 09:47:56,60.02824809660965,1,39,0.0,3.461939811706543,34.777346483809794,34.7608615052316,139.5399914766137,125.92825252229748,0.0005180359003134,0.0938397273421287,0,0,0
11572,422050.89128644834,2010-12-11 09:48:26,90.04332675041351,1,39,0.0,3.4800710678100586,34.777346483809794,34.7608615052316,139.5399914766137,125.92825252229748,0.0004209041653666,0.0938397273421287,0,0,0
11573,422080.8594927622,2010-12-11 09:48:56,120.01153306420208,1,39,0.0,3.494802713394165,34.777346483809794,34.7608615052316,139.5399914766137,125.92825252229748,0.0003561496851034,0.0938397273421287,0,0,0
11574,422110.873418222,2010-12-11 09:49:26,30.01527507258447,2,39,0.5501165986061096,3.64762282371521,34.78193389078032,34.7608615052316,139.55657856765893,125.92825252229748,0.0014245987404137,0.0938397273421287,0,0,0
11575,422140.8882832643,2010-12-11 09:49:56,60.0301401148242,2,39,0.5501165986061096,3.688256025314331,34.78652120268747,34.7608615052316,139.5734109902265,125.92825252229748,0.0009065627818927,0.0938397273421287,0,0,0
11576,422170.90337073,2010-12-11 09:50:26,90.04522767579323,2,39,0.550297200679779,3.717719316482544,34.79110848894719,34.7608615052316,139.5904007426296,125.92825252229748,0.0007446765666827,0.0938397273421287,0,0,0
11577,422200.9184444165,2010-12-11 09:50:56,120.0603012920614,2,39,0.550297200679779,3.739735841751098,34.79569577066848,34.7608615052316,139.60750753396889,125.92825252229748,0.0004856586456298,0.0938397273421287,0,0,0
11578,422230.93350598274,2010-12-11 09:51:26,150.07536285834362,2,39,0.5501165986061096,3.757057428359986,34.80028302903669,34.7608615052316,139.62470485123825,125.92825252229748,0.0003885269106831,0.0938397273421287,0,0,0
11579,422260.9485755239,2010-12-11 09:51:56,180.090432399471,2,39,0.5501165986061096,3.7693607807159424,34.80487039911696,34.7608615052316,139.64197025296338,125.92825252229748,0.0002590179501567,0.0938397273421287,0,0,0
11580,422290.96377336927,2010-12-11 09:52:26,210.10563021981625,2,39,0.5501165986061096,3.77745509147644,34.80945767333453,34.7608615052316,139.6592812276622,125.92825252229748,0.0001295089750783,0.0938397273421287,0,0,0
11581,422320.97873573366,2010-12-11 09:52:56,240.1205925942634,2,39,0.5501165986061096,3.783444881439209,34.81404490605136,34.7608615052316,139.67662352939644,125.92825252229748,0.0001295089750783,0.0938397273421287,0,0,0
11582,422350.995644236,2010-12-11 09:53:26,270.1375011918119,2,39,0.5501165986061096,3.7884633541107178,34.81863250554369,34.7608615052316,139.6939922831377,125.92825252229748,0.0001295089750783,0.0938397273421287,0,0,0
11583,422381.0088749362,2010-12-11 09:53:56,300.150731791805,2,39,0.5501165986061096,3.793158054351807,34.823219450034976,34.7608615052316,139.71138098177144,125.92825252229748,0.0001295089750783,0.0938397273421287,0,0,0
11584,422411.0239610637,2010-12-11 09:54:26,330.165817944269,2,39,0.5501165986061096,3.7976908683776855,34.82780672115116,34.7608615052316,139.72879201462467,125.92825252229748,0.0001295089750783,0.0938397273421287,0,0,0
11585,422441.0390098732,2010-12-11 09:54:56,360.18086672874426,2,39,0.5501165986061096,3.8020617961883545,34.83239397828164,34.7608615052316,139.7462230187927,125.92825252229748,0.0001295089750783,0.0938397273421287,0,0,0
11586,422471.05409188033,2010-12-11 09:55:26,390.1959488511797,2,39,0.5499359965324402,3.806108951568604,34.836981283825644,34.7608615052316,139.76367335771067,125.92825252229748,6.47544875391759e-05,0.0938397273421287,0,0,0
11587,422501.0691503389,2010-12-11 09:55:56,420.2110072195039,2,39,0.5501165986061096,3.8099942207336426,34.841568632193095,34.7608615052316,139.78114245307296,125.92825252229748,9.713172767078504e-05,0.0938397273421287,0,0,0
11588,422531.0842233436,2010-12-11 09:56:27,450.2260801941755,2,39,0.550297200679779,3.814041376113892,34.84615595954593,34.7608615052316,139.79862955486803,125.92825252229748,9.713172767078504e-05,0.0938397273421287,0,0,0
11589,422561.09943017137,2010-12-11 09:56:57,480.2412870319603,2,39,0.550297200679779,3.8177647590637207,34.85074330851053,34.7608615052316,139.81613455946527,125.92825252229748,9.713172767078504e-05,0.0938397273421287,0,0,0
11590,422591.1143577592,2010-12-11 09:57:27,510.2562146348798,2,39,0.5501165986061096,3.82148814201355,34.85533057896349,34.7608615052316,139.8336564871645,125.92825252229748,9.713172767078504e-05,0.0938397273421287,0,0,0
11591,422621.1294361474,2010-12-11 09:57:57,540.2712930180102,2,39,0.550297200679779,3.825211524963379,34.859917881445305,34.7608615052316,139.85119546341275,125.92825252229748,9.713172767078504e-05,0.0938397273421287,0,0,0
11592,422651.1444752378,2010-12-11 09:58:27,570.2863321183869,2,39,0.5499359965324402,3.828773021697998,34.8645051475396,34.7608615052316,139.86875116676168,125.92825252229748,6.47544875391759e-05,0.0938397273421287,0,0,0
11593,422681.1597294184,2010-12-11 09:58:57,600.3015862689076,2,39,0.550297200679779,3.832658290863037,34.86909243575218,34.7608615052316,139.8863238450911,125.92825252229748,9.713172767078504e-05,0.0938397273421287,0,0,0
11594,422711.1746831413,2010-12-11 09:59:27,630.3165400018509,2,39,0.550297200679779,3.836219549179077,34.87367967828737,34.7608615052316,139.9039132138245,125.92825252229748,0.0001295089750783,0.0938397273421287,0,0,0
11595,422741.1897419808,2010-12-11 09:59:57,660.33159884636,2,39,0.550297200679779,3.839942932128906,34.87826696252822,34.7608615052316,139.9215197702817,125.92825252229748,9.713172767078504e-05,0.0938397273421287,0,0,0
11596,422771.204856564,2010-12-11 10:00:27,690.3467134947349,2,39,0.550297200679779,3.843828201293945,34.88285428487167,34.7608615052316,139.93914362648604,125.92825252229748,0.0001295089750783,0.0938397273421287,0,0,0
11597,422801.21989444125,2010-12-11 10:00:57,720.3617512918686,2,39,0.550297200679779,3.847389698028565,34.887441533191506,34.7608615052316,139.95678426905798,125.92825252229748,6.47544875391759e-05,0.0938397273421287,0,0,0
11598,422831.2350106586,2010-12-11 10:01:27,750.3768675342101,2,39,0.550297200679779,3.8511130809783936,34.892028837083764,34.7608615052316,139.9744422066666,125.92825252229748,9.713172767078504e-05,0.0938397273421287,0,0,0
11599,422861.25006402447,2010-12-11 10:01:57,780.3919208900611,2,39,0.5501165986061096,3.8546745777130127,34.896616169037706,34.7608615052316,139.9921171921394,125.92825252229748,6.47544875391759e-05,0.0938397273421287,0,0,0
11600,422891.2651914646,2010-12-11 10:02:27,810.40704841548,2,39,0.5499359965324402,3.858397960662842,34.90120344278401,34.7608615052316,140.00980871205795,125.92825252229748,9.713172767078504e-05,0.0938397273421287,0,0,0
11601,422921.2801810769,2010-12-11 10:02:57,840.4220379324704,2,39,0.5501165986061096,3.862121343612671,34.9057907244745,34.7608615052316,140.02751673295174,125.92825252229748,0.0001295089750783,0.0938397273421287,0,0,0
11602,422951.2971121002,2010-12-11 10:03:27,870.4389690510618,2,39,0.5501165986061096,3.86552095413208,34.910378409598394,34.7608615052316,140.04524241821878,125.92825252229748,6.47544875391759e-05,0.0938397273421287,0,0,0
11603,422981.3103217832,2010-12-11 10:03:57,900.4521786588164,2,39,0.550297200679779,3.8687586784362793,34.91496539635483,34.7608615052316,140.0629810033085,125.92825252229748,6.47544875391759e-05,0.0938397273421287,0,0,0
11604,423011.3253973193,2010-12-11 10:04:27,930.4672541697996,2,39,0.5501165986061096,3.872158288955689,34.91955268100353,34.7608615052316,140.08073586647262,125.92825252229748,9.713172767078504e-05,0.0938397273421287,0,0,0
11605,423041.3404983688,2010-12-11 10:04:57,960.4823552494092,2,39,0.550297200679779,3.8752341270446777,34.92414004480272,34.7608615052316,140.09850561325288,125.92825252229748,9.713172767078504e-05,0.0938397273421287,0,0,0
11606,423071.3579207498,2010-12-11 10:05:27,990.4997777457752,2,39,0.5501165986061096,3.878148078918457,34.928727703245926,34.7608615052316,140.11629051963402,125.92825252229748,6.47544875391759e-05,0.0938397273421287,0,0,0
11607,423101.37280759134,2010-12-11 10:05:57,1020.5146645421491,2,39,0.5501165986061096,3.881062030792236,34.933315011932585,34.7608615052316,140.13408744408505,125.92825252229748,6.47544875391759e-05,0.0938397273421287,0,0,0
11608,423131.3856944209,2010-12-11 10:06:27,1050.5275512864705,2,39,0.5499359965324402,3.883652210235596,34.93790194893445,34.7608615052316,140.15189564014287,125.92825252229748,6.47544875391759e-05,0.0938397273421287,0,0,0
11609,423161.4007730095,2010-12-11 10:06:57,1080.542629885137,2,39,0.550297200679779,3.886080503463745,34.942489264208454,34.7608615052316,140.16971732591836,125.92825252229748,3.237724376958795e-05,0.0938397273421287,0,0,0
11610,423191.4158484102,2010-12-11 10:07:27,1110.557705275821,2,39,0.550297200679779,3.888670682907105,34.947076588903656,34.7608615052316,140.1875504045769,125.92825252229748,6.47544875391759e-05,0.0938397273421287,0,0,0
11611,423221.43090411695,2010-12-11 10:07:57,1140.5727609775097,2,39,0.550297200679779,3.890937089920044,34.95166395723647,34.7608615052316,140.2053943810059,125.92825252229748,6.47544875391759e-05,0.0938397273421287,0,0,0
11612,423251.4462472639,2010-12-11 10:08:27,1170.5881041244943,2,39,0.550297200679779,3.893203496932984,34.95625139838663,34.7608615052316,140.22324881044625,125.92825252229748,9.713172767078504e-05,0.0938397273421287,0,0,0
11613,423281.4611723305,2010-12-11 10:08:57,1200.6030292763144,2,39,0.5501165986061096,3.894984245300293,34.960838745298126,34.7608615052316,140.24111248340964,125.92825252229748,3.237724376958795e-05,0.0938397273421287,0,0,0
11614,423311.4761195172,2010-12-11 10:09:27,1230.617976382768,2,39,0.5501165986061096,3.8970887660980233,34.965426102503976,34.7608615052316,140.2589849918919,125.92825252229748,6.47544875391759e-05,0.0938397273421287,0,0,0
11615,423341.4912127322,2010-12-11 10:09:57,1260.6330695827694,2,39,0.550297200679779,3.898869514465332,34.97001342210868,34.7608615052316,140.2768662571393,125.92825252229748,3.237724376958795e-05,0.0938397273421287,0,0,0
11616,423371.50629776187,2010-12-11 10:10:27,1290.6481546124394,2,39,0.5501165986061096,3.9006502628326416,34.97460077339701,34.7608615052316,140.2947561107803,125.92825252229748,3.237724376958795e-05,0.0938397273421287,0,0,0
11617,423401.52135934326,2010-12-11 10:10:57,1320.6632161937591,2,39,0.550297200679779,3.902592897415161,34.97918810468627,34.7608615052316,140.3126540677687,125.92825252229748,6.47544875391759e-05,0.0938397273421287,0,0,0
11618,423431.5364467689,2010-12-11 10:11:27,1350.6783036193913,2,39,0.550297200679779,3.904373645782471,34.98377541126373,34.7608615052316,140.3305598798082,125.92825252229748,9.713172767078504e-05,0.0938397273421287,0,0,0
11619,423461.5514962901,2010-12-11 10:11:57,1380.6933531457123,2,39,0.5501165986061096,3.90583062171936,34.98836275423435,34.7608615052316,140.34847367664864,125.92825252229748,3.237724376958795e-05,0.0938397273421287,0,0,0
11620,423491.5665588539,2010-12-11 10:12:27,1410.708415729527,2,39,0.550297200679779,3.90744948387146,34.99295000140003,34.7608615052316,140.3663948737356,125.92825252229748,3.237724376958795e-05,0.0938397273421287,0,0,0
11621,423521.5818005234,2010-12-11 10:12:57,1440.7236574541262,2,39,0.5501165986061096,3.9092302322387695,34.997537259309354,34.7608615052316,140.38432367440433,125.92825252229748,6.47544875391759e-05,0.0938397273421287,0,0,0
11622,423551.5986059893,2010-12-11 10:13:27,1470.7404629400855,2,39,0.5499359965324402,3.910687208175659,35.00212484857422,34.7608615052316,140.40226137173963,125.92825252229748,0.0,0.0938397273421287,0,0,0
11623,423581.6118544437,2010-12-11 10:13:57,1500.753711409546,2,39,0.550297200679779,3.9124679565429688,35.00671190051464,34.7608615052316,140.42020447937995,125.92825252229748,3.237724376958795e-05,0.0938397273421287,0,0,0
11624,423611.6268898298,2010-12-11 10:14:27,1530.768746710468,2,39,0.5501165986061096,3.914248466491699,35.011299234064786,34.7608615052316,140.43815614295818,125.92825252229748,6.47544875391759e-05,0.0938397273421287,0,0,0
11625,423641.6423631608,2010-12-11 10:14:57,1560.7842200915354,2,39,0.5501165986061096,3.915705442428589,35.01588666325697,34.7608615052316,140.4561156742816,125.92825252229748,3.237724376958795e-05,0.0938397273421287,0,0,0
11626,423671.6570868362,2010-12-11 10:15:27,1590.7989437268895,2,39,0.5499359965324402,3.917324304580689,35.02047385937343,34.7608615052316,140.47408161236126,125.92825252229748,3.237724376958795e-05,0.0938397273421287,0,0,0
11627,423701.6721074757,2010-12-11 10:15:57,1620.813964356302,2,39,0.5501165986061096,3.918943166732788,35.025061112665675,34.7608615052316,140.49205527046087,125.92825252229748,3.237724376958795e-05,0.0938397273421287,0,0,0
11628,423731.6871857686,2010-12-11 10:16:27,1650.8290426441952,2,39,0.5501165986061096,3.920562028884888,35.02964837298637,34.7608615052316,140.51003643767967,125.92825252229748,3.237724376958795e-05,0.0938397273421287,0,0,0
11629,423761.70227825176,2010-12-11 10:16:57,1680.8441351274132,2,39,0.550297200679779,3.9221808910369873,35.03423565795545,34.7608615052316,140.5280251188171,125.92825252229748,6.47544875391759e-05,0.0938397273421287,0,0,0
11630,423791.7174645084,2010-12-11 10:17:27,1710.8593213739575,2,39,0.5501165986061096,3.923961639404297,35.03882297207756,34.7608615052316,140.5460214359449,125.92825252229748,6.47544875391759e-05,0.0938397273421287,0,0,0
11631,423821.7324014245,2010-12-11 10:17:57,1740.87425830509,2,39,0.550297200679779,3.925580501556397,35.04341028000472,34.7608615052316,140.56402527313617,125.92825252229748,6.47544875391759e-05,0.0938397273421287,0,0,0
11632,423851.74748649925,2010-12-11 10:18:27,1770.889343450047,2,39,0.5501165986061096,3.927037477493286,35.047997622300485,34.7608615052316,140.58203663436015,125.92825252229748,3.237724376958795e-05,0.0938397273421287,0,0,0
11633,423881.76257238106,2010-12-11 10:18:57,1800.9044292566502,2,39,0.5499359965324402,3.928818225860596,35.052584883381016,34.7608615052316,140.6000551632735,125.92825252229748,9.713172767078504e-05,0.0938397273421287,0,0,0
11634,423911.77772409166,2010-12-11 10:19:27,1830.9195810324152,2,39,0.550297200679779,3.9304370880126953,35.05717217068849,34.7608615052316,140.6180813356156,125.92825252229748,3.237724376958795e-05,0.0938397273421287,0,0,0
11635,423941.7928217277,2010-12-11 10:19:57,1860.934678583244,2,39,0.5501165986061096,3.932055950164795,35.0617594792994,34.7608615052316,140.6361151122925,125.92825252229748,6.47544875391759e-05,0.0938397273421287,0,0,0
11636,423971.80774776166,2010-12-11 10:20:27,1890.949604637309,2,39,0.550297200679779,3.9336748123168954,35.066346708844684,34.7608615052316,140.65415611504213,125.92825252229748,3.237724376958795e-05,0.0938397273421287,0,0,0
11637,424001.8228126913,2010-12-11 10:20:57,1920.9646695519232,2,39,0.5504778623580933,3.935455560684204,35.07093394442825,34.7608615052316,140.67220464283423,125.92825252229748,6.47544875391759e-05,0.0938397273421287,0,0,0
11638,424031.8380847816,2010-12-11 10:21:27,1950.9799417323104,2,39,0.5501165986061096,3.9369125366210938,35.07552122219615,34.7608615052316,140.69026084952273,125.92825252229748,3.237724376958795e-05,0.0938397273421287,0,0,0
11639,424061.85302018886,2010-12-11 10:21:57,1980.9948771597008,2,39,0.550297200679779,3.9386932849884033,35.080108406533405,34.7608615052316,140.70832440681102,125.92825252229748,3.237724376958795e-05,0.0938397273421287,0,0,0
11640,424091.8681013538,2010-12-11 10:22:27,2011.0099582295168,2,39,0.550297200679779,3.940312147140503,35.08469567285848,34.7608615052316,140.72639584455246,125.92825252229748,3.237724376958795e-05,0.0938397273421287,0,0,0
11641,424121.8831055625,2010-12-11 10:22:57,2041.024962438067,2,39,0.5499359965324402,3.9419310092926025,35.08928241764386,34.7608615052316,140.74447274616992,125.92825252229748,6.47544875391759e-05,0.0938397273421287,0,0,0
11642,424151.8983264753,2010-12-11 10:23:27,2071.0401833508768,2,39,0.550297200679779,3.943711757659912,35.09386903098811,34.7608615052316,140.7625567391386,125.92825252229748,6.47544875391759e-05,0.0938397273421287,0,0,0
11643,424181.89950565074,2010-12-11 10:23:57,2101.041362621601,2,39,0.5501165986061096,3.945330619812012,35.098453578586394,34.7608615052316,140.7806402944902,125.92825252229748,3.237724376958795e-05,0.0938397273421287,0,0,0
11644,424211.91273058165,2010-12-11 10:24:27,2131.054587457249,2,39,0.550297200679779,3.9469494819641113,35.1030398024588,34.7608615052316,140.7987381285911,125.92825252229748,6.47544875391759e-05,0.0938397273421287,0,0,0
11645,424241.9278171402,2010-12-11 10:24:57,2161.069674015724,2,39,0.5501165986061096,3.948730230331421,35.10762627255337,34.7608615052316,140.8168446363744,125.92825252229748,6.47544875391759e-05,0.0938397273421287,0,0,0
11646,424271.9428709972,2010-12-11 10:25:27,2191.084727877834,2,39,0.5501165986061096,3.950349092483521,35.11221273040372,34.7608615052316,140.83495889276747,125.92825252229748,6.47544875391759e-05,0.0938397273421287,0,0,0
11647,424301.957956458,2010-12-11 10:25:57,2221.0998133335647,2,39,0.550297200679779,3.95212984085083,35.11679971130842,34.7608615052316,140.85308309444648,125.92825252229748,6.47544875391759e-05,0.0938397273421287,0,0,0
11648,424331.9731579926,2010-12-11 10:26:27,2251.1150148681527,2,39,0.5504778623580933,3.95391058921814,35.121387082299975,34.7608615052316,140.8712166870271,125.92825252229748,6.47544875391759e-05,0.0938397273421287,0,0,0
11649,424361.9880927584,2010-12-11 10:26:57,2281.129949638909,2,39,0.5501165986061096,3.9555294513702393,35.12597438922603,34.7608615052316,140.88935786987284,125.92825252229748,6.47544875391759e-05,0.0938397273421287,0,0,0
11650,424392.0032834559,2010-12-11 10:27:27,2311.14514031648,2,39,0.5501165986061096,3.957148313522339,35.13056177731113,34.7608615052316,140.90750726495227,125.92825252229748,3.237724376958795e-05,0.0938397273421287,0,0,0
11651,424422.0182407928,2010-12-11 10:27:57,2341.160097668429,2,39,0.550297200679779,3.9590909481048575,35.13514911903082,34.7608615052316,140.9256643465998,125.92825252229748,6.47544875391759e-05,0.0938397273421287,0,0,0
11652,424452.0333342434,2010-12-11 10:28:27,2371.1751911892284,2,39,0.5501165986061096,3.960709810256958,35.13973648117002,34.7608615052316,140.94382953475235,125.92825252229748,3.237724376958795e-05,0.0938397273421287,0,0,0
11653,424482.0483870479,2010-12-11 10:28:58,2401.1902439235328,2,39,0.550297200679779,3.9623286724090576,35.14432380861053,34.7608615052316,140.96200257804583,125.92825252229748,0.0,0.0938397273421287,0,0,0
11654,424512.0635856201,2010-12-11 10:29:28,2431.2054425859737,2,39,0.5501165986061096,3.964271306991577,35.1489110873882,34.7608615052316,140.98018350249882,125.92825252229748,6.47544875391759e-05,0.0938397273421287,0,0,0
11655,424542.0785392328,2010-12-11 10:29:58,2461.220396088343,2,39,0.550297200679779,3.966052055358887,35.15349841395701,34.7608615052316,140.99837278781095,125.92825252229748,3.237724376958795e-05,0.0938397273421287,0,0,0
11656,424572.0936006738,2010-12-11 10:30:28,2491.235457554376,2,39,0.550297200679779,3.967832803726196,35.158085771152656,34.7608615052316,141.01657038678297,125.92825252229748,6.47544875391759e-05,0.0938397273421287,0,0,0
11657,424602.1086716034,2010-12-11 10:30:58,2521.250528483958,2,39,0.550297200679779,3.969613552093506,35.1626730914591,34.7608615052316,141.03477606818456,125.92825252229748,3.237724376958795e-05,0.0938397273421287,0,0,0
11658,424632.12373995146,2010-12-11 10:31:28,2551.265596827104,2,39,0.5501165986061096,3.9715561866760254,35.167260470588445,34.7608615052316,141.05299028301656,125.92825252229748,9.713172767078504e-05,0.0938397273421287,0,0,0
11659,424662.138835357,2010-12-11 10:31:58,2581.2806922325944,2,39,0.550297200679779,3.973175048828125,35.17184785202895,34.7608615052316,141.07121290695642,125.92825252229748,0.0,0.0938397273421287,0,0,0
11660,424692.1538921063,2010-12-11 10:32:28,2611.295748981889,2,39,0.550297200679779,3.975117683410645,35.17643524455232,34.7608615052316,141.0894440127953,125.92825252229748,6.47544875391759e-05,0.0938397273421287,0,0,0
11661,424722.1689655722,2010-12-11 10:32:58,2641.310822442771,2,39,0.550297200679779,3.977060317993164,35.1810226044451,34.7608615052316,141.10768352407712,125.92825252229748,6.47544875391759e-05,0.0938397273421287,0,0,0
11662,424752.1840336647,2010-12-11 10:33:28,2671.325890540306,2,39,0.5501165986061096,3.979002952575684,35.18560999461035,34.7608615052316,141.12593133066946,125.92825252229748,6.47544875391759e-05,0.0938397273421287,0,0,0
11663,424782.2013106991,2010-12-11 10:33:58,2701.34316766492,2,39,0.5501165986061096,3.980621814727783,35.19019756709777,34.7608615052316,141.14418901710323,125.92825252229748,3.237724376958795e-05,0.0938397273421287,0,0,0
11664,424812.21420841565,2010-12-11 10:34:28,2731.356065291321,2,39,0.550297200679779,3.9827263355255127,35.19478452236125,34.7608615052316,141.16245307913286,125.92825252229748,3.237724376958795e-05,0.0938397273421287,0,0,0
11665,424842.2292539571,2010-12-11 10:34:58,2761.371110832726,2,39,0.5501165986061096,3.984668970108032,35.19937180146469,34.7608615052316,141.18072719699202,125.92825252229748,6.47544875391759e-05,0.0938397273421287,0,0,0
11666,424872.2443645403,2010-12-11 10:35:28,2791.3862214109727,2,39,0.5501165986061096,3.986611604690552,35.2039590380678,34.7608615052316,141.1990101502963,125.92825252229748,9.713172767078504e-05,0.0938397273421287,0,0,0
11667,424902.2595798642,2010-12-11 10:35:58,2821.4014367398872,2,39,0.5504778623580933,3.988716125488281,35.208546371631826,34.7608615052316,141.2173024901001,125.92825252229748,6.47544875391759e-05,0.0938397273421287,0,0,0
11668,424932.27447890607,2010-12-11 10:36:28,2851.4163357867465,2,39,0.5501165986061096,3.990658760070801,35.21313364012,34.7608615052316,141.23560372883964,125.92825252229748,6.47544875391759e-05,0.0938397273421287,0,0,0
11669,424962.2895481816,2010-12-11 10:36:58,2881.4314050572,2,39,0.5501165986061096,3.9927632808685294,35.217720860805464,34.7608615052316,141.25391397867315,125.92825252229748,9.713172767078504e-05,0.0938397273421287,0,0,0
11670,424992.3046385847,2010-12-11 10:37:28,2911.4464955554786,2,39,0.550297200679779,3.994705677032471,35.22230816917463,34.7608615052316,141.27223395250152,125.92825252229748,9.713172767078504e-05,0.0938397273421287,0,0,0
11671,425022.32211399765,2010-12-11 10:37:58,2941.463970963513,2,39,0.550297200679779,3.9968101978302,35.22689581777753,34.7608615052316,141.29056483530732,125.92825252229748,9.713172767078504e-05,0.0938397273421287,0,0,0
11672,425052.33689789294,2010-12-11 10:38:28,2971.4787548437844,2,39,0.550297200679779,3.99875283241272,35.23148302198756,34.7608615052316,141.3089035134251,125.92825252229748,6.47544875391759e-05,0.0938397273421287,0,0,0
11673,425082.3498707365,2010-12-11 10:38:58,3001.491727607161,2,39,0.5501165986061096,4.000857353210449,35.236069964663365,34.7608615052316,141.3272509045797,125.92825252229748,3.23295607813634e-05,0.0938397273421287,0,0,0
11674,425112.3649251049,2010-12-11 10:39:28,3031.506781980544,2,39,0.550297200679779,4.003285884857178,35.24065724546671,34.7608615052316,141.34560946187176,125.92825252229748,9.71794142969884e-05,0.0938397273421287,0,0,0
11675,425142.3799991222,2010-12-11 10:39:58,3061.5218560028225,2,39,0.550297200679779,4.005390167236328,35.245244593114506,34.7608615052316,141.3639782904863,125.92825252229748,6.47544875391759e-05,0.0938397273421287,0,0,0
11676,425172.3950626082,2010-12-11 10:40:28,3091.536919483869,2,39,0.550297200679779,4.007494926452637,35.24983192644781,34.7608615052316,141.38235710443854,125.92825252229748,6.47544875391759e-05,0.0938397273421287,0,0,0
11677,425202.4103789436,2010-12-11 10:40:58,3121.5522358191342,2,39,0.550297200679779,4.009599208831787,35.25441934652519,34.7608615052316,141.40074641324168,125.92825252229748,3.23295607813634e-05,0.0938397273421287,0,0,0
11678,425232.4253274184,2010-12-11 10:41:28,3151.5671842939933,2,39,0.550297200679779,4.012027740478516,35.25900662316989,34.7608615052316,141.41914540807548,125.92825252229748,6.47544875391759e-05,0.0938397273421287,0,0,0
11679,425262.440289868,2010-12-11 10:41:58,3181.582146743627,2,39,0.5499359965324402,4.014132022857666,35.263593921472136,34.7608615052316,141.43755493298485,125.92825252229748,3.23295607813634e-05,0.0938397273421287,0,0,0
11680,425292.45551118185,2010-12-11 10:42:28,3211.5973681125724,2,39,0.5501165986061096,4.0165605545043945,35.26818122682295,34.7608615052316,141.45597497810874,125.92825252229748,3.24249267578125e-05,0.0938397273421287,0,0,0
11681,425322.470391497,2010-12-11 10:42:58,3241.6122483726813,2,39,0.5501165986061096,4.018988609313965,35.272768555795295,34.7608615052316,141.47440575384678,125.92825252229748,6.47544875391759e-05,0.0938397273421287,0,0,0
11682,425352.48560671066,2010-12-11 10:43:28,3271.627463591321,2,39,0.550297200679779,4.021255016326904,35.27735582117634,34.7608615052316,141.49284682665524,125.92825252229748,6.47544875391759e-05,0.0938397273421287,0,0,0
11683,425382.50239914417,2010-12-11 10:43:58,3301.6442560097626,2,39,0.5501165986061096,4.023683547973633,35.281943302254085,34.7608615052316,141.51129975052868,125.92825252229748,9.71794142969884e-05,0.0938397273421287,0,0,0
11684,425412.5160548921,2010-12-11 10:44:28,3331.657911842932,2,39,0.550297200679779,4.025949954986572,35.286530368178326,34.7608615052316,141.52976206043206,125.92825252229748,6.47544875391759e-05,0.0938397273421287,0,0,0
11685,425442.53074350033,2010-12-11 10:44:58,3361.6726003759354,2,39,0.5501165986061096,4.028378009796143,35.2911175784753,34.7608615052316,141.54823603540976,125.92825252229748,3.23295607813634e-05,0.0938397273421287,0,0,0
11686,425472.5460572842,2010-12-11 10:45:28,3391.6879142149887,2,39,0.550297200679779,4.030968189239502,35.29570490532871,34.7608615052316,141.566721617234,125.92825252229748,9.70840483205393e-05,0.0938397273421287,0,0,0
11687,425502.56091554457,2010-12-11 10:45:58,3421.702772420215,2,39,0.5501165986061096,4.033396720886231,35.30029212660932,34.7608615052316,141.58521805191836,125.92825252229748,6.47544875391759e-05,0.0938397273421287,0,0,0
11688,425532.5760947336,2010-12-11 10:46:28,3451.717951614209,2,39,0.5501165986061096,4.035986423492432,35.30487944563909,34.7608615052316,141.60372631226053,125.92825252229748,9.70840483205393e-05,0.0938397273421287,0,0,0
11689,425562.5910191936,2010-12-11 10:46:58,3481.732876054258,2,39,0.5499359965324402,4.038252830505371,35.309466682199215,34.7608615052316,141.62224573408218,125.92825252229748,6.47544875391759e-05,0.0938397273421287,0,0,0
11690,425592.60648011375,2010-12-11 10:47:28,3511.748336979329,2,39,0.550297200679779,4.04100513458252,35.314054106549555,34.7608615052316,141.64077749924428,125.92825252229748,9.71794142969884e-05,0.0938397273421287,0,0,0
11691,425622.6211685615,2010-12-11 10:47:58,3541.763025422108,2,39,0.5501165986061096,4.043595314025879,35.31864131568187,34.7608615052316,141.6593201647719,125.92825252229748,9.71794142969884e-05,0.0938397273421287,0,0,0
11692,425652.6362300075,2010-12-11 10:48:28,3571.778086888141,2,39,0.5501165986061096,4.046023368835449,35.323228662999284,34.7608615052316,141.677875266675,125.92825252229748,6.47544875391759e-05,0.0938397273421287,0,0,0
11693,425682.6513148467,2010-12-11 10:48:58,3601.793171707287,2,39,0.550297200679779,4.048775672912598,35.32781595676412,34.7608615052316,141.69644207444998,125.92825252229748,9.71794142969884e-05,0.0938397273421287,0,0,0
11694,425712.6664117509,2010-12-11 10:49:28,3631.808268626544,2,39,0.5501165986061096,4.051203727722168,35.332403340628645,34.7608615052316,141.71502133751852,125.92825252229748,6.47544875391759e-05,0.0938397273421287,0,0,0
11695,425742.681472851,2010-12-11 10:49:58,3661.8233297266656,2,39,0.5501165986061096,4.053956031799316,35.336990707076986,34.7608615052316,141.73361276293207,125.92825252229748,6.47544875391759e-05,0.0938397273421287,0,0,0
11696,425772.696534302,2010-12-11 10:50:28,3691.838391177661,2,39,0.5499359965324402,4.056869983673096,35.3415780167424,34.7608615052316,141.75221635469237,125.92825252229748,6.47544875391759e-05,0.0938397273421287,0,0,0
11697,425802.7116113067,2010-12-11 10:50:58,3721.853468252536,2,39,0.5501165986061096,4.059460163116455,35.346165379881484,34.7608615052316,141.77083264350907,125.92825252229748,6.47544875391759e-05,0.0938397273421287,0,0,0
11698,425832.7266795296,2010-12-11 10:51:28,3751.868536405209,2,39,0.5501165986061096,4.062211990356445,35.35075275359482,34.7608615052316,141.78946122376095,125.92825252229748,9.70840483205393e-05,0.0938397273421287,0,0,0
11699,425862.7419068133,2010-12-11 10:51:58,3781.8837637440097,2,39,0.550297200679779,4.065125942230225,35.35534008953223,34.7608615052316,141.8081022510201,125.92825252229748,9.70840483205393e-05,0.0938397273421287,0,0,0
11700,425892.7568248775,2010-12-11 10:52:28,3811.898681738018,2,39,0.5501165986061096,4.067716121673584,35.35992744859444,34.7608615052316,141.82675608944496,125.92825252229748,6.47544875391759e-05,0.0938397273421287,0,0,0
11701,425922.77192105487,2010-12-11 10:52:58,3841.913777925454,2,39,0.5501165986061096,4.070468425750732,35.36451475372289,34.7608615052316,141.84542252866845,125.92825252229748,6.47544875391759e-05,0.0938397273421287,0,0,0
11702,425952.7870607205,2010-12-11 10:53:28,3871.9289175860695,2,39,0.5504778623580933,4.073544025421143,35.369102080786405,34.7608615052316,141.8641019410674,125.92825252229748,9.70840483205393e-05,0.0938397273421287,0,0,0
11703,425982.8041396619,2010-12-11 10:53:58,3901.945996607713,2,39,0.5501165986061096,4.076134204864502,35.373689692202866,34.7608615052316,141.88279559183457,125.92825252229748,6.47544875391759e-05,0.0938397273421287,0,0,0
11704,426012.81724779215,2010-12-11 10:54:28,3931.959104727919,2,39,0.550297200679779,4.079048156738281,35.378276704808165,34.7608615052316,141.90149997092226,125.92825252229748,6.47544875391759e-05,0.0938397273421287,0,0,0
11705,426042.8321913998,2010-12-11 10:54:58,3961.974048255466,2,39,0.5501165986061096,4.0819621086120605,35.38286403997524,34.7608615052316,141.92021898646738,125.92825252229748,6.47544875391759e-05,0.0938397273421287,0,0,0
11706,426072.847318384,2010-12-11 10:55:28,3991.9891753498127,2,39,0.550297200679779,4.085038185119629,35.387451369327046,34.7608615052316,141.9389513419978,125.92825252229748,6.47544875391759e-05,0.0938397273421287,0,0,0
11707,426102.8623547826,2010-12-11 10:55:58,4022.0042116582417,2,39,0.550297200679779,4.087952136993408,35.39203869782502,34.7608615052316,141.9576971998901,125.92825252229748,9.71794142969884e-05,0.0938397273421287,0,0,0
11708,426132.877429246,2010-12-11 10:56:28,4052.019286121618,2,39,0.5501165986061096,4.090866088867188,35.39662600091917,34.7608615052316,141.97645656657556,125.92825252229748,6.47544875391759e-05,0.0938397273421287,0,0,0
11709,426162.89248865686,2010-12-11 10:56:58,4082.034345522512,2,39,0.550297200679779,4.094103813171387,35.40121331761214,34.7608615052316,141.99522966553013,125.92825252229748,0.0001295089750783,0.0938397273421287,0,0,0
11710,426192.9075592757,2010-12-11 10:57:28,4112.049416126283,2,39,0.550297200679779,4.097017765045166,35.40580058112286,34.7608615052316,142.01401642640167,125.92825252229748,9.71794142969884e-05,0.0938397273421287,0,0,0
11711,426222.92263593466,2010-12-11 10:57:58,4142.064492795148,2,39,0.550297200679779,4.100093364715576,35.41038792337946,34.7608615052316,142.03281747542076,125.92825252229748,9.70840483205393e-05,0.0938397273421287,0,0,0
11712,426252.9377053905,2010-12-11 10:58:28,4172.079562256076,2,39,0.550297200679779,4.103331089019775,35.41497527073317,34.7608615052316,142.0516325813782,125.92825252229748,0.0001618385285837,0.0938397273421287,0,0,0
11713,426282.95282652,2010-12-11 10:58:58,4202.094683485829,2,39,0.5501165986061096,4.106245040893555,35.41956261943032,34.7608615052316,142.07046195576797,125.92825252229748,9.70840483205393e-05,0.0938397273421287,0,0,0
11714,426312.9680058794,2010-12-11 10:59:28,4232.109862805135,2,39,0.5499359965324402,4.109321117401123,35.42414999210213,34.7608615052316,142.08930576197065,125.92825252229748,6.47544875391759e-05,0.0938397273421287,0,0,0
11715,426342.98304483446,2010-12-11 10:59:58,4262.1249017100245,2,39,0.5501165986061096,4.112396717071533,35.428737280096875,34.7608615052316,142.10816361183694,125.92825252229748,6.47544875391759e-05,0.0938397273421287,0,0,0
11716,426372.99797048746,2010-12-11 11:00:28,4292.139827363092,2,39,0.550297200679779,4.115796089172363,35.43332453871638,34.7608615052316,142.1270357940928,125.92825252229748,0.0001618385285837,0.0938397273421287,0,0,0
11717,426403.0130523844,2010-12-11 11:00:59,4322.154909259966,2,39,0.5504778623580933,4.1190338134765625,35.437911834024774,34.7608615052316,142.14592281528965,125.92825252229748,0.0001295089750783,0.0938397273421287,0,0,0
11718,426433.02824919217,2010-12-11 11:01:29,4352.170106067792,2,39,0.5499359965324402,4.122109889984131,35.44249925028466,34.7608615052316,142.164825118981,125.92825252229748,9.71794142969884e-05,0.0938397273421287,0,0,0
11719,426463.0431820281,2010-12-11 11:01:59,4382.185038898721,2,39,0.550297200679779,4.125509262084961,35.447086610626435,34.7608615052316,142.18374203968656,125.92825252229748,9.70840483205393e-05,0.0938397273421287,0,0,0
11720,426493.0583639589,2010-12-11 11:02:29,4412.200220839551,2,39,0.5501165986061096,4.128585338592529,35.45167399408531,34.7608615052316,142.2026741487582,125.92825252229748,9.71794142969884e-05,0.0938397273421287,0,0,0
11721,426523.0733210151,2010-12-11 11:02:59,4442.215177875713,2,39,0.550297200679779,4.1318230628967285,35.45626128456021,34.7608615052316,142.22162102924932,125.92825252229748,9.71794142969884e-05,0.0938397273421287,0,0,0
11722,426553.0884222552,2010-12-11 11:03:29,4472.230279125747,2,39,0.5501165986061096,4.135222434997559,35.46084870187122,34.7608615052316,142.24058358152033,125.92825252229748,6.47544875391759e-05,0.0938397273421287,0,0,0
11723,426583.1053082816,2010-12-11 11:03:59,4502.2471652373415,2,39,0.550297200679779,4.138622283935547,35.465436430673684,34.7608615052316,142.25956275347824,125.92825252229748,9.71794142969884e-05,0.0938397273421287,0,0,0
11724,426613.1185455381,2010-12-11 11:04:29,4532.260402418711,2,39,0.5501165986061096,4.142021656036377,35.470023656812934,34.7608615052316,142.2785553105054,125.92825252229748,9.70840483205393e-05,0.0938397273421287,0,0,0
11725,426643.1336134301,2010-12-11 11:04:59,4562.275470305723,2,39,0.5501165986061096,4.145421504974365,35.474611123147014,34.7608615052316,142.29756453508804,125.92825252229748,9.71794142969884e-05,0.0938397273421287,0,0,0
11726,426673.14869339217,2010-12-11 11:05:29,4592.290550252744,2,39,0.550297200679779,4.148983001708984,35.47919851646044,34.7608615052316,142.31658944148558,125.92825252229748,6.47544875391759e-05,0.0938397273421287,0,0,0
11727,426703.1637926473,2010-12-11 11:05:59,4622.305649527863,2,39,0.5501165986061096,4.152382373809815,35.483785919668456,34.7608615052316,142.33563014938164,125.92825252229748,9.70840483205393e-05,0.0938397273421287,0,0,0
11728,426733.17896477366,2010-12-11 11:06:29,4652.320821649258,2,39,0.5501165986061096,4.155943870544434,35.48837338383514,34.7608615052316,142.35468704104343,125.92825252229748,0.0001295089750783,0.0938397273421287,0,0,0
11729,426763.1939353536,2010-12-11 11:06:59,4682.335792224112,2,39,0.550297200679779,4.159343719482422,35.49296073607679,34.7608615052316,142.37375952096926,125.92825252229748,6.47544875391759e-05,0.0938397273421287,0,0,0
11730,426793.2091133796,2010-12-11 11:07:29,4712.350970255212,2,39,0.550297200679779,4.162905216217041,35.497548177693545,34.7608615052316,142.39284848016308,125.92825252229748,9.71794142969884e-05,0.0938397273421287,0,0,0
11731,426823.22406784433,2010-12-11 11:07:59,4742.365924719977,2,39,0.5501165986061096,4.16646671295166,35.50213555377201,34.7608615052316,142.4119533864333,125.92825252229748,6.47544875391759e-05,0.0938397273421287,0,0,0
11732,426853.2391358767,2010-12-11 11:08:29,4772.380992757361,2,39,0.5501165986061096,4.170028209686279,35.50672291455214,34.7608615052316,142.43107459155075,125.92825252229748,6.47544875391759e-05,0.0938397273421287,0,0,0
11733,426883.2543228651,2010-12-11 11:08:59,4802.396179725702,2,39,0.550297200679779,4.173589706420898,35.51131033313474,34.7608615052316,142.45021254277373,125.92825252229748,6.47544875391759e-05,0.0938397273421287,0,0,0
11734,426913.2693029487,2010-12-11 11:09:29,4832.411159899442,2,39,0.5504778623580933,4.177312850952148,35.51589775053329,34.7608615052316,142.46936702760323,125.92825252229748,0.0001295089750783,0.0938397273421287,0,0,0
11735,426943.28458189085,2010-12-11 11:09:59,4862.426438836644,2,39,0.5501165986061096,4.180712699890137,35.52048521065283,34.7608615052316,142.4885383419617,125.92825252229748,9.71794142969884e-05,0.0938397273421287,0,0,0
11736,426973.2865913123,2010-12-11 11:10:29,4892.428448283228,2,39,0.550297200679779,4.184435844421387,35.52507067248124,34.7608615052316,142.50771814490238,125.92825252229748,6.47544875391759e-05,0.0938397273421287,0,0,0
11737,427003.2989559725,2010-12-11 11:10:59,4922.440812833089,2,39,0.550297200679779,4.188159465789795,35.52965761767966,34.7608615052316,142.52692100323617,125.92825252229748,9.71794142969884e-05,0.0938397273421287,0,0,0
11738,427033.30056487233,2010-12-11 11:11:29,4952.442421828165,2,39,0.550297200679779,4.191882610321045,35.53424298123852,34.7608615052316,142.54613434627262,125.92825252229748,6.47544875391759e-05,0.0938397273421287,0,0,0
11739,427063.31345397246,2010-12-11 11:11:59,4982.455310933361,2,39,0.5499359965324402,4.195605754852295,35.538830015033795,34.7608615052316,142.5653718219467,125.92825252229748,6.47544875391759e-05,0.0938397273421287,0,0,0
11740,427093.32847414585,2010-12-11 11:12:29,5012.470331026439,2,39,0.5501165986061096,4.199491024017334,35.54341736778192,34.7608615052316,142.58462792349698,125.92825252229748,6.47544875391759e-05,0.0938397273421287,0,0,0
11741,427096.7346580584,2010-12-11 11:12:32,5015.876514934086,2,39,0.550297200679779,4.200138568878174,35.54393796094204,34.7608615052316,142.58681428979887,125.92825252229748,0.0001618385285837,0.0938397273421287,0,0,0
11742,427126.7469636426,2010-12-11 11:13:02,30.015152362224452,3,39,0.0,4.111263751983643,35.54393796094204,34.7608615052316,142.58681428979887,125.92825252229748,-0.0003561019839253,0.0938397273421287,0,0,0
11743,427156.76186415815,2010-12-11 11:13:32,60.03005287773806,3,39,0.0,4.099769592285156,35.54393796094204,34.7608615052316,142.58681428979887,125.92825252229748,-0.0002590179501567,0.0938397273421287,0,0,0
11744,427186.7769627816,2010-12-11 11:14:02,90.04515150123576,3,39,0.0,4.093132495880127,35.54393796094204,34.7608615052316,142.58681428979887,125.92825252229748,-0.0001618385285837,0.0938397273421287,0,0,0
11745,427216.7451630954,2010-12-11 11:14:32,120.01335180005628,3,39,0.0,4.088761329650879,35.54393796094204,34.7608615052316,142.58681428979887,125.92825252229748,-9.71794142969884e-05,0.0938397273421287,0,0,0
11746,427216.7601405751,2010-12-11 11:14:33,2.651598401e-06,4,39,0.0001613661734154,4.088761329650879,35.54393796094216,34.7608615052316,142.58681428979935,125.92825252229748,0.0,0.0938397273421287,0,0,0
11747,427246.7773494352,2010-12-11 11:15:03,30.01783301292061,5,39,0.0,4.0858473777771,35.54393796094216,34.7608615052316,142.58681428979935,125.92825252229748,-6.47544875391759e-05,0.0938397273421287,0,0,0
11748,427276.7772277536,2010-12-11 11:15:33,60.01771129618706,5,39,0.0,4.083419322967529,35.54393796094216,34.7608615052316,142.58681428979935,125.92825252229748,-3.23295607813634e-05,0.0938397273421287,0,0,0
11749,427276.9771086687,2010-12-11 11:15:33,0.1869554965626,6,39,-1.9243103452026844e-05,4.083419322967529,35.54393796094216,34.76086150623094,142.58681428979935,125.92825252637816,0.0,0.0979729741811752,0,0,0
11750,427281.8054350231,2010-12-11 11:15:38,5.015281840965788,6,39,0.0008838032954372,4.08293342590332,35.54393901577837,34.760861506388515,142.58681859702693,125.9282525270216,-9.71794142969884e-05,0.0979729741811752,0,0,0
11751,427311.818736535,2010-12-11 11:16:08,30.014943206749106,7,39,-1.099568486213684,3.904049873352051,35.54393901577837,34.770029788986285,142.58681859702693,125.96424489464592,-0.0009065627818927,0.0979729741811752,0,0,0
11752,427341.8338239757,2010-12-11 11:16:38,60.03003062736887,7,39,-1.099568486213684,3.876529216766357,35.54393901577837,34.77919800493922,142.58681859702693,125.9999036425094,-0.0006151676061563,0.0979729741811752,0,0,0
11753,427371.8488981282,2010-12-11 11:17:08,90.04510478498418,7,39,-1.0997490882873535,3.857750415802002,35.54393901577837,34.78836620081201,142.58681859702693,126.03535387382286,-0.0004209041653666,0.0979729741811752,0,0,0
11754,427401.86397609534,2010-12-11 11:17:38,120.06018276711664,7,39,-1.099568486213684,3.842694997787476,35.54393901577837,34.797534414432214,142.58681859702693,126.07065047546033,-0.0003237724304199,0.0979729741811752,0,0,0
11755,427431.8790495361,2010-12-11 11:18:08,150.07525619291084,7,39,-1.0997490882873535,3.830229997634888,35.54393901577837,34.80670257784662,142.58681859702693,126.10582255452776,-0.0003237724304199,0.0979729741811752,0,0,0
11756,427461.8959389359,2010-12-11 11:18:38,180.09214566787352,7,39,-1.0997490882873535,3.8190598487854,35.54393901577837,34.815871292024475,142.58681859702693,126.14088889905112,-0.0002913951757363,0.0979729741811752,0,0,0
11757,427491.9091814757,2010-12-11 11:19:08,210.10538812236604,7,39,-1.099568486213684,3.808699131011963,35.54393901577837,34.82503883938582,142.58681859702693,126.1758529664284,-0.0002590179501567,0.0979729741811752,0,0,0
11758,427521.9243705041,2010-12-11 11:19:38,240.1205771758954,7,39,-1.099568486213684,3.799309730529785,35.54393901577837,34.834206999647975,142.58681859702693,126.21072829151632,-0.0002266406954731,0.0979729741811752,0,0,0
11759,427551.9394725511,2010-12-11 11:20:08,270.135679207875,7,39,-1.0997490882873535,3.7900822162628174,35.54393901577837,34.843375159580305,142.58681859702693,126.24551811957208,-0.0002266406954731,0.0979729741811752,0,0,0
11760,427581.954405748,2010-12-11 11:20:38,300.1506124097273,7,39,-1.0997490882873535,3.7811784744262695,35.54393901577837,34.85254323995505,142.58681859702693,126.28022537571609,-0.0002266406954731,0.0979729741811752,0,0,0
11761,427611.9694707627,2010-12-11 11:21:08,330.1656774396286,7,39,-1.0993878841400146,3.772760391235352,35.54393901577837,34.86171143051877,142.58681859702693,126.31485389682103,-0.0002266406954731,0.0979729741811752,0,0,0
11762,427641.98456745147,2010-12-11 11:21:38,360.1807741132742,7,39,-1.099568486213684,3.7646660804748535,35.54393901577837,34.87087956150905,142.58681859702693,126.34940585306454,-0.0002266406954731,0.0979729741811752,0,0,0
11763,427671.99985057913,2010-12-11 11:22:08,390.1960573311279,7,39,-1.0997490882873535,3.756733655929565,35.54393901577837,34.88004778690683,142.58681859702693,126.38388471392804,-0.0002590179501567,0.0979729741811752,0,0,0
11764,427702.0148405623,2010-12-11 11:22:38,420.2110472190412,7,39,-1.0997490882873535,3.7489633560180655,35.54393901577837,34.889215952544056,142.58681859702693,126.41829193068908,-0.0002590179501567,0.0979729741811752,0,0,0
11765,427732.0298972163,2010-12-11 11:23:08,450.2261038931495,7,39,-1.099568486213684,3.741678476333618,35.54393901577837,34.89838409715931,142.58681859702693,126.45262954163552,-0.0001942634553415,0.0979729741811752,0,0,0
11766,427762.0448412752,2010-12-11 11:23:38,480.241047952019,7,39,-1.099929690361023,3.73423171043396,35.54393901577837,34.90755224559691,142.58681859702693,126.48689936309349,-0.0001942634553415,0.0979729741811752,0,0,0
11767,427792.0599154579,2010-12-11 11:24:08,510.2561221296842,7,39,-1.0997490882873535,3.727270603179932,35.54393901577837,34.91672042468296,142.58681859702693,126.52110386182868,-0.0001942634553415,0.0979729741811752,0,0,0
11768,427822.0750082017,2010-12-11 11:24:38,540.2712148585133,7,39,-1.099568486213684,3.7206332683563232,35.54393901577837,34.925888536397224,142.58681859702693,126.55524507161492,-0.0001295089750783,0.0979729741811752,0,0,0
11769,427852.0901647644,2010-12-11 11:25:08,570.286371511415,7,39,-1.0997490882873535,3.713672161102295,35.54393901577837,34.93505677716812,142.58681859702693,126.58932488917716,-0.0001942634553415,0.0979729741811752,0,0,0
11770,427882.105132818,2010-12-11 11:25:38,600.3013394898073,7,39,-1.099568486213684,3.707520484924317,35.54393901577837,34.94422496466147,142.58681859702693,126.62334442347128,-0.0001618862152099,0.0979729741811752,0,0,0
11771,427912.1202109305,2010-12-11 11:26:08,630.3164176022641,7,39,-1.0993878841400146,3.701045036315918,35.54393901577837,34.953393129164034,142.58681859702693,126.65730512062495,-0.0001618862152099,0.0979729741811752,0,0,0
11772,427942.13531559904,2010-12-11 11:26:38,660.3315223660417,7,39,-1.0997490882873535,3.6947314739227295,35.54393901577837,34.962561371712034,142.58681859702693,126.69120842904384,-0.0001942634553415,0.0979729741811752,0,0,0
11773,427972.1503583184,2010-12-11 11:27:08,690.3465649901871,7,39,-1.099568486213684,3.688903570175171,35.54393901577837,34.97172954831772,142.58681859702693,126.72505626459026,-0.0001618862152099,0.0979729741811752,0,0,0
11774,428002.16542847606,2010-12-11 11:27:38,720.3616351478487,7,39,-1.0997490882873535,3.683075666427612,35.54393901577837,34.9808976377064,142.58681859702693,126.75884965425465,-0.0001618862152099,0.0979729741811752,0,0,0
11775,428032.180628156,2010-12-11 11:28:08,750.3768348278217,7,39,-1.0997490882873535,3.6772477626800537,35.54393901577837,34.99006581897857,142.58681859702693,126.79259080790024,-0.0001618862152099,0.0979729741811752,0,0,0
11776,428062.1976456696,2010-12-11 11:28:38,780.3938524165906,7,39,-1.0993878841400146,3.672067642211914,35.54393901577837,34.999234614185454,142.58681859702693,126.82628295435364,-0.0001294612884521,0.0979729741811752,0,0,0
11777,428092.21070477786,2010-12-11 11:29:08,810.406911504783,7,39,-1.099568486213684,3.666563510894776,35.54393901577837,35.00840220295279,142.58681859702693,126.85992033602967,-9.713172767078504e-05,0.0979729741811752,0,0,0
11778,428122.2258564082,2010-12-11 11:29:38,840.4220630650118,7,39,-1.099568486213684,3.6610593795776367,35.54393901577837,35.01757030551816,142.58681859702693,126.89351010998266,-0.0001618862152099,0.0979729741811752,0,0,0
11779,428152.2408054696,2010-12-11 11:30:08,870.4370121213175,7,39,-1.099568486213684,3.655717134475708,35.54393901577837,35.02673838883926,142.58681859702693,126.92705092357645,-0.0001618862152099,0.0979729741811752,0,0,0
11780,428182.255893602,2010-12-11 11:30:38,900.4521002737582,7,39,-1.099929690361023,3.650536775588989,35.54393901577837,35.035906583752585,142.58681859702693,126.9605441504909,-0.0001618862152099,0.0979729741811752,0,0,0
11781,428212.27095136873,2010-12-11 11:31:08,930.467158045598,7,39,-1.0997490882873535,3.6453564167022714,35.54393901577837,35.045074634547255,142.58681859702693,126.9939893754674,-0.0001618862152099,0.0979729741811752,0,0,0
11782,428242.2860222533,2010-12-11 11:31:38,960.4822289150308,7,39,-1.0997490882873535,3.6403379440307617,35.54393901577837,35.05424279643099,142.58681859702693,127.0273883697484,-0.0001295089750783,0.0979729741811752,0,0,0
11783,428272.3011215183,2010-12-11 11:32:08,990.4973282653372,7,39,-1.0993878841400146,3.635481357574463,35.54393901577837,35.06341098493616,142.58681859702693,127.06074187881713,-0.0001295089750783,0.0979729741811752,0,0,0
11784,428302.3161770346,2010-12-11 11:32:38,1020.512383706377,7,39,-1.0993878841400146,3.630624771118164,35.54393901577837,35.07257914414487,142.58681859702693,127.0940506550276,-0.0001618862152099,0.0979729741811752,0,0,0
11785,428332.33137237374,2010-12-11 11:33:08,1050.5275790305104,7,39,-1.0993878841400146,3.625930070877075,35.54393901577837,35.08174734877434,142.58681859702693,127.12731593822642,-0.0001295089750783,0.0979729741811752,0,0,0
11786,428362.34631859296,2010-12-11 11:33:38,1080.5425252647935,7,39,-1.0997490882873535,3.6212353706359854,35.54393901577837,35.09091540787325,142.58681859702693,127.16053784607224,-0.0001295089750783,0.0979729741811752,0,0,0
11787,428392.36139581824,2010-12-11 11:34:08,1110.5576024900429,7,39,-1.099568486213684,3.6167025566101074,35.54393901577837,35.10008358126244,142.58681859702693,127.19371796370385,-0.0001295089750783,0.0979729741811752,0,0,0
11788,428422.3764785221,2010-12-11 11:34:38,1140.5726851788877,7,39,-1.099568486213684,3.612493515014648,35.54393901577837,35.10925173222896,142.58681859702693,127.22685688656068,-9.713172767078504e-05,0.0979729741811752,0,0,0
11789,428452.3917374245,2010-12-11 11:35:08,1170.587944166445,7,39,-1.099568486213684,3.6082844734191895,35.54393901577837,35.11841995564648,142.58681859702693,127.2599561941401,-9.713172767078504e-05,0.0979729741811752,0,0,0
11790,428482.4066260504,2010-12-11 11:35:39,1200.6028327171846,7,39,-1.099568486213684,3.603913545608521,35.54393901577837,35.12758799685694,142.58681859702693,127.29301581163966,-9.713172767078504e-05,0.0979729741811752,0,0,0
11791,428512.42192414025,2010-12-11 11:36:09,1230.6181308120592,7,39,-1.099568486213684,3.599704504013061,35.54393901577837,35.13675624646161,142.58681859702693,127.32603850164016,-0.0001295089750783,0.0979729741811752,0,0,0
11792,428542.4367936888,2010-12-11 11:36:39,1260.6330003605124,7,39,-1.099568486213684,3.5959811210632324,35.54393901577837,35.14592441944412,142.58681859702693,127.35902363713797,-6.47544875391759e-05,0.0979729741811752,0,0,0
11793,428572.4519575696,2010-12-11 11:37:09,1290.648164311575,7,39,-1.099568486213684,3.5919342041015625,35.54393901577837,35.15509267420163,142.58681859702693,127.39197280054589,-0.0001294612884521,0.0979729741811752,0,0,0
11794,428602.466925969,2010-12-11 11:37:39,1320.6631327360778,7,39,-1.099568486213684,3.5880489349365234,35.54393901577837,35.164260830927525,142.58681859702693,127.42488633079292,-0.0001295089750783,0.0979729741811752,0,0,0
11795,428632.4819802572,2010-12-11 11:38:09,1350.6781869290116,7,39,-1.0993878841400146,3.5844874382019043,35.54393901577837,35.17342900877069,142.58681859702693,127.4577655771438,-9.713172767078504e-05,0.0979729741811752,0,0,0
11796,428662.4991041304,2010-12-11 11:38:39,1380.6953108574028,7,39,-1.0997490882873535,3.580925941467285,35.54393901577837,35.18259781563272,142.58681859702693,127.4906136937944,-6.47544875391759e-05,0.0979729741811752,0,0,0
11797,428692.5121663063,2010-12-11 11:39:09,1410.708372983154,7,39,-1.0997490882873535,3.577202558517456,35.54393901577837,35.191765385972815,142.58681859702693,127.52342436055989,-9.713172767078504e-05,0.0979729741811752,0,0,0
11798,428722.5272000634,2010-12-11 11:39:39,1440.723406735222,7,39,-1.0997490882873535,3.573641061782837,35.54393901577837,35.20093355592531,142.58681859702693,127.55620439107308,-9.713172767078504e-05,0.0979729741811752,0,0,0
11799,428752.54228030617,2010-12-11 11:40:09,1470.73848695793,7,39,-1.099568486213684,3.570241451263428,35.54393901577837,35.21010164673241,142.58681859702693,127.58895236782622,-9.713172767078504e-05,0.0979729741811752,0,0,0
11800,428782.5576836981,2010-12-11 11:40:39,1500.7538903548443,7,39,-1.099568486213684,3.5668418407440186,35.54393901577837,35.2192699758787,142.58681859702693,127.62166936860103,-6.47544875391759e-05,0.0979729741811752,0,0,0
11801,428812.5724327968,2010-12-11 11:41:09,1530.7686394736131,7,39,-1.099568486213684,3.5632803440093994,35.54393901577837,35.22843798610843,142.58681859702693,127.65435354837828,-9.713172767078504e-05,0.0979729741811752,0,0,0
11802,428842.58749420766,2010-12-11 11:41:39,1560.7837008845086,7,39,-1.099568486213684,3.5600426197052,35.54393901577837,35.23760612172479,142.58681859702693,127.68700767847942,-9.713172767078504e-05,0.0979729741811752,0,0,0
11803,428872.6026114074,2010-12-11 11:42:09,1590.7988181694448,7,39,-1.0997490882873535,3.556643009185791,35.54393901577837,35.24677430697642,142.58681859702693,127.71963107233992,-9.713172767078504e-05,0.0979729741811752,0,0,0
11804,428902.6176667983,2010-12-11 11:42:39,1620.8138734701354,7,39,-1.099568486213684,3.553081512451172,35.54393901577837,35.25594244280046,142.58681859702693,127.75222323498524,-0.0001295089750783,0.0979729741811752,0,0,0
11805,428932.63272138726,2010-12-11 11:43:09,1650.8289280640672,7,39,-1.0993878841400146,3.5500056743621826,35.54393901577837,35.26511057474901,142.58681859702693,127.78478465947524,-6.47544875391759e-05,0.0979729741811752,0,0,0
11806,428962.6477917805,2010-12-11 11:43:39,1680.843998457315,7,39,-1.099568486213684,3.5464441776275635,35.54393901577837,35.27427875622136,142.58681859702693,127.8173150939342,-9.713172767078504e-05,0.0979729741811752,0,0,0
11807,428992.6628666298,2010-12-11 11:44:09,1710.8590733016392,7,39,-1.099568486213684,3.5430445671081543,35.54393901577837,35.28344697096309,142.58681859702693,127.84981399409088,-9.713172767078504e-05,0.0979729741811752,0,0,0
11808,429022.680352128,2010-12-11 11:44:39,1740.876558890007,7,39,-1.0997490882873535,3.539483070373535,35.54393901577837,35.292615919016136,142.58681859702693,127.8822835863334,-9.713172767078504e-05,0.0979729741811752,0,0,0
11809,429052.6951785992,2010-12-11 11:45:09,1770.8913853412146,7,39,-1.099568486213684,3.535921573638916,35.54393901577837,35.30178407186257,142.58681859702693,127.91471804815048,-0.0001295089750783,0.0979729741811752,0,0,0
11810,429082.70810466143,2010-12-11 11:45:39,1800.904311318165,7,39,-1.0997490882873535,3.532360076904297,35.54393901577837,35.310951666953216,142.58681859702693,127.94711755163048,-9.713172767078504e-05,0.0979729741811752,0,0,0
11811,429112.72331779485,2010-12-11 11:46:09,1830.9195244566288,7,39,-1.099568486213684,3.5287985801696777,35.54393901577837,35.32011992047794,142.58681859702693,127.97948600655909,-9.713172767078504e-05,0.0979729741811752,0,0,0
11812,429142.7382816981,2010-12-11 11:46:39,1860.934488354868,7,39,-1.0997490882873535,3.5247514247894287,35.54393901577837,35.32928816805859,142.58681859702693,128.0118201648094,-0.0001295089750783,0.0979729741811752,0,0,0
11813,429172.75331641256,2010-12-11 11:47:09,1890.949523084368,7,39,-1.099568486213684,3.5210280418396,35.54393901577837,35.33845639265614,142.58681859702693,128.04411890786733,-9.713172767078504e-05,0.0979729741811752,0,0,0
11814,429202.76852598216,2010-12-11 11:47:39,1920.9647326539505,7,39,-1.0997490882873535,3.5168190002441406,35.54393901577837,35.34762458173756,142.58681859702693,128.07638143595054,-0.0001295089750783,0.0979729741811752,0,0,0
11815,429232.7834527079,2010-12-11 11:48:09,1950.9796593846995,7,39,-1.0993878841400146,3.5129337310791016,35.54393901577837,35.35679310058778,142.58681859702693,128.1086075521335,-6.47544875391759e-05,0.0979729741811752,0,0,0
11816,429262.8003524584,2010-12-11 11:48:39,1980.9965592204449,7,39,-1.1001102924346924,3.5084011554718018,35.54393901577837,35.36596264361186,142.58681859702693,128.14079832104454,-0.0001295089750783,0.0979729741811752,0,0,0
11817,429292.8137290216,2010-12-11 11:49:09,2011.0099356934368,7,39,-1.099568486213684,3.503868341445923,35.54393901577837,35.3751310935991,142.58681859702693,128.1729445638855,-0.0001618862152099,0.0979729741811752,0,0,0
11818,429322.8287149196,2010-12-11 11:49:39,2041.0249215914216,7,39,-1.099568486213684,3.499173641204834,35.54393901577837,35.38430006421673,142.58681859702693,128.2050496802346,-0.0001295089750783,0.0979729741811752,0,0,0
11819,429352.8437557744,2010-12-11 11:50:09,2071.039962421102,7,39,-1.099568486213684,3.4939932823181152,35.54393901577837,35.39346862993339,142.58681859702693,128.23710800344674,-0.0001295089750783,0.0979729741811752,0,0,0
11820,429382.85884356085,2010-12-11 11:50:39,2101.055050237707,7,39,-1.099568486213684,3.4883272647857666,35.54393901577837,35.40263680200839,142.58681859702693,128.26911603385054,-0.0001618862152099,0.0979729741811752,0,0,0
11821,429412.8738965709,2010-12-11 11:51:09,2131.070103247697,7,39,-1.099568486213684,3.482175588607788,35.54393901577837,35.41180501131077,142.58681859702693,128.3010705111029,-0.0001618862152099,0.0979729741811752,0,0,0
11822,429442.8889774401,2010-12-11 11:51:39,2161.0851841170143,7,39,-1.0997490882873535,3.47521448135376,35.54393901577837,35.42097316283759,142.58681859702693,128.3329646071223,-0.0001942634553415,0.0979729741811752,0,0,0
11823,429472.90428854246,2010-12-11 11:52:09,2191.100495269382,7,39,-1.0997490882873535,3.4674439430236816,35.54393901577837,35.43014138080908,142.58681859702693,128.36479125185485,-0.0001942634553415,0.0979729741811752,0,0,0
11824,429502.9191279108,2010-12-11 11:52:39,2221.115334582596,7,39,-1.099568486213684,3.458216428756714,35.54393901577837,35.4393094570008,142.58681859702693,128.39653957767808,-0.0002913951757363,0.0979729741811752,0,0,0
11825,429532.93436395127,2010-12-11 11:53:09,2251.130570608013,7,39,-1.099568486213684,3.4473700523376465,35.54393901577837,35.44847772545199,142.58681859702693,128.42819742019975,-0.0003237724304199,0.0979729741811752,0,0,0
11826,429562.9492759954,2010-12-11 11:53:39,2281.145482667253,7,39,-1.099568486213684,3.4344191551208496,35.54393901577837,35.45764583578814,142.58681859702693,128.45974552337685,-0.0003561496851034,0.0979729741811752,0,0,0
11827,429592.9645994735,2010-12-11 11:54:09,2311.1608062004293,7,39,-1.099568486213684,3.4177451133728027,35.54393901577837,35.46681412948165,142.58681859702693,128.49115982297263,-0.0005180359003134,0.0979729741811752,0,0,0
11828,429622.9795539884,2010-12-11 11:54:39,2341.175760645144,7,39,-1.099568486213684,3.3968617916107178,35.54393901577837,35.47598237365453,142.58681859702693,128.52240318281002,-0.0005504131549969,0.0979729741811752,0,0,0
11829,429652.9944891902,2010-12-11 11:55:09,2371.1906958620107,7,39,-1.099568486213684,3.3685317039489746,35.54393901577837,35.485150566270406,142.58681859702693,128.55342294281908,-0.0008741855854168,0.0979729741811752,0,0,0
11830,429683.00956479646,2010-12-11 11:55:39,2401.2057714732427,7,39,-1.0997490882873535,3.330003023147583,35.54393901577837,35.494318800289044,142.58681859702693,128.58413999985098,-0.0011655807029455,0.0979729741811752,0,0,0
11831,429713.0246443024,2010-12-11 11:56:09,2431.220850979168,7,39,-1.0997490882873535,3.275447368621826,35.54393901577837,35.50348706059677,142.58681859702693,128.6144354155592,-0.0016512393485754,0.0979729741811752,0,0,0
11832,429743.0398672452,2010-12-11 11:56:39,2461.236073891954,7,39,-1.0997490882873535,3.197094678878784,35.54393901577837,35.51265533417836,142.58681859702693,128.64412997208834,-0.0024606704246252,0.0979729741811752,0,0,0
11833,429773.0547839661,2010-12-11 11:57:09,2491.250990622819,7,39,-1.099568486213684,3.0800514221191406,35.54393901577837,35.521823464080086,142.58681859702693,128.67294392912737,-0.0037557601463049,0.0979729741811752,0,0,0
11834,429802.6012874335,2010-12-11 11:57:39,2520.797494090294,7,39,-1.0997490882873535,2.879960536956787,35.54393901577837,35.53084860569344,142.58681859702693,128.69994319250114,-0.00718774786219,0.0979729741811752,0,0,0
11835,429819.06956486846,2010-12-11 11:57:55,2537.2657715303085,7,39,-1.0997490882873535,2.699943780899048,35.54393901577837,35.53587888864863,142.58681859702693,128.71399416323652,-0.0093569755554199,0.0979729741811752,0,0,0
11836,429879.08453916287,2010-12-11 11:58:55,60.01466745670958,8,39,0.0,3.3868248462677,35.54393901577837,35.53587888864863,142.58681859702693,128.71399416323652,0.0011979580158367,0.0979729741811752,0,0,0
11837,429879.25574506336,2010-12-11 11:58:56,0.185567668004611,9,39,-1.9243103452026844e-05,3.38698673248291,35.54393901577837,35.53587888964055,142.58681859702693,128.71399416659622,-3.237724376958795e-05,0.0947341993451118,0,0,0
11838,429884.07032660936,2010-12-11 11:59:00,5.000149294205196,9,39,0.0008838032954372,3.3944334983825684,35.54394007030926,35.535878889807385,142.5868221733053,128.7139941671613,0.0010360718006268,0.0947341993451118,0,0,0
