Data_Point,Test_Time(s),Date_Time,Step_Time(s),Step_Index,Cycle_Index,Current(A),Voltage(V),Charge_Capacity(Ah),Discharge_Capacity(Ah),Charge_Energy(Wh),Discharge_Energy(Wh),dV/dt(V/s),Internal_Resistance(Ohm),Is_FC_Data,AC_Impedance(Ohm),ACI_Phase_Angle(Deg)
4619,167578.9151726104,2010-12-08 11:06:44,30.01523944392392,1,16,0.0,3.4546549320220947,13.88853946871246,13.876946509897016,55.701200429179565,50.31287905775558,0.0007122993702068,0.0971632748842239,0,0,0
4620,167608.9301778014,2010-12-08 11:07:14,60.03024454469391,1,16,0.0,3.477966547012329,13.88853946871246,13.876946509897016,55.701200429179565,50.31287905775558,0.0005180359003134,0.0971632748842239,0,0,0
4621,167638.94520970387,2010-12-08 11:07:44,90.045276427109,1,16,0.0,3.495288372039795,13.88853946871246,13.876946509897016,55.701200429179565,50.31287905775558,0.0004209041653666,0.0971632748842239,0,0,0
4622,167668.913364319,2010-12-08 11:08:14,120.01343105728486,1,16,0.0,3.5090487003326416,13.88853946871246,13.876946509897016,55.701200429179565,50.31287905775558,0.0003237724304199,0.0971632748842239,0,0,0
4623,167698.9313315589,2010-12-08 11:08:45,30.01506146102031,2,16,0.5501165986061096,3.662030696868897,13.893125707047478,13.876946509897016,55.71785729952164,50.31287905775558,0.0012627125252038,0.0971632748842239,0,0,0
4624,167728.946466984,2010-12-08 11:09:15,60.03019695627195,2,16,0.550297200679779,3.701206922531128,13.897712109307816,13.876946509897016,55.734748731908525,50.31287905775558,0.0008741855854168,0.0971632748842239,0,0,0
4625,167758.96135742945,2010-12-08 11:09:45,90.04508731651455,2,16,0.5501165986061096,3.7288894653320312,13.902298488101852,13.876946509897016,55.75179022616315,50.31287905775558,0.0006475448608398,0.0971632748842239,0,0,0
4626,167788.97640979785,2010-12-08 11:10:15,120.0601396849082,2,16,0.5501165986061096,3.749934673309326,13.906884918994391,13.876946509897016,55.768942907896495,50.31287905775558,0.0004856586456298,0.0971632748842239,0,0,0
4627,167818.99142993605,2010-12-08 11:10:45,150.07515983813568,2,16,0.5499359965324402,3.766284942626953,13.911471274911715,13.876946509897016,55.78618117176992,50.31287905775558,0.0003561496851034,0.0971632748842239,0,0,0
4628,167849.00644599408,2010-12-08 11:11:15,180.09017588614745,2,16,0.5501165986061096,3.7776169776916495,13.916057722675992,13.876946509897016,55.80348260830544,50.31287905775558,0.0002590179501567,0.0971632748842239,0,0,0
4629,167879.0214799316,2010-12-08 11:11:45,210.1052098337015,2,16,0.5499359965324402,3.7850637435913086,13.920644152445334,13.876946509897016,55.82082649152391,50.31287905775558,0.0001618862152099,0.0971632748842239,0,0,0
4630,167909.0365230219,2010-12-08 11:12:15,240.12025292400705,2,16,0.5499359965324402,3.790729761123657,13.925230543357154,13.876946509897016,55.83820017517695,50.31287905775558,0.0001295089750783,0.0971632748842239,0,0,0
4631,167939.05166168005,2010-12-08 11:12:45,270.13539158212933,2,16,0.5501165986061096,3.796072006225586,13.92981695702233,13.876946509897016,55.85559855001871,50.31287905775558,0.0001618862152099,0.0971632748842239,0,0,0
4632,167969.06655213048,2010-12-08 11:13:15,300.1502820175591,2,16,0.5499359965324402,3.800604820251465,13.93440335891588,13.876946509897016,55.87301938572927,50.31287905775558,6.47544875391759e-05,0.0971632748842239,0,0,0
4633,167999.08159062936,2010-12-08 11:13:45,330.1653205364889,2,16,0.5501165986061096,3.8052995204925537,13.938989786310792,13.876946509897016,55.89046144490131,50.31287905775558,0.0001295089750783,0.0971632748842239,0,0,0
4634,168029.09676138737,2010-12-08 11:14:15,360.18049129449054,2,16,0.5501165986061096,3.8095085620880127,13.943576258200176,13.876946509897016,55.90792395804189,50.31287905775558,9.713172767078504e-05,0.0971632748842239,0,0,0
4635,168059.11135849787,2010-12-08 11:14:45,390.1950880841941,2,16,0.5501165986061096,3.8138794898986816,13.948162673480844,13.876946509897016,55.92540573532289,50.31287905775558,0.0001295089750783,0.0971632748842239,0,0,0
4636,168089.11415786517,2010-12-08 11:15:15,420.1978878324137,2,16,0.550297200679779,3.81792664527893,13.952747256163908,13.876946509897016,55.94289953064384,50.31287905775558,0.0001295089750783,0.0971632748842239,0,0,0
4637,168119.12613617888,2010-12-08 11:15:45,450.2098661561656,2,16,0.5501165986061096,3.82165002822876,13.957333198895446,13.876946509897016,55.96041659561649,50.31287905775558,6.47544875391759e-05,0.0971632748842239,0,0,0
4638,168149.1416198305,2010-12-08 11:16:15,480.2253497927536,2,16,0.5501165986061096,3.825373411178589,13.961919673805458,13.876946509897016,55.97795323146448,50.31287905775558,9.713172767078504e-05,0.0971632748842239,0,0,0
4639,168179.15614526262,2010-12-08 11:16:45,510.2398751396745,2,16,0.5501165986061096,3.829096794128418,13.966506026345892,13.876946509897016,55.995506632316,50.31287905775558,6.47544875391759e-05,0.0971632748842239,0,0,0
4640,168209.1711661928,2010-12-08 11:17:15,540.2548960798603,2,16,0.5501165986061096,3.832982063293457,13.97109242779418,13.876946509897016,56.01307725957744,50.31287905775558,0.0001295089750783,0.0971632748842239,0,0,0
4641,168239.18618208042,2010-12-08 11:17:45,570.2699119825104,2,16,0.5501165986061096,3.836543321609497,13.97567876789026,13.876946509897016,56.03066449644336,50.31287905775558,0.0001295089750783,0.0971632748842239,0,0,0
4642,168269.20135944986,2010-12-08 11:18:15,600.2850893519643,2,16,0.5499359965324402,3.840428590774536,13.980265151473324,13.876946509897016,56.04826895359117,50.31287905775558,0.0001618862152099,0.0971632748842239,0,0,0
4643,168299.21623724888,2010-12-08 11:18:45,630.2999671509488,2,16,0.5501165986061096,3.843828201293945,13.98485155398208,13.876946509897016,56.06589031096797,50.31287905775558,9.713172767078504e-05,0.0971632748842239,0,0,0
4644,168329.23127546703,2010-12-08 11:19:15,660.3150053440677,2,16,0.5501165986061096,3.847713470458984,13.989437956441089,13.876946509897016,56.08352852566045,50.31287905775558,0.0001295089750783,0.0971632748842239,0,0,0
4645,168359.24644012988,2010-12-08 11:19:45,690.3301700971263,2,16,0.5501165986061096,3.851274967193604,13.994024399328886,13.876946509897016,56.10118367860579,50.31287905775558,9.713172767078504e-05,0.0971632748842239,0,0,0
4646,168389.26131954286,2010-12-08 11:20:15,720.345049540202,2,16,0.5501165986061096,3.854836463928223,13.998610797683565,13.876946509897016,56.118855369603445,50.31287905775558,9.713172767078504e-05,0.0971632748842239,0,0,0
4647,168419.27635376612,2010-12-08 11:20:45,750.3600836682051,2,16,0.5501165986061096,3.858559846878052,14.0031971930245,13.876946509897016,56.13654377583529,50.31287905775558,6.47544875391759e-05,0.0971632748842239,0,0,0
4648,168449.29151042402,2010-12-08 11:21:15,780.3752403261192,2,16,0.5501165986061096,3.862283229827881,14.007783616466185,13.876946509897016,56.15424891253645,50.31287905775558,0.0001618862152099,0.0971632748842239,0,0,0
4649,168479.30643120498,2010-12-08 11:21:45,810.3901611772371,2,16,0.5501165986061096,3.8658447265625,14.01236996205917,13.876946509897016,56.17197028728575,50.31287905775558,9.713172767078504e-05,0.0971632748842239,0,0,0
4650,168509.32144478685,2010-12-08 11:22:15,840.4051746939501,2,16,0.5501165986061096,3.869082450866699,14.016956357762528,13.876946509897016,56.18970810461363,50.31287905775558,9.713172767078504e-05,0.0971632748842239,0,0,0
4651,168539.3364704488,2010-12-08 11:22:45,870.4202003508731,2,16,0.5501165986061096,3.8726439476013184,14.021542807600731,13.876946509897016,56.20746182596721,50.31287905775558,6.47544875391759e-05,0.0971632748842239,0,0,0
4652,168569.3515239249,2010-12-08 11:23:15,900.4352538971979,2,16,0.5501165986061096,3.875719785690308,14.026129221944082,13.876946509897016,56.22523060357575,50.31287905775558,3.237724376958795e-05,0.0971632748842239,0,0,0
4653,168599.36654814327,2010-12-08 11:23:45,930.4502780453668,2,16,0.5499359965324402,3.878795623779297,14.030715607075653,13.876946509897016,56.24301398184008,50.31287905775558,3.237724376958795e-05,0.0971632748842239,0,0,0
4654,168629.3815450988,2010-12-08 11:24:15,960.4652750008676,2,16,0.550297200679779,3.882195234298706,14.03530201215476,13.876946509897016,56.260811647188746,50.31287905775558,9.713172767078504e-05,0.0971632748842239,0,0,0
4655,168659.39658118165,2010-12-08 11:24:45,990.4803110837352,2,16,0.5499359965324402,3.8847854137420654,14.03988845586496,13.876946509897016,56.27862314918104,50.31287905775558,6.47544875391759e-05,0.0971632748842239,0,0,0
4656,168689.41162949995,2010-12-08 11:25:15,1020.4953594020506,2,16,0.5501165986061096,3.8875374794006343,14.044474940206303,13.876946509897016,56.29644786537922,50.31287905775558,6.47544875391759e-05,0.0971632748842239,0,0,0
4657,168719.4268708837,2010-12-08 11:25:45,1050.510600845951,2,16,0.5501165986061096,3.890289545059204,14.049061388355032,13.876946509897016,56.31428485238271,50.31287905775558,6.47544875391759e-05,0.0971632748842239,0,0,0
4658,168749.44165835792,2010-12-08 11:26:15,1080.5253882449788,2,16,0.5501165986061096,3.892879724502564,14.053647790872889,13.876946509897016,56.33213344460638,50.31287905775558,3.237724376958795e-05,0.0971632748842239,0,0,0
4659,168779.45670234546,2010-12-08 11:26:45,1110.5404322525667,2,16,0.5501165986061096,3.894984245300293,14.058234210638329,13.876946509897016,56.34999308598182,50.31287905775558,3.237724376958795e-05,0.0971632748842239,0,0,0
4660,168809.47177561087,2010-12-08 11:27:15,1140.5555056081866,2,16,0.5501165986061096,3.897250652313232,14.062820611408371,13.876946509897016,56.36786268086831,50.31287905775558,3.237724376958795e-05,0.0971632748842239,0,0,0
4661,168839.48698446868,2010-12-08 11:27:45,1170.5707144509608,2,16,0.5501165986061096,3.899355173110962,14.067407040902127,13.876946509897016,56.385742181697125,50.31287905775558,6.47544875391759e-05,0.0971632748842239,0,0,0
4662,168869.50178499534,2010-12-08 11:28:15,1200.5855149676313,2,16,0.5499359965324402,3.9012978076934814,14.071993448452924,13.876946509897016,56.40363080250216,50.31287905775558,6.47544875391759e-05,0.0971632748842239,0,0,0
4663,168899.51684440128,2010-12-08 11:28:45,1230.6005743033625,2,16,0.5499359965324402,3.903078556060791,14.076579922660612,13.876946509897016,56.421528643638446,50.31287905775558,0.0,0.0971632748842239,0,0,0
4664,168929.5318541436,2010-12-08 11:29:15,1260.615584030645,2,16,0.5501165986061096,3.905183076858521,14.081166258427372,13.876946509897016,56.43943448221622,50.31287905775558,6.47544875391759e-05,0.0971632748842239,0,0,0
4665,168959.5468746076,2010-12-08 11:29:45,1290.6306045096835,2,16,0.5501165986061096,3.90680193901062,14.085752694357652,13.876946509897016,56.45734878498057,50.31287905775558,6.47544875391759e-05,0.0971632748842239,0,0,0
4666,168989.56189588862,2010-12-08 11:30:15,1320.6456257907178,2,16,0.5501165986061096,3.90842080116272,14.090339131474328,13.876946509897016,56.47527106394694,50.31287905775558,3.237724376958795e-05,0.0971632748842239,0,0,0
4667,169019.57692999658,2010-12-08 11:30:45,1350.6606598986707,2,16,0.5501165986061096,3.910201549530029,14.094925524778,13.876946509897016,56.49320084946493,50.31287905775558,3.237724376958795e-05,0.0971632748842239,0,0,0
4668,169049.59198335742,2010-12-08 11:31:15,1380.6757132595342,2,16,0.5501165986061096,3.911658525466919,14.099511930380986,13.876946509897016,56.51113807623109,50.31287905775558,3.237724376958795e-05,0.0971632748842239,0,0,0
4669,169079.6069804884,2010-12-08 11:31:45,1410.6907103904716,2,16,0.5499359965324402,3.9132773876190186,14.104098344749632,13.876946509897016,56.529082722455165,50.31287905775558,3.237724376958795e-05,0.0971632748842239,0,0,0
4670,169109.62223059885,2010-12-08 11:32:15,1440.7059605410388,2,16,0.5501165986061096,3.915057897567749,14.108684793918227,13.876946509897016,56.547034827068245,50.31287905775558,9.713172767078504e-05,0.0971632748842239,0,0,0
4671,169139.63704725067,2010-12-08 11:32:45,1470.7207771276985,2,16,0.5499359965324402,3.9163529872894287,14.113271202973833,13.876946509897016,56.56499385018702,50.31287905775558,0.0,0.0971632748842239,0,0,0
4672,169169.65208224583,2010-12-08 11:33:15,1500.735812147922,2,16,0.5499359965324402,3.917971849441528,14.117857630320644,13.876946509897016,56.582960202894974,50.31287905775558,3.237724376958795e-05,0.0971632748842239,0,0,0
4673,169199.66709847428,2010-12-08 11:33:45,1530.7508283763827,2,16,0.5501165986061096,3.919590711593628,14.122444025270504,13.876946509897016,56.60093349641628,50.31287905775558,3.237724376958795e-05,0.0971632748842239,0,0,0
4674,169229.68212768505,2010-12-08 11:34:15,1560.7658575771245,2,16,0.550297200679779,3.921209573745728,14.127030551685994,13.876946509897016,56.61891441940292,50.31287905775558,9.713172767078504e-05,0.0971632748842239,0,0,0
4675,169259.6971572918,2010-12-08 11:34:45,1590.7808871939017,2,16,0.5501165986061096,3.922666549682617,14.131617025635911,13.876946509897016,56.63690230154866,50.31287905775558,0.0,0.0971632748842239,0,0,0
4676,169289.7121930589,2010-12-08 11:35:15,1620.7959229609835,2,16,0.5501165986061096,3.924285411834717,14.136203389000851,13.876946509897016,56.65489686846716,50.31287905775558,3.237724376958795e-05,0.0971632748842239,0,0,0
4677,169319.72722912172,2010-12-08 11:35:45,1650.8109590238016,2,16,0.5499359965324402,3.9257423877716064,14.140789770878683,13.876946509897016,56.67289874984032,50.31287905775558,0.0,0.0971632748842239,0,0,0
4678,169349.7422376911,2010-12-08 11:36:15,1680.8259675932031,2,16,0.5501165986061096,3.927361249923706,14.145376221979385,13.876946509897016,56.69090793364797,50.31287905775558,6.47544875391759e-05,0.0971632748842239,0,0,0
4679,169379.7572682803,2010-12-08 11:36:45,1710.8409981824002,2,16,0.5501165986061096,3.928818225860596,14.149962609072883,13.876946509897016,56.70892402553085,50.31287905775558,3.237724376958795e-05,0.0971632748842239,0,0,0
4680,169409.7723061326,2010-12-08 11:37:15,1740.8560360396832,2,16,0.5501165986061096,3.9304370880126953,14.154549051435868,13.876946509897016,56.72694752270568,50.31287905775558,3.237724376958795e-05,0.0971632748842239,0,0,0
4681,169439.78732960406,2010-12-08 11:37:45,1770.8710595061557,2,16,0.550297200679779,3.932217836380005,14.159135515625296,13.876946509897016,56.74497825510205,50.31287905775558,6.47544875391759e-05,0.0971632748842239,0,0,0
4682,169469.80237764667,2010-12-08 11:38:15,1800.8861075487848,2,16,0.550297200679779,3.9336748123168954,14.163721923592211,13.876946509897016,56.76301603307962,50.31287905775558,3.237724376958795e-05,0.0971632748842239,0,0,0
4683,169499.81957402537,2010-12-08 11:38:45,1830.9033040026527,2,16,0.5499359965324402,3.935293674468994,14.168308764889238,13.876946509897016,56.781062853475305,50.31287905775558,3.237724376958795e-05,0.0971632748842239,0,0,0
4684,169529.83245213822,2010-12-08 11:39:15,1860.916182040308,2,16,0.5501165986061096,3.936750650405884,14.172894911242407,13.876946509897016,56.79911412624232,50.31287905775558,3.237724376958795e-05,0.0971632748842239,0,0,0
4685,169559.84743033204,2010-12-08 11:39:45,1890.9311602341213,2,16,0.5499359965324402,3.938369512557984,14.177481269168196,13.876946509897016,56.81717364040553,50.31287905775558,3.237724376958795e-05,0.0971632748842239,0,0,0
4686,169589.86247217422,2010-12-08 11:40:15,1920.9462020763208,2,16,0.5501165986061096,3.939988374710083,14.182067620951656,13.876946509897016,56.83524052867261,50.31287905775558,0.0,0.0971632748842239,0,0,0
4687,169619.87748686885,2010-12-08 11:40:45,1950.9612167709647,2,16,0.5501165986061096,3.9417691230773926,14.186654081025855,13.876946509897016,56.853315283004825,50.31287905775558,6.47544875391759e-05,0.0971632748842239,0,0,0
4688,169649.8925341496,2010-12-08 11:41:16,1980.976264051698,2,16,0.5499359965324402,3.943226099014282,14.191240541969725,13.876946509897016,56.87139742537487,50.31287905775558,3.237724376958795e-05,0.0971632748842239,0,0,0
4689,169679.9076665321,2010-12-08 11:41:46,2010.991396434204,2,16,0.5501165986061096,3.945006847381592,14.195827023953631,13.876946509897016,56.88948712299524,50.31287905775558,6.47544875391759e-05,0.0971632748842239,0,0,0
4690,169709.92257496732,2010-12-08 11:42:16,2041.006304869425,2,16,0.550297200679779,3.9466257095336914,14.200413413959437,13.876946509897016,56.90758396294958,50.31287905775558,3.237724376958795e-05,0.0971632748842239,0,0,0
4691,169739.93761320555,2010-12-08 11:42:46,2071.0213431126685,2,16,0.5499359965324402,3.948082685470581,14.204999815151591,13.876946509897016,56.92568827564904,50.31287905775558,3.237724376958795e-05,0.0971632748842239,0,0,0
4692,169769.95263129866,2010-12-08 11:43:16,2101.036361205769,2,16,0.5501165986061096,3.9500253200531006,14.209586252249004,13.876946509897016,56.94380033544553,50.31287905775558,6.47544875391759e-05,0.0971632748842239,0,0,0
4693,169799.96764540183,2010-12-08 11:43:46,2131.051375303929,2,16,0.5501165986061096,3.9516441822052,14.214172677365289,13.876946509897016,56.96191991582244,50.31287905775558,6.47544875391759e-05,0.0971632748842239,0,0,0
4694,169829.98270094814,2010-12-08 11:44:16,2161.0664309454683,2,16,0.5501165986061096,3.95310115814209,14.218759074746318,13.876946509897016,56.9800468749924,50.31287905775558,3.237724376958795e-05,0.0971632748842239,0,0,0
4695,169859.99772211388,2010-12-08 11:44:46,2191.0814520209906,2,16,0.5497553944587708,3.9547200202941895,14.223345521995364,13.876946509897016,56.998181654611,50.31287905775558,3.237724376958795e-05,0.0971632748842239,0,0,0
4696,169890.01287265157,2010-12-08 11:45:16,2221.0966025386247,2,16,0.5501165986061096,3.956338882446289,14.227931953760402,13.876946509897016,57.0163240119185,50.31287905775558,3.237724376958795e-05,0.0971632748842239,0,0,0
4697,169920.02788570715,2010-12-08 11:45:46,2251.11161561424,2,16,0.5501165986061096,3.9579577445983887,14.232518373752006,13.876946509897016,57.03447378714018,50.31287905775558,0.0,0.0971632748842239,0,0,0
4698,169950.04280254827,2010-12-08 11:46:16,2281.1265324503665,2,16,0.5499359965324402,3.959738492965698,14.237104803663538,13.876946509897016,57.0526313639937,50.31287905775558,3.237724376958795e-05,0.0971632748842239,0,0,0
4699,169980.0579795819,2010-12-08 11:46:46,2311.141709468948,2,16,0.5501165986061096,3.961519241333008,14.24169126760632,13.876946509897016,57.070796858056525,50.31287905775558,3.237724376958795e-05,0.0971632748842239,0,0,0
4700,170010.075267759,2010-12-08 11:47:16,2341.15899773629,2,16,0.5501165986061096,3.9631381034851074,14.246278081095834,13.876946509897016,57.08897146161825,50.31287905775558,6.47544875391759e-05,0.0971632748842239,0,0,0
4701,170040.0878939349,2010-12-08 11:47:46,2371.17162383701,2,16,0.5501165986061096,3.964918851852417,14.250864141436775,13.876946509897016,57.10715090638312,50.31287905775558,6.47544875391759e-05,0.0971632748842239,0,0,0
4702,170070.10309021143,2010-12-08 11:48:16,2401.186820183688,2,16,0.5501165986061096,3.9665377140045166,14.255450609217547,13.876946509897016,57.12533973729576,50.31287905775558,6.47544875391759e-05,0.0971632748842239,0,0,0
4703,170100.1179269532,2010-12-08 11:48:46,2431.2016568352783,2,16,0.5501165986061096,3.968156576156616,14.260037093893706,13.876946509897016,57.143536397487885,50.31287905775558,3.237724376958795e-05,0.0971632748842239,0,0,0
4704,170130.13310009718,2010-12-08 11:49:16,2461.21682998423,2,16,0.5501165986061096,3.970099210739136,14.264623552533305,13.876946509897016,57.16174077609309,50.31287905775558,6.47544875391759e-05,0.0971632748842239,0,0,0
4705,170160.1480142566,2010-12-08 11:49:46,2491.231744143696,2,16,0.5501165986061096,3.9717180728912354,14.26921000130798,13.876946509897016,57.17995300766557,50.31287905775558,3.237724376958795e-05,0.0971632748842239,0,0,0
4706,170190.16313686984,2010-12-08 11:50:16,2521.246866761904,2,16,0.5501165986061096,3.973498821258545,14.273796578346676,13.876946509897016,57.19817368579648,50.31287905775558,3.237724376958795e-05,0.0971632748842239,0,0,0
4707,170220.17804299932,2010-12-08 11:50:46,2551.2617729014128,2,16,0.550297200679779,3.9752795696258554,14.278382966803749,13.876946509897016,57.21640156904586,50.31287905775558,6.47544875391759e-05,0.0971632748842239,0,0,0
4708,170250.19320874987,2010-12-08 11:51:16,2581.2769386569657,2,16,0.5501165986061096,3.977060317993164,14.28296951690142,13.876946509897016,57.234638076961154,50.31287905775558,6.47544875391759e-05,0.0971632748842239,0,0,0
4709,170280.2081008344,2010-12-08 11:51:46,2611.291830741499,2,16,0.5501165986061096,3.978679180145264,14.287556046215272,13.876946509897016,57.25288209340631,50.31287905775558,0.0001295089750783,0.0971632748842239,0,0,0
4710,170310.2231419097,2010-12-08 11:52:16,2641.306871871928,2,16,0.5501165986061096,3.980621814727783,14.292142426296154,13.876946509897016,57.27113415106803,50.31287905775558,9.713172767078504e-05,0.0971632748842239,0,0,0
4711,170340.23816589246,2010-12-08 11:52:46,2671.321895794535,2,16,0.550297200679779,3.9824025630950928,14.296728856272242,13.876946509897016,57.28939470244341,50.31287905775558,6.47544875391759e-05,0.0971632748842239,0,0,0
4712,170370.25335361768,2010-12-08 11:53:16,2701.337083574896,2,16,0.5499359965324402,3.9841833114624015,14.301315309360907,13.876946509897016,57.30766360145197,50.31287905775558,6.47544875391759e-05,0.0971632748842239,0,0,0
4713,170400.26825103044,2010-12-08 11:53:46,2731.3519809726517,2,16,0.5499359965324402,3.985964059829712,14.305901634919978,13.876946509897016,57.32594048483378,50.31287905775558,3.237724376958795e-05,0.0971632748842239,0,0,0
4714,170430.2832738904,2010-12-08 11:54:16,2761.3670037925144,2,16,0.5501165986061096,3.9877448081970215,14.310487936082502,13.876946509897016,57.34422581388336,50.31287905775558,3.237724376958795e-05,0.0971632748842239,0,0,0
4715,170460.29828959756,2010-12-08 11:54:46,2791.382019474616,2,16,0.5499359965324402,3.989687442779541,14.315074177664856,13.876946509897016,57.36251935395157,50.31287905775558,3.237724376958795e-05,0.0971632748842239,0,0,0
4716,170490.31336220633,2010-12-08 11:55:16,2821.397092108439,2,16,0.5499359965324402,3.991630077362061,14.319660420139613,13.876946509897016,57.380821598346834,50.31287905775558,6.47544875391759e-05,0.0971632748842239,0,0,0
4717,170520.32836984843,2010-12-08 11:55:46,2851.4120997505333,2,16,0.5501165986061096,3.99341082572937,14.324246717090682,13.876946509897016,57.39913271169304,50.31287905775558,0.0,0.0971632748842239,0,0,0
4718,170550.34339306928,2010-12-08 11:56:16,2881.427122946332,2,16,0.5501165986061096,3.995515108108521,14.328833104342513,13.876946509897016,57.41745290112431,50.31287905775558,6.47544875391759e-05,0.0971632748842239,0,0,0
4719,170580.35845458045,2010-12-08 11:56:46,2911.4421844725143,2,16,0.5501165986061096,3.99729585647583,14.333419491141138,13.876946509897016,57.43578203387935,50.31287905775558,6.47544875391759e-05,0.0971632748842239,0,0,0
4720,170610.37359307817,2010-12-08 11:57:16,2941.4573229802622,2,16,0.5499359965324402,3.99940037727356,14.338005954374008,13.876946509897016,57.4541204860282,50.31287905775558,6.47544875391759e-05,0.0971632748842239,0,0,0
4721,170640.3886198278,2010-12-08 11:57:46,2971.47234971988,2,16,0.5501165986061096,4.001504898071289,14.342592251833098,13.876946509897016,57.47246751342199,50.31287905775558,9.70840483205393e-05,0.0971632748842239,0,0,0
4722,170670.40364227677,2010-12-08 11:58:16,3001.4873721838576,2,16,0.550297200679779,4.003609657287598,14.347178561518964,13.876946509897016,57.49082404038714,50.31287905775558,9.71794142969884e-05,0.0971632748842239,0,0,0
4723,170700.4185564663,2010-12-08 11:58:46,3031.5022863583613,2,16,0.5499359965324402,4.005552291870117,14.35176484620813,13.876946509897016,57.50918991126988,50.31287905775558,3.24249267578125e-05,0.0971632748842239,0,0,0
4724,170730.433731941,2010-12-08 11:59:16,3061.517461918312,2,16,0.5501165986061096,4.007656574249268,14.356351223234906,13.876946509897016,57.52756575341517,50.31287905775558,9.70840483205393e-05,0.0971632748842239,0,0,0
4725,170760.44879529174,2010-12-08 11:59:46,3091.532562616974,2,16,0.550297200679779,4.009922981262207,14.36093764397974,13.876946509897016,57.54595145152649,50.31287905775558,6.47544875391759e-05,0.0971632748842239,0,0,0
4726,170790.46364300087,2010-12-08 12:00:16,3121.547372998192,2,16,0.5501165986061096,4.012027740478516,14.365523959198184,13.876946509897016,57.56434655578698,50.31287905775558,9.71794142969884e-05,0.0971632748842239,0,0,0
4727,170820.4786537156,2010-12-08 12:00:46,3151.5623836076697,2,16,0.5501165986061096,4.014294147491455,14.370110271974497,13.876946509897016,57.58275159824776,50.31287905775558,6.47544875391759e-05,0.0971632748842239,0,0,0
4728,170850.49384116012,2010-12-08 12:01:16,3181.5775711073325,2,16,0.5499359965324402,4.0163984298706055,14.374696675573183,13.876946509897016,57.6011669973436,50.31287905775558,6.47544875391759e-05,0.0971632748842239,0,0,0
4729,170880.5089348363,2010-12-08 12:01:46,3211.5926647434194,2,16,0.5501165986061096,4.018503189086914,14.379283116626238,13.876946509897016,57.619592819804815,50.31287905775558,3.24249267578125e-05,0.0971632748842239,0,0,0
4730,170910.5238616623,2010-12-08 12:02:16,3241.607591734817,2,16,0.5499359965324402,4.0207695960998535,14.383869508822874,13.876946509897016,57.6380287110116,50.31287905775558,6.47544875391759e-05,0.0971632748842239,0,0,0
4731,170940.53899004485,2010-12-08 12:02:46,3271.622719921883,2,16,0.5499359965324402,4.023036003112793,14.388455875770935,13.876946509897016,57.656475127155645,50.31287905775558,3.24249267578125e-05,0.0971632748842239,0,0,0
4732,170970.55391755752,2010-12-08 12:03:16,3301.63764743959,2,16,0.5499359965324402,4.025626182556152,14.393042316242632,13.876946509897016,57.67493261930019,50.31287905775558,9.71794142969884e-05,0.0971632748842239,0,0,0
4733,171000.56894890362,2010-12-08 12:03:46,3331.6526787806583,2,16,0.5501165986061096,4.027892589569092,14.397628682122262,13.876946509897016,57.69340046347326,50.31287905775558,9.71794142969884e-05,0.0971632748842239,0,0,0
4734,171030.58401102628,2010-12-08 12:04:16,3361.667740908337,2,16,0.550297200679779,4.030482769012451,14.402215117005593,13.876946509897016,57.71187940226293,50.31287905775558,9.71794142969884e-05,0.0971632748842239,0,0,0
4735,171060.59900605198,2010-12-08 12:04:46,3391.682735929024,2,16,0.5499359965324402,4.032425403594971,14.4068014629612,13.876946509897016,57.73036879053565,50.31287905775558,3.24249267578125e-05,0.0971632748842239,0,0,0
4736,171090.61416999804,2010-12-08 12:05:16,3421.697899890112,2,16,0.5501165986061096,4.034853458404541,14.411387847131143,13.876946509897016,57.7488693278532,50.31287905775558,6.47544875391759e-05,0.0971632748842239,0,0,0
4737,171120.629188031,2010-12-08 12:05:46,3451.7129179380995,2,16,0.5499359965324402,4.0374436378479,14.415974224859712,13.876946509897016,57.76738091082896,50.31287905775558,6.47544875391759e-05,0.0971632748842239,0,0,0
4738,171150.64413967374,2010-12-08 12:06:16,3481.7278695607915,2,16,0.5501165986061096,4.039871692657471,14.420560563931414,13.876946509897016,57.7859036158547,50.31287905775558,3.23295607813634e-05,0.0971632748842239,0,0,0
4739,171180.6591346092,2010-12-08 12:06:46,3511.7428644962656,2,16,0.5499359965324402,4.042300224304199,14.425146925612614,13.876946509897016,57.804437582221134,50.31287905775558,6.47544875391759e-05,0.0971632748842239,0,0,0
4740,171210.6743433718,2010-12-08 12:07:16,3541.7580733490645,2,16,0.5499359965324402,4.044890403747559,14.429733279871996,13.876946509897016,57.82298304258372,50.31287905775558,6.47544875391759e-05,0.0971632748842239,0,0,0
4741,171240.68919612345,2010-12-08 12:07:46,3571.772926025533,2,16,0.5499359965324402,4.047480583190918,14.43431964982471,13.876946509897016,57.84154023588276,50.31287905775558,6.47544875391759e-05,0.0971632748842239,0,0,0
4742,171270.70423315867,2010-12-08 12:08:16,3601.787963065783,2,16,0.5499359965324402,4.049908638000488,14.43890604310665,13.876946509897016,57.860109245183786,50.31287905775558,6.47544875391759e-05,0.0971632748842239,0,0,0
4743,171300.71926027923,2010-12-08 12:08:46,3631.8029901713103,2,16,0.5499359965324402,4.052498817443848,14.44349241746672,13.876946509897016,57.87868993578462,50.31287905775558,6.47544875391759e-05,0.0971632748842239,0,0,0
4744,171330.73430180564,2010-12-08 12:09:16,3661.8180317077495,2,16,0.5499359965324402,4.055251121520996,14.448078777520326,13.876946509897016,57.89728257645488,50.31287905775558,6.47544875391759e-05,0.0971632748842239,0,0,0
4745,171360.74933025954,2010-12-08 12:09:46,3691.8330601666457,2,16,0.5499359965324402,4.057841300964356,14.452665234457989,13.876946509897016,57.91588771496807,50.31287905775558,6.47544875391759e-05,0.0971632748842239,0,0,0
4746,171390.76439114913,2010-12-08 12:10:16,3721.848121036194,2,16,0.5501165986061096,4.060593128204346,14.457251681990046,13.876946509897016,57.93450510226896,50.31287905775558,6.47544875391759e-05,0.0971632748842239,0,0,0
4747,171420.78160147252,2010-12-08 12:10:46,3751.8653314498,2,16,0.550297200679779,4.063345432281494,14.461838449132951,13.876946509897016,57.95313566866592,50.31287905775558,6.47544875391759e-05,0.0971632748842239,0,0,0
4748,171450.79444698922,2010-12-08 12:11:16,3781.878176881316,2,16,0.5501165986061096,4.0657734870910645,14.46642449545319,13.876946509897016,57.971775857819225,50.31287905775558,3.23295607813634e-05,0.0971632748842239,0,0,0
4749,171480.80945009005,2010-12-08 12:11:46,3811.89317998211,2,16,0.5501165986061096,4.068525791168213,14.471010873933896,13.876946509897016,57.990429961841954,50.31287905775558,3.24249267578125e-05,0.0971632748842239,0,0,0
4750,171510.8245147791,2010-12-08 12:12:16,3841.908244681187,2,16,0.5499359965324402,4.071277618408203,14.475597323625156,13.876946509897016,58.00909701989492,50.31287905775558,6.47544875391759e-05,0.0971632748842239,0,0,0
4751,171540.83951581977,2010-12-08 12:12:46,3871.923245701804,2,16,0.5501165986061096,4.074353694915772,14.480183762055733,13.876946509897016,58.02777678147753,50.31287905775558,9.71794142969884e-05,0.0971632748842239,0,0,0
4752,171570.8547268931,2010-12-08 12:13:17,3901.938456770116,2,16,0.5501165986061096,4.077267646789551,14.484770129936472,13.876946509897016,58.04646917203871,50.31287905775558,0.0001295089750783,0.0971632748842239,0,0,0
4753,171600.86969795416,2010-12-08 12:13:47,3931.9534278412048,2,16,0.5499359965324402,4.07985782623291,14.489356542929205,13.876946509897016,58.06517483069906,50.31287905775558,6.47544875391759e-05,0.0971632748842239,0,0,0
4754,171630.88463944162,2010-12-08 12:14:17,3961.968369323663,2,16,0.5499359965324402,4.0827717781066895,14.493942889294388,13.876946509897016,58.08389337487285,50.31287905775558,9.71794142969884e-05,0.0971632748842239,0,0,0
4755,171660.89963229193,2010-12-08 12:14:47,3991.983362173949,2,16,0.550297200679779,4.085685729980469,14.498529245318846,13.876946509897016,58.102625265663534,50.31287905775558,6.47544875391759e-05,0.0971632748842239,0,0,0
4756,171690.91480231303,2010-12-08 12:15:17,4021.998532220178,2,16,0.5501165986061096,4.088599681854248,14.5031156505358,13.876946509897016,58.12137076430967,50.31287905775558,6.47544875391759e-05,0.0971632748842239,0,0,0
4757,171720.92969010692,2010-12-08 12:15:47,4052.01341998396,2,16,0.5501165986061096,4.091513633728027,14.507702019495593,13.876946509897016,58.14012970958476,50.31287905775558,3.24249267578125e-05,0.0971632748842239,0,0,0
4758,171750.9447224655,2010-12-08 12:16:17,4082.02845234256,2,16,0.5501165986061096,4.0945892333984375,14.51228838917902,13.876946509897016,58.15890220333938,50.31287905775558,6.47544875391759e-05,0.0971632748842239,0,0,0
4759,171780.95975559103,2010-12-08 12:16:47,4112.043485478093,2,16,0.5501165986061096,4.097665309906006,14.516874790665074,13.876946509897016,58.17768858041895,50.31287905775558,6.47544875391759e-05,0.0971632748842239,0,0,0
4760,171810.97480064622,2010-12-08 12:17:17,4142.058530528277,2,16,0.550297200679779,4.100579261779785,14.521461316622178,13.876946509897016,58.19648935068072,50.31287905775558,6.47544875391759e-05,0.0971632748842239,0,0,0
4761,171840.98983489955,2010-12-08 12:17:47,4172.073564776579,2,16,0.5499359965324402,4.103654861450195,14.526047777832568,13.876946509897016,58.21530385057096,50.31287905775558,9.70840483205393e-05,0.0971632748842239,0,0,0
4762,171871.0048400755,2010-12-08 12:18:17,4202.088569957547,2,16,0.5501165986061096,4.1068925857543945,14.530634194856129,13.876946509897016,58.2341323698801,50.31287905775558,6.47544875391759e-05,0.0971632748842239,0,0,0
4763,171901.01988132123,2010-12-08 12:18:47,4232.103611198251,2,16,0.5501165986061096,4.109806537628174,14.535220539343507,13.876946509897016,58.252974764187606,50.31287905775558,3.23295607813634e-05,0.0971632748842239,0,0,0
4764,171931.03718009972,2010-12-08 12:19:17,4262.120910107074,2,16,0.550297200679779,4.113206386566162,14.539807309594153,13.876946509897016,58.27183329046182,50.31287905775558,0.0001295089750783,0.0971632748842239,0,0,0
4765,171961.0499368004,2010-12-08 12:19:47,4292.133666702524,2,16,0.5499359965324402,4.116281986236572,14.544393340276894,13.876946509897016,58.290703237071696,50.31287905775558,9.71794142969884e-05,0.0971632748842239,0,0,0
4766,171991.06517322184,2010-12-08 12:20:17,4322.148903184077,2,16,0.5501165986061096,4.119519710540772,14.548979753009736,13.876946509897016,58.30958937077276,50.31287905775558,9.71794142969884e-05,0.0971632748842239,0,0,0
4767,172021.08002321163,2010-12-08 12:20:47,4352.16375311371,2,16,0.5501165986061096,4.122757434844971,14.553566134611913,13.876946509897016,58.328490064924665,50.31287905775558,9.71794142969884e-05,0.0971632748842239,0,0,0
4768,172051.09505493863,2010-12-08 12:21:17,4382.178784825701,2,16,0.5501165986061096,4.125833034515381,14.558152568751712,13.876946509897016,58.34740568480289,50.31287905775558,9.70840483205393e-05,0.0971632748842239,0,0,0
4769,172081.1100518841,2010-12-08 12:21:47,4412.193781791227,2,16,0.5501165986061096,4.129232883453369,14.562739012154582,13.876946509897016,58.366336275415264,50.31287905775558,9.71794142969884e-05,0.0971632748842239,0,0,0
4770,172111.12508422267,2010-12-08 12:22:17,4442.208814109727,2,16,0.5501165986061096,4.132470607757568,14.567325436049824,13.876946509897016,58.38528191991968,50.31287905775558,9.71794142969884e-05,0.0971632748842239,0,0,0
4771,172141.14018453538,2010-12-08 12:22:47,4472.223914437465,2,16,0.5501165986061096,4.135869979858398,14.57191191566092,13.876946509897016,58.404242955031634,50.31287905775558,9.70840483205393e-05,0.0971632748842239,0,0,0
4772,172171.15515754127,2010-12-08 12:23:17,4502.238887443368,2,16,0.5501165986061096,4.139107704162598,14.576498391208228,13.876946509897016,58.42321923839148,50.31287905775558,9.70840483205393e-05,0.0971632748842239,0,0,0
4773,172201.17017764438,2010-12-08 12:23:47,4532.253907546472,2,16,0.5501165986061096,4.142507553100586,14.581084872120092,13.876946509897016,58.44221096717654,50.31287905775558,9.71794142969884e-05,0.0971632748842239,0,0,0
4774,172231.1852038226,2010-12-08 12:24:17,4562.268933724692,2,16,0.5499359965324402,4.145906925201416,14.585671319165758,13.876946509897016,58.46121819944668,50.31287905775558,9.70840483205393e-05,0.0971632748842239,0,0,0
4775,172261.20025822608,2010-12-08 12:24:47,4592.283988113112,2,16,0.5501165986061096,4.149306774139404,14.590257687023572,13.876946509897016,58.480240886962896,50.31287905775558,9.71794142969884e-05,0.0971632748842239,0,0,0
4776,172291.21540013727,2010-12-08 12:25:17,4622.299130014305,2,16,0.550297200679779,4.152868270874023,14.594844114826842,13.876946509897016,58.49927963417898,50.31287905775558,9.71794142969884e-05,0.0971632748842239,0,0,0
4777,172321.2303200611,2010-12-08 12:25:47,4652.31404994814,2,16,0.5501165986061096,4.1562676429748535,14.599430496826097,13.876946509897016,58.51833394484108,50.31287905775558,9.70840483205393e-05,0.0971632748842239,0,0,0
4778,172351.2453247358,2010-12-08 12:26:17,4682.329054612825,2,16,0.5501165986061096,4.159829139709473,14.604016844972994,13.876946509897016,58.53740392297164,50.31287905775558,0.0001295089750783,0.0971632748842239,0,0,0
4779,172381.26036478853,2010-12-08 12:26:47,4712.3440946806095,2,16,0.5501165986061096,4.163228988647461,14.60860323611116,13.876946509897016,58.55649010439608,50.31287905775558,9.71794142969884e-05,0.0971632748842239,0,0,0
4780,172411.2754116482,2010-12-08 12:27:17,4742.359141525258,2,16,0.5501165986061096,4.16679048538208,14.613189677753086,13.876946509897016,58.5755926451853,50.31287905775558,9.71794142969884e-05,0.0971632748842239,0,0,0
4781,172441.29045410195,2010-12-08 12:27:47,4772.37418412434,2,16,0.5499359965324402,4.170351982116699,14.617776035906958,13.876946509897016,58.594711137893626,50.31287905775558,9.71794142969884e-05,0.0971632748842239,0,0,0
4782,172471.3054750772,2010-12-08 12:28:17,4802.389204979314,2,16,0.5499359965324402,4.173913478851318,14.6223623953527,13.876946509897016,58.61384600722936,50.31287905775558,9.71794142969884e-05,0.0971632748842239,0,0,0
4783,172501.3204762833,2010-12-08 12:28:47,4832.404206190405,2,16,0.550297200679779,4.177798748016357,14.626948802230103,13.876946509897016,58.63299748420974,50.31287905775558,0.0001619339018361,0.0971632748842239,0,0,0
4784,172531.335523544,2010-12-08 12:29:17,4862.419253451088,2,16,0.5501165986061096,4.181198120117188,14.631535187327293,13.876946509897016,58.65216552696613,50.31287905775558,9.70840483205393e-05,0.0971632748842239,0,0,0
4785,172561.3507854889,2010-12-08 12:29:47,4892.434515375955,2,16,0.5499359965324402,4.184759616851807,14.636121649247835,13.876946509897016,58.67135058194496,50.31287905775558,6.47544875391759e-05,0.0971632748842239,0,0,0
4786,172591.36556868246,2010-12-08 12:30:17,4922.449298574529,2,16,0.5501165986061096,4.188321113586426,14.640708000957954,13.876946509897016,58.69055186835321,50.31287905775558,6.47544875391759e-05,0.0971632748842239,0,0,0
4787,172621.38060643448,2010-12-08 12:30:47,4952.464336321538,2,16,0.5501165986061096,4.192206382751465,14.645294363216523,13.876946509897016,58.70977013589775,50.31287905775558,0.0001295089750783,0.0971632748842239,0,0,0
4788,172651.39563731442,2010-12-08 12:31:17,4982.479367221509,2,16,0.5501165986061096,4.195929527282715,14.649880795506874,13.876946509897016,58.72900576987557,50.31287905775558,6.47544875391759e-05,0.0971632748842239,0,0,0
4789,172681.4108969686,2010-12-08 12:31:47,5012.4946269459,2,16,0.5501165986061096,4.199653148651123,14.654467159048282,13.876946509897016,58.74825823518224,50.31287905775558,9.71794142969884e-05,0.0971632748842239,0,0,0
4790,172684.33262515685,2010-12-08 12:31:50,5015.416355134122,2,16,0.5501165986061096,4.200138568878174,14.654913617941704,13.876946509897016,58.75013329402512,50.31287905775558,0.0001295089750783,0.0971632748842239,0,0,0
4791,172714.34046853863,2010-12-08 12:32:20,30.0150404186572,3,16,0.0,4.108349800109863,14.654913617941704,13.876946509897016,58.75013329402512,50.31287905775558,-0.0003885269106831,0.0971632748842239,0,0,0
4792,172744.355485133,2010-12-08 12:32:50,60.030057013028575,3,16,0.0,4.096693992614746,14.654913617941704,13.876946509897016,58.75013329402512,50.31287905775558,-0.0002590179501567,0.0971632748842239,0,0,0
4793,172774.35670852856,2010-12-08 12:33:20,90.03128052384203,3,16,0.0,4.089732646942139,14.654913617941704,13.876946509897016,58.75013329402512,50.31287905775558,-0.0001619339018361,0.0971632748842239,0,0,0
4794,172804.33875585516,2010-12-08 12:33:50,120.01332785547112,3,16,0.0,4.08519983291626,14.654913617941704,13.876946509897016,58.75013329402512,50.31287905775558,-0.0001295089750783,0.0971632748842239,0,0,0
4795,172804.3496253328,2010-12-08 12:33:50,0.015619563683474,4,16,0.9991112947463988,4.199814796447754,14.654917992040843,13.876946509897016,58.75015166443141,50.31287905775558,0.0,0.0971632748842239,0,0,0
4796,172805.2403902019,2010-12-08 12:33:51,0.906384528037077,4,16,0.948901891708374,4.199653148651123,14.655157492195316,13.876946509897016,58.751157495680296,50.31287905775558,-3.23295607813634e-05,0.0971632748842239,0,0,0
4797,172807.31831765446,2010-12-08 12:33:53,2.984311905395349,4,16,0.8983312845230103,4.199653148651123,14.655689662513774,13.876946509897016,58.75339247489979,50.31287905775558,-3.23295607813634e-05,0.0971632748842239,0,0,0
4798,172810.49019713455,2010-12-08 12:33:56,6.15619146067329,4,16,0.8481219410896301,4.199653148651123,14.65645797586826,13.876946509897016,58.75661920584696,50.31287905775558,-3.23295607813634e-05,0.0971632748842239,0,0,0
4799,172814.7872988469,2010-12-08 12:34:01,10.453293193061194,4,16,0.7980931401252747,4.199814796447754,14.657439175226482,13.876946509897016,58.76073999237625,50.31287905775558,0.0,0.0971632748842239,0,0,0
4800,172820.44325657518,2010-12-08 12:34:06,16.109250916318686,4,16,0.748064398765564,4.199653148651123,14.65865237911158,13.876946509897016,58.76583515681512,50.31287905775558,0.0,0.0971632748842239,0,0,0
4801,172827.86479132393,2010-12-08 12:34:14,23.53078555983544,4,16,0.6980355978012085,4.199976921081543,14.66014076088032,13.876946509897016,58.77208601625626,50.31287905775558,3.24249267578125e-05,0.0971632748842239,0,0,0
4802,172837.70806336784,2010-12-08 12:34:24,33.374057403230346,4,16,0.6478262543678284,4.199653148651123,14.6619776470866,13.876946509897016,58.779800502695736,50.31287905775558,-3.23295607813634e-05,0.0971632748842239,0,0,0
4803,172851.64527777483,2010-12-08 12:34:38,47.311271709986,4,16,0.597436249256134,4.199653148651123,14.664383460564054,13.876946509897016,58.78990437123839,50.31287905775558,-3.23295607813634e-05,0.0971632748842239,0,0,0
4804,172873.08270907812,2010-12-08 12:34:59,68.74870332905344,4,16,0.5474074482917786,4.199653148651123,14.667781663092962,13.876946509897016,58.80417603749859,50.31287905775558,0.0,0.0971632748842239,0,0,0
4805,172910.39439345466,2010-12-08 12:35:36,106.0603877055596,4,16,0.4973787069320678,4.199653148651123,14.6731712545332,13.876946509897016,58.8268110611552,50.31287905775558,-3.23295607813634e-05,0.0971632748842239,0,0,0
4806,172980.7368275865,2010-12-08 12:36:47,176.40282192263055,4,16,0.4471693336963653,4.199653148651123,14.682357780387193,13.876946509897016,58.86539232714965,50.31287905775558,-3.23295607813634e-05,0.0971632748842239,0,0,0
4807,173089.65650082412,2010-12-08 12:38:36,285.3224951702892,4,16,0.3969599604606628,4.199814796447754,14.695106004291976,13.876946509897016,58.91893187446053,50.31287905775558,-3.24249267578125e-05,0.0971632748842239,0,0,0
4808,173225.01281770767,2010-12-08 12:40:51,420.67881176813074,4,16,0.3469311892986297,4.199653148651123,14.709077383358313,13.876946509897016,58.977608486778585,50.31287905775558,0.0,0.0971632748842239,0,0,0
4809,173387.3854148305,2010-12-08 12:43:33,583.051409081445,4,16,0.2969024181365967,4.199814796447754,14.723571235023911,13.876946509897016,59.03847934924601,50.31287905775558,0.0,0.0971632748842239,0,0,0
4810,173580.02227662198,2010-12-08 12:46:46,775.6882708578656,4,16,0.2468736320734024,4.199653148651123,14.738096167283777,13.876946509897016,59.09948155237634,50.31287905775558,0.0,0.0971632748842239,0,0,0
4811,173823.42365410825,2010-12-08 12:50:49,1019.0896483491612,4,16,0.1968448758125305,4.199653148651123,14.753063501020014,13.876946509897016,59.16234188316508,50.31287905775558,-6.47544875391759e-05,0.0971632748842239,0,0,0
4812,174145.46398835885,2010-12-08 12:56:11,1341.1299826098025,4,16,0.1468161046504974,4.199653148651123,14.768342186413776,13.876946509897016,59.22651002345438,50.31287905775558,-6.47544875391759e-05,0.0971632748842239,0,0,0
4813,174630.53268861797,2010-12-08 13:04:17,1826.1986828739207,4,16,0.0967873260378837,4.199814796447754,14.784521478862104,13.876946509897016,59.29446049134955,50.31287905775558,0.0,0.0971632748842239,0,0,0
4814,175535.7958313659,2010-12-08 13:19:22,2731.461825601786,4,16,0.0498289167881011,4.199814796447754,14.802238282552802,13.876946509897016,59.36886837689612,50.31287905775558,0.0,0.0971632748842239,0,0,0
4815,175565.81305313378,2010-12-08 13:19:52,30.014963006018824,5,16,0.0,4.191235065460205,14.802238282552802,13.876946509897016,59.36886837689612,50.31287905775558,-6.47544875391759e-05,0.0971632748842239,0,0,0
4816,175595.81250157743,2010-12-08 13:20:22,60.01441151982048,5,16,0.0,4.189939975738525,14.802238282552802,13.876946509897016,59.36886837689612,50.31287905775558,-3.24249267578125e-05,0.0971632748842239,0,0,0
4817,175596.00335656162,2010-12-08 13:20:22,0.187487199685371,6,16,-1.9243103452026844e-05,4.189939975738525,14.802238282552802,13.876946510899192,59.36886837689612,50.312879061954646,0.0,0.1011203974485397,0,0,0
4818,175600.8317738774,2010-12-08 13:20:27,5.015904600679384,6,16,0.0010644125286489,4.1901021003723145,14.802239419130608,13.876946511084238,59.36887313920854,50.31287906272998,0.0,0.1011203974485397,0,0,0
4819,175630.8498752157,2010-12-08 13:20:57,30.01499543672137,7,16,-1.0997490882873535,3.99940037727356,14.802239419130608,13.886113904591507,59.36887313920854,50.34975885220805,-0.0010361194144934,0.1011203974485397,0,0,0
4820,175660.8648988075,2010-12-08 13:21:27,60.03001901346813,7,16,-1.099568486213684,3.969451665878296,14.802239419130608,13.895281278520608,59.36887313920854,50.3862761902702,-0.0006475448608398,0.1011203974485397,0,0,0
4821,175690.88005774107,2010-12-08 13:21:57,90.04517794704515,7,16,-1.0993878841400146,3.948568344116211,14.802239419130608,13.904448610429974,59.36887313920854,50.422565057760735,-0.0004856586456298,0.1011203974485397,0,0,0
4822,175720.89517298594,2010-12-08 13:22:27,120.06029322197932,7,16,-1.0997490882873535,3.932055950164795,14.802239419130608,13.913615924851108,59.36887313920854,50.45868559219287,-0.0004856586456298,0.1011203974485397,0,0,0
4823,175750.9100995162,2010-12-08 13:22:57,150.07521972215474,7,16,-1.099568486213684,3.918457508087158,14.802239419130608,13.922783165930756,59.36887313920854,50.49466981222977,-0.0003561496851034,0.1011203974485397,0,0,0
4824,175780.92525218418,2010-12-08 13:23:27,180.09037241520244,7,16,-1.0993878841400146,3.9064781665802,14.802239419130608,13.931950486577032,59.36887313920854,50.53053623330129,-0.0002590179501567,0.1011203974485397,0,0,0
4825,175810.94007126705,2010-12-08 13:23:57,210.10519147301167,7,16,-1.099568486213684,3.894984245300293,14.802239419130608,13.941117754038412,59.36887313920854,50.56629453922963,-0.0002913951757363,0.1011203974485397,0,0,0
4826,175840.95852999706,2010-12-08 13:24:27,240.1236502932297,7,16,-1.099568486213684,3.8844616413116455,14.802239419130608,13.950286049449764,59.36887313920854,50.6019572182277,-0.0002913951757363,0.1011203974485397,0,0,0
4827,175870.97014274605,2010-12-08 13:24:57,270.13526296707573,7,16,-1.099568486213684,3.874262809753418,14.802239419130608,13.959452316165086,59.36887313920854,50.63751754724231,-0.0002913951757363,0.1011203974485397,0,0,0
4828,175900.9851658316,2010-12-08 13:25:27,300.1502860375627,7,16,-1.099568486213684,3.8647115230560303,14.802239419130608,13.968619641537767,59.36887313920854,50.67299127966414,-0.0002590179501567,0.1011203974485397,0,0,0
4829,175931.00021598447,2010-12-08 13:25:57,330.1653362104931,7,16,-1.099568486213684,3.855322122573853,14.802239419130608,13.977786967509896,59.36887313920854,50.70837710924299,-0.0002590179501567,0.1011203974485397,0,0,0
4830,175961.01523858382,2010-12-08 13:26:27,360.1803587897576,7,16,-1.0993878841400146,3.8460946083068848,14.802239419130608,13.98695428848622,59.36887313920854,50.74367737849662,-0.0002266406954731,0.1011203974485397,0,0,0
4831,175991.03041547205,2010-12-08 13:26:57,390.19553567801415,7,16,-1.099568486213684,3.837028980255127,14.802239419130608,13.99612164194073,59.36887313920854,50.778894647605135,-0.0002590179501567,0.1011203974485397,0,0,0
4832,176021.045526747,2010-12-08 13:27:27,420.2106469529946,7,16,-1.0993878841400146,3.828449249267578,14.802239419130608,14.005289028870395,59.36887313920854,50.81403066198382,-0.0002266406954731,0.1011203974485397,0,0,0
4833,176051.06051768255,2010-12-08 13:27:57,450.22563797873937,7,16,-1.0993878841400146,3.81970739364624,14.802239419130608,14.01445636975822,59.36887313920854,50.84908675501535,-0.0002266406954731,0.1011203974485397,0,0,0
4834,176081.07536885026,2010-12-08 13:28:27,480.2404890712658,7,16,-1.099568486213684,3.811289310455322,14.802239419130608,14.023623671909249,59.36887313920854,50.88406486823119,-0.0002266406954731,0.1011203974485397,0,0,0
4835,176111.0903766778,2010-12-08 13:28:57,510.2554968837839,7,16,-1.0997490882873535,3.802871227264404,14.802239419130608,14.032791069903643,59.36887313920854,50.91896687938763,-0.0002590179501567,0.1011203974485397,0,0,0
4836,176141.10542276056,2010-12-08 13:29:27,540.2705429815734,7,16,-1.0993878841400146,3.795100688934326,14.802239419130608,14.041958384990142,59.36887313920854,50.95379432745781,-0.0002266406954731,0.1011203974485397,0,0,0
4837,176171.12043010694,2010-12-08 13:29:57,570.2855503128941,7,16,-1.0997490882873535,3.787168264389038,14.802239419130608,14.051125824357532,59.36887313920854,50.98854975701983,-0.0002266406954731,0.1011203974485397,0,0,0
4838,176201.13546799932,2010-12-08 13:30:27,600.3005882052646,7,16,-1.099568486213684,3.77972149848938,14.802239419130608,14.060293221580253,59.36887313920854,51.02323399281768,-0.0001618862152099,0.1011203974485397,0,0,0
4839,176231.1504861325,2010-12-08 13:30:57,630.3156063384654,7,16,-1.099568486213684,3.772112846374512,14.802239419130608,14.069460635557784,59.36887313920854,51.05784886329869,-0.0001942634553415,0.1011203974485397,0,0,0
4840,176261.16556904692,2010-12-08 13:31:28,660.330689257884,7,16,-1.099568486213684,3.764827966690064,14.802239419130608,14.078628008736914,59.36887313920854,51.09239593551336,-0.0001942634553415,0.1011203974485397,0,0,0
4841,176291.18096219332,2010-12-08 13:31:58,690.346082419328,7,16,-1.099568486213684,3.757704973220825,14.802239419130608,14.087795589787127,59.36887313920854,51.12687778735344,-0.0002266406954731,0.1011203974485397,0,0,0
4842,176321.19590073344,2010-12-08 13:32:28,720.3610210246267,7,16,-1.099568486213684,3.750744104385376,14.802239419130608,14.096962996104732,59.36887313920854,51.16129372149818,-0.0001618862152099,0.1011203974485397,0,0,0
4843,176351.21075865795,2010-12-08 13:32:58,750.3758788639423,7,16,-1.0992072820663452,3.744106769561768,14.802239419130608,14.106130357961868,59.36887313920854,51.19564658138527,-0.0001295089750783,0.1011203974485397,0,0,0
4844,176381.22563511363,2010-12-08 13:33:28,780.3907553346211,7,16,-1.099568486213684,3.7371456623077393,14.802239419130608,14.115297704962607,59.36887313920854,51.22993759143559,-0.0001942634553415,0.1011203974485397,0,0,0
4845,176411.24067824904,2010-12-08 13:33:58,810.4057985251761,7,16,-1.099568486213684,3.730832099914551,14.802239419130608,14.124465133325186,59.36887313920854,51.26416849097296,-0.0001618862152099,0.1011203974485397,0,0,0
4846,176441.2557161364,2010-12-08 13:34:28,840.4208363423597,7,16,-1.0997490882873535,3.724356651306152,14.802239419130608,14.133632477399177,59.36887313920854,51.298340485543385,-0.0001618862152099,0.1011203974485397,0,0,0
4847,176471.27075685578,2010-12-08 13:34:58,870.4358770617653,7,16,-1.0993878841400146,3.718204975128174,14.802239419130608,14.142799850781818,59.36887313920854,51.33245448861974,-0.0001295089750783,0.1011203974485397,0,0,0
4848,176501.28575904432,2010-12-08 13:35:28,900.4508792502883,7,16,-1.099568486213684,3.711891412734986,14.802239419130608,14.15196720221106,59.36887313920854,51.36651083128281,-0.0001942634553415,0.1011203974485397,0,0,0
4849,176531.3007975883,2010-12-08 13:35:58,930.4659177942804,7,16,-1.0993878841400146,3.705739736557007,14.802239419130608,14.161134576305384,59.36887313920854,51.40051064462904,-0.0001618862152099,0.1011203974485397,0,0,0
4850,176561.31942261715,2010-12-08 13:36:28,960.4845429333764,7,16,-1.0997490882873535,3.699911832809448,14.802239419130608,14.17030311167908,59.36887313920854,51.434459669729605,-0.0001295089750783,0.1011203974485397,0,0,0
4851,176591.3309806049,2010-12-08 13:36:58,990.496100810864,7,16,-1.099568486213684,3.69392204284668,14.802239419130608,14.179469441335243,59.36887313920854,51.46834735581048,-0.0001618862152099,0.1011203974485397,0,0,0
4852,176621.3313377949,2010-12-08 13:37:28,1020.4964580008714,7,16,-1.099568486213684,3.688094139099121,14.802239419130608,14.18863238985768,59.36887313920854,51.50216852999914,-0.0001942634553415,0.1011203974485397,0,0,0
4853,176651.34510155162,2010-12-08 13:37:58,1050.510221752592,7,16,-1.0997490882873535,3.6822662353515625,14.802239419130608,14.197794778448827,59.36887313920854,51.53593409186021,-0.0001942634553415,0.1011203974485397,0,0,0
4854,176681.36031615373,2010-12-08 13:38:28,1080.5254363597105,7,16,-1.099568486213684,3.676762104034424,14.802239419130608,14.206966792360191,59.36887313920854,51.56968263264323,-9.713172767078504e-05,0.1011203974485397,0,0,0
4855,176711.37538751942,2010-12-08 13:38:58,1110.5405077253783,7,16,-1.0993878841400146,3.6710963249206543,14.802239419130608,14.216134209165922,59.36887313920854,51.603362514531646,-0.0001618862152099,0.1011203974485397,0,0,0
4856,176741.39038235464,2010-12-08 13:39:28,1140.5555025606027,7,16,-1.099568486213684,3.665592193603516,14.802239419130608,14.225301674666268,59.36887313920854,51.636991353047,-0.0001618862152099,0.1011203974485397,0,0,0
4857,176771.40543277818,2010-12-08 13:39:58,1170.5705529841566,7,16,-1.0993878841400146,3.660088062286377,14.802239419130608,14.234469044649376,59.36887313920854,51.67056991344565,-0.0001942634553415,0.1011203974485397,0,0,0
4858,176801.42048432454,2010-12-08 13:40:28,1200.5856046006793,7,16,-1.099568486213684,3.654745817184448,14.802239419130608,14.243636438259967,59.36887313920854,51.70409909607462,-0.0001942634553415,0.1011203974485397,0,0,0
4859,176831.43906053688,2010-12-08 13:40:58,1230.6041808681605,7,16,-1.0993878841400146,3.6495654582977295,14.802239419130608,14.25280498781007,59.36887313920854,51.73758376937855,-0.0001295089750783,0.1011203974485397,0,0,0
4860,176861.450691817,2010-12-08 13:41:28,1260.6158120229957,7,16,-1.0993878841400146,3.6443850994110103,14.802239419130608,14.261971320671863,59.36887313920854,51.77101266635239,-0.0001618862152099,0.1011203974485397,0,0,0
4861,176891.46563992096,2010-12-08 13:41:58,1290.6307602372058,7,16,-1.0993878841400146,3.639366626739502,14.802239419130608,14.271138634758053,59.36887313920854,51.80439909318691,-0.0001295089750783,0.1011203974485397,0,0,0
4862,176921.48061043065,2010-12-08 13:42:28,1320.6457307318597,7,16,-1.0993878841400146,3.634348154067993,14.802239419130608,14.28030604872788,59.36887313920854,51.83773978183578,-0.0001295089750783,0.1011203974485397,0,0,0
4863,176951.49561433346,2010-12-08 13:42:58,1350.6607345394116,7,16,-1.099568486213684,3.629329681396485,14.802239419130608,14.289473471702149,59.36887313920854,51.8710348579962,-0.0001618862152099,0.1011203974485397,0,0,0
4864,176981.5106291133,2010-12-08 13:43:28,1380.6757493192674,7,16,-1.099568486213684,3.624634981155396,14.802239419130608,14.298640841509616,59.36887313920854,51.90428431790836,-9.713172767078504e-05,0.1011203974485397,0,0,0
4865,177011.52583345489,2010-12-08 13:43:58,1410.6909537711151,7,16,-1.099568486213684,3.6197783946990967,14.802239419130608,14.307808313962251,59.36887313920854,51.93749035147263,-0.0001295089750783,0.1011203974485397,0,0,0
4866,177041.54071602074,2010-12-08 13:44:28,1440.705836241725,7,16,-1.099568486213684,3.615083694458008,14.802239419130608,14.316975681006276,59.36887313920854,51.97065263921319,-0.0001295089750783,0.1011203974485397,0,0,0
4867,177071.55572438962,2010-12-08 13:44:58,1470.7208445955898,7,16,-1.099568486213684,3.610550880432129,14.802239419130608,14.326143079650882,59.36887313920854,52.00377268573858,-0.0001295089750783,0.1011203974485397,0,0,0
4868,177101.57074584108,2010-12-08 13:45:28,1500.7358660470477,7,16,-1.099568486213684,3.60617995262146,14.802239419130608,14.33531050243282,59.36887313920854,52.03685156477673,-9.713172767078504e-05,0.1011203974485397,0,0,0
4869,177131.5859995956,2010-12-08 13:45:58,1530.7511198717575,7,16,-1.099568486213684,3.601647138595581,14.802239419130608,14.34447795941975,59.36887313920854,52.06988992856379,-0.0001295089750783,0.1011203974485397,0,0,0
4870,177161.60084897888,2010-12-08 13:46:28,1560.7659691998936,7,16,-1.099568486213684,3.597599983215332,14.802239419130608,14.353645342403087,59.36887313920854,52.102888111819965,-3.237724376958795e-05,0.1011203974485397,0,0,0
4871,177191.6160292305,2010-12-08 13:46:58,1590.7811494465072,7,16,-1.0997490882873535,3.593067169189453,14.802239419130608,14.362812807997296,59.36887313920854,52.135847969547925,-0.0001618862152099,0.1011203974485397,0,0,0
4872,177221.6308627443,2010-12-08 13:47:28,1620.7959829653023,7,16,-1.099568486213684,3.589182138442993,14.802239419130608,14.371980172468175,59.36887313920854,52.16876970700515,-9.713172767078504e-05,0.1011203974485397,0,0,0
4873,177251.64587184,2010-12-08 13:47:58,1650.8109920560007,7,16,-1.0993878841400146,3.585458755493164,14.802239419130608,14.381147637364313,59.36887313920854,52.20165513508735,-6.47544875391759e-05,0.1011203974485397,0,0,0
4874,177281.66102767087,2010-12-08 13:48:28,1680.8261478918694,7,16,-1.099568486213684,3.581411600112915,14.802239419130608,14.390315161445798,59.36887313920854,52.234505417718026,-9.713172767078504e-05,0.1011203974485397,0,0,0
4875,177311.67618796282,2010-12-08 13:48:58,1710.8413082389638,7,16,-1.0993878841400146,3.577688217163086,14.802239419130608,14.399482641021656,59.36887313920854,52.26732115442768,-0.0001295089750783,0.1011203974485397,0,0,0
4876,177341.690996324,2010-12-08 13:49:28,1740.8561165500305,7,16,-1.099568486213684,3.573964834213257,14.802239419130608,14.408650049706496,59.36887313920854,52.30010263492809,-0.0001295089750783,0.1011203974485397,0,0,0
4877,177371.70600472798,2010-12-08 13:49:58,1770.8711249490077,7,16,-1.099568486213684,3.5704033374786377,14.802239419130608,14.417817453698074,59.36887313920854,52.332851110180094,-0.0001295089750783,0.1011203974485397,0,0,0
4878,177401.7212983668,2010-12-08 13:50:28,1800.8864186629808,7,16,-1.099568486213684,3.5668418407440186,14.802239419130608,14.426984846608828,59.36887313920854,52.36556687852551,-0.0001295089750783,0.1011203974485397,0,0,0
4879,177431.7361521059,2010-12-08 13:50:58,1830.9012723118683,7,16,-1.0993878841400146,3.5634422302246094,14.802239419130608,14.436152136406374,59.36887313920854,52.39825006618072,-9.713172767078504e-05,0.1011203974485397,0,0,0
4880,177461.75126794222,2010-12-08 13:51:28,1860.916388153212,7,16,-1.099568486213684,3.5600426197052,14.802239419130608,14.44531945012326,59.36887313920854,52.430902646251326,-9.713172767078504e-05,0.1011203974485397,0,0,0
4881,177491.76612947072,2010-12-08 13:51:58,1890.931249676696,7,16,-1.0993878841400146,3.556804895401001,14.802239419130608,14.454486731800763,59.36887313920854,52.46352407919879,-6.47544875391759e-05,0.1011203974485397,0,0,0
4882,177521.78116810994,2010-12-08 13:52:28,1920.946288330962,7,16,-1.0993878841400146,3.553405284881592,14.802239419130608,14.463654067535868,59.36887313920854,52.496114907718514,-9.713172767078504e-05,0.1011203974485397,0,0,0
4883,177551.79623687916,2010-12-08 13:52:58,1950.961357085131,7,16,-1.099568486213684,3.5500056743621826,14.802239419130608,14.4728214429953,59.36887313920854,52.52867529594744,-9.713172767078504e-05,0.1011203974485397,0,0,0
4884,177581.8113595575,2010-12-08 13:53:28,1980.976479763488,7,16,-1.0993878841400146,3.5469298362731934,14.802239419130608,14.48198873445354,59.36887313920854,52.56120515388575,-6.47544875391759e-05,0.1011203974485397,0,0,0
4885,177611.82625136638,2010-12-08 13:53:58,2010.991371572336,7,16,-1.099568486213684,3.543530225753784,14.802239419130608,14.49115607351458,59.36887313920854,52.593704965332506,-6.47544875391759e-05,0.1011203974485397,0,0,0
4886,177641.84128407584,2010-12-08 13:54:28,2041.006404281809,7,16,-1.099568486213684,3.540130615234375,14.802239419130608,14.500323411737682,59.36887313920854,52.6261744928536,-9.713172767078504e-05,0.1011203974485397,0,0,0
4887,177671.8564987782,2010-12-08 13:54:58,2071.0216189841644,7,16,-1.099568486213684,3.5370547771453857,14.802239419130608,14.50949080266378,59.36887313920854,52.658614231800605,-6.47544875391759e-05,0.1011203974485397,0,0,0
4888,177701.8713863966,2010-12-08 13:55:28,2101.0365066176214,7,16,-1.099568486213684,3.533655166625977,14.802239419130608,14.518658154701193,59.36887313920854,52.69102355002397,-9.713172767078504e-05,0.1011203974485397,0,0,0
4889,177731.886606728,2010-12-08 13:55:58,2131.0517269489847,7,16,-1.099568486213684,3.5302555561065674,14.802239419130608,14.527825561216089,59.36887313920854,52.72340246637196,-9.713172767078504e-05,0.1011203974485397,0,0,0
4890,177761.9014296855,2010-12-08 13:56:28,2161.0665499115107,7,16,-1.099568486213684,3.526855945587158,14.802239419130608,14.536992858526036,59.36887313920854,52.75575091840666,-0.0001295089750783,0.1011203974485397,0,0,0
4891,177791.9198545863,2010-12-08 13:56:58,2191.084974882496,7,16,-1.0993878841400146,3.523456335067749,14.802239419130608,14.54616124011209,59.36887313920854,52.7880722648228,-9.713172767078504e-05,0.1011203974485397,0,0,0
4892,177821.93148275872,2010-12-08 13:57:28,2221.096602964685,7,16,-1.099568486213684,3.52005672454834,14.802239419130608,14.555327572943026,59.36887313920854,52.82035520931518,-0.0001295089750783,0.1011203974485397,0,0,0
4893,177851.9465050823,2010-12-08 13:57:58,2251.111625288314,7,16,-1.099568486213684,3.5166571140289307,14.802239419130608,14.564494912380075,59.36887313920854,52.85260970477383,-3.237724376958795e-05,0.1011203974485397,0,0,0
4894,177881.96152650373,2010-12-08 13:58:28,2281.1266467247347,7,16,-1.0993878841400146,3.5130956172943115,14.802239419130608,14.573662290592528,59.36887313920854,52.88483158611744,-9.713172767078504e-05,0.1011203974485397,0,0,0
4895,177911.97657720296,2010-12-08 13:58:58,2311.141697408937,7,16,-1.0993878841400146,3.509372472763061,14.802239419130608,14.582829676457065,59.36887313920854,52.91702054625926,-6.47544875391759e-05,0.1011203974485397,0,0,0
4896,177941.9916304686,2010-12-08 13:59:28,2341.156750674564,7,16,-1.099568486213684,3.5054872035980225,14.802239419130608,14.591997035131715,59.36887313920854,52.94917480883877,-9.713172767078504e-05,0.1011203974485397,0,0,0
4897,177972.00670954344,2010-12-08 13:59:58,2371.1718297694647,7,16,-1.0993878841400146,3.5016019344329834,14.802239419130608,14.60116450298166,59.36887313920854,52.98129382601779,-9.713172767078504e-05,0.1011203974485397,0,0,0
4898,178002.02170187744,2010-12-08 14:00:28,2401.186822103465,7,16,-1.099568486213684,3.4973928928375244,14.802239419130608,14.610331841671876,59.36887313920854,53.01337498733208,-0.0001295089750783,0.1011203974485397,0,0,0
4899,178032.03671947934,2010-12-08 14:00:58,2431.2018396852936,7,16,-1.099568486213684,3.4930219650268555,14.802239419130608,14.619499196838625,59.36887313920854,53.04541662603068,-0.0001295089750783,0.1011203974485397,0,0,0
4900,178062.05171680576,2010-12-08 14:01:28,2461.21683701673,7,16,-1.099568486213684,3.4883272647857666,14.802239419130608,14.62866651985969,59.36887313920854,53.07741629145056,-9.713172767078504e-05,0.1011203974485397,0,0,0
4901,178092.06675471316,2010-12-08 14:01:58,2491.231874934163,7,16,-1.0993878841400146,3.483146905899048,14.802239419130608,14.637833862583156,59.36887313920854,53.10937100124456,-0.0001295089750783,0.1011203974485397,0,0,0
4902,178122.08176919728,2010-12-08 14:02:28,2521.246889423296,7,16,-1.099568486213684,3.477480888366699,14.802239419130608,14.64700118440702,59.36887313920854,53.14127602837281,-0.0001618862152099,0.1011203974485397,0,0,0
4903,178152.09694509808,2010-12-08 14:02:58,2551.2620653090576,7,16,-1.099568486213684,3.4713292121887207,14.802239419130608,14.656168586417207,59.36887313920854,53.173127703382704,-0.0001942634553415,0.1011203974485397,0,0,0
4904,178182.11198534633,2010-12-08 14:03:28,2581.277105567316,7,16,-1.099568486213684,3.4645299911499023,14.802239419130608,14.665335908101014,59.36887313920854,53.204919815347374,-0.0001942634553415,0.1011203974485397,0,0,0
4905,178212.12694145014,2010-12-08 14:03:59,2611.2920617212835,7,16,-1.0993878841400146,3.456921339035034,14.802239419130608,14.674503222676952,59.36887313920854,53.23664580134904,-0.0001942634553415,0.1011203974485397,0,0,0
4906,178242.1420685896,2010-12-08 14:04:29,2641.3071888106174,7,16,-1.099568486213684,3.4480175971984863,14.802239419130608,14.68367058751808,59.36887313920854,53.26829683311339,-0.0002590179501567,0.1011203974485397,0,0,0
4907,178272.1570290794,2010-12-08 14:04:59,2671.3221492853368,7,16,-1.099568486213684,3.437818765640259,14.802239419130608,14.692837874093378,59.36887313920854,53.29986102253618,-0.0002913951757363,0.1011203974485397,0,0,0
4908,178302.1720888562,2010-12-08 14:05:29,2701.3372090671787,7,16,-1.099568486213684,3.425677537918091,14.802239419130608,14.70200514254401,59.36887313920854,53.3313221370784,-0.0003237724304199,0.1011203974485397,0,0,0
4909,178332.18699117118,2010-12-08 14:05:59,2731.3521113771576,7,16,-1.099568486213684,3.4107840061187744,14.802239419130608,14.71117248406368,59.36887313920854,53.36265986605888,-0.0004209041653666,0.1011203974485397,0,0,0
4910,178362.20201505368,2010-12-08 14:06:29,2761.367135274703,7,16,-1.099568486213684,3.392328977584839,14.802239419130608,14.72034024522565,59.36887313920854,53.39384716673061,-0.0005504131549969,0.1011203974485397,0,0,0
4911,178392.21708335174,2010-12-08 14:06:59,2791.3822035727367,7,16,-1.099568486213684,3.3688554763793945,14.802239419130608,14.729508445588223,59.36887313920854,53.42484505195714,-0.0007122993702068,0.1011203974485397,0,0,0
4912,178422.2320846781,2010-12-08 14:07:29,2821.3972048991145,7,16,-1.0997490882873535,3.338582992553711,14.802239419130608,14.738676562503056,59.36887313920854,53.45559767951598,-0.0008741855854168,0.1011203974485397,0,0,0
4913,178452.24710937764,2010-12-08 14:07:59,2851.412229598655,7,16,-1.099568486213684,3.2985970973968506,14.802239419130608,14.747844658174763,59.36887313920854,53.48603064124062,-0.0011979580158367,0.1011203974485397,0,0,0
4914,178482.26217915938,2010-12-08 14:08:29,2881.427299365344,7,16,-1.0993878841400146,3.2448511123657227,14.802239419130608,14.757012301132756,59.36887313920854,53.51603777426368,-0.0016512393485754,0.1011203974485397,0,0,0
4915,178512.277817922,2010-12-08 14:08:59,2911.442938193119,7,16,-1.0993878841400146,3.1702218055725098,14.802239419130608,14.766179769946328,59.36887313920854,53.54546269723138,-0.0022340298164635,0.1011203974485397,0,0,0
4916,178542.27989046057,2010-12-08 14:09:29,2941.445010756768,7,16,-1.099568486213684,3.061110734939575,14.802239419130608,14.77534299899437,59.36887313920854,53.57404536712764,-0.0033996105194091,0.1011203974485397,0,0,0
4917,178572.29172110683,2010-12-08 14:09:59,2971.456841393005,7,16,-1.099568486213684,2.8742945194244385,14.802239419130608,14.784509227054572,59.36887313920854,53.6013368808043,-0.0064754486083984,0.1011203974485397,0,0,0
4918,178590.35377065744,2010-12-08 14:10:17,2989.5188908784557,7,16,-1.099568486213684,2.699620008468628,14.802239419130608,14.790025748832829,59.36887313920854,53.61672886948395,-0.0083532808348536,0.1011203974485397,0,0,0
4919,178650.36893660697,2010-12-08 14:11:17,60.014904040439085,8,16,0.0,3.412402868270874,14.802239419130608,14.790025748832829,59.36887313920854,53.61672886948395,0.0012627125252038,0.1011203974485397,0,0,0
4920,178650.55810121683,2010-12-08 14:11:17,0.187714961461791,9,16,-1.9243103452026844e-05,3.412402868270874,14.802239419130608,14.790025749836223,59.36887313920854,53.616728872907935,0.0,0.0963535830378532,0,0,0
4921,178655.3857601354,2010-12-08 14:11:22,5.015373849926548,9,16,0.0008838032954372,3.420335292816162,14.802240497751868,14.790025749918524,59.36887682504543,53.61672887318878,0.0010684489971026,0.0963535830378532,0,0,0
