Data_Point,Test_Time(s),Date_Time,Step_Time(s),Step_Index,Cycle_Index,Current(A),Voltage(V),Charge_Capacity(Ah),Discharge_Capacity(Ah),Charge_Energy(Wh),Discharge_Energy(Wh),dV/dt(V/s),Internal_Resistance(Ohm),Is_FC_Data,AC_Impedance(Ohm),ACI_Phase_Angle(Deg)
5832,211994.60886489128,2010-12-08 23:27:05,30.01499313098364,1,20,0.0,3.42875337600708,17.539277365759176,17.531658320852237,70.35704469976055,63.54492583073248,0.0007122993702068,0.0931989923119545,0,0,0
5833,212024.6240656239,2010-12-08 23:27:35,60.03019387861332,1,20,0.0,3.452874183654785,17.539277365759176,17.531658320852237,70.35704469976055,63.54492583073248,0.0005504131549969,0.0931989923119545,0,0,0
5834,212054.63892459605,2010-12-08 23:28:05,90.04505285074782,1,20,0.0,3.4713292121887207,17.539277365759176,17.531658320852237,70.35704469976055,63.54492583073248,0.0004532813909463,0.0931989923119545,0,0,0
5835,212084.60716089443,2010-12-08 23:28:35,120.01328913411452,1,20,0.0,3.4857370853424072,17.539277365759176,17.531658320852237,70.35704469976055,63.54492583073248,0.0003561496851034,0.0931989923119545,0,0,0
5836,212114.6242162826,2010-12-08 23:29:05,30.015196341665607,2,20,0.5499359965324402,3.640823602676392,17.543864681881107,17.531658320852237,70.37359784125036,63.54492583073248,0.0014245987404137,0.0931989923119545,0,0,0
5837,212144.64268929817,2010-12-08 23:29:35,60.0336694574576,2,20,0.5501165986061096,3.6825900077819824,17.548452438349035,17.531658320852237,70.39040367055216,63.54492583073248,0.0009065627818927,0.0931989923119545,0,0,0
5838,212174.6545077741,2010-12-08 23:30:05,90.04548792340941,2,20,0.5501165986061096,3.712538957595825,17.553039198322363,17.531658320852237,70.40736735388927,63.54492583073248,0.0007122993702068,0.0931989923119545,0,0,0
5839,212204.6692182668,2010-12-08 23:30:35,120.06019834087132,2,20,0.550297200679779,3.73585057258606,17.557626358554106,17.531658320852237,70.42445300847145,63.54492583073248,0.0006151676061563,0.0931989923119545,0,0,0
5840,212234.6842691665,2010-12-08 23:31:05,150.07524923559782,2,20,0.5501165986061096,3.753819704055786,17.562213539193305,17.531658320852237,70.44163287152831,63.54492583073248,0.0004208564641885,0.0931989923119545,0,0,0
5841,212264.6993419758,2010-12-08 23:31:35,180.09032204485777,2,20,0.550297200679779,3.767094373703003,17.566800731409522,17.531658320852237,70.45888450812723,63.54492583073248,0.0003237724304199,0.0931989923119545,0,0,0
5842,212294.7143921888,2010-12-08 23:32:05,210.10537225788792,2,20,0.5501165986061096,3.775674343109131,17.571387866110445,17.531658320852237,70.47618557030339,63.54492583073248,0.0001618862152099,0.0931989923119545,0,0,0
5843,212324.7294501461,2010-12-08 23:32:35,240.12043020015196,2,20,0.550297200679779,3.781826019287109,17.57597506107489,17.531658320852237,70.49352013489019,63.54492583073248,0.0001618862152099,0.0931989923119545,0,0,0
5844,212354.74452262453,2010-12-08 23:33:05,270.13550269863856,2,20,0.5499359965324402,3.786844491958618,17.580562226874164,17.531658320852237,70.51087993927125,63.54492583073248,0.0001295089750783,0.0931989923119545,0,0,0
5845,212384.75977841413,2010-12-08 23:33:35,300.1507584832256,2,20,0.5501165986061096,3.791539192199707,17.585149466808375,17.531658320852237,70.52826238713736,63.54492583073248,0.0001295089750783,0.0931989923119545,0,0,0
5846,212414.77471280392,2010-12-08 23:34:05,330.1656928630091,2,20,0.5501165986061096,3.795910120010376,17.589736625872796,17.531658320852237,70.54566544587686,63.54492583073248,6.47544875391759e-05,0.0931989923119545,0,0,0
5847,212444.78987025883,2010-12-08 23:34:35,360.18085031790645,2,20,0.5501165986061096,3.800119161605835,17.59432380250546,17.531658320852237,70.56308834349171,63.54492583073248,9.713172767078504e-05,0.0931989923119545,0,0,0
5848,212474.80471940653,2010-12-08 23:35:05,390.19569948063065,2,20,0.5501165986061096,3.804490089416504,17.598910942003243,17.531658320852237,70.58052999889654,63.54492583073248,0.0001295089750783,0.0931989923119545,0,0,0
5849,212504.81979498768,2010-12-08 23:35:35,420.2107751119131,2,20,0.550297200679779,3.808375358581543,17.603498176541425,17.531658320852237,70.59799033912036,63.54492583073248,0.0001295089750783,0.0931989923119545,0,0,0
5850,212534.83497959017,2010-12-08 23:36:05,450.22595966424143,2,20,0.550297200679779,3.812098741531372,17.6080854251779,17.531658320852237,70.61546849579707,63.54492583073248,9.713172767078504e-05,0.0931989923119545,0,0,0
5851,212564.8500258684,2010-12-08 23:36:36,480.24100594248,2,20,0.550297200679779,3.815984010696411,17.612672569751545,17.531658320852237,70.63296384541944,63.54492583073248,9.713172767078504e-05,0.0931989923119545,0,0,0
5852,212594.8651313941,2010-12-08 23:37:06,510.25611153832807,2,20,0.5501165986061096,3.8195455074310303,17.617259766449582,17.531658320852237,70.65047649604308,63.54492583073248,6.47544875391759e-05,0.0931989923119545,0,0,0
5853,212624.8801885293,2010-12-08 23:37:36,540.2711685883718,2,20,0.550297200679779,3.8231070041656494,17.621847134062158,17.531658320852237,70.66800659084707,63.54492583073248,6.47544875391759e-05,0.0931989923119545,0,0,0
5854,212654.89508681928,2010-12-08 23:38:06,570.2860668733348,2,20,0.550297200679779,3.8268303871154794,17.626434283446063,17.531658320852237,70.68555249090055,63.54492583073248,9.713172767078504e-05,0.0931989923119545,0,0,0
5855,212684.9102322643,2010-12-08 23:38:36,600.3012123333835,2,20,0.5501165986061096,3.830229997634888,17.63102157984136,17.531658320852237,70.70311562418138,63.54492583073248,6.47544875391759e-05,0.0931989923119545,0,0,0
5856,212714.9253792732,2010-12-08 23:39:06,630.3163593472989,2,20,0.550297200679779,3.834115028381348,17.635608904341467,17.531658320852237,70.72069552664628,63.54492583073248,0.0001295089750783,0.0931989923119545,0,0,0
5857,212744.93998145632,2010-12-08 23:39:36,660.3309614953365,2,20,0.550297200679779,3.837676525115967,17.6401938500081,17.531658320852237,70.73828306240429,63.54492583073248,6.47544875391759e-05,0.0931989923119545,0,0,0
5858,212774.95532281385,2010-12-08 23:40:06,690.3463028829433,2,20,0.5501165986061096,3.841399908065796,17.644783553328704,17.531658320852237,70.75590571066344,63.54492583073248,9.713172767078504e-05,0.0931989923119545,0,0,0
5859,212804.97039736743,2010-12-08 23:40:36,720.3613774315315,2,20,0.5499359965324402,3.845123291015625,17.64937082797805,17.531658320852237,70.77353593399278,63.54492583073248,9.713172767078504e-05,0.0931989923119545,0,0,0
5860,212834.985436543,2010-12-08 23:41:06,750.3764166171203,2,20,0.550297200679779,3.848846673965454,17.653958071888976,17.531658320852237,70.79118299494017,63.54492583073248,9.713172767078504e-05,0.0931989923119545,0,0,0
5861,212865.00398506643,2010-12-08 23:41:36,780.3949652257735,2,20,0.550297200679779,3.852570056915283,17.65854591326673,17.531658320852237,70.80884926759938,63.54492583073248,9.713172767078504e-05,0.0931989923119545,0,0,0
5862,212895.01557707888,2010-12-08 23:42:06,810.4065571479797,2,20,0.5501165986061096,3.855969667434693,17.663132745613733,17.531658320852237,70.82652832907549,63.54492583073248,3.237724376958795e-05,0.0931989923119545,0,0,0
5863,212925.0306146304,2010-12-08 23:42:36,840.4215947045147,2,20,0.550297200679779,3.859854936599731,17.667720092879915,17.531658320852237,70.84422599984192,63.54492583073248,9.713172767078504e-05,0.0931989923119545,0,0,0
5864,212955.0456669537,2010-12-08 23:43:06,870.4366470227836,2,20,0.550297200679779,3.8632545471191406,17.672307410093172,17.531658320852237,70.86193983118939,63.54492583073248,0.0001295089750783,0.0931989923119545,0,0,0
5865,212985.06094184585,2010-12-08 23:43:36,900.451921914919,2,20,0.5501165986061096,3.86665415763855,17.67689477546908,17.531658320852237,70.87966967357244,63.54492583073248,9.713172767078504e-05,0.0931989923119545,0,0,0
5866,213015.0760478828,2010-12-08 23:44:06,930.4670279568772,2,20,0.5501165986061096,3.869891881942749,17.681482162174987,17.531658320852237,70.89741512648511,63.54492583073248,3.237724376958795e-05,0.0931989923119545,0,0,0
5867,213045.090851422,2010-12-08 23:44:36,960.4818314910566,2,20,0.550297200679779,3.873129606246948,17.686069443746803,17.531658320852237,70.91517515757725,63.54492583073248,9.713172767078504e-05,0.0931989923119545,0,0,0
5868,213075.10590164,2010-12-08 23:45:06,990.4968817090992,2,20,0.550297200679779,3.8762054443359375,17.690656797621386,17.531658320852237,70.93294984021865,63.54492583073248,6.47544875391759e-05,0.0931989923119545,0,0,0
5869,213105.1210845232,2010-12-08 23:45:36,1020.5120645872614,2,20,0.5501165986061096,3.879119396209717,17.695244144646153,17.531658320852237,70.95073832507533,63.54492583073248,6.47544875391759e-05,0.0931989923119545,0,0,0
5870,213135.1238177208,2010-12-08 23:46:06,1050.514797865072,2,20,0.550297200679779,3.881871461868286,17.699829588165684,17.531658320852237,70.96853253030642,63.54492583073248,3.237724376958795e-05,0.0931989923119545,0,0,0
5871,213165.1356252746,2010-12-08 23:46:36,1080.5266054088445,2,20,0.550297200679779,3.884623527526856,17.704416497292623,17.531658320852237,70.9863449224963,63.54492583073248,9.713172767078504e-05,0.0931989923119545,0,0,0
5872,213195.15052623625,2010-12-08 23:47:06,1110.541506305306,2,20,0.550297200679779,3.886889934539795,17.70900376479848,17.531658320852237,71.00417040279466,63.54492583073248,3.237724376958795e-05,0.0931989923119545,0,0,0
5873,213225.16572232224,2010-12-08 23:47:36,1140.5567024865722,2,20,0.550297200679779,3.8894801139831534,17.713591154544638,17.531658320852237,71.02200748264342,63.54492583073248,6.47544875391759e-05,0.0931989923119545,0,0,0
5874,213255.1806059457,2010-12-08 23:48:06,1170.5715860198263,2,20,0.5501165986061096,3.8917465209960938,17.718178541964626,17.531658320852237,71.03985498862723,63.54492583073248,6.47544875391759e-05,0.0931989923119545,0,0,0
5875,213285.19575345088,2010-12-08 23:48:36,1200.5867335249638,2,20,0.550297200679779,3.8938510417938232,17.72276592958563,17.531658320852237,71.05771238000933,63.54492583073248,6.47544875391759e-05,0.0931989923119545,0,0,0
5876,213315.2109817972,2010-12-08 23:49:06,1230.601961851222,2,20,0.550297200679779,3.895631790161133,17.72735335025902,17.531658320852237,71.07557898298303,63.54492583073248,6.47544875391759e-05,0.0931989923119545,0,0,0
5877,213345.2258576814,2010-12-08 23:49:36,1260.616837760504,2,20,0.550297200679779,3.897574424743652,17.7319406226566,17.531658320852237,71.09345382343635,63.54492583073248,6.47544875391759e-05,0.0931989923119545,0,0,0
5878,213375.24083368972,2010-12-08 23:50:06,1290.6318137538412,2,20,0.5501165986061096,3.899355173110962,17.73652793719411,17.531658320852237,71.11133736773532,63.54492583073248,3.237724376958795e-05,0.0931989923119545,0,0,0
5879,213405.2560557404,2010-12-08 23:50:36,1320.6470358646322,2,20,0.550297200679779,3.901135921478272,17.741115348337352,17.531658320852237,71.12922948177142,63.54492583073248,6.47544875391759e-05,0.0931989923119545,0,0,0
5880,213435.27102515736,2010-12-08 23:51:06,1350.6620052264675,2,20,0.5501165986061096,3.902916669845581,17.745702651581244,17.531658320852237,71.14712917988565,63.54492583073248,6.47544875391759e-05,0.0931989923119545,0,0,0
5881,213465.28619585524,2010-12-08 23:51:36,1380.6771759243193,2,20,0.550297200679779,3.9045355319976807,17.75029004930371,17.531658320852237,71.1650371032843,63.54492583073248,3.237724376958795e-05,0.0931989923119545,0,0,0
5882,213495.3011441747,2010-12-08 23:52:06,1410.692124243791,2,20,0.550297200679779,3.9063162803649902,17.754877418279737,17.531658320852237,71.18295250070075,63.54492583073248,6.47544875391759e-05,0.0931989923119545,0,0,0
5883,213525.3162211092,2010-12-08 23:52:36,1440.7072011783168,2,20,0.550297200679779,3.90777325630188,17.75946475607438,17.531658320852237,71.20087534486008,63.54492583073248,3.237724376958795e-05,0.0931989923119545,0,0,0
5884,213555.3312749162,2010-12-08 23:53:06,1470.7222549852904,2,20,0.550297200679779,3.9095540046691895,17.76405206327911,17.531658320852237,71.21880555627673,63.54492583073248,6.47544875391759e-05,0.0931989923119545,0,0,0
5885,213585.34648902708,2010-12-08 23:53:36,1500.737469096174,2,20,0.550297200679779,3.911010980606079,17.768639461393985,17.531658320852237,71.23674349257317,63.54492583073248,0.0,0.0931989923119545,0,0,0
5886,213615.36168347904,2010-12-08 23:54:06,1530.7526635531497,2,20,0.5501165986061096,3.9127917289733887,17.77322684653116,17.531658320852237,71.25468872618843,63.54492583073248,6.47544875391759e-05,0.0931989923119545,0,0,0
5887,213645.37649819607,2010-12-08 23:54:36,1560.767478345344,2,20,0.550297200679779,3.914410352706909,17.777814108313155,17.531658320852237,71.27264080230086,63.54492583073248,9.713172767078504e-05,0.0931989923119545,0,0,0
5888,213675.39163765617,2010-12-08 23:55:06,1590.7826177152374,2,20,0.5499359965324402,3.915705442428589,17.782401542980935,17.531658320852237,71.29060092298654,63.54492583073248,0.0,0.0931989923119545,0,0,0
5889,213705.4069432497,2010-12-08 23:55:36,1620.7979233037595,2,20,0.5504778623580933,3.917648077011109,17.786988906468242,17.531658320852237,71.3085680397504,63.54492583073248,9.713172767078504e-05,0.0931989923119545,0,0,0
5890,213735.4216323441,2010-12-08 23:56:06,1650.812612483372,2,20,0.5501165986061096,3.919105052947998,17.791576165277167,17.531658320852237,71.32654209021214,63.54492583073248,6.47544875391759e-05,0.0931989923119545,0,0,0
5891,213765.4366657102,2010-12-08 23:56:36,1680.8276457793047,2,20,0.550297200679779,3.9207239151000977,17.796163449416763,17.531658320852237,71.34452356076403,63.54492583073248,6.47544875391759e-05,0.0931989923119545,0,0,0
5892,213795.45176763693,2010-12-08 23:57:06,1710.8427477711843,2,20,0.5501165986061096,3.922342777252197,17.800750743907933,17.531658320852237,71.36251234089524,63.54492583073248,6.47544875391759e-05,0.0931989923119545,0,0,0
5893,213825.46678723377,2010-12-08 23:57:36,1740.857767297853,2,20,0.550297200679779,3.923961639404297,17.80533807308809,17.531658320852237,71.38050859823933,63.54492583073248,6.47544875391759e-05,0.0931989923119545,0,0,0
5894,213855.48186615325,2010-12-08 23:58:06,1770.8728462072927,2,20,0.5499359965324402,3.9254186153411865,17.809925442824266,17.531658320852237,71.39851233697271,63.54492583073248,3.237724376958795e-05,0.0931989923119545,0,0,0
5895,213885.49695059643,2010-12-08 23:58:36,1800.8879306505034,2,20,0.550297200679779,3.926875591278076,17.814512767022652,17.531658320852237,71.41652311758105,63.54492583073248,0.0,0.0931989923119545,0,0,0
5896,213915.51214909847,2010-12-08 23:59:06,1830.903129152545,2,20,0.550297200679779,3.9286563396453857,17.819100091431267,17.531658320852237,71.43454125830795,63.54492583073248,3.237724376958795e-05,0.0931989923119545,0,0,0
5897,213945.5270772277,2010-12-08 23:59:36,1860.9180573018243,2,20,0.5501165986061096,3.930275201797485,17.823687388376,17.531658320852237,71.45256662737117,63.54492583073248,6.47544875391759e-05,0.0931989923119545,0,0,0
5898,213975.54212195208,2010-12-09 00:00:06,1890.933102021184,2,20,0.550297200679779,3.931894063949585,17.828274688243877,17.531658320852237,71.47059938749636,63.54492583073248,6.47544875391759e-05,0.0931989923119545,0,0,0
5899,214005.55716377424,2010-12-09 00:00:36,1920.948143843333,2,20,0.550297200679779,3.9333510398864746,17.832862041520116,17.531658320852237,71.48863976111886,63.54492583073248,3.237724376958795e-05,0.0931989923119545,0,0,0
5900,214035.57221603737,2010-12-09 00:01:06,1950.9631961114776,2,20,0.5501165986061096,3.934969902038574,17.83744937752403,17.531658320852237,71.5066874728012,63.54492583073248,3.237724376958795e-05,0.0931989923119545,0,0,0
5901,214065.5874171509,2010-12-09 00:01:36,1980.9783972751425,2,20,0.550297200679779,3.936588764190674,17.842036800821454,17.531658320852237,71.52474295778413,63.54492583073248,3.237724376958795e-05,0.0931989923119545,0,0,0
5902,214095.60586517424,2010-12-09 00:02:06,2010.9968453335805,2,20,0.550297200679779,3.938369512557984,17.846624699888373,17.531658320852237,71.54280790721103,63.54492583073248,3.237724376958795e-05,0.0931989923119545,0,0,0
5903,214125.6174055081,2010-12-09 00:02:36,2041.0083855771863,2,20,0.5501165986061096,3.939988374710083,17.85121150443638,17.531658320852237,71.56087609523422,63.54492583073248,3.237724376958795e-05,0.0931989923119545,0,0,0
5904,214155.63247065333,2010-12-09 00:03:06,2071.0234507223745,2,20,0.5501165986061096,3.9414453506469727,17.855798756524234,17.531658320852237,71.57895356649844,63.54492583073248,0.0,0.0931989923119545,0,0,0
5905,214185.6475604348,2010-12-09 00:03:36,2101.0385404938443,2,20,0.550297200679779,3.943226099014282,17.860386137038912,17.531658320852237,71.59703908131063,63.54492583073248,6.47544875391759e-05,0.0931989923119545,0,0,0
5906,214215.6626897697,2010-12-09 00:04:06,2131.0536699089657,2,20,0.550297200679779,3.944844961166382,17.86497346306963,17.531658320852237,71.61513196267502,63.54492583073248,0.0,0.0931989923119545,0,0,0
5907,214245.67768100096,2010-12-09 00:04:36,2161.068661080072,2,20,0.5501165986061096,3.9466257095336914,17.869560826337562,17.531658320852237,71.6332326483243,63.54492583073248,6.47544875391759e-05,0.0931989923119545,0,0,0
5908,214275.6926984625,2010-12-09 00:05:06,2191.083678531577,2,20,0.5501165986061096,3.948244571685791,17.8741481913765,17.531658320852237,71.65134082420562,63.54492583073248,3.237724376958795e-05,0.0931989923119545,0,0,0
5909,214305.70775206896,2010-12-09 00:05:36,2221.0987321230136,2,20,0.5504778623580933,3.9500253200531006,17.878735477092267,17.531658320852237,71.66945638671001,63.54492583073248,6.47544875391759e-05,0.0931989923119545,0,0,0
5910,214335.72297636012,2010-12-09 00:06:06,2251.1139564142304,2,20,0.550297200679779,3.9516441822052,17.883322849550574,17.531658320852237,71.6875800028322,63.54492583073248,6.47544875391759e-05,0.0931989923119545,0,0,0
5911,214365.7378824195,2010-12-09 00:06:36,2281.128862488577,2,20,0.550297200679779,3.9532630443573,17.887910180910364,17.531658320852237,71.70571111220546,63.54492583073248,6.47544875391759e-05,0.0931989923119545,0,0,0
5912,214395.75312100127,2010-12-09 00:07:06,2311.1441010553185,2,20,0.550297200679779,3.9548819065094,17.89249759739911,17.531658320852237,71.72385035863815,63.54492583073248,3.237724376958795e-05,0.0931989923119545,0,0,0
5913,214425.7679928755,2010-12-09 00:07:36,2341.158972934572,2,20,0.550297200679779,3.956824541091919,17.897084952242597,17.531658320852237,71.74199715478767,63.54492583073248,9.713172767078504e-05,0.0931989923119545,0,0,0
5914,214455.7833465737,2010-12-09 00:08:06,2371.174326713013,2,20,0.550297200679779,3.9584434032440186,17.90167234409641,17.531658320852237,71.76015172726446,63.54492583073248,6.47544875391759e-05,0.0931989923119545,0,0,0
5915,214485.79826897875,2010-12-09 00:08:36,2401.1892490528357,2,20,0.550297200679779,3.960062265396118,17.906259650266634,17.531658320852237,71.77831386882791,63.54492583073248,3.237724376958795e-05,0.0931989923119545,0,0,0
5916,214515.8133635973,2010-12-09 00:09:07,2431.204343671367,2,20,0.5501165986061096,3.961843013763428,17.91084698660345,17.531658320852237,71.79648404290813,63.54492583073248,3.237724376958795e-05,0.0931989923119545,0,0,0
5917,214545.8284413288,2010-12-09 00:09:37,2461.2194214129004,2,20,0.5501165986061096,3.9634618759155273,17.91543430218852,17.531658320852237,71.81466197335357,63.54492583073248,6.47544875391759e-05,0.0931989923119545,0,0,0
5918,214575.84353791212,2010-12-09 00:10:07,2491.2345179612344,2,20,0.5501165986061096,3.965242624282837,17.920021638125277,17.531658320852237,71.83284803844967,63.54492583073248,3.237724376958795e-05,0.0931989923119545,0,0,0
5919,214605.8583478724,2010-12-09 00:10:37,2521.2493279414543,2,20,0.550297200679779,3.967185258865357,17.924608970194246,17.531658320852237,71.85104213698166,63.54492583073248,6.47544875391759e-05,0.0931989923119545,0,0,0
5920,214635.87345162363,2010-12-09 00:11:07,2551.264431677675,2,20,0.5501165986061096,3.968642234802246,17.929196362132245,17.531658320852237,71.86924448983538,63.54492583073248,3.237724376958795e-05,0.0931989923119545,0,0,0
5921,214665.88859346468,2010-12-09 00:11:37,2581.2795736039297,2,20,0.5501165986061096,3.9705848693847656,17.933783729570255,17.531658320852237,71.88745494322951,63.54492583073248,3.237724376958795e-05,0.0931989923119545,0,0,0
5922,214695.90355560853,2010-12-09 00:12:07,2611.294535682641,2,20,0.5501165986061096,3.972527503967285,17.938371017535953,17.531658320852237,71.90567336601374,63.54492583073248,6.47544875391759e-05,0.0931989923119545,0,0,0
5923,214725.9185835361,2010-12-09 00:12:37,2641.3095636052026,2,20,0.5501165986061096,3.9741463661193848,17.94295834344848,17.531658320852237,71.923900213598,63.54492583073248,3.237724376958795e-05,0.0931989923119545,0,0,0
5924,214755.93369680605,2010-12-09 00:13:07,2671.324676875147,2,20,0.5501165986061096,3.976089000701904,17.947545738352577,17.531658320852237,71.94213573268955,63.54492583073248,6.47544875391759e-05,0.0931989923119545,0,0,0
5925,214785.9487438161,2010-12-09 00:13:37,2701.3397238701696,2,20,0.550297200679779,3.977869749069214,17.9521331901739,17.531658320852237,71.96037997640666,63.54492583073248,3.237724376958795e-05,0.0931989923119545,0,0,0
5926,214815.9672837632,2010-12-09 00:14:07,2731.3582639125057,2,20,0.550297200679779,3.979812383651733,17.9567210241274,17.531658320852237,71.97863394727902,63.54492583073248,6.47544875391759e-05,0.0931989923119545,0,0,0
5927,214845.97892612097,2010-12-09 00:14:37,2761.3699062802434,2,20,0.550297200679779,3.981916904449463,17.96130771543532,17.531658320852237,71.99689235042652,63.54492583073248,6.47544875391759e-05,0.0931989923119545,0,0,0
5928,214875.9940276316,2010-12-09 00:15:07,2791.385007770876,2,20,0.5501165986061096,3.983373880386353,17.965895021357433,17.531658320852237,72.01516190617845,63.54492583073248,3.237724376958795e-05,0.0931989923119545,0,0,0
5929,214906.00894458304,2010-12-09 00:15:37,2821.399924652115,2,20,0.5501165986061096,3.985478401184082,17.970482262340976,17.531658320852237,72.03344000986324,63.54492583073248,3.237724376958795e-05,0.0931989923119545,0,0,0
5930,214936.02402846987,2010-12-09 00:16:07,2851.415008523904,2,20,0.5504778623580933,3.987582921981812,17.975069564480627,17.531658320852237,72.05172719949684,63.54492583073248,9.713172767078504e-05,0.0931989923119545,0,0,0
5931,214966.0390734599,2010-12-09 00:16:37,2881.430053528974,2,20,0.550297200679779,3.989525556564331,17.97965690444551,17.531658320852237,72.07002349453796,63.54492583073248,6.47544875391759e-05,0.0931989923119545,0,0,0
5932,214996.05412811897,2010-12-09 00:17:07,2911.445108188068,2,20,0.550297200679779,3.9914681911468506,17.98424420150987,17.531658320852237,72.0883287168944,63.54492583073248,9.713172767078504e-05,0.0931989923119545,0,0,0
5933,215026.0693142753,2010-12-09 00:17:37,2941.460294344388,2,20,0.5501165986061096,3.99341082572937,17.988831464576883,17.531658320852237,72.10664294872072,63.54492583073248,6.47544875391759e-05,0.0931989923119545,0,0,0
5934,215056.08433256389,2010-12-09 00:18:07,2971.4753126179376,2,20,0.550297200679779,3.995515108108521,17.993418834331617,17.531658320852237,72.12496692255657,63.54492583073248,6.47544875391759e-05,0.0931989923119545,0,0,0
5935,215086.0994975425,2010-12-09 00:18:37,3001.49047770182,2,20,0.550297200679779,3.99745774269104,17.99800612790738,17.531658320852237,72.14329999089915,63.54492583073248,3.237724376958795e-05,0.0931989923119545,0,0,0
5936,215116.11453643235,2010-12-09 00:19:07,3031.5055165816475,2,20,0.5499359965324402,3.9995622634887695,18.002593457936854,17.531658320852237,72.16164262151675,63.54492583073248,3.237724376958795e-05,0.0931989923119545,0,0,0
5937,215146.12957389368,2010-12-09 00:19:37,3061.520553962746,2,20,0.5501165986061096,4.001667022705078,18.00718067689176,17.531658320852237,72.17999434687265,63.54492583073248,3.24249267578125e-05,0.0931989923119545,0,0,0
5938,215176.14454680937,2010-12-09 00:20:07,3091.535526948599,2,20,0.550297200679779,4.003933429718018,18.01176791271547,17.531658320852237,72.19835589520846,63.54492583073248,6.47544875391759e-05,0.0931989923119545,0,0,0
5939,215206.1595585466,2010-12-09 00:20:37,3121.550538615709,2,20,0.5501165986061096,4.005876064300537,18.016355178562712,17.531658320852237,72.21672729875507,63.54492583073248,3.24249267578125e-05,0.0931989923119545,0,0,0
5940,215236.17474766533,2010-12-09 00:21:07,3151.5657277344003,2,20,0.5499359965324402,4.007980346679688,18.020942477797583,17.531658320852237,72.23510876318605,63.54492583073248,3.23295607813634e-05,0.0931989923119545,0,0,0
5941,215266.18970677664,2010-12-09 00:21:37,3181.5806868457275,2,20,0.5501165986061096,4.010408878326416,18.02552971669641,17.531658320852237,72.25349992141808,63.54492583073248,6.47544875391759e-05,0.0931989923119545,0,0,0
5942,215296.20488967985,2010-12-09 00:22:07,3211.5958697539645,2,20,0.550297200679779,4.012513160705566,18.030116965104757,17.531658320852237,72.27190124826889,63.54492583073248,6.47544875391759e-05,0.0931989923119545,0,0,0
5943,215326.2198164858,2010-12-09 00:22:37,3241.610796554889,2,20,0.550297200679779,4.014779567718506,18.034704215447505,17.531658320852237,72.29031284964665,63.54492583073248,6.47544875391759e-05,0.0931989923119545,0,0,0
5944,215356.2350628419,2010-12-09 00:23:07,3271.626042981188,2,20,0.5501165986061096,4.016884326934815,18.03929149340212,17.531658320852237,72.30873497169576,63.54492583073248,3.24249267578125e-05,0.0931989923119545,0,0,0
5945,215386.2500019685,2010-12-09 00:23:37,3301.6409820275844,2,20,0.550297200679779,4.019312381744385,18.043878695549704,17.531658320852237,72.32716732282519,63.54492583073248,6.47544875391759e-05,0.0931989923119545,0,0,0
5946,215416.2653154868,2010-12-09 00:24:07,3331.6562956260386,2,20,0.5501165986061096,4.021740913391113,18.048465971039324,17.531658320852237,72.3456105920868,63.54492583073248,3.24249267578125e-05,0.0931989923119545,0,0,0
5947,215446.28004644532,2010-12-09 00:24:37,3361.6710265144416,2,20,0.550297200679779,4.024168968200684,18.0530532139066,17.531658320852237,72.36406460398064,63.54492583073248,9.70840483205393e-05,0.0931989923119545,0,0,0
5948,215476.29512985097,2010-12-09 00:25:07,3391.686109905033,2,20,0.5501165986061096,4.026273727416992,18.057640428815773,17.531658320852237,72.38252933032499,63.54492583073248,6.47544875391759e-05,0.0931989923119545,0,0,0
5949,215506.31030089973,2010-12-09 00:25:37,3421.70128105902,2,20,0.5501165986061096,4.028863906860352,18.062227721864808,17.531658320852237,72.40100544052227,63.54492583073248,6.47544875391759e-05,0.0931989923119545,0,0,0
5950,215536.3255406594,2010-12-09 00:26:07,3451.716520728505,2,20,0.5499359965324402,4.031130313873291,18.06681497005073,17.531658320852237,72.41949238942924,63.54492583073248,3.24249267578125e-05,0.0931989923119545,0,0,0
5951,215566.34051906373,2010-12-09 00:26:37,3481.7314992030165,2,20,0.5501165986061096,4.03372049331665,18.07140223278313,17.531658320852237,72.43799065699747,63.54492583073248,6.47544875391759e-05,0.0931989923119545,0,0,0
5952,215596.3553024628,2010-12-09 00:27:07,3511.746282531916,2,20,0.5501165986061096,4.036310195922852,18.07598899787968,17.531658320852237,72.45649808883552,63.54492583073248,9.70840483205393e-05,0.0931989923119545,0,0,0
5953,215626.3706497852,2010-12-09 00:27:37,3541.761629944516,2,20,0.550297200679779,4.03873872756958,18.080575550981745,17.531658320852237,72.4750160432234,63.54492583073248,9.71794142969884e-05,0.0931989923119545,0,0,0
5954,215656.3857371106,2010-12-09 00:28:07,3571.776717249849,2,20,0.5499359965324402,4.04116678237915,18.08516221097844,17.531658320852237,72.49354586523734,63.54492583073248,3.23295607813634e-05,0.0931989923119545,0,0,0
5955,215686.4007511035,2010-12-09 00:28:37,3601.7917312327213,2,20,0.5499359965324402,4.04375696182251,18.089748752326773,17.531658320852237,72.51208677635603,63.54492583073248,9.70840483205393e-05,0.0931989923119545,0,0,0
5956,215716.41557109865,2010-12-09 00:29:07,3631.8065511677137,2,20,0.5499359965324402,4.046347141265869,18.094335249281052,17.531658320852237,72.53063914788386,63.54492583073248,9.70840483205393e-05,0.0931989923119545,0,0,0
5957,215746.43062825897,2010-12-09 00:29:37,3661.821608328032,2,20,0.550297200679779,4.048775672912598,18.09892179287588,17.531658320852237,72.54920353534392,63.54492583073248,3.24249267578125e-05,0.0931989923119545,0,0,0
5958,215776.44583699649,2010-12-09 00:30:07,3691.8368171357183,2,20,0.5501165986061096,4.051365852355957,18.103508787260903,17.531658320852237,72.56778171615125,63.54492583073248,6.47544875391759e-05,0.0931989923119545,0,0,0
5959,215806.4607561032,2010-12-09 00:30:37,3721.851736157283,2,20,0.5501165986061096,4.054117679595947,18.108096240736568,17.531658320852237,72.5863738731074,63.54492583073248,6.47544875391759e-05,0.0931989923119545,0,0,0
5960,215836.47594447507,2010-12-09 00:31:07,3751.866924614329,2,20,0.5501165986061096,4.056869983673096,18.112683714412945,17.531658320852237,72.60497826504796,63.54492583073248,6.47544875391759e-05,0.0931989923119545,0,0,0
5961,215866.49088218316,2010-12-09 00:31:37,3781.88186225222,2,20,0.550297200679779,4.059621810913086,18.117271129421933,17.531658320852237,72.62359470565087,63.54492583073248,9.70840483205393e-05,0.0931989923119545,0,0,0
5962,215896.50597663625,2010-12-09 00:32:07,3811.8969567755134,2,20,0.550297200679779,4.062374114990234,18.12185856697777,17.531658320852237,72.64222334709942,63.54492583073248,9.71794142969884e-05,0.0931989923119545,0,0,0
5963,215926.52108751025,2010-12-09 00:32:37,3841.9120675793215,2,20,0.5501165986061096,4.064802169799805,18.126445932070844,17.531658320852237,72.66086418264901,63.54492583073248,6.47544875391759e-05,0.0931989923119545,0,0,0
5964,215956.53626528068,2010-12-09 00:33:07,3871.9272453347367,2,20,0.5501165986061096,4.067554473876953,18.131033287752626,17.531658320852237,72.67951753358071,63.54492583073248,3.24249267578125e-05,0.0931989923119545,0,0,0
5965,215986.55132751365,2010-12-09 00:33:37,3901.9423075626655,2,20,0.5504778623580933,4.070468425750732,18.1356206114732,17.531658320852237,72.69818346312266,63.54492583073248,9.71794142969884e-05,0.0931989923119545,0,0,0
5966,216016.56956498304,2010-12-09 00:34:07,3931.96054513231,2,20,0.5501165986061096,4.073220252990723,18.140208499256943,17.531658320852237,72.71686441328926,63.54492583073248,9.70840483205393e-05,0.0931989923119545,0,0,0
5967,216046.58125264343,2010-12-09 00:34:37,3961.972232782732,2,20,0.550297200679779,4.075972557067871,18.14479526876109,17.531658320852237,72.73555377870044,63.54492583073248,6.47544875391759e-05,0.0931989923119545,0,0,0
5968,216076.59631610947,2010-12-09 00:35:07,3991.9872961785672,2,20,0.550297200679779,4.07888650894165,18.149382651102275,17.531658320852237,72.75425878409193,63.54492583073248,3.24249267578125e-05,0.0931989923119545,0,0,0
5969,216106.6113985126,2010-12-09 00:35:37,4022.0023785917274,2,20,0.5501165986061096,4.08180046081543,18.153970078786617,17.531658320852237,72.7729771257937,63.54492583073248,9.71794142969884e-05,0.0931989923119545,0,0,0
5970,216136.6264603095,2010-12-09 00:36:07,4052.017440448732,2,20,0.550297200679779,4.084714412689209,18.15855743680986,17.531658320852237,72.7917084585284,63.54492583073248,6.47544875391759e-05,0.0931989923119545,0,0,0
5971,216166.64148588612,2010-12-09 00:36:37,4082.0324659552816,2,20,0.550297200679779,4.087466239929199,18.163144784840537,17.531658320852237,72.81045316266456,63.54492583073248,6.47544875391759e-05,0.0931989923119545,0,0,0
5972,216196.65655110657,2010-12-09 00:37:07,4112.047531175656,2,20,0.550297200679779,4.090703964233398,18.16773215552276,17.531658320852237,72.82921147052396,63.54492583073248,9.70840483205393e-05,0.0931989923119545,0,0,0
5973,216226.67166744417,2010-12-09 00:37:37,4142.062647513235,2,20,0.550297200679779,4.093617916107178,18.17231950948782,17.531658320852237,72.8479833273854,63.54492583073248,3.23295607813634e-05,0.0931989923119545,0,0,0
5974,216256.68699504744,2010-12-09 00:38:07,4172.077975101503,2,20,0.550297200679779,4.096693992614746,18.17690691983553,17.531658320852237,72.86676930893167,63.54492583073248,0.0001295089750783,0.0931989923119545,0,0,0
5975,216286.70181590476,2010-12-09 00:38:37,4202.09279595879,2,20,0.5501165986061096,4.099769592285156,18.18149431568948,17.531658320852237,72.8855691395431,63.54492583073248,0.0001295089750783,0.0931989923119545,0,0,0
5976,216316.71684247392,2010-12-09 00:39:07,4232.10782254302,2,20,0.5499359965324402,4.102683544158936,18.18608175586446,17.531658320852237,72.90438311548849,63.54492583073248,9.70840483205393e-05,0.0931989923119545,0,0,0
5977,216346.7318611635,2010-12-09 00:39:37,4262.122841207543,2,20,0.5501165986061096,4.105759620666504,18.19066916245625,17.531658320852237,72.92321118358018,63.54492583073248,6.47544875391759e-05,0.0931989923119545,0,0,0
5978,216376.74693234876,2010-12-09 00:40:07,4292.137912392762,2,20,0.5501165986061096,4.108835220336914,18.19525650925488,17.531658320852237,72.94205317293807,63.54492583073248,6.47544875391759e-05,0.0931989923119545,0,0,0
5979,216406.7621059137,2010-12-09 00:40:37,4322.153085972786,2,20,0.550297200679779,4.112072944641113,18.199843928779536,17.531658320852237,72.96090984351315,63.54492583073248,6.47544875391759e-05,0.0931989923119545,0,0,0
5980,216436.7770465691,2010-12-09 00:41:08,4352.168026638212,2,20,0.5501165986061096,4.1153106689453125,18.204431284593763,17.531658320852237,72.97978062304745,63.54492583073248,9.71794142969884e-05,0.0931989923119545,0,0,0
5981,216466.7922226704,2010-12-09 00:41:38,4382.183202739509,2,20,0.550297200679779,4.118386268615723,18.209018729560512,17.531658320852237,72.9986663905297,63.54492583073248,6.47544875391759e-05,0.0931989923119545,0,0,0
5982,216496.80740723776,2010-12-09 00:42:08,4412.198387372037,2,20,0.5501165986061096,4.121623992919922,18.213606174714837,17.531658320852237,73.01756688301445,63.54492583073248,9.70840483205393e-05,0.0931989923119545,0,0,0
5983,216526.8224468244,2010-12-09 00:42:38,4442.213426898474,2,20,0.550297200679779,4.12502384185791,18.21819359961295,17.531658320852237,73.03648199415723,63.54492583073248,9.71794142969884e-05,0.0931989923119545,0,0,0
5984,216556.8373715301,2010-12-09 00:43:08,4472.228351584135,2,20,0.550297200679779,4.12809944152832,18.22278092847972,17.531658320852237,73.05541161105965,63.54492583073248,9.70840483205393e-05,0.0931989923119545,0,0,0
5985,216586.85257733028,2010-12-09 00:43:38,4502.243557474562,2,20,0.5501165986061096,4.131499290466309,18.22736834512325,17.531658320852237,73.07435672320177,63.54492583073248,9.71794142969884e-05,0.0931989923119545,0,0,0
5986,216616.86757804512,2010-12-09 00:44:08,4532.258558184405,2,20,0.5501165986061096,4.134898662567139,18.231955746618887,17.531658320852237,73.09331694738796,63.54492583073248,0.0001295089750783,0.0931989923119545,0,0,0
5987,216646.88247253065,2010-12-09 00:44:38,4562.273452599738,2,20,0.5501165986061096,4.137974739074707,18.236543119307363,17.531658320852237,73.11229231148337,63.54492583073248,6.47544875391759e-05,0.0931989923119545,0,0,0
5988,216676.8975664274,2010-12-09 00:45:08,4592.288546481436,2,20,0.5501165986061096,4.141536235809326,18.241130547113467,17.531658320852237,73.1312832524376,63.54492583073248,9.71794142969884e-05,0.0931989923119545,0,0,0
5989,216706.91260212427,2010-12-09 00:45:38,4622.303582193381,2,20,0.5501165986061096,4.144935607910156,18.245718025158578,17.531658320852237,73.15028995384239,63.54492583073248,9.70840483205393e-05,0.0931989923119545,0,0,0
5990,216736.9311573043,2010-12-09 00:46:08,4652.322137443561,2,20,0.550297200679779,4.148497104644775,18.2503059396964,17.531658320852237,73.16931434977533,63.54492583073248,9.70840483205393e-05,0.0931989923119545,0,0,0
5991,216766.9427453819,2010-12-09 00:46:38,4682.333725451026,2,20,0.5501165986061096,4.151734828948975,18.254892779200127,17.531658320852237,73.18834994746179,63.54492583073248,9.70840483205393e-05,0.0931989923119545,0,0,0
5992,216796.9578073442,2010-12-09 00:47:08,4712.348787418306,2,20,0.550297200679779,4.155296325683594,18.25948022480908,17.531658320852237,73.20740385999598,63.54492583073248,9.70840483205393e-05,0.0931989923119545,0,0,0
5993,216826.97305874288,2010-12-09 00:47:38,4742.36403879693,2,20,0.5501165986061096,4.158696174621582,18.264067621819866,17.531658320852237,73.22647334279665,63.54492583073248,0.0001295089750783,0.0931989923119545,0,0,0
5994,216856.98810845465,2010-12-09 00:48:08,4772.379088508712,2,20,0.5501165986061096,4.161933898925781,18.26865498500607,17.531658320852237,73.24555866019593,63.54492583073248,6.47544875391759e-05,0.0931989923119545,0,0,0
5995,216887.00312659788,2010-12-09 00:48:38,4802.394106671988,2,20,0.550297200679779,4.165657043457031,18.273242390900727,17.531658320852237,73.26466015046832,63.54492583073248,9.70840483205393e-05,0.0931989923119545,0,0,0
5996,216917.0180816691,2010-12-09 00:49:08,4832.4090617232105,2,20,0.5501165986061096,4.16921854019165,18.2778298141965,17.531658320852237,73.28377791719888,63.54492583073248,9.70840483205393e-05,0.0931989923119545,0,0,0
5997,216947.03317090933,2010-12-09 00:49:38,4862.424150978397,2,20,0.5501165986061096,4.1727800369262695,18.2824171528142,17.531658320852237,73.30291161923414,63.54492583073248,9.70840483205393e-05,0.0931989923119545,0,0,0
5998,216977.0516171031,2010-12-09 00:50:08,4892.442597247381,2,20,0.5501165986061096,4.176503658294678,18.287005059355096,17.531658320852237,73.3220642139377,63.54492583073248,9.71794142969884e-05,0.0931989923119545,0,0,0
5999,217007.063396968,2010-12-09 00:50:38,4922.454377022052,2,20,0.550297200679779,4.179903030395508,18.291591953307265,17.531658320852237,73.34122912066354,63.54492583073248,6.47544875391759e-05,0.0931989923119545,0,0,0
6000,217037.07838554768,2010-12-09 00:51:08,4952.4693656919335,2,20,0.550297200679779,4.183788299560547,18.296179305351,17.531658320852237,73.36041248277712,63.54492583073248,0.0001618385285837,0.0931989923119545,0,0,0
6001,217067.0933976859,2010-12-09 00:51:38,4982.484377739991,2,20,0.5501165986061096,4.187349796295166,18.30076670297607,17.531658320852237,73.37961280260264,63.54492583073248,9.70840483205393e-05,0.0931989923119545,0,0,0
6002,217097.1085883384,2010-12-09 00:52:08,5012.499568392499,2,20,0.550297200679779,4.191073417663574,18.30535408663146,17.531658320852237,73.39882998276344,63.54492583073248,0.0001295089750783,0.0931989923119545,0,0,0
6003,217127.12369724247,2010-12-09 00:52:38,5042.514677401842,2,20,0.550297200679779,4.194796562194824,18.30994144744292,17.531658320852237,73.41806406652229,63.54492583073248,9.70840483205393e-05,0.0931989923119545,0,0,0
6004,217157.13888382996,2010-12-09 00:53:08,5072.529863904023,2,20,0.5501165986061096,4.198358058929443,18.314528869204327,17.531658320852237,73.43731547577352,63.54492583073248,9.71794142969884e-05,0.0931989923119545,0,0,0
6005,217168.9233850028,2010-12-09 00:53:20,5084.314365147116,2,20,0.550297200679779,4.200300693511963,18.31632995368252,17.531658320852237,73.44487854569677,63.54492583073248,0.0001942634553415,0.0931989923119545,0,0,0
6006,217198.94188260316,2010-12-09 00:53:50,30.01848921585638,3,20,0.0,4.110777854919434,18.31632995368252,17.531658320852237,73.44487854569677,63.54492583073248,-0.0003561973571777,0.0931989923119545,0,0,0
6007,217228.95394457504,2010-12-09 00:54:20,60.03055113763866,3,20,0.0,4.099607944488525,18.31632995368252,17.531658320852237,73.44487854569677,63.54492583073248,-0.0002265930233988,0.0931989923119545,0,0,0
6008,217258.9686295492,2010-12-09 00:54:50,90.04523604662371,3,20,0.0,4.092808723449707,18.31632995368252,17.531658320852237,73.44487854569677,63.54492583073248,-0.0001295089750783,0.0931989923119545,0,0,0
6009,217288.9401428924,2010-12-09 00:55:20,120.0167494750398,3,20,0.0,4.088437557220459,18.31632995368252,17.531658320852237,73.44487854569677,63.54492583073248,-6.47544875391759e-05,0.0931989923119545,0,0,0
6010,217288.94280911796,2010-12-09 00:55:20,2.51626162e-06,4,20,1.0155466794967651,4.199653148651123,18.316329954392344,17.531658320852237,73.44487854867779,63.54492583073248,0.0,0.0931989923119545,0,0,0
6011,217289.4584227827,2010-12-09 00:55:20,0.515616201085008,4,20,0.9647955298423768,4.199653148651123,18.31647033790672,17.531658320852237,73.44546812306355,63.54492583073248,0.0,0.0931989923119545,0,0,0
6012,217291.1928437877,2010-12-09 00:55:22,2.25003722609725,4,20,0.9145861268043518,4.199814796447754,18.3169221417081,17.531658320852237,73.44736559244411,63.54492583073248,3.23295607813634e-05,0.0931989923119545,0,0,0
6013,217293.97396028912,2010-12-09 00:55:25,5.03115370749519,4,20,0.864015519618988,4.199814796447754,18.31760823784924,17.531658320852237,73.45024704220117,63.54492583073248,0.0,0.0931989923119545,0,0,0
6014,217297.88015002705,2010-12-09 00:55:29,8.937343445419948,4,20,0.8138061761856079,4.199814796447754,18.318517452208564,17.531658320852237,73.45406555286786,63.54492583073248,0.0,0.0931989923119545,0,0,0
6015,217303.0675527141,2010-12-09 00:55:34,14.124746242765651,4,20,0.7634161710739136,4.199814796447754,18.31965249384839,17.531658320852237,73.45883249264274,63.54492583073248,0.0,0.0931989923119545,0,0,0
6016,217309.84896933852,2010-12-09 00:55:41,20.90616275693745,4,20,0.7132067680358887,4.199814796447754,18.321041537024264,17.531658320852237,73.46466619009084,63.54492583073248,0.0,0.0931989923119545,0,0,0
6017,217318.7708057403,2010-12-09 00:55:50,29.827999188750464,4,20,0.663178026676178,4.199976921081543,18.32274433041753,17.531658320852237,73.47181760684292,63.54492583073248,3.24249267578125e-05,0.0931989923119545,0,0,0
6018,217331.03576083932,2010-12-09 00:56:02,42.09295425771053,4,20,0.6127880215644836,4.199653148651123,18.32491366530025,17.531658320852237,73.48092838592132,63.54492583073248,-3.23295607813634e-05,0.0931989923119545,0,0,0
6019,217349.26993330612,2010-12-09 00:56:20,60.32712672458002,4,20,0.562759280204773,4.199814796447754,18.327882375319607,17.531658320852237,73.49339640620141,63.54492583073248,3.23295607813634e-05,0.0931989923119545,0,0,0
6020,217379.51940963452,2010-12-09 00:56:51,90.57660314821884,4,20,0.5127304792404175,4.199814796447754,18.332382373873795,17.531658320852237,73.51229553981064,63.54492583073248,0.0,0.0931989923119545,0,0,0
6021,217435.64331394187,2010-12-09 00:57:47,146.70050747051317,4,20,0.4627017378807068,4.199653148651123,18.33994905709188,17.531658320852237,73.54407415764426,63.54492583073248,-3.23295607813634e-05,0.0931989923119545,0,0,0
6022,217527.92268825063,2010-12-09 00:59:19,238.97988166899933,4,20,0.4126729667186737,4.199653148651123,18.351140887671367,17.531658320852237,73.59107762894656,63.54492583073248,0.0,0.0931989923119545,0,0,0
6023,217651.1860311535,2010-12-09 01:01:22,362.2432245719155,4,20,0.3626441955566406,4.199814796447754,18.364404262007817,17.531658320852237,73.64678141936534,63.54492583073248,0.0,0.0931989923119545,0,0,0
6024,217796.79285227763,2010-12-09 01:03:48,507.85004578123255,4,20,0.3126154243946075,4.199653148651123,18.37804304159236,17.531658320852237,73.70406179567627,63.54492583073248,-3.23295607813634e-05,0.0931989923119545,0,0,0
6025,217971.1177068785,2010-12-09 01:06:42,682.1749003019052,4,20,0.2624060213565826,4.199653148651123,18.391945359461104,17.531658320852237,73.76244900700006,63.54492583073248,-6.47544875391759e-05,0.0931989923119545,0,0,0
6026,218185.67600467036,2010-12-09 01:10:17,896.7331981789299,4,20,0.2123772650957107,4.199653148651123,18.40605712745421,17.531658320852237,73.82171583972284,63.54492583073248,-6.47544875391759e-05,0.0931989923119545,0,0,0
6027,218463.65532394985,2010-12-09 01:14:55,1174.7125174383948,4,20,0.1623484939336776,4.199814796447754,18.420458735764043,17.531658320852237,73.88219993803227,63.54492583073248,0.0,0.0931989923119545,0,0,0
6028,218872.80376325452,2010-12-09 01:21:44,1583.8609566930013,4,20,0.1123197302222251,4.199814796447754,18.435889996140517,17.531658320852237,73.94700833684817,63.54492583073248,0.0,0.0931989923119545,0,0,0
6029,219610.7899175655,2010-12-09 01:34:02,2321.847110998909,4,20,0.0622909590601921,4.199653148651123,18.453242685284938,17.531658320852237,74.0198863520742,63.54492583073248,0.0,0.0931989923119545,0,0,0
6030,219932.69040630097,2010-12-09 01:39:24,2643.7475997142888,4,20,0.0498289167881011,4.199653148651123,18.4582796308112,17.531658320852237,74.04104054449594,63.54492583073248,-3.23295607813634e-05,0.0931989923119545,0,0,0
6031,219962.69847287243,2010-12-09 01:39:54,30.01524593006443,5,20,0.0,4.191397190093994,18.4582796308112,17.531658320852237,74.04104054449594,63.54492583073248,-3.23295607813634e-05,0.0931989923119545,0,0,0
6032,219992.6977569821,2010-12-09 01:40:24,60.01453002972782,5,20,0.0,4.1901021003723145,18.4582796308112,17.531658320852237,74.04104054449594,63.54492583073248,-6.47544875391759e-05,0.0931989923119545,0,0,0
6033,219992.879065469,2010-12-09 01:40:24,0.187178712025695,6,20,-1.9243103452026844e-05,4.190263748168945,18.4582796308112,17.531658321852767,74.04104054449594,63.54492583492495,0.0,0.0956302732229232,0,0,0
6034,219997.70721948452,2010-12-09 01:40:29,5.015332812807255,6,20,0.0010644125286489,4.190263748168945,18.458280711567063,17.53165832193673,74.04104507315985,63.54492583527678,0.0,0.0956302732229232,0,0,0
6035,220027.71646975863,2010-12-09 01:40:59,30.01501387259835,7,20,-1.0993878841400146,4.005390167236328,18.458280711567063,17.54082631961965,74.04104507315985,63.581857096426816,-0.0010684967273846,0.0956302732229232,0,0,0
6036,220057.7315970084,2010-12-09 01:41:29,60.030141132356285,7,20,-1.0993878841400146,3.977060317993164,18.458280711567063,17.54999434789448,74.04104507315985,63.618439471275714,-0.0006151676061563,0.0956302732229232,0,0,0
6037,220087.7466404596,2010-12-09 01:41:59,90.04518457854739,7,20,-1.0997490882873535,3.957148313522339,18.458280711567063,17.559162131411593,74.04104507315985,63.65480412927069,-0.0004856586456298,0.0956302732229232,0,0,0
6038,220117.7617134493,2010-12-09 01:42:29,120.06025766349336,7,20,-1.099568486213684,3.9417691230773926,18.458280711567063,17.568329985946967,74.04104507315985,63.691009471530776,-0.0003885269106831,0.0956302732229232,0,0,0
6039,220147.77678047915,2010-12-09 01:42:59,150.0753245981346,7,20,-1.099568486213684,3.928494453430176,18.458280711567063,17.577497889506496,74.04104507315985,63.72708487142192,-0.0003561496851034,0.0956302732229232,0,0,0
6040,220177.79203786777,2010-12-09 01:43:29,180.0905819817006,7,20,-1.099568486213684,3.9166767597198486,18.458280711567063,17.586665865982628,74.04104507315985,63.76304627273409,-0.0002913951757363,0.0956302732229232,0,0,0
6041,220207.80695183176,2010-12-09 01:43:59,210.10549593565528,7,20,-1.0997490882873535,3.905183076858521,18.458280711567063,17.595833714457537,74.04104507315985,63.7989014510015,-0.0003561496851034,0.0956302732229232,0,0,0
6042,220237.82216171708,2010-12-09 01:44:29,240.1207058360613,7,20,-1.0993878841400146,3.894822359085083,18.458280711567063,17.60500163641713,74.04104507315985,63.83465684991386,-0.0002590179501567,0.0956302732229232,0,0,0
6043,220267.83719738392,2010-12-09 01:44:59,270.1357414878563,7,20,-1.099568486213684,3.8847854137420654,18.458280711567063,17.61416947356641,74.04104507315985,63.8703176297016,-0.0002590179501567,0.0956302732229232,0,0,0
6044,220297.85550526856,2010-12-09 01:45:29,300.15404946270144,7,20,-1.099568486213684,3.874910354614258,18.458280711567063,17.623338393103477,74.04104507315985,63.90589110117427,-0.0002590179501567,0.0956302732229232,0,0,0
6045,220327.86730720336,2010-12-09 01:45:59,330.16585137746625,7,20,-1.0997490882873535,3.86535906791687,18.458280711567063,17.63250532728157,74.04104507315985,63.9413688818074,-0.0002266406954731,0.0956302732229232,0,0,0
6046,220357.88221611976,2010-12-09 01:46:29,360.18076022371054,7,20,-1.0997490882873535,3.8561315536499023,18.458280711567063,17.641673181256525,74.04104507315985,63.97676492399148,-0.0002913951757363,0.0956302732229232,0,0,0
6047,220387.8972855857,2010-12-09 01:46:59,390.19582970468826,7,20,-1.099568486213684,3.847389698028565,18.458280711567063,17.650841075876023,74.04104507315985,64.01207768052187,-0.0001942634553415,0.0956302732229232,0,0,0
6048,220417.9123578586,2010-12-09 01:47:29,420.2109019776135,7,20,-1.0997490882873535,3.8384859561920166,18.458280711567063,17.660009045907003,74.04104507315985,64.04730993305499,-0.0002590179501567,0.0956302732229232,0,0,0
6049,220447.9274115854,2010-12-09 01:47:59,450.22595570438745,7,20,-1.0993878841400146,3.8303918838500977,18.458280711567063,17.669176960540742,74.04104507315985,64.0824636528432,-0.0001942634553415,0.0956302732229232,0,0,0
6050,220477.9425931102,2010-12-09 01:48:29,480.24113722918185,7,20,-1.099568486213684,3.8218119144439697,18.458280711567063,17.67834493549828,74.04104507315985,64.1175402012625,-0.0002590179501567,0.0956302732229232,0,0,0
6051,220507.9575904667,2010-12-09 01:48:59,510.2561345706431,7,20,-1.099929690361023,3.8135557174682617,18.458280711567063,17.687512843002946,74.04104507315985,64.15254051561598,-0.0002266406954731,0.0956302732229232,0,0,0
6052,220537.9728435446,2010-12-09 01:49:29,540.271387738719,7,20,-1.099568486213684,3.805461406707764,18.458280711567063,17.696680720685457,74.04104507315985,64.18746606882762,-0.0002266406954731,0.0956302732229232,0,0,0
6053,220567.98765863248,2010-12-09 01:49:59,570.2862027414374,7,20,-1.0997490882873535,3.7976908683776855,18.458280711567063,17.705848535918626,74.04104507315985,64.22231918250722,-0.0002266406954731,0.0956302732229232,0,0,0
6054,220598.00277090492,2010-12-09 01:50:29,600.3013150239249,7,20,-1.0993878841400146,3.790405988693237,18.458280711567063,17.715016467764332,74.04104507315985,64.25710165410176,-0.0001295089750783,0.0956302732229232,0,0,0
6055,220628.01779350423,2010-12-09 01:50:59,630.3163376232394,7,20,-1.0993878841400146,3.782635450363159,18.458280711567063,17.72418434782143,74.04104507315985,64.29181445495935,-0.0001618862152099,0.0956302732229232,0,0,0
6056,220658.0328646444,2010-12-09 01:51:29,660.3314087633457,7,20,-1.099568486213684,3.775350570678711,18.458280711567063,17.733352187390988,74.04104507315985,64.32645927454918,-0.0002266406954731,0.0956302732229232,0,0,0
6057,220688.0479444661,2010-12-09 01:51:59,690.3464886552305,7,20,-1.0997490882873535,3.7682275772094727,18.458280711567063,17.742520089455027,74.04104507315985,64.3610380292812,-0.0001618862152099,0.0956302732229232,0,0,0
6058,220718.06297779208,2010-12-09 01:52:30,720.3615218960259,7,20,-1.099568486213684,3.761266469955444,18.458280711567063,17.75168800943525,74.04104507315985,64.39555202880008,-0.0001942634553415,0.0956302732229232,0,0,0
6059,220748.07816158756,2010-12-09 01:53:00,750.3767056914708,7,20,-1.099568486213684,3.754305362701416,18.458280711567063,17.760856032316862,74.04104507315985,64.43000304942183,-0.0001618862152099,0.0956302732229232,0,0,0
6060,220778.0935702576,2010-12-09 01:53:30,780.392114391582,7,20,-1.099568486213684,3.7475063800811768,18.458280711567063,17.770024165955054,74.04104507315985,64.464392212206,-0.0001942634553415,0.0956302732229232,0,0,0
6061,220808.1083592205,2010-12-09 01:54:00,810.406903319414,7,20,-1.099568486213684,3.7413547039031982,18.458280711567063,17.779192058161563,74.04104507315985,64.49872024561036,-0.0001295089750783,0.0956302732229232,0,0,0
6062,220838.12330786075,2010-12-09 01:54:30,840.4218519797341,7,20,-1.099568486213684,3.73455548286438,18.458280711567063,17.788359949594298,74.04104507315985,64.5329898493388,-0.0002266406954731,0.0956302732229232,0,0,0
6063,220868.1384153964,2010-12-09 01:55:00,870.436959500372,7,20,-1.0997490882873535,3.728403806686402,18.458280711567063,17.79752798372018,74.04104507315985,64.56720163436012,-0.0001618862152099,0.0956302732229232,0,0,0
6064,220898.15338363548,2010-12-09 01:55:30,900.4519277544506,7,20,-1.099568486213684,3.722252130508423,18.458280711567063,17.80669650949129,74.04104507315985,64.60135790845048,-0.0001618862152099,0.0956302732229232,0,0,0
6065,220928.1684219088,2010-12-09 01:56:00,930.4669660277692,7,20,-1.0997490882873535,3.716100454330444,18.458280711567063,17.815865228322792,74.04104507315985,64.63545824654628,-0.0001942634553415,0.0956302732229232,0,0,0
6066,220958.18348041247,2010-12-09 01:56:30,960.48202453143,7,20,-1.0997490882873535,3.7102725505828857,18.458280711567063,17.825033997752797,74.04104507315985,64.66950407805055,-0.0001618862152099,0.0956302732229232,0,0,0
6067,220988.19867802228,2010-12-09 01:57:00,990.4972221412517,7,20,-1.0997490882873535,3.704444646835327,18.458280711567063,17.8342028070342,74.04104507315985,64.7034959424878,-0.0001618862152099,0.0956302732229232,0,0,0
6068,221018.21370318296,2010-12-09 01:57:30,1020.512247367102,7,20,-1.0997490882873535,3.698616743087769,18.458280711567063,17.843370940858268,74.04104507315985,64.73743228760557,-0.0001618862152099,0.0956302732229232,0,0,0
6069,221048.21657070983,2010-12-09 01:58:00,1050.5151149240612,7,20,-1.0997490882873535,3.69295072555542,18.458280711567063,17.85253522520835,74.04104507315985,64.77130223903876,-0.0001618862152099,0.0956302732229232,0,0,0
6070,221078.2281734139,2010-12-09 01:58:30,1080.5267175328606,7,20,-1.099568486213684,3.687446594238281,18.458280711567063,17.861702184493993,74.04104507315985,64.80513080000406,-0.0001295089750783,0.0956302732229232,0,0,0
6071,221108.24349259623,2010-12-09 01:59:00,1110.542036700173,7,20,-1.099568486213684,3.682104349136353,18.458280711567063,17.870870287108666,74.04104507315985,64.83891302813552,-0.0001295089750783,0.0956302732229232,0,0,0
6072,221138.25830439097,2010-12-09 01:59:30,1140.5568485149583,7,20,-1.099568486213684,3.676762104034424,18.458280711567063,17.88003819407331,74.04104507315985,64.87264494481698,-0.0001295089750783,0.0956302732229232,0,0,0
6073,221168.27354124343,2010-12-09 02:00:00,1170.5720853624211,7,20,-1.099568486213684,3.671258211135864,18.458280711567063,17.889206285747665,74.04104507315985,64.906328603303,-0.0001618862152099,0.0956302732229232,0,0,0
6074,221198.28835633132,2010-12-09 02:00:30,1200.5869005255386,7,20,-1.0997490882873535,3.6660778522491455,18.458280711567063,17.89837425769545,74.04104507315985,64.93996342120136,-0.0001295089750783,0.0956302732229232,0,0,0
6075,221228.3035012,2010-12-09 02:01:00,1230.6020453941153,7,20,-1.0997490882873535,3.6610593795776367,18.458280711567063,17.907542351424066,74.04104507315985,64.97355118810293,-9.713172767078504e-05,0.0956302732229232,0,0,0
6076,221258.31854708225,2010-12-09 02:01:30,1260.6170912011812,7,20,-1.0997490882873535,3.656040906906128,18.458280711567063,17.916710392880738,74.04104507315985,65.00709194884395,-9.713172767078504e-05,0.0956302732229232,0,0,0
6077,221288.3369840731,2010-12-09 02:02:00,1290.635528267265,7,20,-1.099568486213684,3.651022434234619,18.458280711567063,17.925879499135426,74.04104507315985,65.04059073191588,-9.713172767078504e-05,0.0956302732229232,0,0,0
6078,221318.34867182875,2010-12-09 02:02:30,1320.647215932725,7,20,-1.099568486213684,3.6460039615631104,18.458280711567063,17.935046456116336,74.04104507315985,65.07403611998178,-0.0001295089750783,0.0956302732229232,0,0,0
6079,221348.36397545243,2010-12-09 02:03:00,1350.6625196515945,7,20,-1.0992072820663452,3.6413092613220215,18.458280711567063,17.944214436235367,74.04104507315985,65.10744058534506,-9.713172767078504e-05,0.0956302732229232,0,0,0
6080,221378.37894613252,2010-12-09 02:03:30,1380.677490236473,7,20,-1.0997490882873535,3.6362907886505127,18.458280711567063,17.953382352560922,74.04104507315985,65.1408005877254,-0.0001618862152099,0.0956302732229232,0,0,0
6081,221408.39434891293,2010-12-09 02:04:00,1410.6928930719907,7,20,-1.099568486213684,3.631757974624634,18.458280711567063,17.962550468468066,74.04104507315985,65.17411785081906,-9.713172767078504e-05,0.0956302732229232,0,0,0
6082,221438.4091275702,2010-12-09 02:04:30,1440.70767167914,7,20,-1.099568486213684,3.627225160598755,18.458280711567063,17.97171836238041,74.04104507315985,65.20739172842244,-9.713172767078504e-05,0.0956302732229232,0,0,0
6083,221468.42415867568,2010-12-09 02:05:00,1470.7227028046716,7,20,-1.099568486213684,3.622530460357666,18.458280711567063,17.98088634860576,74.04104507315985,65.24062408666893,-9.713172767078504e-05,0.0956302732229232,0,0,0
6084,221498.4390501988,2010-12-09 02:05:30,1500.7375943077582,7,20,-1.099568486213684,3.618159532546997,18.458280711567063,17.99005434452771,74.04104507315985,65.27381556406506,-9.713172767078504e-05,0.0956302732229232,0,0,0
6085,221528.45411375503,2010-12-09 02:06:00,1530.7526578740174,7,20,-1.099568486213684,3.613950490951538,18.458280711567063,17.999222429970906,74.04104507315985,65.30696771063059,-0.0001295089750783,0.0956302732229232,0,0,0
6086,221558.46917938144,2010-12-09 02:06:30,1560.7677234853654,7,20,-1.099929690361023,3.609741449356079,18.458280711567063,18.008390538264106,74.04104507315985,65.34008128216126,-0.0001295089750783,0.0956302732229232,0,0,0
6087,221588.48424132867,2010-12-09 02:07:00,1590.7827854476332,7,20,-1.099568486213684,3.60569429397583,18.458280711567063,18.017558641917265,74.04104507315985,65.37315691711765,-9.713172767078504e-05,0.0956302732229232,0,0,0
6088,221618.49929333612,2010-12-09 02:07:30,1620.7978374551287,7,20,-1.099568486213684,3.601809024810791,18.458280711567063,18.026726620639387,74.04104507315985,65.40619508146172,-9.713172767078504e-05,0.0956302732229232,0,0,0
6089,221648.51437696232,2010-12-09 02:08:00,1650.8129210813065,7,20,-1.0997490882873535,3.597761869430542,18.458280711567063,18.035894687154546,74.04104507315985,65.43919782417935,-9.713172767078504e-05,0.0956302732229232,0,0,0
6090,221678.52958992036,2010-12-09 02:08:30,1680.8281340443334,7,20,-1.0997490882873535,3.594038486480713,18.458280711567063,18.04506280372927,74.04104507315985,65.47216531239104,-9.713172767078504e-05,0.0956302732229232,0,0,0
6091,221708.54454516707,2010-12-09 02:09:00,1710.843089286031,7,20,-1.099568486213684,3.590315341949463,18.458280711567063,18.05423084265689,74.04104507315985,65.50509830517589,-9.713172767078504e-05,0.0956302732229232,0,0,0
6092,221738.56000300444,2010-12-09 02:09:30,1740.8585471083811,7,20,-1.0997490882873535,3.586591958999634,18.458280711567063,18.0633990639995,74.04104507315985,65.53799838595937,-0.0001295089750783,0.0956302732229232,0,0,0
6093,221768.57490725425,2010-12-09 02:10:00,1770.8734514534244,7,20,-1.099568486213684,3.5833542346954346,18.458280711567063,18.072567125183248,74.04104507315985,65.57086509241185,-9.713172767078504e-05,0.0956302732229232,0,0,0
6094,221798.5896921972,2010-12-09 02:10:30,1800.888236321153,7,20,-1.0997490882873535,3.5797927379608154,18.458280711567063,18.081735159634903,74.04104507315985,65.60370009773568,-9.713172767078504e-05,0.0956302732229232,0,0,0
6095,221828.6047417686,2010-12-09 02:11:00,1830.9032858875744,7,20,-1.0997490882873535,3.5763931274414062,18.458280711567063,18.09090321095651,74.04104507315985,65.63650412069386,-9.713172767078504e-05,0.0956302732229232,0,0,0
6096,221858.62003764795,2010-12-09 02:11:30,1860.9185818421224,7,20,-1.0997490882873535,3.573155403137207,18.458280711567063,18.10007136390201,74.04104507315985,65.66927820387599,-9.713172767078504e-05,0.0956302732229232,0,0,0
6097,221888.63489852985,2010-12-09 02:12:00,1890.9334427240087,7,20,-1.099568486213684,3.569917678833008,18.458280711567063,18.10923938546217,74.04104507315985,65.70202215285427,-6.47544875391759e-05,0.0956302732229232,0,0,0
6098,221918.64994544463,2010-12-09 02:12:30,1920.9484895686576,7,20,-1.0997490882873535,3.5666799545288086,18.458280711567063,18.118407496216204,74.04104507315985,65.73473699974413,-0.0001295089750783,0.0956302732229232,0,0,0
6099,221948.66500491076,2010-12-09 02:13:00,1950.9635490146632,7,20,-1.0997490882873535,3.5634422302246094,18.458280711567063,18.127575557778528,74.04104507315985,65.7674223661966,-6.47544875391759e-05,0.0956302732229232,0,0,0
6100,221978.6802242045,2010-12-09 02:13:30,1980.9787683234813,7,20,-1.0997490882873535,3.56052827835083,18.458280711567063,18.136743639671387,74.04104507315985,65.80007950530475,-6.47544875391759e-05,0.0956302732229232,0,0,0
6101,222008.6951775665,2010-12-09 02:14:00,2010.993721685502,7,20,-1.0997490882873535,3.557452440261841,18.458280711567063,18.14591169948099,74.04104507315985,65.83270775379177,-6.47544875391759e-05,0.0956302732229232,0,0,0
6102,222038.71041464456,2010-12-09 02:14:30,2041.008958823688,7,20,-1.099568486213684,3.5542147159576416,18.458280711567063,18.155079868658618,74.04104507315985,65.86530763786847,-3.237724376958795e-05,0.0956302732229232,0,0,0
6103,222068.72525177736,2010-12-09 02:15:00,2071.023795871264,7,20,-1.0997490882873535,3.5511388778686523,18.458280711567063,18.16424791482265,74.04104507315985,65.89787836317002,-9.713172767078504e-05,0.0956302732229232,0,0,0
6104,222098.74048889548,2010-12-09 02:15:30,2101.0390330696005,7,20,-1.0997490882873535,3.547739267349243,18.458280711567063,18.17341605909341,74.04104507315985,65.93042057512605,-0.0001295089750783,0.0956302732229232,0,0,0
6105,222128.7554223881,2010-12-09 02:16:00,2131.0539666022755,7,20,-1.0993878841400146,3.544663429260254,18.458280711567063,18.182584108685063,74.04104507315985,65.9629331897174,-9.713172767078504e-05,0.0956302732229232,0,0,0
6106,222158.77047917244,2010-12-09 02:16:30,2161.0690232713714,7,20,-1.0997490882873535,3.5412638187408447,18.458280711567063,18.19175217275061,74.04104507315985,65.99541607135804,-9.713172767078504e-05,0.0956302732229232,0,0,0
6107,222188.7855102178,2010-12-09 02:17:00,2191.084054321716,7,20,-1.0997490882873535,3.538026094436645,18.458280711567063,18.20092020836785,74.04104507315985,66.02786896495118,-0.0001295089750783,0.0956302732229232,0,0,0
6108,222218.80057748323,2010-12-09 02:17:30,2221.0991216022176,7,20,-1.0997490882873535,3.5347883701324463,18.458280711567063,18.21008836689026,74.04104507315985,66.06029192670174,-6.47544875391759e-05,0.0956302732229232,0,0,0
6109,222248.81903406788,2010-12-09 02:18:00,2251.11757828211,7,20,-1.099568486213684,3.531388759613037,18.458280711567063,18.219257559023777,74.04104507315985,66.09268772438409,-9.713172767078504e-05,0.0956302732229232,0,0,0
6110,222278.8308888893,2010-12-09 02:18:30,2281.1294330082937,7,20,-1.0997490882873535,3.527989149093628,18.458280711567063,18.22842473525283,74.04104507315985,66.1250448719014,-6.47544875391759e-05,0.0956302732229232,0,0,0
6111,222308.84585074245,2010-12-09 02:19:00,2311.1443948464066,7,20,-1.099568486213684,3.524265766143799,18.458280711567063,18.237592880990395,74.04104507315985,66.15737311760998,-0.0001295089750783,0.0956302732229232,0,0,0
6112,222338.86102274852,2010-12-09 02:19:30,2341.1595668525138,7,20,-1.0993878841400146,3.52070426940918,18.458280711567063,18.246761023533026,74.04104507315985,66.18966823287157,-0.0001295089750783,0.0956302732229232,0,0,0
6113,222368.8759301813,2010-12-09 02:20:00,2371.174474300278,7,20,-1.099568486213684,3.5168190002441406,18.458280711567063,18.255929087039533,74.04104507315985,66.22192906305307,-0.0001618862152099,0.0956302732229232,0,0,0
6114,222398.8909656577,2010-12-09 02:20:30,2401.189509761599,7,20,-1.0997490882873535,3.5129337310791016,18.458280711567063,18.26509729908717,74.04104507315985,66.2541549470836,-0.0001295089750783,0.0956302732229232,0,0,0
6115,222428.90605243167,2010-12-09 02:21:00,2431.2045965255847,7,20,-1.0993878841400146,3.508886814117432,18.458280711567063,18.27426549098847,74.04104507315985,66.28634365871105,-0.0001295089750783,0.0956302732229232,0,0,0
6116,222458.9211004593,2010-12-09 02:21:30,2461.2196446484136,7,20,-1.099568486213684,3.5045158863067627,18.458280711567063,18.283433634440268,74.04104507315985,66.31849294861502,-6.47544875391759e-05,0.0956302732229232,0,0,0
6117,222488.93617889253,2010-12-09 02:22:00,2491.2347229964566,7,20,-1.099568486213684,3.499821186065674,18.458280711567063,18.29260178068447,74.04104507315985,66.35060070786045,-9.713172767078504e-05,0.0956302732229232,0,0,0
6118,222518.9512506041,2010-12-09 02:22:30,2521.2497947280344,7,20,-1.099568486213684,3.494802713394165,18.458280711567063,18.30176990347197,74.04104507315985,66.3826646443105,-0.0001295089750783,0.0956302732229232,0,0,0
6119,222548.9663028471,2010-12-09 02:23:00,2551.2648469510664,7,20,-1.099568486213684,3.4894604682922363,18.458280711567063,18.31093803318136,74.04104507315985,66.41468089894089,-0.0001618862152099,0.0956302732229232,0,0,0
6120,222578.98142849788,2010-12-09 02:23:30,2581.2799726168582,7,20,-1.099568486213684,3.483146905899048,18.458280711567063,18.320106154552136,74.04104507315985,66.44664489696865,-0.0002266406954731,0.0956302732229232,0,0,0
6121,222608.9964694529,2010-12-09 02:24:00,2611.2950135568126,7,20,-1.099568486213684,3.4766714572906494,18.458280711567063,18.32927423386843,74.04104507315985,66.47855039109878,-0.0001618862152099,0.0956302732229232,0,0,0
6122,222639.01153563563,2010-12-09 02:24:30,2641.310079759633,7,20,-1.099568486213684,3.469062805175781,18.458280711567063,18.33844234193421,74.04104507315985,66.51039057209218,-0.0002266406954731,0.0956302732229232,0,0,0
6123,222669.02654016,2010-12-09 02:25:01,2671.325084278956,7,20,-1.0997490882873535,3.460320949554444,18.458280711567063,18.34761040806144,74.04104507315985,66.54215605700603,-0.0002266406954731,0.0956302732229232,0,0,0
6124,222699.04186879084,2010-12-09 02:25:31,2701.3404128947805,7,20,-1.0997490882873535,3.450122117996216,18.458280711567063,18.35677854875052,74.04104507315985,66.5738354342338,-0.0002913951757363,0.0956302732229232,0,0,0
6125,222729.05694229683,2010-12-09 02:26:01,2731.355486410799,7,20,-1.0993878841400146,3.4381425380706787,18.458280711567063,18.365946612994627,74.04104507315985,66.6054125099667,-0.0002913951757363,0.0956302732229232,0,0,0
6126,222759.07175439232,2010-12-09 02:26:31,2761.370298496258,7,20,-1.099568486213684,3.4230873584747314,18.458280711567063,18.375114690819625,74.04104507315985,66.63686585968667,-0.0004209041653666,0.0956302732229232,0,0,0
6127,222789.08681413907,2010-12-09 02:27:01,2791.38535825805,7,20,-1.099568486213684,3.404146671295166,18.458280711567063,18.384282859099805,74.04104507315985,66.66816531578074,-0.0005180359003134,0.0956302732229232,0,0,0
6128,222819.1019997039,2010-12-09 02:27:31,2821.4005438078607,7,20,-1.099568486213684,3.379378080368042,18.458280711567063,18.3934510772356,74.04104507315985,66.69926716491865,-0.0007770538213662,0.0956302732229232,0,0,0
6129,222849.11694351217,2010-12-09 02:28:01,2851.415487631144,7,20,-1.0997490882873535,3.347001075744629,18.458280711567063,18.40261925906312,74.04104507315985,66.73010924945399,-0.0009712696191854,0.0956302732229232,0,0,0
6130,222879.1321692921,2010-12-09 02:28:31,2881.43071342109,7,20,-1.0997490882873535,3.3032917976379395,18.458280711567063,18.41178746207931,74.04104507315985,66.76060482459526,-0.0013274669181555,0.0956302732229232,0,0,0
6131,222909.14722855765,2010-12-09 02:29:01,2911.4457726615847,7,20,-1.099568486213684,3.243394136428833,18.458280711567063,18.42095565180134,74.04104507315985,66.79063037639605,-0.0018455028766766,0.0956302732229232,0,0,0
6132,222939.1623653862,2010-12-09 02:29:31,2941.460909580379,7,20,-1.099568486213684,3.1588897705078125,18.458280711567063,18.430123811936227,74.04104507315985,66.82000347339206,-0.0026549338363111,0.0956302732229232,0,0,0
6133,222969.18051373883,2010-12-09 02:30:01,2971.4790579380224,7,20,-1.099568486213684,3.0303523540496826,18.458280711567063,18.439292937628192,74.04104507315985,66.8484251778157,-0.0042737959884107,0.0956302732229232,0,0,0
6134,222995.3485886017,2010-12-09 02:30:27,2997.6471327056174,7,20,-1.099568486213684,2.8299379348754883,18.458280711567063,18.44728602263365,74.04104507315985,66.87192912530725,-0.0078352447599172,0.0956302732229232,0,0,0
6135,223007.44211042052,2010-12-09 02:30:39,3009.7406545245285,7,20,-1.0997490882873535,2.699458122253418,18.458280711567063,18.450980005959337,74.04104507315985,66.88214619672345,-0.0089036943390965,0.0956302732229232,0,0,0
6136,223067.4603726208,2010-12-09 02:31:39,60.0145514179516,8,20,0.0,3.3845584392547607,18.458280711567063,18.450980005959337,74.04104507315985,66.88214619672345,0.0013274669181555,0.0956302732229232,0,0,0
6137,223067.65243550352,2010-12-09 02:31:39,0.187401747039749,9,20,-1.9243103452026844e-05,3.3847203254699707,18.458280711567063,18.450980006961053,74.04104507315985,66.882146200114,0.0,0.0947341993451118,0,0,0
6138,223072.48047935995,2010-12-09 02:31:44,5.015445568395199,9,20,0.0007031940040178,3.392652750015259,18.45828175012365,18.45098000704479,74.04104859326819,66.88214620039743,0.0011332035064697,0.0947341993451118,0,0,0
