Data_Point,Test_Time(s),Date_Time,Step_Time(s),Step_Index,Cycle_Index,Current(A),Voltage(V),Charge_Capacity(Ah),Discharge_Capacity(Ah),Charge_Energy(Wh),Discharge_Energy(Wh),dV/dt(V/s),Internal_Resistance(Ohm),Is_FC_Data,AC_Impedance(Ohm),ACI_Phase_Angle(Deg)
8862,322690.9964197877,2010-12-10 06:12:15,30.01498662980571,1,30,0.0,3.461130380630493,26.643388425444652,26.624026315715888,106.88936527355742,96.46408692724688,0.0007446765666827,0.0956302732229232,0,0,0
8863,322721.01215681486,2010-12-10 06:12:45,60.03072366697127,1,30,0.0,3.4842801094055176,26.643388425444652,26.624026315715888,106.88936527355742,96.46408692724688,0.0005180359003134,0.0956302732229232,0,0,0
8864,322751.02652784274,2010-12-10 06:13:15,90.0450947750749,1,30,0.0,3.5016019344329834,26.643388425444652,26.624026315715888,106.88936527355742,96.46408692724688,0.0003885269106831,0.0956302732229232,0,0,0
8865,322780.99473248736,2010-12-10 06:13:45,120.0132994447722,1,30,0.0,3.515523910522461,26.643388425444652,26.624026315715888,106.88936527355742,96.46408692724688,0.0003237724304199,0.0956302732229232,0,0,0
8866,322811.02047887555,2010-12-10 06:14:15,30.015102758788217,2,30,0.550297200679779,3.6668872833251953,26.64797560450452,26.624026315715888,106.90604857405587,96.46408692724688,0.0012950897216796,0.0956302732229232,0,0,0
8867,322841.035436413,2010-12-10 06:14:45,60.03006021098657,2,30,0.550297200679779,3.705092191696167,26.652562698468248,26.624026315715888,106.92296202482868,96.46408692724688,0.0009065627818927,0.0956302732229232,0,0,0
8868,322871.05051999906,2010-12-10 06:15:15,90.04514386222638,2,30,0.550297200679779,3.73228907585144,26.657149845966508,26.624026315715888,106.94002293563648,96.46408692724688,0.0006475448608398,0.0956302732229232,0,0,0
8869,322901.065514318,2010-12-10 06:15:45,120.0601380859292,2,30,0.550297200679779,3.753010272979736,26.66173691797008,26.624026315715888,106.95719238700082,96.46408692724688,0.0005179882282391,0.0956302732229232,0,0,0
8870,322931.08081472863,2010-12-10 06:16:15,150.07543850659138,2,30,0.5499359965324402,3.7683894634246826,26.66632401040401,26.624026315715888,106.97444511488486,96.46408692724688,0.0003237724304199,0.0956302732229232,0,0,0
8871,322961.09577371465,2010-12-10 06:16:45,180.090397507644,2,30,0.5499359965324402,3.77907395362854,26.67091101130351,26.624026315715888,106.991757418953,96.46408692724688,0.0001942634553415,0.0956302732229232,0,0,0
8872,322991.1107122047,2010-12-10 06:17:15,210.10533598261827,2,30,0.5501165986061096,3.786358833312988,26.675498057324617,26.624026315715888,107.00911017001845,96.46408692724688,0.0001618862152099,0.0956302732229232,0,0,0
8873,323021.12560422404,2010-12-10 06:17:45,240.1202280019896,2,30,0.5501165986061096,3.792186737060547,26.68008509229829,26.624026315715888,107.0264920921374,96.46408692724688,0.0001618862152099,0.0956302732229232,0,0,0
8874,323051.1408510363,2010-12-10 06:18:15,270.13547481424933,2,30,0.5501165986061096,3.797205209732056,26.684672136096097,26.624026315715888,107.04389863447328,96.46408692724688,0.0001295089750783,0.0956302732229232,0,0,0
8875,323081.155657984,2010-12-10 06:18:45,300.15028176693545,2,30,0.550297200679779,3.802223682403565,26.689259185643493,26.624026315715888,107.06132789771588,96.46408692724688,0.0001295089750783,0.0956302732229232,0,0,0
8876,323111.17070266826,2010-12-10 06:19:15,330.16532646624484,2,30,0.5501165986061096,3.8065946102142334,26.69384631153558,26.624026315715888,107.07877887957036,96.46408692724688,9.713172767078504e-05,0.0956302732229232,0,0,0
8877,323141.1857196185,2010-12-10 06:19:45,360.18034341148933,2,30,0.550297200679779,3.8109655380249023,26.698433384804733,26.624026315715888,107.09625029792616,96.46408692724688,9.713172767078504e-05,0.0956302732229232,0,0,0
8878,323171.20091849146,2010-12-10 06:20:15,390.1955423546286,2,30,0.550297200679779,3.8153364658355713,26.70302052157319,26.624026315715888,107.11374189730152,96.46408692724688,0.0001295089750783,0.0956302732229232,0,0,0
8879,323201.21592249454,2010-12-10 06:20:45,420.2105462774674,2,30,0.5501165986061096,3.81938362121582,26.707607576994835,26.624026315715888,107.1312523626633,96.46408692724688,0.0001295089750783,0.0956302732229232,0,0,0
8880,323231.2307120389,2010-12-10 06:21:15,450.22533581682114,2,30,0.5501165986061096,3.823430776596069,26.712194630456885,26.624026315715888,107.14878128315895,96.46408692724688,0.0001295089750783,0.0956302732229232,0,0,0
8881,323261.2458023266,2010-12-10 06:21:45,480.2404261045757,2,30,0.5501165986061096,3.8271541595458975,26.716781592974087,26.624026315715888,107.16632799119756,96.46408692724688,6.47544875391759e-05,0.0956302732229232,0,0,0
8882,323291.26082577306,2010-12-10 06:22:15,510.2554495509981,2,30,0.5501165986061096,3.831201314926148,26.721368696200376,26.624026315715888,107.18389292872452,96.46408692724688,9.713172767078504e-05,0.0956302732229232,0,0,0
8883,323321.27586534456,2010-12-10 06:22:45,540.2704891225472,2,30,0.5501165986061096,3.834762573242188,26.72595576944234,26.624026315715888,107.20147510498096,96.46408692724688,9.713172767078504e-05,0.0956302732229232,0,0,0
8884,323351.29089241504,2010-12-10 06:23:15,570.2855161980004,2,30,0.550297200679779,3.8386478424072266,26.730542790593216,26.624026315715888,107.21907432065451,96.46408692724688,9.713172767078504e-05,0.0956302732229232,0,0,0
8885,323381.30590740545,2010-12-10 06:23:45,600.3005311984053,2,30,0.5501165986061096,3.8425331115722656,26.735129801245986,26.624026315715888,107.2366907042246,96.46408692724688,0.0001295089750783,0.0956302732229232,0,0,0
8886,323411.32099315186,2010-12-10 06:24:15,630.3156169448589,2,30,0.5501165986061096,3.8460946083068848,26.739716846019626,26.624026315715888,107.25432430481706,96.46408692724688,9.713172767078504e-05,0.0956302732229232,0,0,0
8887,323441.33936492045,2010-12-10 06:24:45,660.3339887886394,2,30,0.5501165986061096,3.849656105041504,26.744304395054037,26.624026315715888,107.27197700117296,96.46408692724688,6.47544875391759e-05,0.0956302732229232,0,0,0
8888,323471.35134481813,2010-12-10 06:25:15,690.3459686662579,2,30,0.5501165986061096,3.853379487991333,26.74889097896678,26.624026315715888,107.28964311616348,96.46408692724688,6.47544875391759e-05,0.0956302732229232,0,0,0
8889,323501.3660261482,2010-12-10 06:25:45,720.3606499411998,2,30,0.5501165986061096,3.857264757156372,26.75347798020298,26.624026315715888,107.307327894807,96.46408692724688,9.713172767078504e-05,0.0956302732229232,0,0,0
8890,323531.3811854677,2010-12-10 06:26:15,750.3758092456999,2,30,0.550297200679779,3.860988140106201,26.758065044498533,26.624026315715888,107.3250299440966,96.46408692724688,9.713172767078504e-05,0.0956302732229232,0,0,0
8891,323561.39609927137,2010-12-10 06:26:45,780.3907230643177,2,30,0.550297200679779,3.86454963684082,26.76265212468712,26.624026315715888,107.34274881675496,96.46408692724688,0.0001295089750783,0.0956302732229232,0,0,0
8892,323591.411122422,2010-12-10 06:27:15,810.4057462200167,2,30,0.5501165986061096,3.8682730197906494,26.767239170186272,26.624026315715888,107.3604840584566,96.46408692724688,0.0001295089750783,0.0956302732229232,0,0,0
8893,323621.4261390014,2010-12-10 06:27:45,840.4207627943382,2,30,0.550297200679779,3.8716726303100586,26.771826275059947,26.624026315715888,107.37823571059664,96.46408692724688,9.713172767078504e-05,0.0956302732229232,0,0,0
8894,323651.44133102725,2010-12-10 06:28:15,870.4359548102393,2,30,0.5499359965324402,3.874910354614258,26.776413391917444,26.624026315715888,107.39600318564791,96.46408692724688,6.47544875391759e-05,0.0956302732229232,0,0,0
8895,323681.4562647956,2010-12-10 06:28:45,900.450888588526,2,30,0.5501165986061096,3.878471851348877,26.7810004654111,26.624026315715888,107.41378577622264,96.46408692724688,0.0001295089750783,0.0956302732229232,0,0,0
8896,323711.47150303144,2010-12-10 06:29:15,930.4661268144188,2,30,0.550297200679779,3.881547689437866,26.78558760436627,26.624026315715888,107.431583357764,96.46408692724688,6.47544875391759e-05,0.0956302732229232,0,0,0
8897,323741.4863293423,2010-12-10 06:29:45,960.4809532155016,2,30,0.550297200679779,3.884299755096436,26.790174665494803,26.624026315715888,107.44939487345324,96.46408692724688,0.0,0.0956302732229232,0,0,0
8898,323771.50145305326,2010-12-10 06:30:15,990.496076901366,2,30,0.550297200679779,3.887375593185425,26.79476181736585,26.624026315715888,107.4672203067868,96.46408692724688,6.47544875391759e-05,0.0956302732229232,0,0,0
8899,323801.5164423296,2010-12-10 06:30:45,1020.5110661226204,2,30,0.5501165986061096,3.890127658843994,26.79934890215353,26.624026315715888,107.48505847785214,96.46408692724688,9.713172767078504e-05,0.0956302732229232,0,0,0
8900,323831.5313605442,2010-12-10 06:31:15,1050.52598432214,2,30,0.550297200679779,3.893041610717773,26.80393596194578,26.624026315715888,107.50290888801128,96.46408692724688,0.0001295089750783,0.0956302732229232,0,0,0
8901,323861.5464070831,2010-12-10 06:31:46,1080.5410309462393,2,30,0.550297200679779,3.894984245300293,26.80852317214936,26.624026315715888,107.52077146080713,96.46408692724688,3.237724376958795e-05,0.0956302732229232,0,0,0
8902,323891.5616524718,2010-12-10 06:32:16,1110.556276254757,2,30,0.5501165986061096,3.8974125385284415,26.81311031978288,26.624026315715888,107.53864447608204,96.46408692724688,3.237724376958795e-05,0.0956302732229232,0,0,0
8903,323921.5766831863,2010-12-10 06:32:46,1140.571307034428,2,30,0.550297200679779,3.899840831756592,26.81769741140828,26.624026315715888,107.5565276565058,96.46408692724688,9.713172767078504e-05,0.0956302732229232,0,0,0
8904,323951.59162787173,2010-12-10 06:33:16,1170.5862516496825,2,30,0.5501165986061096,3.9017834663391113,26.82228450086684,26.624026315715888,107.57442057842027,96.46408692724688,6.47544875391759e-05,0.0956302732229232,0,0,0
8905,323981.60654791584,2010-12-10 06:33:46,1200.601171713842,2,30,0.5501165986061096,3.903564214706421,26.82687162657938,26.624026315715888,107.59232293792832,96.46408692724688,0.0,0.0956302732229232,0,0,0
8906,324011.6218232641,2010-12-10 06:34:16,1230.6164470420624,2,30,0.5501165986061096,3.905506849288941,26.831458794764075,26.624026315715888,107.610234299506,96.46408692724688,6.47544875391759e-05,0.0956302732229232,0,0,0
8907,324041.63655613747,2010-12-10 06:34:46,1260.6311799304422,2,30,0.5501165986061096,3.90744948387146,26.83604584580767,26.624026315715888,107.62815365043096,96.46408692724688,6.47544875391759e-05,0.0956302732229232,0,0,0
8908,324071.6517263792,2010-12-10 06:35:16,1290.6463501621342,2,30,0.550297200679779,3.9092302322387695,26.840632963974183,26.624026315715888,107.64608142369369,96.46408692724688,6.47544875391759e-05,0.0956302732229232,0,0,0
8909,324101.6667227382,2010-12-10 06:35:46,1320.6613465311757,2,30,0.550297200679779,3.910687208175659,26.84522008261431,26.624026315715888,107.66401716941112,96.46408692724688,3.237724376958795e-05,0.0956302732229232,0,0,0
8910,324131.681630206,2010-12-10 06:36:16,1350.6762539989898,2,30,0.5501165986061096,3.9124679565429688,26.849807149236945,26.624026315715888,107.68196046833516,96.46408692724688,3.237724376958795e-05,0.0956302732229232,0,0,0
8911,324161.69999137823,2010-12-10 06:36:46,1380.6946152464016,2,30,0.550297200679779,3.914248466491699,26.85439471460358,26.624026315715888,107.69991336423637,96.46408692724688,3.237724376958795e-05,0.0956302732229232,0,0,0
8912,324191.7117190533,2010-12-10 06:37:16,1410.7063428462366,2,30,0.5499359965324402,3.915705442428589,26.8589813587532,26.624026315715888,107.71787016856736,96.46408692724688,-3.237724376958795e-05,0.0956302732229232,0,0,0
8913,324221.726724535,2010-12-10 06:37:46,1440.7213483279545,2,30,0.5501165986061096,3.917324304580689,26.86356844339333,26.624026315715888,107.7358361146273,96.46408692724688,3.237724376958795e-05,0.0956302732229232,0,0,0
8914,324251.7418308376,2010-12-10 06:38:16,1470.7364546205365,2,30,0.5501165986061096,3.919105052947998,26.868155529179173,26.624026315715888,107.75380955090444,96.46408692724688,3.237724376958795e-05,0.0956302732229232,0,0,0
8915,324281.7568429157,2010-12-10 06:38:46,1500.7514667086944,2,30,0.550297200679779,3.9207239151000977,26.87274257397245,26.624026315715888,107.77179028695528,96.46408692724688,6.47544875391759e-05,0.0956302732229232,0,0,0
8916,324311.7719306521,2010-12-10 06:39:16,1530.7665545002371,2,30,0.5501165986061096,3.9221808910369873,26.877329653242978,26.624026315715888,107.78977852445296,96.46408692724688,6.47544875391759e-05,0.0956302732229232,0,0,0
8917,324341.78682621534,2010-12-10 06:39:46,1560.78145000829,2,30,0.5501165986061096,3.923961639404297,26.88191673239652,26.624026315715888,107.8077741801135,96.46408692724688,6.47544875391759e-05,0.0956302732229232,0,0,0
8918,324371.80185685965,2010-12-10 06:40:16,1590.7964806425991,2,30,0.5499359965324402,3.925580501556397,26.88650388238209,26.624026315715888,107.82577755969903,96.46408692724688,6.47544875391759e-05,0.0956302732229232,0,0,0
8919,324401.8181240711,2010-12-10 06:40:46,1620.8127479292702,2,30,0.550297200679779,3.927199363708496,26.89109126968836,26.624026315715888,107.8437891209104,96.46408692724688,6.47544875391759e-05,0.0956302732229232,0,0,0
8920,324431.831991551,2010-12-10 06:41:16,1650.8266154191392,2,30,0.550297200679779,3.9286563396453857,26.895678269543307,26.624026315715888,107.86180659425524,96.46408692724688,0.0,0.0956302732229232,0,0,0
8921,324461.84694593056,2010-12-10 06:41:46,1680.8415697084667,2,30,0.5501165986061096,3.9304370880126953,26.900265363908,26.624026315715888,107.87983182217822,96.46408692724688,9.713172767078504e-05,0.0956302732229232,0,0,0
8922,324491.86229967885,2010-12-10 06:42:16,1710.8569235520702,2,30,0.550297200679779,3.932055950164795,26.904852621086707,26.624026315715888,107.89786513423716,96.46408692724688,3.237724376958795e-05,0.0956302732229232,0,0,0
8923,324521.877250665,2010-12-10 06:42:46,1740.8718745331653,2,30,0.5504778623580933,3.933836698532105,26.90943974551827,26.624026315715888,107.91590534339127,96.46408692724688,9.713172767078504e-05,0.0956302732229232,0,0,0
8924,324551.8922362522,2010-12-10 06:43:16,1770.886860030152,2,30,0.5501165986061096,3.935131788253784,26.914026853393658,26.624026315715888,107.93395289688898,96.46408692724688,6.47544875391759e-05,0.0956302732229232,0,0,0
8925,324581.9074304836,2010-12-10 06:43:46,1800.9020543768531,2,30,0.5501165986061096,3.936750650405884,26.91861407261701,26.624026315715888,107.952008304126,96.46408692724688,3.237724376958795e-05,0.0956302732229232,0,0,0
8926,324611.92207956343,2010-12-10 06:44:16,1830.916703426604,2,30,0.550297200679779,3.938531398773194,26.92320118763432,26.624026315715888,107.97007084461872,96.46408692724688,6.47544875391759e-05,0.0956302732229232,0,0,0
8927,324641.9371188242,2010-12-10 06:44:46,1860.931742602168,2,30,0.550297200679779,3.940150260925293,26.92778833261199,26.624026315715888,107.98814095528644,96.46408692724688,6.47544875391759e-05,0.0956302732229232,0,0,0
8928,324671.95213585463,2010-12-10 06:45:16,1890.946759632624,2,30,0.5504778623580933,3.9419310092926025,26.93237542099093,26.624026315715888,108.0062183868116,96.46408692724688,0.0001295089750783,0.0956302732229232,0,0,0
8929,324701.9672354055,2010-12-10 06:45:46,1920.961859288692,2,30,0.5501165986061096,3.943387985229492,26.936962551034625,26.624026315715888,108.0243035237904,96.46408692724688,0.0,0.0956302732229232,0,0,0
8930,324731.98219838145,2010-12-10 06:46:16,1950.976822159373,2,30,0.550297200679779,3.9451687335968018,26.941549620475406,26.624026315715888,108.04239600398822,96.46408692724688,6.47544875391759e-05,0.0956302732229232,0,0,0
8931,324761.9973777559,2010-12-10 06:46:46,1980.9920015338168,2,30,0.5499359965324402,3.946787595748901,26.94613678410792,26.624026315715888,108.0604965212014,96.46408692724688,6.47544875391759e-05,0.0956302732229232,0,0,0
8932,324792.0122994641,2010-12-10 06:47:16,2011.0069232470803,2,30,0.550297200679779,3.948730230331421,26.95072386684803,26.624026315715888,108.07860425279851,96.46408692724688,0.0001295089750783,0.0956302732229232,0,0,0
8933,324822.0274886981,2010-12-10 06:47:46,2041.022112496096,2,30,0.5501165986061096,3.950187206268311,26.955311040013108,26.624026315715888,108.0967200916141,96.46408692724688,6.47544875391759e-05,0.0956302732229232,0,0,0
8934,324852.04261041404,2010-12-10 06:48:16,2071.0372342220835,2,30,0.5501165986061096,3.9516441822052,26.95989816095101,26.624026315715888,108.11484344781962,96.46408692724688,3.237724376958795e-05,0.0956302732229232,0,0,0
8935,324882.057738155,2010-12-10 06:48:46,2101.052361932964,2,30,0.5501165986061096,3.9534249305725098,26.964485337597377,26.624026315715888,108.13297466138653,96.46408692724688,6.47544875391759e-05,0.0956302732229232,0,0,0
8936,324912.07239723974,2010-12-10 06:49:16,2131.0670211028983,2,30,0.5499359965324402,3.95504379272461,26.969072453803797,26.624026315715888,108.15111337304792,96.46408692724688,6.47544875391759e-05,0.0956302732229232,0,0,0
8937,324942.0873865713,2010-12-10 06:49:46,2161.082010349215,2,30,0.5504778623580933,3.956986427307129,26.973659556093608,26.624026315715888,108.16925979436074,96.46408692724688,0.0001295089750783,0.0956302732229232,0,0,0
8938,324972.1026471328,2010-12-10 06:50:16,2191.0972710009137,2,30,0.5501165986061096,3.9584434032440186,26.978246727217545,26.624026315715888,108.18741408016136,96.46408692724688,3.237724376958795e-05,0.0956302732229232,0,0,0
8939,325002.11758819415,2010-12-10 06:50:46,2221.112212057312,2,30,0.550297200679779,3.960062265396118,26.982833817668887,26.624026315715888,108.20557589842304,96.46408692724688,3.237724376958795e-05,0.0956302732229232,0,0,0
8940,325032.1325158021,2010-12-10 06:51:16,2251.127139580032,2,30,0.5501165986061096,3.961843013763428,26.987420970959995,26.624026315715888,108.22374581035228,96.46408692724688,0.0,0.0956302732229232,0,0,0
8941,325062.147602952,2010-12-10 06:51:46,2281.1422267299777,2,30,0.5501165986061096,3.9637856483459473,26.992008116983303,26.624026315715888,108.24192348293512,96.46408692724688,9.713172767078504e-05,0.0956302732229232,0,0,0
8942,325092.1627314298,2010-12-10 06:52:16,2311.157355207767,2,30,0.550297200679779,3.965404510498047,26.996595265002263,26.624026315715888,108.26010910895552,96.46408692724688,6.47544875391759e-05,0.0956302732229232,0,0,0
8943,325122.1775826928,2010-12-10 06:52:46,2341.172206470718,2,30,0.5501165986061096,3.967185258865357,27.00118241530304,26.624026315715888,108.27830272915548,96.46408692724688,6.47544875391759e-05,0.0956302732229232,0,0,0
8944,325152.19271218806,2010-12-10 06:53:16,2371.1873360362133,2,30,0.5501165986061096,3.968804121017456,27.00576951504442,26.624026315715888,108.29650401762323,96.46408692724688,3.237724376958795e-05,0.0956302732229232,0,0,0
8945,325182.2076004782,2010-12-10 06:53:46,2401.202224271167,2,30,0.5501165986061096,3.9705848693847656,27.01035660305375,26.624026315715888,108.3147133210196,96.46408692724688,6.47544875391759e-05,0.0956302732229232,0,0,0
8946,325212.22276459466,2010-12-10 06:54:16,2431.217388442779,2,30,0.5501165986061096,3.972365617752075,27.014943752758445,26.624026315715888,108.33293102669664,96.46408692724688,3.237724376958795e-05,0.0956302732229232,0,0,0
8947,325242.2377011248,2010-12-10 06:54:46,2461.232324917776,2,30,0.5501165986061096,3.973984479904175,27.019530876879355,26.624026315715888,108.35115672356812,96.46408692724688,3.237724376958795e-05,0.0956302732229232,0,0,0
8948,325272.25268819573,2010-12-10 06:55:16,2491.247312058854,2,30,0.5501165986061096,3.9759271144866943,27.024118075354625,26.624026315715888,108.3693910033429,96.46408692724688,6.47544875391759e-05,0.0956302732229232,0,0,0
8949,325302.26771244913,2010-12-10 06:55:46,2521.262336297248,2,30,0.5501165986061096,3.977707862854004,27.028705186258225,26.624026315715888,108.38763323225024,96.46408692724688,3.237724376958795e-05,0.0956302732229232,0,0,0
8950,325332.2829194723,2010-12-10 06:56:16,2551.2775432703693,2,30,0.550297200679779,3.979812383651733,27.03329236084073,26.624026315715888,108.4058836636283,96.46408692724688,0.0001295089750783,0.0956302732229232,0,0,0
8951,325362.301169503,2010-12-10 06:56:46,2581.295793371197,2,30,0.550297200679779,3.981431245803833,27.03787990098007,26.624026315715888,108.42414447073868,96.46408692724688,6.47544875391759e-05,0.0956302732229232,0,0,0
8952,325392.31278473325,2010-12-10 06:57:16,2611.30740851118,2,30,0.5501165986061096,3.983211994171143,27.0424664967836,26.624026315715888,108.44241001616314,96.46408692724688,3.237724376958795e-05,0.0956302732229232,0,0,0
8953,325422.3278229163,2010-12-10 06:57:46,2641.322446714324,2,30,0.550297200679779,3.985316514968872,27.04705349178968,26.624026315715888,108.46068571286057,96.46408692724688,6.47544875391759e-05,0.0956302732229232,0,0,0
8954,325452.342838418,2010-12-10 06:58:16,2671.337462195926,2,30,0.5501165986061096,3.9870972633361816,27.051640467792428,26.624026315715888,108.47896997328198,96.46408692724688,0.0,0.0956302732229232,0,0,0
8955,325482.35787352343,2010-12-10 06:58:46,2701.352497371536,2,30,0.550297200679779,3.989039897918701,27.05622760827751,26.624026315715888,108.49726356399604,96.46408692724688,9.713172767078504e-05,0.0956302732229232,0,0,0
8956,325512.37288785214,2010-12-10 06:59:16,2731.367511630095,2,30,0.5501165986061096,3.9908206462860103,27.06081461056779,26.624026315715888,108.51556544126942,96.46408692724688,3.237724376958795e-05,0.0956302732229232,0,0,0
8957,325542.38793342863,2010-12-10 06:59:46,2761.382557206587,2,30,0.550297200679779,3.99308705329895,27.06540171579937,26.624026315715888,108.53387667046414,96.46408692724688,9.713172767078504e-05,0.0956302732229232,0,0,0
8958,325572.4030750942,2010-12-10 07:00:16,2791.3976989574057,2,30,0.5501165986061096,3.9948675632476807,27.069988880685884,26.624026315715888,108.55219708716292,96.46408692724688,6.47544875391759e-05,0.0956302732229232,0,0,0
8959,325602.4182978015,2010-12-10 07:00:46,2821.412921579469,2,30,0.5501165986061096,3.9968101978302,27.07457599764096,26.624026315715888,108.57052645403888,96.46408692724688,3.237724376958795e-05,0.0956302732229232,0,0,0
8960,325632.43309154134,2010-12-10 07:01:16,2851.42771538945,2,30,0.550297200679779,3.9989147186279297,27.079163186176867,26.624026315715888,108.58886524467454,96.46408692724688,9.713172767078504e-05,0.0956302732229232,0,0,0
8961,325662.4480213697,2010-12-10 07:01:46,2881.442645217908,2,30,0.5501165986061096,4.000857353210449,27.08375026576053,26.624026315715888,108.60721284617291,96.46408692724688,6.47544875391759e-05,0.0956302732229232,0,0,0
8962,325692.46324146056,2010-12-10 07:02:16,2911.4578653086724,2,30,0.550297200679779,4.002962112426758,27.088337399434437,26.624026315715888,108.62557005692422,96.46408692724688,6.47544875391759e-05,0.0956302732229232,0,0,0
8963,325722.47815271275,2010-12-10 07:02:46,2941.4727766010037,2,30,0.5499359965324402,4.004904747009277,27.09292448291395,26.624026315715888,108.64393662464326,96.46408692724688,3.24249267578125e-05,0.0956302732229232,0,0,0
8964,325752.4931231022,2010-12-10 07:03:16,2971.487746880121,2,30,0.5501165986061096,4.007171154022217,27.09751154889912,26.624026315715888,108.66231283186482,96.46408692724688,9.71794142969884e-05,0.0956302732229232,0,0,0
8965,325782.50815522013,2010-12-10 07:03:47,3001.502779093359,2,30,0.5501165986061096,4.009275436401367,27.102098694340945,26.624026315715888,108.68069915287526,96.46408692724688,6.47544875391759e-05,0.0956302732229232,0,0,0
8966,325812.52330801345,2010-12-10 07:04:17,3031.517931796432,2,30,0.550297200679779,4.011541843414307,27.10668583472845,26.624026315715888,108.69909531421108,96.46408692724688,6.47544875391759e-05,0.0956302732229232,0,0,0
8967,325842.53844009025,2010-12-10 07:04:47,3061.5330639533763,2,30,0.5501165986061096,4.013484477996826,27.111272958839432,26.624026315715888,108.7175014341994,96.46408692724688,3.23295607813634e-05,0.0956302732229232,0,0,0
8968,325872.55339927675,2010-12-10 07:05:17,3091.5480230546787,2,30,0.5501165986061096,4.015913009643555,27.115860072215355,26.624026315715888,108.7359176565528,96.46408692724688,6.47544875391759e-05,0.0956302732229232,0,0,0
8969,325902.5684478607,2010-12-10 07:05:47,3121.5630716386545,2,30,0.550297200679779,4.018341064453125,27.12044716331468,26.624026315715888,108.75434413918452,96.46408692724688,6.47544875391759e-05,0.0956302732229232,0,0,0
8970,325932.5832611893,2010-12-10 07:06:17,3151.577884967207,2,30,0.5501165986061096,4.020445823669434,27.125034302650864,26.624026315715888,108.77278112354556,96.46408692724688,9.71794142969884e-05,0.0956302732229232,0,0,0
8971,325962.59834219894,2010-12-10 07:06:47,3181.592966062085,2,30,0.5501165986061096,4.022712230682373,27.129621395171565,26.624026315715888,108.79122851271848,96.46408692724688,6.47544875391759e-05,0.0956302732229232,0,0,0
8972,325992.6133169642,2010-12-10 07:07:17,3211.607940757192,2,30,0.5501165986061096,4.025140285491943,27.134208479903748,26.624026315715888,108.80968652429172,96.46408692724688,9.70840483205393e-05,0.0956302732229232,0,0,0
8973,326022.6284742436,2010-12-10 07:07:47,3241.623098036653,2,30,0.550297200679779,4.027568817138672,27.13879559404072,26.624026315715888,108.82815542182048,96.46408692724688,0.0001295089750783,0.0956302732229232,0,0,0
8974,326052.64339482406,2010-12-10 07:08:17,3271.638018702309,2,30,0.550297200679779,4.029835224151611,27.143382733919992,26.624026315715888,108.84663523650256,96.46408692724688,9.71794142969884e-05,0.0956302732229232,0,0,0
8975,326082.6619518437,2010-12-10 07:08:47,3301.656575711868,2,30,0.550297200679779,4.032263278961182,27.14797033943412,26.624026315715888,108.86512788612728,96.46408692724688,6.47544875391759e-05,0.0956302732229232,0,0,0
8976,326112.6734304038,2010-12-10 07:09:17,3331.668054191777,2,30,0.550297200679779,4.034691333770752,27.15255685911131,26.624026315715888,108.88362731586356,96.46408692724688,6.47544875391759e-05,0.0956302732229232,0,0,0
8977,326142.68862387835,2010-12-10 07:09:47,3361.683247656283,2,30,0.5497553944587708,4.036957740783691,27.15714399622027,26.624026315715888,108.90214038778277,96.46408692724688,3.23295607813634e-05,0.0956302732229232,0,0,0
8978,326172.703602829,2010-12-10 07:10:17,3391.698226611992,2,30,0.550297200679779,4.039547920227051,27.16173111198979,26.624026315715888,108.92066476804835,96.46408692724688,6.47544875391759e-05,0.0956302732229232,0,0,0
8979,326202.71872272546,2010-12-10 07:10:47,3421.713346543514,2,30,0.5501165986061096,4.041976451873779,27.166318265123667,26.624026315715888,108.93920064374056,96.46408692724688,6.47544875391759e-05,0.0956302732229232,0,0,0
8980,326232.7335254176,2010-12-10 07:11:17,3451.728149210536,2,30,0.5501165986061096,4.044566631317139,27.170905348829056,26.624026315715888,108.95774786379432,96.46408692724688,3.24249267578125e-05,0.0956302732229232,0,0,0
8981,326262.7486712936,2010-12-10 07:11:47,3481.743295071582,2,30,0.5501165986061096,4.047318458557129,27.175492494408683,26.624026315715888,108.97630701283346,96.46408692724688,6.47544875391759e-05,0.0956302732229232,0,0,0
8982,326292.7636018589,2010-12-10 07:12:17,3511.7582256519104,2,30,0.5501165986061096,4.049746990203857,27.18007960201579,26.624026315715888,108.99487783547411,96.46408692724688,6.47544875391759e-05,0.0956302732229232,0,0,0
8983,326322.7822263464,2010-12-10 07:12:47,3541.7768502145727,2,30,0.5501165986061096,4.052337169647217,27.184667321596542,26.624026315715888,109.013462956211,96.46408692724688,6.47544875391759e-05,0.0956302732229232,0,0,0
8984,326352.7936534936,2010-12-10 07:13:17,3571.78827737678,2,30,0.550297200679779,4.054927349090576,27.18925387390912,26.624026315715888,109.03205533176082,96.46408692724688,6.47544875391759e-05,0.0956302732229232,0,0,0
8985,326382.80867543624,2010-12-10 07:13:47,3601.803299224224,2,30,0.5501165986061096,4.057679176330566,27.19384099305228,26.624026315715888,109.05066213945356,96.46408692724688,6.47544875391759e-05,0.0956302732229232,0,0,0
8986,326412.82375311264,2010-12-10 07:14:17,3631.818376905608,2,30,0.5501165986061096,4.060431480407715,27.198428158372177,26.624026315715888,109.06928137206404,96.46408692724688,9.71794142969884e-05,0.0956302732229232,0,0,0
8987,326442.8388246588,2010-12-10 07:14:47,3661.833448441699,2,30,0.550297200679779,4.063021659851074,27.203015275056263,26.624026315715888,109.08791227153829,96.46408692724688,9.71794142969884e-05,0.0956302732229232,0,0,0
8988,326472.85376386053,2010-12-10 07:15:17,3691.848387638469,2,30,0.550297200679779,4.0657734870910645,27.20760228971746,26.624026315715888,109.10655525663196,96.46408692724688,9.70840483205393e-05,0.0956302732229232,0,0,0
8989,326502.868874524,2010-12-10 07:15:47,3721.863498301928,2,30,0.5501165986061096,4.068363666534424,27.212189433148065,26.624026315715888,109.12521126518112,96.46408692724688,9.70840483205393e-05,0.0956302732229232,0,0,0
8990,326532.88377200195,2010-12-10 07:16:17,3751.8783957999326,2,30,0.5501165986061096,4.071115970611572,27.21677648830585,26.624026315715888,109.14387959564192,96.46408692724688,6.47544875391759e-05,0.0956302732229232,0,0,0
8991,326562.89882116736,2010-12-10 07:16:47,3781.893444950319,2,30,0.550297200679779,4.074029922485352,27.221363640576342,26.624026315715888,109.16256112764668,96.46408692724688,6.47544875391759e-05,0.0956302732229232,0,0,0
8992,326592.9138504383,2010-12-10 07:17:17,3811.908474236273,2,30,0.5501165986061096,4.076781749725342,27.22595076049036,26.624026315715888,109.18125550692456,96.46408692724688,9.70840483205393e-05,0.0956302732229232,0,0,0
8993,326622.92886219564,2010-12-10 07:17:47,3841.9234859885946,2,30,0.5501165986061096,4.079695701599121,27.23053788185815,26.624026315715888,109.1999630052631,96.46408692724688,6.47544875391759e-05,0.0956302732229232,0,0,0
8994,326652.94387327624,2010-12-10 07:18:17,3871.9384970742585,2,30,0.550297200679779,4.0826096534729,27.23512500113383,26.624026315715888,109.218683705302,96.46408692724688,6.47544875391759e-05,0.0956302732229232,0,0,0
8995,326682.9590903345,2010-12-10 07:18:47,3901.9537141024007,2,30,0.550297200679779,4.08552360534668,27.23971204725436,26.624026315715888,109.23741745694292,96.46408692724688,6.47544875391759e-05,0.0956302732229232,0,0,0
8996,326712.973961943,2010-12-10 07:19:17,3931.9685857210056,2,30,0.550297200679779,4.088437557220459,27.24429907368556,26.624026315715888,109.2561645693378,96.46408692724688,6.47544875391759e-05,0.0956302732229232,0,0,0
8997,326742.98915814434,2010-12-10 07:19:47,3961.9837819373593,2,30,0.5501165986061096,4.091513633728027,27.248886231472284,26.624026315715888,109.27492579082592,96.46408692724688,9.71794142969884e-05,0.0956302732229232,0,0,0
8998,326773.00412829313,2010-12-10 07:20:17,3991.9987521713647,2,30,0.5501165986061096,4.094427585601807,27.253473360476622,26.624026315715888,109.2937004949013,96.46408692724688,9.71794142969884e-05,0.0956302732229232,0,0,0
8999,326803.01905213675,2010-12-10 07:20:47,4022.01367591468,2,30,0.5504778623580933,4.097665309906006,27.258060462016697,26.624026315715888,109.31248889294704,96.46408692724688,0.0001619339018361,0.0956302732229232,0,0,0
9000,326833.03403104737,2010-12-10 07:21:17,4052.0286548453273,2,30,0.550297200679779,4.100579261779785,27.262647593696062,26.624026315715888,109.3312913613008,96.46408692724688,9.71794142969884e-05,0.0956302732229232,0,0,0
9001,326863.04904621816,2010-12-10 07:21:47,4082.0436699961056,2,30,0.5501165986061096,4.1034932136535645,27.267234687233245,26.624026315715888,109.35010767114451,96.46408692724688,3.24249267578125e-05,0.0956302732229232,0,0,0
9002,326893.0642867849,2010-12-10 07:22:17,4112.058910653048,2,30,0.5501165986061096,4.106730937957764,27.271821859518507,26.624026315715888,109.36893848196736,96.46408692724688,9.71794142969884e-05,0.0956302732229232,0,0,0
9003,326923.07911103056,2010-12-10 07:22:47,4142.073734823581,2,30,0.5501165986061096,4.109644889831543,27.27640896401464,26.624026315715888,109.38778323406224,96.46408692724688,6.47544875391759e-05,0.0956302732229232,0,0,0
9004,326953.0941651634,2010-12-10 07:23:17,4172.088788961377,2,30,0.550297200679779,4.112882614135742,27.280996146105306,26.624026315715888,109.40664267329504,96.46408692724688,9.71794142969884e-05,0.0956302732229232,0,0,0
9005,326983.1093395504,2010-12-10 07:23:47,4202.103963398534,2,30,0.550297200679779,4.116119861602783,27.28558325747772,26.624026315715888,109.42551628999946,96.46408692724688,9.70840483205393e-05,0.0956302732229232,0,0,0
9006,327013.12424348947,2010-12-10 07:24:17,4232.118867287442,2,30,0.5501165986061096,4.119195938110352,27.29017029062263,26.624026315715888,109.44440416874734,96.46408692724688,9.71794142969884e-05,0.0956302732229232,0,0,0
9007,327043.1392137184,2010-12-10 07:24:47,4262.133837511423,2,30,0.5501165986061096,4.122433662414551,27.29475737905588,26.624026315715888,109.46330704936496,96.46408692724688,6.47544875391759e-05,0.0956302732229232,0,0,0
9008,327073.15425031254,2010-12-10 07:25:17,4292.1488741607,2,30,0.550297200679779,4.125833034515381,27.299344510239077,26.624026315715888,109.48222486431553,96.46408692724688,0.0001295089750783,0.0956302732229232,0,0,0
9009,327103.1692592078,2010-12-10 07:25:47,4322.163883000775,2,30,0.550297200679779,4.12907075881958,27.303931616727187,26.624026315715888,109.50115764043208,96.46408692724688,9.70840483205393e-05,0.0956302732229232,0,0,0
9010,327133.18439599127,2010-12-10 07:26:17,4352.179019854407,2,30,0.5499359965324402,4.132308483123779,27.308518689387743,26.624026315715888,109.52010535366496,96.46408692724688,9.70840483205393e-05,0.0956302732229232,0,0,0
9011,327163.1993042961,2010-12-10 07:26:47,4382.193928084117,2,30,0.5501165986061096,4.1355462074279785,27.31310579085153,26.624026315715888,109.53906831416454,96.46408692724688,6.47544875391759e-05,0.0956302732229232,0,0,0
9012,327193.21431680536,2010-12-10 07:27:17,4412.208940603347,2,30,0.550297200679779,4.138946056365967,27.317692919574466,26.624026315715888,109.55804672147728,96.46408692724688,9.71794142969884e-05,0.0956302732229232,0,0,0
9013,327223.22960142675,2010-12-10 07:27:47,4442.224225219681,2,30,0.5501165986061096,4.142345428466797,27.322280000750784,26.624026315715888,109.57704046368512,96.46408692724688,6.47544875391759e-05,0.0956302732229232,0,0,0
9014,327253.2443563599,2010-12-10 07:28:17,4472.238980157931,2,30,0.5501165986061096,4.145745277404785,27.32686638532986,26.624026315715888,109.59604686753153,96.46408692724688,9.71794142969884e-05,0.0956302732229232,0,0,0
9015,327283.2632095415,2010-12-10 07:28:47,4502.257833409677,2,30,0.550297200679779,4.149306774139404,27.331453413989436,26.624026315715888,109.61507190096022,96.46408692724688,9.71794142969884e-05,0.0956302732229232,0,0,0
9016,327313.27438650106,2010-12-10 07:29:17,4532.269010269016,2,30,0.550297200679779,4.152868270874023,27.33603927491841,26.624026315715888,109.63410792233805,96.46408692724688,0.0001295089750783,0.0956302732229232,0,0,0
9017,327343.2899179065,2010-12-10 07:29:47,4562.284541699537,2,30,0.5501165986061096,4.156429767608643,27.340625726058523,26.624026315715888,109.65316229594713,96.46408692724688,0.0001295089750783,0.0956302732229232,0,0,0
9018,327373.3044356245,2010-12-10 07:30:17,4592.2990594174735,2,30,0.5499359965324402,4.159667491912842,27.34521203635807,26.624026315715888,109.67223213671558,96.46408692724688,9.71794142969884e-05,0.0956302732229232,0,0,0
9019,327403.31950752647,2010-12-10 07:30:47,4622.31413138965,2,30,0.550297200679779,4.163390636444092,27.349798402702987,26.624026315715888,109.69131840879363,96.46408692724688,9.70840483205393e-05,0.0956302732229232,0,0,0
9020,327433.3344953192,2010-12-10 07:31:17,4652.329119097138,2,30,0.550297200679779,4.166952133178711,27.35438547838173,26.624026315715888,109.71042401101252,96.46408692724688,9.70840483205393e-05,0.0956302732229232,0,0,0
9021,327463.34950193873,2010-12-10 07:31:47,4682.344125716687,2,30,0.5501165986061096,4.17051362991333,27.358972643701367,26.624026315715888,109.72954641080771,96.46408692724688,9.70840483205393e-05,0.0956302732229232,0,0,0
9022,327493.3646866314,2010-12-10 07:32:17,4712.359310409365,2,30,0.5501165986061096,4.174237251281738,27.36355987798508,26.624026315715888,109.748685685545,96.46408692724688,9.71794142969884e-05,0.0956302732229232,0,0,0
9023,327523.3797407391,2010-12-10 07:32:47,4742.374364512075,2,30,0.5501165986061096,4.177798748016357,27.368147086201027,26.624026315715888,109.76784139514334,96.46408692724688,0.0001295089750783,0.0956302732229232,0,0,0
9024,327553.3947339253,2010-12-10 07:33:17,4772.38935772827,2,30,0.550297200679779,4.181521892547607,27.372734293850453,26.624026315715888,109.78701390900422,96.46408692724688,0.0001295089750783,0.0956302732229232,0,0,0
9025,327583.40960306267,2010-12-10 07:33:47,4802.404226855676,2,30,0.5501165986061096,4.184921741485596,27.37732147230309,26.624026315715888,109.80620318210131,96.46408692724688,3.24249267578125e-05,0.0956302732229232,0,0,0
9026,327613.4246208049,2010-12-10 07:34:17,4832.419244602916,2,30,0.550297200679779,4.188807010650635,27.3819085965266,26.624026315715888,109.82540913138632,96.46408692724688,0.0001295089750783,0.0956302732229232,0,0,0
9027,327643.4396687673,2010-12-10 07:34:47,4862.434292545296,2,30,0.5501165986061096,4.192530155181885,27.38649574343643,26.624026315715888,109.84463230515506,96.46408692724688,9.70840483205393e-05,0.0956302732229232,0,0,0
9028,327673.45466829423,2010-12-10 07:35:17,4892.449292072195,2,30,0.5501165986061096,4.196253299713135,27.39108294229334,26.624026315715888,109.8638727601854,96.46408692724688,0.0001295089750783,0.0956302732229232,0,0,0
9029,327702.6105399545,2010-12-10 07:35:47,4921.605163822666,2,30,0.550297200679779,4.200138568878174,27.395538763673244,26.624026315715888,109.88257861950188,96.46408692724688,0.0001295089750783,0.0956302732229232,0,0,0
9030,327732.64048932295,2010-12-10 07:36:17,30.0149905244975,3,30,0.0,4.1068925857543945,27.395538763673244,26.624026315715888,109.88257861950188,96.46408692724688,-0.0003885269106831,0.0956302732229232,0,0,0
9031,327762.6589342235,2010-12-10 07:36:47,60.0334355604138,3,30,0.0,4.094913005828857,27.395538763673244,26.624026315715888,109.88257861950188,96.46408692724688,-0.0002590179501567,0.0956302732229232,0,0,0
9032,327792.6705433736,2010-12-10 07:37:17,90.04504459019175,3,30,0.0,4.087790012359619,27.395538763673244,26.624026315715888,109.88257861950188,96.46408692724688,-0.0001619339018361,0.0956302732229232,0,0,0
9033,327822.6386820341,2010-12-10 07:37:47,120.01318325564,3,30,0.0,4.08325719833374,27.395538763673244,26.624026315715888,109.88257861950188,96.46408692724688,-9.71794142969884e-05,0.0956302732229232,0,0,0
9034,327822.6406545992,2010-12-10 07:37:47,0.015645237571958,4,30,1.007599949836731,4.199814796447754,27.39554314260113,26.624026315715888,109.88259701018802,96.46408692724688,0.0,0.0956302732229232,0,0,0
9035,327823.4221114645,2010-12-10 07:37:48,0.797102102925357,4,30,0.9572099447250366,4.199814796447754,27.39575475473572,26.624026315715888,109.88348574323888,96.46408692724688,0.0,0.0956302732229232,0,0,0
9036,327825.4062472401,2010-12-10 07:37:50,2.781237858440041,4,30,0.9068199396133424,4.199814796447754,27.396267382149244,26.624026315715888,109.88563869830816,96.46408692724688,0.0,0.0956302732229232,0,0,0
9037,327828.45305079856,2010-12-10 07:37:53,5.828041426935489,4,30,0.856429934501648,4.199814796447754,27.39701250232752,26.624026315715888,109.88876807489044,96.46408692724688,-3.24249267578125e-05,0.0956302732229232,0,0,0
9038,327832.6405656432,2010-12-10 07:37:57,10.01555626655562,4,30,0.8060399889945984,4.199814796447754,27.39797817735949,26.624026315715888,109.8928237420338,96.46408692724688,-3.24249267578125e-05,0.0956302732229232,0,0,0
9039,327838.1404730011,2010-12-10 07:38:02,15.515463619468449,4,30,0.7560111880302429,4.199653148651123,27.399170016829103,26.624026315715888,109.89782928404038,96.46408692724688,-3.23295607813634e-05,0.0956302732229232,0,0,0
9040,327845.3120427165,2010-12-10 07:38:10,22.68703334991305,4,30,0.7059824466705322,4.199976921081543,27.40062420610173,26.624026315715888,109.90393666965169,96.46408692724688,3.24249267578125e-05,0.0956302732229232,0,0,0
9041,327854.8118827782,2010-12-10 07:38:19,32.1868733964905,4,30,0.6559536457061768,4.199814796447754,27.402418071855347,26.624026315715888,109.91147064343636,96.46408692724688,-3.24249267578125e-05,0.0956302732229232,0,0,0
9042,327867.9991030937,2010-12-10 07:38:32,45.37409372708239,4,30,0.6057442426681519,4.199653148651123,27.404724333418788,26.624026315715888,109.92115660156573,96.46408692724688,-3.23295607813634e-05,0.0956302732229232,0,0,0
9043,327887.9050505433,2010-12-10 07:38:52,65.28004116165998,4,30,0.5557155013084412,4.199814796447754,27.40792692587278,26.624026315715888,109.93460702650631,96.46408692724688,0.0,0.0956302732229232,0,0,0
9044,327922.1386421243,2010-12-10 07:39:26,99.51363274263264,4,30,0.5056867599487305,4.199814796447754,27.41295377176363,26.624026315715888,109.95571907045894,96.46408692724688,0.0,0.0956302732229232,0,0,0
9045,327987.52799162053,2010-12-10 07:40:32,164.90298225892894,4,30,0.455657958984375,4.199814796447754,27.421644434461584,26.624026315715888,109.99221859076737,96.46408692724688,0.0,0.0956302732229232,0,0,0
9046,328092.2602514861,2010-12-10 07:42:17,269.635242119428,4,30,0.4056291878223419,4.199814796447754,27.43414051946445,26.624026315715888,110.04470040838676,96.46408692724688,3.23295607813634e-05,0.0956302732229232,0,0,0
9047,328223.94526414527,2010-12-10 07:44:28,401.32025483375946,4,30,0.3556004166603088,4.199814796447754,27.44804181003429,26.624026315715888,110.10308389454376,96.46408692724688,0.0,0.0956302732229232,0,0,0
9048,328383.0356376057,2010-12-10 07:47:07,560.4106282240807,4,30,0.3055716454982757,4.199653148651123,27.462629557958223,26.624026315715888,110.16435032030438,96.46408692724688,-6.47544875391759e-05,0.0956302732229232,0,0,0
9049,328572.45369090606,2010-12-10 07:50:17,749.8286815143839,4,30,0.2555428743362427,4.199814796447754,27.477373546457017,26.624026315715888,110.22627301536916,96.46408692724688,-3.24249267578125e-05,0.0956302732229232,0,0,0
9050,328809.8551820209,2010-12-10 07:54:14,987.2301726542588,4,30,0.2055141180753708,4.199653148651123,27.49254155724308,26.624026315715888,110.28997650890966,96.46408692724688,-3.23295607813634e-05,0.0956302732229232,0,0,0
9051,329119.5208315796,2010-12-10 07:59:24,1296.895822197931,4,30,0.1554853469133377,4.199653148651123,27.50800174375665,26.624026315715888,110.3549071535295,96.46408692724688,-6.47544875391759e-05,0.0956302732229232,0,0,0
9052,329578.886800771,2010-12-10 08:07:03,1756.2617914043792,4,30,0.1054565757513046,4.199814796447754,27.52446177768728,26.624026315715888,110.42403688756156,96.46408692724688,0.0,0.0956302732229232,0,0,0
9053,330476.837244639,2010-12-10 08:22:01,2654.212235272389,4,30,0.0554278045892715,4.199653148651123,27.54373835292118,26.624026315715888,110.50499579996244,96.46408692724688,-6.47544875391759e-05,0.0956302732229232,0,0,0
9054,330641.4121239764,2010-12-10 08:24:46,2818.78711461483,4,30,0.0498289167881011,4.199976921081543,27.546156582285345,26.624026315715888,110.51515201418832,96.46408692724688,3.24249267578125e-05,0.0956302732229232,0,0,0
9055,330671.43897100986,2010-12-10 08:25:16,30.01513596642414,5,30,0.0,4.191235065460205,27.546156582285345,26.624026315715888,110.51515201418832,96.46408692724688,0.0,0.0956302732229232,0,0,0
9056,330701.43836176494,2010-12-10 08:25:46,60.014526706458,5,30,0.0,4.189778327941895,27.546156582285345,26.624026315715888,110.51515201418832,96.46408692724688,-3.23295607813634e-05,0.0956302732229232,0,0,0
9057,330701.62304102944,2010-12-10 08:25:46,0.187434588765119,6,30,0.0001613661734154,4.189778327941895,27.54615659068689,26.624026315715888,110.515152049389,96.46408692724688,0.0,0.1010292172431945,0,0,0
9058,330706.45131119905,2010-12-10 08:25:51,5.015704743342086,6,30,0.0008838032954372,4.189778327941895,27.546157711433715,26.624026315715888,110.51515674522668,96.46408692724688,-3.23295607813634e-05,0.1010292172431945,0,0,0
9059,330736.4790600453,2010-12-10 08:26:21,30.01491459053876,7,30,-1.099568486213684,3.995353221893311,27.54615771151247,26.633193385029223,110.51515674555664,96.5009330153322,-0.0010360718006268,0.1010292172431945,0,0,0
9060,330766.4940927347,2010-12-10 08:26:51,60.02994727996206,7,30,-1.0993878841400146,3.964271306991577,27.54615771151247,26.64236041321258,110.51515674555664,96.53740632605138,-0.0006799221155233,0.1010292172431945,0,0,0
9061,330796.5092340344,2010-12-10 08:27:21,90.04508855459548,7,30,-1.0993878841400146,3.9425785541534415,27.54615771151247,26.651527478662224,110.51515674555664,96.57364297399572,-0.0005180359003134,0.1010292172431945,0,0,0
9062,330826.5241570509,2010-12-10 08:27:51,120.0600115961643,7,30,-1.0993878841400146,3.925904273986816,27.54615771151247,26.660694407201596,110.51515674555664,96.60970498932345,-0.0003885269106831,0.1010292172431945,0,0,0
9063,330856.5391422571,2010-12-10 08:28:21,150.07499680242756,7,30,-1.099568486213684,3.911658525466919,27.54615771151247,26.669861375558128,110.51515674555664,96.6456262835174,-0.0003561496851034,0.1010292172431945,0,0,0
9064,330886.5541699642,2010-12-10 08:28:51,180.090024579627,7,30,-1.099568486213684,3.899031400680542,27.54615771151247,26.679028337428328,110.51515674555664,96.68142525352928,-0.0002913951757363,0.1010292172431945,0,0,0
9065,330916.5692114405,2010-12-10 08:29:21,210.10506598574145,7,30,-1.0993878841400146,3.887375593185425,27.54615771151247,26.688195343420112,110.51515674555664,96.71711357606016,-0.0002913951757363,0.1010292172431945,0,0,0
9066,330946.58441788726,2010-12-10 08:29:51,240.1202724175159,7,30,-1.0992072820663452,3.876529216766357,27.54615771151247,26.697362398214,110.51515674555664,96.75269886571976,-0.0002590179501567,0.1010292172431945,0,0,0
9067,330976.599267446,2010-12-10 08:30:21,270.13512197622543,7,30,-1.0993878841400146,3.86616849899292,27.54615771151247,26.7065293516094,110.51515674555664,96.78818595042668,-0.0002590179501567,0.1010292172431945,0,0,0
9068,331006.614248918,2010-12-10 08:30:51,300.150103468246,7,30,-1.0993878841400146,3.8561315536499023,27.54615771151247,26.715696379872583,110.51515674555664,96.82357997295112,-0.0002590179501567,0.1010292172431945,0,0,0
9069,331036.6292819984,2010-12-10 08:31:21,330.1651365436297,7,30,-1.099568486213684,3.846580266952514,27.54615771151247,26.724863344790563,110.51515674555664,96.85888461682858,-0.0002590179501567,0.1010292172431945,0,0,0
9070,331066.6476996411,2010-12-10 08:31:51,360.1835542766037,7,30,-1.099568486213684,3.837190866470337,27.54615771151247,26.73403147051755,110.51515674555664,96.89410752016836,-0.0002590179501567,0.1010292172431945,0,0,0
9071,331096.65930796415,2010-12-10 08:32:21,390.1951626046354,7,30,-1.0993878841400146,3.828125476837158,27.54615771151247,26.743197441053898,110.51515674555664,96.92923778688618,-0.0002590179501567,0.1010292172431945,0,0,0
9072,331126.67433507467,2010-12-10 08:32:51,420.2101896199388,7,30,-1.0993878841400146,3.81938362121582,27.54615771151247,26.75236445356903,110.51515674555664,96.96428977082516,-0.0002266406954731,0.1010292172431945,0,0,0
9073,331156.6893414687,2010-12-10 08:33:21,450.22519601392696,7,30,-1.099568486213684,3.810803651809693,27.54615771151247,26.761531473702988,110.51515674555664,96.99926143727812,-0.0001618862152099,0.1010292172431945,0,0,0
9074,331186.7044195961,2010-12-10 08:33:51,480.2402741163587,7,30,-1.099568486213684,3.802223682403565,27.54615771151247,26.77069841804482,110.51515674555664,97.03415413259876,-0.0002266406954731,0.1010292172431945,0,0,0
9075,331216.719401023,2010-12-10 08:34:21,510.2552555682795,7,30,-1.0992072820663452,3.7941293716430655,27.54615771151247,26.779865316633845,110.51515674555664,97.06897003974282,-0.0001295089750783,0.1010292172431945,0,0,0
9076,331246.73459511914,2010-12-10 08:34:51,540.2704496493196,7,30,-1.099568486213684,3.786035060882568,27.54615771151247,26.789032217391263,110.51515674555664,97.10371141029648,-0.0001942634553415,0.1010292172431945,0,0,0
9077,331276.749568135,2010-12-10 08:35:21,570.2854226802851,7,30,-1.0992072820663452,3.77826452255249,27.54615771151247,26.79819917141044,110.51515674555664,97.13838051343372,-0.0001618862152099,0.1010292172431945,0,0,0
9078,331306.764481297,2010-12-10 08:35:51,600.300335842269,7,30,-1.0993878841400146,3.770493984222412,27.54615771151247,26.80736622507608,110.51515674555664,97.17297936568774,-0.0001942634553415,0.1010292172431945,0,0,0
9079,331336.77948114474,2010-12-10 08:36:21,630.3153356899669,7,30,-1.0993878841400146,3.762885332107544,27.54615771151247,26.81653325873769,110.51515674555664,97.20750889593666,-0.0002266406954731,0.1010292172431945,0,0,0
9080,331366.7945123705,2010-12-10 08:36:51,660.330366915748,7,30,-1.099568486213684,3.755600452423096,27.54615771151247,26.82570035394567,110.51515674555664,97.24197106908228,-0.0001942634553415,0.1010292172431945,0,0,0
9081,331396.8095589796,2010-12-10 08:37:21,690.3454135097724,7,30,-1.099568486213684,3.748477697372437,27.54615771151247,26.83486742768088,110.51515674555664,97.27636680528694,-0.0002266406954731,0.1010292172431945,0,0,0
9082,331426.8245895938,2010-12-10 08:37:51,720.3604442092437,7,30,-1.0997490882873535,3.7413547039031982,27.54615771151247,26.844034511315847,110.51515674555664,97.31069771331084,-0.0002266406954731,0.1010292172431945,0,0,0
9083,331456.83974602114,2010-12-10 08:38:21,750.3756005664095,7,30,-1.099568486213684,3.73439359664917,27.54615771151247,26.853201586804705,110.51515674555664,97.34496457586596,-0.0001942634553415,0.1010292172431945,0,0,0
9084,331486.8546448876,2010-12-10 08:38:52,780.3904994378319,7,30,-1.0993878841400146,3.728080034255981,27.54615771151247,26.86236859479625,110.51515674555664,97.3791688382368,-0.0001618862152099,0.1010292172431945,0,0,0
9085,331516.86979478865,2010-12-10 08:39:22,810.4056493188821,7,30,-1.0993878841400146,3.721604585647583,27.54615771151247,26.87153566452077,110.51515674555664,97.4133130754646,-0.0001295089750783,0.1010292172431945,0,0,0
9086,331546.88486133737,2010-12-10 08:39:52,840.4207159527748,7,30,-1.0993878841400146,3.715129137039185,27.54615771151247,26.88070271697439,110.51515674555664,97.44739779989388,-9.713172767078504e-05,0.1010292172431945,0,0,0
9087,331576.89963973896,2010-12-10 08:40:22,870.4354942892505,7,30,-1.0993878841400146,3.708491802215576,27.54615771151247,26.88986977195461,110.51515674555664,97.48142412060332,-0.0001942634553415,0.1010292172431945,0,0,0
9088,331606.91464785725,2010-12-10 08:40:52,900.450502412542,7,30,-1.0993878841400146,3.7023401260375977,27.54615771151247,26.89903682706593,110.51515674555664,97.51539242096614,-0.0001295089750783,0.1010292172431945,0,0,0
9089,331636.9296620757,2010-12-10 08:41:22,930.4655166259886,7,30,-1.099568486213684,3.696350336074829,27.54615771151247,26.908203913339783,110.51515674555664,97.5493039112249,-0.0001618862152099,0.1010292172431945,0,0,0
9090,331666.94477510004,2010-12-10 08:41:52,960.4806297255092,7,30,-1.099568486213684,3.6900367736816406,27.54615771151247,26.917370965034777,110.51515674555664,97.5831594101419,-0.0001618862152099,0.1010292172431945,0,0,0
9091,331696.9597419757,2010-12-10 08:42:22,990.4955965059204,7,30,-1.099568486213684,3.684208869934082,27.54615771151247,26.926538022002177,110.51515674555664,97.61695987805336,-0.0001618862152099,0.1010292172431945,0,0,0
9092,331726.9748607594,2010-12-10 08:42:52,1020.5107152945984,7,30,-1.099568486213684,3.6782190799713135,27.54615771151247,26.93570513264265,110.51515674555664,97.65070680786268,-0.0002266406954731,0.1010292172431945,0,0,0
9093,331756.98998275603,2010-12-10 08:43:22,1050.5258373714587,7,30,-1.0993878841400146,3.672714948654175,27.54615771151247,26.94487224749055,110.51515674555664,97.68440060778563,-0.0001618862152099,0.1010292172431945,0,0,0
9094,331787.00830769807,2010-12-10 08:43:52,1080.5441623185388,7,30,-1.0993878841400146,3.6668872833251953,27.54615771151247,26.954040395944087,110.51515674555664,97.71804576242464,-0.0001618862152099,0.1010292172431945,0,0,0
9095,331817.01985712454,2010-12-10 08:44:22,1110.5557116597845,7,30,-1.0993878841400146,3.6613831520080566,27.54615771151247,26.96320638079782,110.51515674555664,97.75163194077608,-0.0001942634553415,0.1010292172431945,0,0,0
9096,331847.0349293674,2010-12-10 08:44:52,1140.570784002884,7,30,-1.099568486213684,3.656040906906128,27.54615771151247,26.97237349660861,110.51515674555664,97.7851715489284,-9.713172767078504e-05,0.1010292172431945,0,0,0
9097,331877.0498822031,2010-12-10 08:45:22,1170.5857367533824,7,30,-1.099568486213684,3.650698661804199,27.54615771151247,26.981540549741485,110.51515674555664,97.81866149711024,-0.0001295089750783,0.1010292172431945,0,0,0
9098,331907.06490819086,2010-12-10 08:45:52,1200.6007627260915,7,30,-1.099568486213684,3.6453564167022714,27.54615771151247,26.99070762078844,110.51515674555664,97.85210241110724,-0.0001295089750783,0.1010292172431945,0,0,0
9099,331937.0800167691,2010-12-10 08:46:22,1230.6158713193988,7,30,-1.099568486213684,3.640176057815552,27.54615771151247,26.999874611240944,110.51515674555664,97.88549495648512,-0.0001295089750783,0.1010292172431945,0,0,0
9100,331967.0949145428,2010-12-10 08:46:52,1260.6307690880767,7,30,-1.099568486213684,3.634995698928833,27.54615771151247,27.009041618974628,110.51515674555664,97.91884013009084,-0.0001295089750783,0.1010292172431945,0,0,0
9101,331997.1099754976,2010-12-10 08:47:22,1290.6458300428374,7,30,-1.0993878841400146,3.629977226257324,27.54615771151247,27.01820869915609,110.51515674555664,97.9521393438025,-0.0001295089750783,0.1010292172431945,0,0,0
9102,332027.12567986344,2010-12-10 08:47:52,1320.6615344889012,7,30,-1.0993878841400146,3.6251206398010254,27.54615771151247,27.02737599917273,110.51515674555664,97.9853938662419,-9.713172767078504e-05,0.1010292172431945,0,0,0
9103,332057.140303525,2010-12-10 08:48:22,1350.6761581454618,7,30,-1.099568486213684,3.620264053344727,27.54615771151247,27.03654290343415,110.51515674555664,98.01860226899451,-9.713172767078504e-05,0.1010292172431945,0,0,0
9104,332087.1552333635,2010-12-10 08:48:52,1380.691087998982,7,30,-1.0993878841400146,3.615407466888428,27.54615771151247,27.04570997764584,110.51515674555664,98.05176684694808,-0.0001295089750783,0.1010292172431945,0,0,0
9105,332117.1700330932,2010-12-10 08:49:22,1410.705887623432,7,30,-1.099568486213684,3.610712766647339,27.54615771151247,27.05487694882876,110.51515674555664,98.0848874500598,-9.713172767078504e-05,0.1010292172431945,0,0,0
9106,332147.1850491964,2010-12-10 08:49:52,1440.7209037416187,7,30,-1.099568486213684,3.60601806640625,27.54615771151247,27.06404403397736,110.51515674555664,98.11796565624172,-0.0001295089750783,0.1010292172431945,0,0,0
9107,332177.20005908905,2010-12-10 08:50:22,1470.735913624288,7,30,-1.0993878841400146,3.601647138595581,27.54615771151247,27.073211059171904,110.51515674555664,98.15100218955196,-0.0001295089750783,0.1010292172431945,0,0,0
9108,332207.21519285,2010-12-10 08:50:52,1500.7510473952489,7,30,-1.099568486213684,3.597276210784912,27.54615771151247,27.082378202117457,110.51515674555664,98.18399853968354,-9.713172767078504e-05,0.1010292172431945,0,0,0
9109,332237.23009090434,2010-12-10 08:51:22,1530.7659454346008,7,30,-1.099568486213684,3.592905282974243,27.54615771151247,27.091545253926583,110.51515674555664,98.21695459082244,-0.0001295089750783,0.1010292172431945,0,0,0
9110,332267.2452953412,2010-12-10 08:51:52,1560.7811498864482,7,30,-1.099568486213684,3.5886964797973637,27.54615771151247,27.10071284123654,110.51515674555664,98.24987357940589,-9.713172767078504e-05,0.1010292172431945,0,0,0
9111,332297.26037303265,2010-12-10 08:52:22,1590.7962275778573,7,30,-1.099568486213684,3.5846493244171143,27.54615771151247,27.109880774588493,110.51515674555664,98.28275569198912,-9.713172767078504e-05,0.1010292172431945,0,0,0
9112,332327.27535237424,2010-12-10 08:52:52,1620.811207004739,7,30,-1.0997490882873535,3.580602169036865,27.54615771151247,27.11904860094156,110.51515674555664,98.3156004860085,-9.713172767078504e-05,0.1010292172431945,0,0,0
9113,332357.2901832114,2010-12-10 08:53:22,1650.8260377616607,7,30,-1.099568486213684,3.576878786087036,27.54615771151247,27.12821638072349,110.51515674555664,98.34840938372513,-6.47544875391759e-05,0.1010292172431945,0,0,0
9114,332387.3052018458,2010-12-10 08:53:52,1680.8410563760588,7,30,-1.0993878841400146,3.573317289352417,27.54615771151247,27.137383827893995,110.51515674555664,98.3811824952345,-6.47544875391759e-05,0.1010292172431945,0,0,0
9115,332417.3202076634,2010-12-10 08:54:22,1710.8560621936126,7,30,-1.099568486213684,3.569108247756958,27.54615771151247,27.14655095282138,110.51515674555664,98.41392072079807,-0.0001618862152099,0.1010292172431945,0,0,0
9116,332447.3352266136,2010-12-10 08:54:52,1740.8710811438466,7,30,-1.0993878841400146,3.565870523452759,27.54615771151247,27.15571805196591,110.51515674555664,98.44662522798444,-0.0001295089750783,0.1010292172431945,0,0,0
9117,332477.3503848555,2010-12-10 08:55:22,1770.8862395009887,7,30,-1.099568486213684,3.5621471405029297,27.54615771151247,27.16488518983927,110.51515674555664,98.47929717499412,-0.0001618862152099,0.1010292172431945,0,0,0
9118,332507.36556495173,2010-12-10 08:55:52,1800.9014195671537,7,30,-1.099568486213684,3.5590713024139404,27.54615771151247,27.174052332447296,110.51515674555664,98.5119374666786,-3.237724376958795e-05,0.1010292172431945,0,0,0
9119,332537.38047642953,2010-12-10 08:56:22,1830.9163309597343,7,30,-1.099568486213684,3.5553479194641118,27.54615771151247,27.18321938799368,110.51515674555664,98.54454547341112,-6.47544875391759e-05,0.1010292172431945,0,0,0
9120,332567.39552101854,2010-12-10 08:56:52,1860.9313755688192,7,30,-1.0993878841400146,3.552110195159912,27.54615771151247,27.192386475941824,110.51515674555664,98.57712240894728,-9.713172767078504e-05,0.1010292172431945,0,0,0
9121,332597.41077820666,2010-12-10 08:57:22,1890.9466328421108,7,30,-1.099568486213684,3.548548698425293,27.54615771151247,27.20155365268925,110.51515674555664,98.60966865274251,-9.713172767078504e-05,0.1010292172431945,0,0,0
9122,332627.42539141723,2010-12-10 08:57:52,1920.9612459474151,7,30,-1.0992072820663452,3.5453109741210938,27.54615771151247,27.2107206862919,110.51515674555664,98.64218327841633,-6.47544875391759e-05,0.1010292172431945,0,0,0
9123,332657.4404731085,2010-12-10 08:58:22,1950.976327658828,7,30,-1.099568486213684,3.5420732498168945,27.54615771151247,27.219887805846017,110.51515674555664,98.67466738193347,-3.237724376958795e-05,0.1010292172431945,0,0,0
9124,332687.4553620603,2010-12-10 08:58:52,1980.991216595528,7,30,-1.0997490882873535,3.538349866867065,27.54615771151247,27.22905492159809,110.51515674555664,98.70712102752192,-9.713172767078504e-05,0.1010292172431945,0,0,0
9125,332717.47063469683,2010-12-10 08:59:22,2011.0064892972125,7,30,-1.0997490882873535,3.535274028778076,27.54615771151247,27.23822208769811,110.51515674555664,98.73954400541922,-9.713172767078504e-05,0.1010292172431945,0,0,0
9126,332747.48553937266,2010-12-10 08:59:52,2041.0213939029045,7,30,-1.099568486213684,3.531874418258667,27.54615771151247,27.247389176361388,110.51515674555664,98.77193620620004,-6.47544875391759e-05,0.1010292172431945,0,0,0
9127,332777.50041741226,2010-12-10 09:00:22,2071.0362719424875,7,30,-1.099568486213684,3.528474807739258,27.54615771151247,27.256556179461736,110.51515674555664,98.80429796325276,-9.713172767078504e-05,0.1010292172431945,0,0,0
9128,332807.5156379993,2010-12-10 09:00:52,2101.051492529487,7,30,-1.099568486213684,3.5250751972198486,27.54615771151247,27.265723307880062,110.51515674555664,98.83662928067344,-0.0001295089750783,0.1010292172431945,0,0,0
9129,332837.53056588786,2010-12-10 09:01:22,2131.066420438168,7,30,-1.0997490882873535,3.521513700485229,27.54615771151247,27.274890336320112,110.51515674555664,98.86892904992706,-0.0001295089750783,0.1010292172431945,0,0,0
9130,332867.5454870197,2010-12-10 09:01:52,2161.0813415549464,7,30,-1.099568486213684,3.5182759761810303,27.54615771151247,27.28405738799129,110.51515674555664,98.90119757167923,-6.47544875391759e-05,0.1010292172431945,0,0,0
9131,332897.5604985214,2010-12-10 09:02:22,2191.0963530516324,7,30,-1.099568486213684,3.514876365661621,27.54615771151247,27.293224479384705,110.51515674555664,98.9334342741136,-6.47544875391759e-05,0.1010292172431945,0,0,0
9132,332927.57554741617,2010-12-10 09:02:52,2221.111401946382,7,30,-1.099568486213684,3.511315107345581,27.54615771151247,27.30239160583043,110.51515674555664,98.965638570367,-6.47544875391759e-05,0.1010292172431945,0,0,0
9133,332957.59053465247,2010-12-10 09:03:22,2251.126389182697,7,30,-1.099568486213684,3.507429838180542,27.54615771151247,27.311558705987984,110.51515674555664,98.99780964890634,-9.713172767078504e-05,0.1010292172431945,0,0,0
9134,332987.6089359897,2010-12-10 09:03:52,2281.1447906100952,7,30,-1.0993878841400146,3.503868341445923,27.54615771151247,27.32072687881956,110.51515674555664,99.02995020549876,-9.713172767078504e-05,0.1010292172431945,0,0,0
9135,333017.62058119447,2010-12-10 09:04:22,2311.156435724669,7,30,-1.099568486213684,3.499821186065674,27.54615771151247,27.329892947466167,110.51515674555664,99.06204789032756,-0.0001295089750783,0.1010292172431945,0,0,0
9136,333047.63573522586,2010-12-10 09:04:52,2341.171589756047,7,30,-1.0992072820663452,3.495774030685425,27.54615771151247,27.33906012338046,110.51515674555664,99.0941122842697,-9.713172767078504e-05,0.1010292172431945,0,0,0
9137,333077.65081139345,2010-12-10 09:05:22,2371.1866659437137,7,30,-1.099568486213684,3.491241216659546,27.54615771151247,27.34822729609032,110.51515674555664,99.12613767584352,-9.713172767078504e-05,0.1010292172431945,0,0,0
9138,333107.6658050106,2010-12-10 09:05:52,2401.201659661157,7,30,-1.0993878841400146,3.486546516418457,27.54615771151247,27.35739436490869,110.51515674555664,99.15812157403158,-0.0001618862152099,0.1010292172431945,0,0,0
9139,333137.6810089613,2010-12-10 09:06:22,2431.2168635014827,7,30,-1.0993878841400146,3.481851816177368,27.54615771151247,27.366561502004327,110.51515674555664,99.19006176874704,-0.0001295089750783,0.1010292172431945,0,0,0
9140,333167.69566706853,2010-12-10 09:06:52,2461.231521598748,7,30,-1.0993878841400146,3.476347684860229,27.54615771151247,27.375728401962213,110.51515674555664,99.2219532866984,-0.0001295089750783,0.1010292172431945,0,0,0
9141,333197.71084197686,2010-12-10 09:07:22,2491.246696507077,7,30,-1.0993878841400146,3.470357894897461,27.54615771151247,27.384895533686755,110.51515674555664,99.25379444987612,-0.0001942634553415,0.1010292172431945,0,0,0
9142,333227.72571207164,2010-12-10 09:07:52,2521.2615666069023,7,30,-1.0993878841400146,3.4638824462890625,27.54615771151247,27.39406257722111,110.51515674555664,99.28557902978817,-0.0001942634553415,0.1010292172431945,0,0,0
9143,333257.7408581382,2010-12-10 09:08:22,2551.276712668448,7,30,-1.099568486213684,3.4565975666046143,27.54615771151247,27.403229731770853,110.51515674555664,99.31730087629307,-0.0002266406954731,0.1010292172431945,0,0,0
9144,333287.7558366528,2010-12-10 09:08:52,2581.291691213134,7,30,-1.099568486213684,3.4483413696289062,27.54615771151247,27.412396820021232,110.51515674555664,99.34895128004464,-0.0002266406954731,0.1010292172431945,0,0,0
9145,333317.770805323,2010-12-10 09:09:22,2611.3066599233475,7,30,-1.0993878841400146,3.4387900829315186,27.54615771151247,27.42156389047227,110.51515674555664,99.38051977647388,-0.0002913951757363,0.1010292172431945,0,0,0
9146,333347.7859828077,2010-12-10 09:09:52,2641.3218373429263,7,30,-1.0993878841400146,3.4276201725006104,27.54615771151247,27.430730994894883,110.51515674555664,99.41199311728764,-0.0003237724304199,0.1010292172431945,0,0,0
9147,333377.8010329305,2010-12-10 09:10:22,2671.3368875459314,7,30,-1.099568486213684,3.413859844207764,27.54615771151247,27.439898129750244,110.51515674555664,99.44335315763853,-0.0004209041653666,0.1010292172431945,0,0,0
9148,333407.8158120439,2010-12-10 09:10:53,2701.351666579141,7,30,-1.099568486213684,3.397347450256348,27.54615771151247,27.44906517234212,110.51515674555664,99.47457549264703,-0.0004856586456298,0.1010292172431945,0,0,0
9149,333437.83096266683,2010-12-10 09:11:23,2731.366817202037,7,30,-1.0993878841400146,3.3767879009246826,27.54615771151247,27.45823229649389,110.51515674555664,99.50562877299926,-0.0005504131549969,0.1010292172431945,0,0,0
9150,333467.8458784453,2010-12-10 09:11:53,2761.38173297552,7,30,-1.099568486213684,3.350400686264038,27.54615771151247,27.467399446426125,110.51515674555664,99.53646820227485,-0.0007770061492919,0.1010292172431945,0,0,0
9151,333497.860896363,2010-12-10 09:12:23,2791.3967509082217,7,30,-1.099568486213684,3.3159189224243164,27.54615771151247,27.47656659245833,110.51515674555664,99.56703125345908,-0.0010036944877356,0.1010292172431945,0,0,0
9152,333527.8760463142,2010-12-10 09:12:53,2821.411900844409,7,30,-1.0992072820663452,3.2702672481536865,27.54615771151247,27.485733731186148,110.51515674555664,99.59722969952944,-0.0013597965007647,0.1010292172431945,0,0,0
9153,333557.8909314113,2010-12-10 09:13:23,2851.426785956592,7,30,-1.0992072820663452,3.208102941513061,27.54615771151247,27.494900803380823,110.51515674555664,99.62693830174402,-0.0018778800731524,0.1010292172431945,0,0,0
9154,333587.9060296539,2010-12-10 09:13:53,2881.441884174079,7,30,-1.099568486213684,3.120037078857422,27.54615771151247,27.50406789544257,110.51515674555664,99.65596821355818,-0.0027196884620934,0.1010292172431945,0,0,0
9155,333617.9211718158,2010-12-10 09:14:23,2911.457026345945,7,30,-1.099568486213684,2.9850244522094727,27.54615771151247,27.513234970727108,110.51515674555664,99.68400276002944,-0.0044680596329271,0.1010292172431945,0,0,0
9156,333644.01416737656,2010-12-10 09:14:49,2937.550021926872,7,30,-1.0997490882873535,2.7849338054656982,27.54615771151247,27.52120425268306,110.51515674555664,99.70705743552986,-0.0073495865799486,0.1010292172431945,0,0,0
9157,333652.77963298565,2010-12-10 09:14:57,2946.315487515857,7,30,-1.099568486213684,2.699781894683838,27.54615771151247,27.52388136255764,110.51515674555664,99.7144002427846,-0.0078676221892237,0.1010292172431945,0,0,0
9158,333712.78848615475,2010-12-10 09:15:58,60.01446532872186,8,30,0.0,3.4290771484375,27.54615771151247,27.52388136255764,110.51515674555664,99.7144002427846,0.0012950897216796,0.1010292172431945,0,0,0
9159,333712.9716533247,2010-12-10 09:15:58,0.187594286165959,9,30,-1.9243103452026844e-05,3.42940092086792,27.54615771151247,27.52388136356039,110.51515674555664,99.71440024622342,0.0,0.0963535830378532,0,0,0
9160,333717.79976409266,2010-12-10 09:16:03,5.015705134315007,9,30,0.0008838032954372,3.437171220779419,27.546158757381264,27.52388136364559,110.5151603369375,99.7144002465156,0.0011332035064697,0.0963535830378532,0,0,0
