Data_Point,Test_Time(s),Date_Time,Step_Time(s),Step_Index,Cycle_Index,Current(A),Voltage(V),Charge_Capacity(Ah),Discharge_Capacity(Ah),Charge_Energy(Wh),Discharge_Energy(Wh),dV/dt(V/s),Internal_Resistance(Ohm),Is_FC_Data,AC_Impedance(Ohm),ACI_Phase_Angle(Deg)
1554,56083.32082161895,2010-12-07 04:08:16,30.015038764540996,1,6,0.0,3.4102983474731445,4.660000347879797,4.663040991374167,18.688323622894657,16.926572018971083,0.0007446765666827,0.0939245000481605,0,0,0
1555,56113.33580868984,2010-12-07 04:08:46,60.03002574521984,1,6,0.0,3.4349048137664795,4.660000347879797,4.663040991374167,18.688323622894657,16.926572018971083,0.0005827903514727,0.0939245000481605,0,0,0
1556,56143.35085842168,2010-12-07 04:09:16,90.04507544697768,1,6,0.0,3.453359842300415,4.660000347879797,4.663040991374167,18.688323622894657,16.926572018971083,0.0004856586456298,0.0939245000481605,0,0,0
1557,56173.31913496022,2010-12-07 04:09:46,120.01335203564254,1,6,0.0,3.468091487884521,4.660000347879797,4.663040991374167,18.688323622894657,16.926572018971083,0.0003237724304199,0.0939245000481605,0,0,0
1558,56203.33581224268,2010-12-07 04:10:16,30.015207524493643,2,6,0.5501165986061096,3.624634981155396,4.664586892196806,4.663040991374167,18.70479359985364,16.926572018971083,0.0014893531333655,0.0939245000481605,0,0,0
1559,56233.35076754452,2010-12-07 04:10:46,60.03016282634093,2,6,0.5501165986061096,3.668829917907715,4.669173445465772,4.663040991374167,18.7215262443634,16.926572018971083,0.0010036944877356,0.0939245000481605,0,0,0
1560,56263.36624186794,2010-12-07 04:11:16,90.0456371547659,2,6,0.5501165986061096,3.700559377670288,4.673760025081272,4.663040991374167,18.73842949297676,16.926572018971083,0.0007770538213662,0.0939245000481605,0,0,0
1561,56293.38092830072,2010-12-07 04:11:46,120.06032357250542,2,6,0.5501165986061096,3.725166082382202,4.678346439737443,4.663040991374167,18.7554602048869,16.926572018971083,0.0005827903514727,0.0939245000481605,0,0,0
1562,56323.39602608211,2010-12-07 04:12:16,150.07542137896996,2,6,0.5501165986061096,3.7445924282073975,4.682932868799982,4.663040991374167,18.77259221713196,16.926572018971083,0.0004209041653666,0.0939245000481605,0,0,0
1563,56353.41109740267,2010-12-07 04:12:46,180.09049267947546,2,6,0.550297200679779,3.7598094940185542,4.687519374390443,4.663040991374167,18.789804254218367,16.926572018971083,0.0003561496851034,0.0939245000481605,0,0,0
1564,56383.42616322455,2010-12-07 04:13:16,210.10555852139748,2,6,0.5501165986061096,3.770170211791992,4.692105908467293,4.663040991374167,18.80707414824011,16.926572018971083,0.0002590179501567,0.0939245000481605,0,0,0
1565,56413.441282233776,2010-12-07 04:13:46,240.1206775055619,2,6,0.5501165986061096,3.7768075466156006,4.696692469788824,4.663040991374167,18.82438209008741,16.926572018971083,0.0001618862152099,0.0939245000481605,0,0,0
1566,56443.45633888282,2010-12-07 04:14:16,270.1357342348074,2,6,0.5501165986061096,3.781826019287109,4.701278999408819,4.663040991374167,18.841716329939857,16.926572018971083,9.713172767078504e-05,0.0939245000481605,0,0,0
1567,56473.4714007298,2010-12-07 04:14:46,300.1507960116135,2,6,0.5499359965324402,3.786358833312988,4.705865512335512,4.663040991374167,18.85907220555337,16.926572018971083,0.0001295089750783,0.0939245000481605,0,0,0
1568,56503.48649974928,2010-12-07 04:15:16,330.16589502107166,2,6,0.5501165986061096,3.7905678749084473,4.710452038836852,4.663040991374167,18.876448108052852,16.926572018971083,9.713172767078504e-05,0.0939245000481605,0,0,0
1569,56533.5019799022,2010-12-07 04:15:46,360.1813751790031,2,6,0.550297200679779,3.794615030288696,4.7150385634160354,4.663040991374167,18.893842799745983,16.926572018971083,9.713172767078504e-05,0.0939245000481605,0,0,0
1570,56563.51666271096,2010-12-07 04:16:16,390.1960579877618,2,6,0.5501165986061096,3.798500299453736,4.719624982285851,4.663040991374167,18.91125524425276,16.926572018971083,0.0001295089750783,0.0939245000481605,0,0,0
1571,56593.53188029047,2010-12-07 04:16:46,420.2112755722894,2,6,0.5501165986061096,3.8020617961883545,4.724211480907475,4.663040991374167,18.928685438647012,16.926572018971083,9.713172767078504e-05,0.0939245000481605,0,0,0
1572,56623.54682568266,2010-12-07 04:17:16,450.22622095445206,2,6,0.5499359965324402,3.8059470653533936,4.728797928971012,4.663040991374167,18.946132325906945,16.926572018971083,9.713172767078504e-05,0.0939245000481605,0,0,0
1573,56653.56190697805,2010-12-07 04:17:46,480.2413022498294,2,6,0.5501165986061096,3.8093466758728023,4.733384436986846,4.663040991374167,18.963595943222973,16.926572018971083,6.47544875391759e-05,0.0939245000481605,0,0,0
1574,56683.57700825314,2010-12-07 04:18:16,510.25640361515,2,6,0.5501165986061096,3.813070058822632,4.737970994766458,4.663040991374167,18.981075908397763,16.926572018971083,0.0001295089750783,0.0939245000481605,0,0,0
1575,56713.59208931794,2010-12-07 04:18:46,540.2714845947415,2,6,0.5499359965324402,3.816307783126831,4.74255743930409,4.663040991374167,18.998571642740423,16.926572018971083,9.713172767078504e-05,0.0939245000481605,0,0,0
1576,56743.60716651812,2010-12-07 04:19:16,570.2865618199905,2,6,0.5501165986061096,3.81986927986145,4.747143934880317,4.663040991374167,19.01608338863858,16.926572018971083,9.713172767078504e-05,0.0939245000481605,0,0,0
1577,56773.62231606334,2010-12-07 04:19:46,600.3017114353796,2,6,0.550297200679779,3.8232688903808594,4.751730476933429,4.663040991374167,19.03361100559976,16.926572018971083,9.713172767078504e-05,0.0939245000481605,0,0,0
1578,56803.63730794121,2010-12-07 04:20:16,630.3167032129954,2,6,0.5501165986061096,3.8268303871154794,4.756316889610539,4.663040991374167,19.051153972478087,16.926572018971083,9.713172767078504e-05,0.0939245000481605,0,0,0
1579,56833.652378354505,2010-12-07 04:20:46,660.3317736262932,2,6,0.5499359965324402,3.830229997634888,4.760903302643239,4.663040991374167,19.068713016944585,16.926572018971083,9.713172767078504e-05,0.0939245000481605,0,0,0
1580,56863.667448206405,2010-12-07 04:21:16,690.3468434781938,2,6,0.5501165986061096,3.833791255950928,4.765489732888547,4.663040991374167,19.08628836306197,16.926572018971083,9.713172767078504e-05,0.0939245000481605,0,0,0
1581,56893.68268200127,2010-12-07 04:21:46,720.3620772830852,2,6,0.5501165986061096,3.837352752685547,4.770076179345035,4.663040991374167,19.103880198133627,16.926572018971083,9.713172767078504e-05,0.0939245000481605,0,0,0
1582,56923.69996613332,2010-12-07 04:22:16,750.3793615053614,2,6,0.5501165986061096,3.841076135635376,4.77466294739373,4.663040991374167,19.12148988766236,16.926572018971083,9.713172767078504e-05,0.0939245000481605,0,0,0
1583,56953.71294384902,2010-12-07 04:22:46,780.3923392310866,2,6,0.5499359965324402,3.844637632369995,4.779249115342205,4.663040991374167,19.139113964320625,16.926572018971083,6.47544875391759e-05,0.0939245000481605,0,0,0
1584,56983.72781338746,2010-12-07 04:23:16,810.4072086592405,2,6,0.5499359965324402,3.8481991291046143,4.783835468142645,4.663040991374167,19.15675539915672,16.926572018971083,6.47544875391759e-05,0.0939245000481605,0,0,0
1585,57013.74289267784,2010-12-07 04:23:46,840.4222879646659,2,6,0.5501165986061096,3.852084398269653,4.78842188997188,4.663040991374167,19.17441364380844,16.926572018971083,0.0001295089750783,0.0939245000481605,0,0,0
1586,57043.7580958515,2010-12-07 04:24:16,870.4374911283078,2,6,0.550297200679779,3.8554840087890634,4.793008355571495,4.663040991374167,19.192088451062865,16.926572018971083,9.713172767078504e-05,0.0939245000481605,0,0,0
1587,57073.77307156415,2010-12-07 04:24:47,900.4524668459588,2,6,0.5499359965324402,3.858883619308472,4.797594792201073,4.663040991374167,19.209779341342223,16.926572018971083,6.47544875391759e-05,0.0939245000481605,0,0,0
1588,57103.7882628382,2010-12-07 04:25:17,930.467658120014,2,6,0.5501165986061096,3.862283229827881,4.802181180959313,4.663040991374167,19.227485853679543,16.926572018971083,6.47544875391759e-05,0.0939245000481605,0,0,0
1589,57133.803220681366,2010-12-07 04:25:47,960.4826159531603,2,6,0.5501165986061096,3.8658447265625,4.806767604581387,4.663040991374167,19.24520792992688,16.926572018971083,0.0001295089750783,0.0939245000481605,0,0,0
1590,57163.81831807681,2010-12-07 04:26:17,990.4977134438392,2,6,0.550297200679779,3.868920564651489,4.811354073463709,4.663040991374167,19.262945171426185,16.926572018971083,9.713172767078504e-05,0.0939245000481605,0,0,0
1591,57193.83338327714,2010-12-07 04:26:47,1020.5127785489276,2,6,0.5499359965324402,3.8719964027404794,4.815940487633154,4.663040991374167,19.28069665268829,16.926572018971083,9.713172767078504e-05,0.0939245000481605,0,0,0
1592,57223.84845362527,2010-12-07 04:27:17,1050.5278488970632,2,6,0.5501165986061096,3.875072240829468,4.820526987118985,4.663040991374167,19.29846237978278,16.926572018971083,0.0001295089750783,0.0939245000481605,0,0,0
1593,57253.863533051,2010-12-07 04:27:47,1080.542928322788,2,6,0.5499359965324402,3.877662420272827,4.825113361392507,4.663040991374167,19.316240881485317,16.926572018971083,6.47544875391759e-05,0.0939245000481605,0,0,0
1594,57283.87861595538,2010-12-07 04:28:17,1110.5580112271691,2,6,0.5499359965324402,3.8805763721466064,4.829699904568558,4.663040991374167,19.334032705887157,16.926572018971083,6.47544875391759e-05,0.0939245000481605,0,0,0
1595,57313.89371428816,2010-12-07 04:28:47,1140.5731095599435,2,6,0.5501165986061096,3.882842779159546,4.834286367584614,4.663040991374167,19.35183618566412,16.926572018971083,3.237724376958795e-05,0.0939245000481605,0,0,0
1596,57343.90877636572,2010-12-07 04:29:17,1170.5881716425104,2,6,0.5501165986061096,3.8852710723876953,4.838872847881227,4.663040991374167,19.369650974737265,16.926572018971083,0.0,0.0939245000481605,0,0,0
1597,57373.92390790111,2010-12-07 04:29:47,1200.6033032681328,2,6,0.5501165986061096,3.8876993656158447,4.843459288065914,4.663040991374167,19.38747619293164,16.926572018971083,6.47544875391759e-05,0.0939245000481605,0,0,0
1598,57403.93894493133,2010-12-07 04:30:17,1230.6183402131458,2,6,0.5499359965324402,3.889642000198364,4.848045771239013,4.663040991374167,19.405311608371623,16.926572018971083,3.237724376958795e-05,0.0939245000481605,0,0,0
1599,57433.95403415143,2010-12-07 04:30:47,1260.6334294332437,2,6,0.550297200679779,3.891908407211304,4.852632244889604,4.663040991374167,19.423156323009728,16.926572018971083,9.713172767078504e-05,0.0939245000481605,0,0,0
1600,57463.95574279448,2010-12-07 04:31:17,1290.6351381665145,2,6,0.5501165986061096,3.8935272693634033,4.857216661697849,4.663040991374167,19.44100191567588,16.926572018971083,6.47544875391759e-05,0.0939245000481605,0,0,0
1601,57493.96873513658,2010-12-07 04:31:47,1320.6481305286616,2,6,0.5501165986061096,3.895469903945923,4.861802875709657,4.663040991374167,19.45886277134384,16.926572018971083,9.713172767078504e-05,0.0939245000481605,0,0,0
1602,57523.98385814074,2010-12-07 04:32:17,1350.6632534125306,2,6,0.5501165986061096,3.896926879882813,4.866389364528955,4.663040991374167,19.476732633201937,16.926572018971083,3.237724376958795e-05,0.0939245000481605,0,0,0
1603,57553.99884341217,2010-12-07 04:32:47,1380.6782386889683,2,6,0.5501165986061096,3.898869514465332,4.870975777199453,4.663040991374167,19.494610100010167,16.926572018971083,6.47544875391759e-05,0.0939245000481605,0,0,0
1604,57584.013970301,2010-12-07 04:33:17,1410.6933655727908,2,6,0.550297200679779,3.900488376617432,4.875562256176155,4.663040991374167,19.512495447479186,16.926572018971083,6.47544875391759e-05,0.0939245000481605,0,0,0
1605,57614.02887851066,2010-12-07 04:33:47,1440.7082737874632,2,6,0.550297200679779,3.902269124984741,4.880148724194267,4.663040991374167,19.530388206001245,16.926572018971083,6.47544875391759e-05,0.0939245000481605,0,0,0
1606,57644.04397626199,2010-12-07 04:34:17,1470.7233715337782,2,6,0.5501165986061096,3.903726100921631,4.884735226114543,4.663040991374167,19.54828838251112,16.926572018971083,3.237724376958795e-05,0.0939245000481605,0,0,0
1607,57674.05904493596,2010-12-07 04:34:47,1500.7384402077478,2,6,0.5501165986061096,3.905183076858521,4.889321702000411,4.663040991374167,19.56619565849158,16.926572018971083,6.47544875391759e-05,0.0939245000481605,0,0,0
1608,57704.07415646156,2010-12-07 04:35:17,1530.753551798514,2,6,0.5501165986061096,3.90664005279541,4.893908172157169,4.663040991374167,19.58410987952612,16.926572018971083,0.0,0.0939245000481605,0,0,0
1609,57734.089227937504,2010-12-07 04:35:47,1560.7686232293436,2,6,0.5501165986061096,3.9082589149475098,4.898494592206097,4.663040991374167,19.602030999184176,16.926572018971083,6.47544875391759e-05,0.0939245000481605,0,0,0
1610,57764.10429198496,2010-12-07 04:36:17,1590.7836872567505,2,6,0.5501165986061096,3.90987777709961,4.903081049298783,4.663040991374167,19.619959290655896,16.926572018971083,6.47544875391759e-05,0.0939245000481605,0,0,0
1611,57794.119390929256,2010-12-07 04:36:47,1620.7987863063083,2,6,0.5499359965324402,3.911172866821289,4.907667546040245,4.663040991374167,19.63789464757033,16.926572018971083,0.0,0.0939245000481605,0,0,0
1612,57824.13459326082,2010-12-07 04:37:17,1650.8139885426426,2,6,0.5499359965324402,3.9126298427581783,4.91225397204174,4.663040991374167,19.655836720351488,16.926572018971083,3.237724376958795e-05,0.0939245000481605,0,0,0
1613,57854.14954920427,2010-12-07 04:37:47,1680.8289445712985,2,6,0.550297200679779,3.914248466491699,4.916840384766416,4.663040991374167,19.67378573251031,16.926572018971083,3.237724376958795e-05,0.0939245000481605,0,0,0
1614,57884.16466875986,2010-12-07 04:38:17,1710.8440641118475,2,6,0.550297200679779,3.915705442428589,4.921426935936204,4.663040991374167,19.69174228197452,16.926572018971083,3.237724376958795e-05,0.0939245000481605,0,0,0
1615,57914.1796932138,2010-12-07 04:38:47,1740.85908849059,2,6,0.5501165986061096,3.917324304580689,4.926013363247929,4.663040991374167,19.70970524510104,16.926572018971083,3.237724376958795e-05,0.0939245000481605,0,0,0
1616,57944.19481546107,2010-12-07 04:39:17,1770.874210732862,2,6,0.5501165986061096,3.918943166732788,4.930599900408646,4.663040991374167,19.72767575124369,16.926572018971083,3.237724376958795e-05,0.0939245000481605,0,0,0
1617,57974.20985554389,2010-12-07 04:39:47,1800.8892508156837,2,6,0.5499359965324402,3.920238256454468,4.935186400988771,4.663040991374167,19.74565317017841,16.926572018971083,0.0,0.0939245000481605,0,0,0
1618,58004.22495589168,2010-12-07 04:40:17,1830.9043511734967,2,6,0.5501165986061096,3.922019004821777,4.939772933957379,4.663040991374167,19.76363771061295,16.926572018971083,6.47544875391759e-05,0.0939245000481605,0,0,0
1619,58034.24001758327,2010-12-07 04:40:47,1860.9194128550664,2,6,0.5501165986061096,3.923314094543457,4.944359383767162,4.663040991374167,19.78162905847776,16.926572018971083,0.0,0.0939245000481605,0,0,0
1620,58064.25510309915,2010-12-07 04:41:17,1890.9344983859835,2,6,0.5501165986061096,3.925094842910767,4.948945803503287,4.663040991374167,19.79962739469057,16.926572018971083,3.237724376958795e-05,0.0939245000481605,0,0,0
1621,58094.27033930502,2010-12-07 04:41:47,1920.9497346119,2,6,0.550297200679779,3.926713705062866,4.953532339263791,4.663040991374167,19.817633311415698,16.926572018971083,6.47544875391759e-05,0.0939245000481605,0,0,0
1622,58124.28526749941,2010-12-07 04:42:17,1950.964662771204,2,6,0.5501165986061096,3.928170680999756,4.958118811367151,4.663040991374167,19.835646155049176,16.926572018971083,9.713172767078504e-05,0.0939245000481605,0,0,0
1623,58154.30036872438,2010-12-07 04:42:47,1980.979764021237,2,6,0.5501165986061096,3.929789543151856,4.962705311611466,4.663040991374167,19.85366623329132,16.926572018971083,6.47544875391759e-05,0.0939245000481605,0,0,0
1624,58184.31543601491,2010-12-07 04:43:17,2010.9948312867016,2,6,0.5501165986061096,3.931246519088745,4.967291736903956,4.663040991374167,19.87169321072097,16.926572018971083,3.237724376958795e-05,0.0939245000481605,0,0,0
1625,58214.330786946266,2010-12-07 04:43:47,2041.0101823183072,2,6,0.5501165986061096,3.9328653812408447,4.971878269438928,4.663040991374167,19.88972781949108,16.926572018971083,3.237724376958795e-05,0.0939245000481605,0,0,0
1626,58244.34559100676,2010-12-07 04:44:17,2071.024986283559,2,6,0.550297200679779,3.934484243392944,4.976464715663303,4.663040991374167,19.907769328248264,16.926572018971083,3.237724376958795e-05,0.0939245000481605,0,0,0
1627,58274.36079341853,2010-12-07 04:44:47,2101.04018869533,2,6,0.5499359965324402,3.935941219329834,4.981051190183599,4.663040991374167,19.9258182633117,16.926572018971083,3.237724376958795e-05,0.0939245000481605,0,0,0
1628,58304.37576294076,2010-12-07 04:45:17,2131.055158217565,2,6,0.5501165986061096,3.9375600814819336,4.985637633877117,4.663040991374167,19.943874270435217,16.926572018971083,0.0,0.0939245000481605,0,0,0
1629,58334.39083537911,2010-12-07 04:45:47,2161.070230655901,2,6,0.5499359965324402,3.939178943634033,4.990224150041984,4.663040991374167,19.96193804299709,16.926572018971083,3.237724376958795e-05,0.0939245000481605,0,0,0
1630,58364.40593240361,2010-12-07 04:46:17,2191.08532768042,2,6,0.550297200679779,3.940959692001343,4.994810610732829,4.663040991374167,19.980008985148427,16.926572018971083,3.237724376958795e-05,0.0939245000481605,0,0,0
1631,58394.42099593479,2010-12-07 04:46:47,2221.1003912065794,2,6,0.5501165986061096,3.942416667938232,4.999397113619089,4.663040991374167,19.998087470447658,16.926572018971083,3.237724376958795e-05,0.0939245000481605,0,0,0
1632,58424.43609096936,2010-12-07 04:47:17,2251.1154862411463,2,6,0.5499359965324402,3.944035530090332,5.003983535898439,4.663040991374167,20.01617306075368,16.926572018971083,3.237724376958795e-05,0.0939245000481605,0,0,0
1633,58454.45113225518,2010-12-07 04:47:47,2281.1305275369864,2,6,0.5501165986061096,3.9458162784576416,5.008569959247057,4.663040991374167,20.03426613158086,16.926572018971083,6.47544875391759e-05,0.0939245000481605,0,0,0
1634,58484.46644513183,2010-12-07 04:48:17,2311.1458404938444,2,6,0.5501165986061096,3.947435140609741,5.013156376090707,4.663040991374167,20.05236663276804,16.926572018971083,9.713172767078504e-05,0.0939245000481605,0,0,0
1635,58514.48131012896,2010-12-07 04:48:47,2341.160705415785,2,6,0.5501165986061096,3.949054002761841,5.017742681184649,4.663040991374167,20.070474228399146,16.926572018971083,6.47544875391759e-05,0.0939245000481605,0,0,0
1636,58544.49639783028,2010-12-07 04:49:17,2371.175793107078,2,6,0.5501165986061096,3.9508347511291504,5.022329043169614,4.663040991374167,20.088589567399097,16.926572018971083,9.713172767078504e-05,0.0939245000481605,0,0,0
1637,58574.51148612808,2010-12-07 04:49:47,2401.190881434956,2,6,0.5501165986061096,3.95229172706604,5.026915451356873,4.663040991374167,20.106712732852905,16.926572018971083,3.237724376958795e-05,0.0939245000481605,0,0,0
1638,58604.526697106165,2010-12-07 04:50:17,2431.2060924481307,2,6,0.5501165986061096,3.95391058921814,5.031501951062834,4.663040991374167,20.124843988887545,16.926572018971083,0.0,0.0939245000481605,0,0,0
1639,58634.54163968635,2010-12-07 04:50:47,2461.221034958146,2,6,0.5501165986061096,3.955853223800659,5.036088453938752,4.663040991374167,20.142982989987573,16.926572018971083,9.713172767078504e-05,0.0939245000481605,0,0,0
1640,58664.55673325226,2010-12-07 04:51:17,2491.236128524058,2,6,0.5501165986061096,3.957310199737549,5.040675011197791,4.663040991374167,20.161129971162875,16.926572018971083,0.0,0.0939245000481605,0,0,0
1641,58694.57177415212,2010-12-07 04:51:47,2521.251169428925,2,6,0.550297200679779,3.9590909481048575,5.045261559399238,4.663040991374167,20.179284686195228,16.926572018971083,6.47544875391759e-05,0.0939245000481605,0,0,0
1642,58724.58685403399,2010-12-07 04:52:17,2551.266249305773,2,6,0.5501165986061096,3.960871696472168,5.049848081646247,4.663040991374167,20.19744710179173,16.926572018971083,6.47544875391759e-05,0.0939245000481605,0,0,0
1643,58754.601933620106,2010-12-07 04:52:47,2581.2813289169585,2,6,0.5499359965324402,3.9623286724090576,5.05443454083199,4.663040991374167,20.21561716686005,16.926572018971083,0.0,0.0939245000481605,0,0,0
1644,58784.61703362203,2010-12-07 04:53:17,2611.296428913874,2,6,0.5501165986061096,3.964433193206787,5.059021081068893,4.663040991374167,20.2337955024006,16.926572018971083,9.713172767078504e-05,0.0939245000481605,0,0,0
1645,58814.63210147396,2010-12-07 04:53:47,2641.311496755773,2,6,0.5501165986061096,3.966052055358887,5.063607590548923,4.663040991374167,20.251981692180728,16.926572018971083,6.47544875391759e-05,0.0939245000481605,0,0,0
1646,58844.64721132039,2010-12-07 04:54:17,2671.3266066021984,2,6,0.5499359965324402,3.9676709175109854,5.068194139434426,4.663040991374167,20.270176109875344,16.926572018971083,6.47544875391759e-05,0.0939245000481605,0,0,0
1647,58874.662278245,2010-12-07 04:54:47,2701.34167353684,2,6,0.550297200679779,3.969613552093506,5.072780716245114,4.663040991374167,20.28837874933191,16.926572018971083,6.47544875391759e-05,0.0939245000481605,0,0,0
1648,58904.66401390528,2010-12-07 04:55:17,2731.343409297367,2,6,0.5501165986061096,3.9715561866760254,5.077365237834549,4.663040991374167,20.306581430564115,16.926572018971083,6.47544875391759e-05,0.0939245000481605,0,0,0
1649,58934.676864148765,2010-12-07 04:55:47,2761.3562595107824,2,6,0.5501165986061096,3.973336935043335,5.081951506312974,4.663040991374167,20.32479935648962,16.926572018971083,6.47544875391759e-05,0.0939245000481605,0,0,0
1650,58964.69201848591,2010-12-07 04:56:17,2791.371413767722,2,6,0.5501165986061096,3.9749557971954346,5.086538072088683,4.663040991374167,20.34302681214916,16.926572018971083,6.47544875391759e-05,0.0939245000481605,0,0,0
1651,58994.70701511058,2010-12-07 04:56:47,2821.3864103923997,2,6,0.5501165986061096,3.976736545562744,5.091124632684386,4.663040991374167,20.361262626279533,16.926572018971083,0.0,0.0939245000481605,0,0,0
1652,59024.72205417587,2010-12-07 04:57:17,2851.401449447664,2,6,0.5501165986061096,3.9788410663604736,5.095711248981168,4.663040991374167,20.37950678632953,16.926572018971083,6.47544875391759e-05,0.0939245000481605,0,0,0
1653,59054.73715945093,2010-12-07 04:57:48,2881.416554732739,2,6,0.5499359965324402,3.980459928512573,5.10029776936451,4.663040991374167,20.39775965970709,16.926572018971083,3.237724376958795e-05,0.0939245000481605,0,0,0
1654,59084.752461656026,2010-12-07 04:58:18,2911.4318569328293,2,6,0.5501165986061096,3.9827263355255127,5.104884325455635,4.663040991374167,20.41602141171512,16.926572018971083,9.713172767078504e-05,0.0939245000481605,0,0,0
1655,59114.76729355078,2010-12-07 04:58:48,2941.4466888275824,2,6,0.5501165986061096,3.9845070838928223,5.10947073609925,4.663040991374167,20.434291329595297,16.926572018971083,6.47544875391759e-05,0.0939245000481605,0,0,0
1656,59144.78239575318,2010-12-07 04:59:18,2971.461791050036,2,6,0.550297200679779,3.986449718475342,5.11405723608169,4.663040991374167,20.452570546926825,16.926572018971083,3.237724376958795e-05,0.0939245000481605,0,0,0
1657,59174.79746633189,2010-12-07 04:59:48,3001.476861613708,2,6,0.5501165986061096,3.988392353057861,5.11864375031813,4.663040991374167,20.47085877765545,16.926572018971083,6.47544875391759e-05,0.0939245000481605,0,0,0
1658,59204.81255652442,2010-12-07 05:00:18,3031.491951806225,2,6,0.5501165986061096,3.990334987640381,5.123230228844995,4.663040991374167,20.48915595685685,16.926572018971083,3.237724376958795e-05,0.0939245000481605,0,0,0
1659,59234.82762092273,2010-12-07 05:00:48,3061.5070161945305,2,6,0.5501165986061096,3.9924395084381104,5.127816673134686,4.663040991374167,20.507462403054987,16.926572018971083,0.0,0.0939245000481605,0,0,0
1660,59264.84270418802,2010-12-07 05:01:18,3091.52209945981,2,6,0.5501165986061096,3.9945437908172607,5.132403205211226,4.663040991374167,20.525778861673817,16.926572018971083,6.47544875391759e-05,0.0939245000481605,0,0,0
1661,59294.85779454595,2010-12-07 05:01:48,3121.5371898227518,2,6,0.5499359965324402,3.9968101978302,5.136989653479732,4.663040991374167,20.544104795520823,16.926572018971083,6.47544875391759e-05,0.0939245000481605,0,0,0
1662,59324.87286378632,2010-12-07 05:02:18,3151.55225912328,2,6,0.5501165986061096,3.99875283241272,5.141576108203143,4.663040991374167,20.56244064865769,16.926572018971083,3.237724376958795e-05,0.0939245000481605,0,0,0
1663,59354.887956229446,2010-12-07 05:02:48,3181.567351526298,2,6,0.550297200679779,4.001181125640869,5.146162488805934,4.663040991374167,20.58078635746623,16.926572018971083,3.23295607813634e-05,0.0939245000481605,0,0,0
1664,59384.903030692825,2010-12-07 05:03:18,3211.582425964612,2,6,0.5499359965324402,4.003447532653809,5.150748859542754,4.663040991374167,20.59914233843721,16.926572018971083,6.47544875391759e-05,0.0939245000481605,0,0,0
1665,59414.91823122992,2010-12-07 05:03:48,3241.597626501717,2,6,0.5501165986061096,4.005876064300537,5.155335275182261,4.663040991374167,20.617508847585256,16.926572018971083,9.71794142969884e-05,0.0939245000481605,0,0,0
1666,59444.9332152733,2010-12-07 05:04:18,3271.612610635312,2,6,0.5501165986061096,4.008142471313477,5.159921657758734,4.663040991374167,20.635885835892367,16.926572018971083,9.71794142969884e-05,0.0939245000481605,0,0,0
1667,59474.9484163718,2010-12-07 05:04:48,3301.6278117338143,2,6,0.5501165986061096,4.010408878326416,5.164508050162747,4.663040991374167,20.65427345592295,16.926572018971083,6.47544875391759e-05,0.0939245000481605,0,0,0
1668,59504.96329593517,2010-12-07 05:05:18,3331.642691227015,2,6,0.550297200679779,4.012675285339356,5.16909447464016,4.663040991374167,20.672671983875706,16.926572018971083,3.24249267578125e-05,0.0939245000481605,0,0,0
1669,59534.9785238454,2010-12-07 05:05:48,3361.657919137237,2,6,0.5499359965324402,4.015103340148926,5.173680964064457,4.663040991374167,20.691081609516058,16.926572018971083,9.70840483205393e-05,0.0939245000481605,0,0,0
1670,59564.99344996963,2010-12-07 05:06:18,3391.6728452715024,2,6,0.5501165986061096,4.017369747161865,5.178267311133793,4.663040991374167,20.709501630586505,16.926572018971083,3.23295607813634e-05,0.0939245000481605,0,0,0
1671,59595.00849891952,2010-12-07 05:06:48,3421.6878942163767,2,6,0.5501165986061096,4.019959926605225,5.182853736137099,4.663040991374167,20.727932992575244,16.926572018971083,9.70840483205393e-05,0.0939245000481605,0,0,0
1672,59625.023692363975,2010-12-07 05:07:18,3451.703087640783,2,6,0.5501165986061096,4.022226333618164,5.187440200127148,4.663040991374167,20.746375731434448,16.926572018971083,6.47544875391759e-05,0.0939245000481605,0,0,0
1673,59655.03865996644,2010-12-07 05:07:48,3481.7180553535145,2,6,0.5501165986061096,4.024654865264893,5.192026636257944,4.663040991374167,20.764829557827813,16.926572018971083,0.0,0.0939245000481605,0,0,0
1674,59685.054095373,2010-12-07 05:08:18,3511.733490730009,2,6,0.550297200679779,4.027568817138672,5.196613055050294,4.663040991374167,20.78329465776454,16.926572018971083,9.71794142969884e-05,0.0939245000481605,0,0,0
1675,59715.068755410095,2010-12-07 05:08:48,3541.748150681889,2,6,0.550297200679779,4.029835224151611,5.201199433279759,4.663040991374167,20.801771041520333,16.926572018971083,6.47544875391759e-05,0.0939245000481605,0,0,0
1676,59745.08392401274,2010-12-07 05:09:18,3571.763319284527,2,6,0.5501165986061096,4.032101631164551,5.205785831684411,4.663040991374167,20.82025893631537,16.926572018971083,0.0,0.0939245000481605,0,0,0
1677,59775.09914957712,2010-12-07 05:09:48,3601.7785448739746,2,6,0.5499359965324402,4.034691333770752,5.210372272555581,4.663040991374167,20.838758633354576,16.926572018971083,3.23295607813634e-05,0.0939245000481605,0,0,0
1678,59805.113932224325,2010-12-07 05:10:18,3631.793327506141,2,6,0.5499359965324402,4.0374436378479,5.214958644812354,4.663040991374167,20.8572696817374,16.926572018971083,6.47544875391759e-05,0.0939245000481605,0,0,0
1679,59835.12899622165,2010-12-07 05:10:48,3661.8083914934473,2,6,0.5501165986061096,4.04003381729126,5.219545026346236,4.663040991374167,20.875792592915268,16.926572018971083,3.24249267578125e-05,0.0939245000481605,0,0,0
1680,59865.144053141375,2010-12-07 05:11:18,3691.8234484131663,2,6,0.5501165986061096,4.042623996734619,5.22413142377624,4.663040991374167,20.894327426924697,16.926572018971083,6.47544875391759e-05,0.0939245000481605,0,0,0
1681,59895.15918209535,2010-12-07 05:11:48,3721.838577442328,2,6,0.5499359965324402,4.0452141761779785,5.228717876449339,4.663040991374167,20.912874502141143,16.926572018971083,9.71794142969884e-05,0.0939245000481605,0,0,0
1682,59925.17418217864,2010-12-07 05:12:18,3751.853577450425,2,6,0.550297200679779,4.047804355621338,5.233304267432342,4.663040991374167,20.93143341316753,16.926572018971083,6.47544875391759e-05,0.0939245000481605,0,0,0
1683,59955.18923695301,2010-12-07 05:12:48,3781.868632224805,2,6,0.5501165986061096,4.050394535064697,5.237890692087435,4.663040991374167,20.95000471918576,16.926572018971083,3.24249267578125e-05,0.0939245000481605,0,0,0
1684,59985.20432308543,2010-12-07 05:13:18,3811.8837183872943,2,6,0.5501165986061096,4.053308486938477,5.242477125650775,4.663040991374167,20.96858836346669,16.926572018971083,9.71794142969884e-05,0.0939245000481605,0,0,0
1685,60015.219363940174,2010-12-07 05:13:48,3841.8987592219873,2,6,0.5501165986061096,4.056222438812256,5.247063569198583,4.663040991374167,20.987184560584858,16.926572018971083,0.0001295089750783,0.0939245000481605,0,0,0
1686,60045.23449543547,2010-12-07 05:14:18,3871.9138908125215,2,6,0.5501165986061096,4.058812618255615,5.251650004374472,4.663040991374167,21.00579336180309,16.926572018971083,6.47544875391759e-05,0.0939245000481605,0,0,0
1687,60075.24943479264,2010-12-07 05:14:48,3901.92883006443,2,6,0.5499359965324402,4.0612406730651855,5.256236372790606,4.663040991374167,21.024414309054183,16.926572018971083,9.70840483205393e-05,0.0939245000481605,0,0,0
1688,60105.264496298776,2010-12-07 05:15:18,3931.943891575575,2,6,0.5501165986061096,4.064154624938965,5.260822684189071,4.663040991374167,21.043047573377137,16.926572018971083,6.47544875391759e-05,0.0939245000481605,0,0,0
1689,60135.27956243142,2010-12-07 05:15:48,3961.958957713232,2,6,0.5499359965324402,4.066906929016113,5.265409079101999,4.663040991374167,21.06169398925841,16.926572018971083,6.47544875391759e-05,0.0939245000481605,0,0,0
1690,60165.29487328304,2010-12-07 05:16:18,3991.974268655076,2,6,0.5501165986061096,4.069982528686523,5.269995483364519,4.663040991374167,21.080353398931752,16.926572018971083,9.70840483205393e-05,0.0939245000481605,0,0,0
1691,60195.309705283056,2010-12-07 05:16:48,4021.989100574892,2,6,0.5499359965324402,4.072572708129883,5.274581855588022,4.663040991374167,21.0990256936664,16.926572018971083,9.70840483205393e-05,0.0939245000481605,0,0,0
1692,60225.324726258325,2010-12-07 05:17:18,4052.00412154014,2,6,0.5499359965324402,4.075486660003662,5.279168233825286,4.663040991374167,21.11771117775698,16.926572018971083,6.47544875391759e-05,0.0939245000481605,0,0,0
1693,60255.33978850631,2010-12-07 05:17:48,4082.019183778094,2,6,0.5501165986061096,4.078562736511231,5.283754679373437,4.663040991374167,21.136410193206125,16.926572018971083,9.71794142969884e-05,0.0939245000481605,0,0,0
1694,60285.35482949137,2010-12-07 05:18:18,4112.034224763161,2,6,0.550297200679779,4.081314563751221,5.288341189173803,4.663040991374167,21.15512283907701,16.926572018971083,9.70840483205393e-05,0.0939245000481605,0,0,0
1695,60315.36988341864,2010-12-07 05:18:48,4142.0492786954455,2,6,0.5501165986061096,4.084390640258789,5.292927579777408,4.663040991374167,21.17384827684531,16.926572018971083,9.71794142969884e-05,0.0939245000481605,0,0,0
1696,60345.38493545622,2010-12-07 05:19:18,4172.064330728003,2,6,0.5501165986061096,4.087304592132568,5.297513985346945,4.663040991374167,21.19258744990784,16.926572018971083,9.71794142969884e-05,0.0939245000481605,0,0,0
1697,60375.39999566411,2010-12-07 05:19:48,4202.079390935906,2,6,0.5501165986061096,4.0903801918029785,5.302100394148113,4.663040991374167,21.21134034589922,16.926572018971083,9.70840483205393e-05,0.0939245000481605,0,0,0
1698,60405.41505228308,2010-12-07 05:20:18,4232.094447584952,2,6,0.5497553944587708,4.093132495880127,5.306686842336061,4.663040991374167,21.23010720033666,16.926572018971083,3.24249267578125e-05,0.0939245000481605,0,0,0
1699,60435.430250369085,2010-12-07 05:20:48,4262.10964571607,2,6,0.5499359965324402,4.096370220184326,5.311273303297339,4.663040991374167,21.24888802080645,16.926572018971083,6.47544875391759e-05,0.0939245000481605,0,0,0
1700,60465.44514449871,2010-12-07 05:21:18,4292.124539770505,2,6,0.5499359965324402,4.0992841720581055,5.315859665738918,4.663040991374167,21.267682444829703,16.926572018971083,3.24249267578125e-05,0.0939245000481605,0,0,0
1701,60495.460204856994,2010-12-07 05:21:48,4322.139600138807,2,6,0.5501165986061096,4.102359771728516,5.320446118339789,4.663040991374167,21.28649139077022,16.926572018971083,3.23295607813634e-05,0.0939245000481605,0,0,0
1702,60525.47537341953,2010-12-07 05:22:18,4352.154768716383,2,6,0.5499359965324402,4.105597496032715,5.325032593390429,4.663040991374167,21.305314650262403,16.926572018971083,6.47544875391759e-05,0.0939245000481605,0,0,0
1703,60555.490307578766,2010-12-07 05:22:48,4382.16970286058,2,6,0.550297200679779,4.108673572540283,5.329618990577982,4.663040991374167,21.324151922855396,16.926572018971083,6.47544875391759e-05,0.0939245000481605,0,0,0
1704,60585.50548128911,2010-12-07 05:23:18,4412.184876651128,2,6,0.550297200679779,4.112072944641113,5.334205453140815,4.663040991374167,21.343003935951145,16.926572018971083,6.47544875391759e-05,0.0939245000481605,0,0,0
1705,60615.52043472132,2010-12-07 05:23:48,4442.1998300231735,2,6,0.5501165986061096,4.114986896514893,5.338791913405378,4.663040991374167,21.36187043108686,16.926572018971083,6.47544875391759e-05,0.0939245000481605,0,0,0
1706,60645.53547900458,2010-12-07 05:24:18,4472.214874276373,2,6,0.5501165986061096,4.118386268615723,5.343378383342309,4.663040991374167,21.38075166892887,16.926572018971083,0.0001295089750783,0.0939245000481605,0,0,0
1707,60675.550543663565,2010-12-07 05:24:48,4502.22993893535,2,6,0.5501165986061096,4.121623992919922,5.347964817154127,4.663040991374167,21.399647504663623,16.926572018971083,6.47544875391759e-05,0.0939245000481605,0,0,0
1708,60705.56568493318,2010-12-07 05:25:18,4532.245080209985,2,6,0.5501165986061096,4.124861717224121,5.352551319449997,4.663040991374167,21.41855848244251,16.926572018971083,9.70840483205393e-05,0.0939245000481605,0,0,0
1709,60735.580747045824,2010-12-07 05:25:48,4562.260142327638,2,6,0.5501165986061096,4.12809944152832,5.357137825383389,4.663040991374167,21.437484544605617,16.926572018971083,9.70840483205393e-05,0.0939245000481605,0,0,0
1710,60765.595665435816,2010-12-07 05:26:18,4592.275060707608,2,6,0.5501165986061096,4.13133716583252,5.361724281016154,4.663040991374167,21.45642559784415,16.926572018971083,6.47544875391759e-05,0.0939245000481605,0,0,0
1711,60795.61071954855,2010-12-07 05:26:48,4622.290114820342,2,6,0.5501165986061096,4.134737014770508,5.366310688108846,4.663040991374167,21.4753817644697,16.926572018971083,9.71794142969884e-05,0.0939245000481605,0,0,0
1712,60825.62808624606,2010-12-07 05:27:18,4652.307481618103,2,6,0.5499359965324402,4.138298511505127,5.370897520606356,4.663040991374167,21.494355177032578,16.926572018971083,9.71794142969884e-05,0.0939245000481605,0,0,0
1713,60855.64085065596,2010-12-07 05:27:48,4682.320245937776,2,6,0.5501165986061096,4.141536235809326,5.375483683227217,4.663040991374167,21.51334131061833,16.926572018971083,9.71794142969884e-05,0.0939245000481605,0,0,0
1714,60885.65599179024,2010-12-07 05:28:18,4712.33538707206,2,6,0.550297200679779,4.145259380340576,5.380070220786479,4.663040991374167,21.53234466777745,16.926572018971083,0.0001618385285837,0.0939245000481605,0,0,0
1715,60915.67091275665,2010-12-07 05:28:48,4742.350308038464,2,6,0.5501165986061096,4.1483354568481445,5.384656634470993,4.663040991374167,21.551363528931656,16.926572018971083,6.47544875391759e-05,0.0939245000481605,0,0,0
1716,60945.68598125519,2010-12-07 05:29:18,4772.365376597148,2,6,0.5501165986061096,4.151896953582764,5.389243028950503,4.663040991374167,21.570398182329136,16.926572018971083,9.71794142969884e-05,0.0939245000481605,0,0,0
1717,60975.70103727767,2010-12-07 05:29:49,4802.380432559485,2,6,0.5499359965324402,4.155458450317383,5.39382936618879,4.663040991374167,21.58944861401629,16.926572018971083,9.71794142969884e-05,0.0939245000481605,0,0,0
1718,61005.71619090805,2010-12-07 05:30:19,4832.395586209915,2,6,0.5499359965324402,4.158857822418213,5.39841584463464,4.663040991374167,21.608515769720327,16.926572018971083,3.23295607813634e-05,0.0939245000481605,0,0,0
1719,61035.73126755686,2010-12-07 05:30:49,4862.410662953967,2,6,0.5501165986061096,4.162581443786621,5.403002298991057,4.663040991374167,21.62759895514828,16.926572018971083,0.0001295089750783,0.0939245000481605,0,0,0
1720,61065.746149796905,2010-12-07 05:31:19,4892.425545068691,2,6,0.5501165986061096,4.16614294052124,5.4075887119454,4.663040991374167,21.646698205575188,16.926572018971083,9.71794142969884e-05,0.0939245000481605,0,0,0
1721,61095.76120907749,2010-12-07 05:31:49,4922.4406043492845,2,6,0.5501165986061096,4.16954231262207,5.412175108264151,4.663040991374167,21.665813839971086,16.926572018971083,6.47544875391759e-05,0.0939245000481605,0,0,0
1722,61125.776376010974,2010-12-07 05:32:19,4952.4557712927935,2,6,0.5501165986061096,4.173427581787109,5.416761539378234,4.663040991374167,21.68494607865892,16.926572018971083,0.0001295089750783,0.0939245000481605,0,0,0
1723,61155.79137852031,2010-12-07 05:32:49,4982.470773892339,2,6,0.5501165986061096,4.1769890785217285,5.421347973006373,4.663040991374167,21.704094896430664,16.926572018971083,9.70840483205393e-05,0.0939245000481605,0,0,0
1724,61185.806483479566,2010-12-07 05:33:19,5012.485878751354,2,6,0.5497553944587708,4.180388927459717,5.425934463880628,4.663040991374167,21.72326054363789,16.926572018971083,6.47544875391759e-05,0.0939245000481605,0,0,0
1725,61215.82153330663,2010-12-07 05:33:49,5042.500928588449,2,6,0.5501165986061096,4.184112071990967,5.43052086413738,4.663040991374167,21.742442640961062,16.926572018971083,6.47544875391759e-05,0.0939245000481605,0,0,0
1726,61245.83645557127,2010-12-07 05:34:19,5072.515850848073,2,6,0.5501165986061096,4.187835693359375,5.435107240102361,4.663040991374167,21.76164150559285,16.926572018971083,9.71794142969884e-05,0.0939245000481605,0,0,0
1727,61275.85160407389,2010-12-07 05:34:49,5102.530999345679,2,6,0.5501165986061096,4.191720962524414,5.439693704953719,4.663040991374167,21.78085782709677,16.926572018971083,9.71794142969884e-05,0.0939245000481605,0,0,0
1728,61305.86667719893,2010-12-07 05:35:19,5132.546072470725,2,6,0.5501165986061096,4.195281982421875,5.444280141322736,4.663040991374167,21.800091153715684,16.926572018971083,6.47544875391759e-05,0.0939245000481605,0,0,0
1729,61335.88158371438,2010-12-07 05:35:49,5162.560979086418,2,6,0.5501165986061096,4.199167251586914,5.448866528956175,4.663040991374167,21.81934142340467,16.926572018971083,9.70840483205393e-05,0.0939245000481605,0,0,0
1730,61341.10030032995,2010-12-07 05:35:54,5167.77969560676,2,6,0.550297200679779,4.200138568878174,5.449663974177483,4.663040991374167,21.822690281345487,16.926572018971083,0.0001618385285837,0.0939245000481605,0,0,0
1731,61371.114598134205,2010-12-07 05:36:24,30.015157765670725,3,6,0.0,4.109806537628174,5.449663974177483,4.663040991374167,21.822690281345487,16.926572018971083,-0.0004209518374409,0.0939245000481605,0,0,0
1732,61401.12954056905,2010-12-07 05:36:54,60.03010029072345,3,6,0.0,4.098636627197266,5.449663974177483,4.663040991374167,21.822690281345487,16.926572018971083,-0.0002265930233988,0.0939245000481605,0,0,0
1733,61431.14470702133,2010-12-07 05:37:24,90.04526664276102,3,6,0.0,4.091837406158447,5.449663974177483,4.663040991374167,21.822690281345487,16.926572018971083,-0.0001295089750783,0.0939245000481605,0,0,0
1734,61461.11286844341,2010-12-07 05:37:54,120.01342806483828,3,6,0.0,4.087466239929199,5.449663974177483,4.663040991374167,21.822690281345487,16.926572018971083,-6.47544875391759e-05,0.0939245000481605,0,0,0
1735,61461.114269298574,2010-12-07 05:37:54,2.686685714e-06,4,6,0.9994724988937378,4.199653148651123,5.449663974923391,4.663040991374167,21.822690284478043,16.926572018971083,0.0,0.0939245000481605,0,0,0
1736,61461.9424974224,2010-12-07 05:37:55,0.828230895728987,4,6,0.9494436979293824,4.199653148651123,5.449886707478368,4.663040991374167,21.82362571112667,16.926572018971083,0.0,0.0939245000481605,0,0,0
1737,61463.98922815812,2010-12-07 05:37:57,2.874961561269775,4,6,0.8988731503486633,4.199653148651123,5.450411147786331,4.663040991374167,21.82582823142437,16.926572018971083,0.0,0.0939245000481605,0,0,0
1738,61467.098513981306,2010-12-07 05:38:00,5.984247384452851,4,6,0.8488443493843079,4.199814796447754,5.451164851435987,4.663040991374167,21.82899361460092,16.926572018971083,3.23295607813634e-05,0.0939245000481605,0,0,0
1739,61471.37969056458,2010-12-07 05:38:04,10.265423977744618,4,6,0.7986350059509277,4.199814796447754,5.452143190304424,4.663040991374167,21.833102438101182,16.926572018971083,0.0,0.0939245000481605,0,0,0
1740,61477.02020656168,2010-12-07 05:38:10,15.905939964835571,4,6,0.7484256029129028,4.199814796447754,5.453353616858967,4.663040991374167,21.83818597713202,16.926572018971083,0.0,0.0939245000481605,0,0,0
1741,61484.41068179004,2010-12-07 05:38:17,23.29641519319229,4,6,0.6982161998748779,4.199814796447754,5.454836268528486,4.663040991374167,21.844412812038303,16.926572018971083,0.0,0.0939245000481605,0,0,0
1742,61494.20736639288,2010-12-07 05:38:27,33.09309979603089,4,6,0.6481874585151672,4.199814796447754,5.456664902235843,4.663040991374167,21.85209272643716,16.926572018971083,0.0,0.0939245000481605,0,0,0
1743,61507.92587339994,2010-12-07 05:38:41,46.81160680308306,4,6,0.5981586575508118,4.199814796447754,5.459033869568695,4.663040991374167,21.86204192354285,16.926572018971083,0.0,0.0939245000481605,0,0,0
1744,61528.62862245469,2010-12-07 05:39:02,67.5143558678712,4,6,0.5481299161911011,4.199653148651123,5.462319678614109,4.663040991374167,21.875841675921137,16.926572018971083,-3.23295607813634e-05,0.0939245000481605,0,0,0
1745,61565.04973744854,2010-12-07 05:39:38,103.9354708567088,4,6,0.498101145029068,4.199814796447754,5.467589522329296,4.663040991374167,21.897974046575325,16.926572018971083,0.0,0.0939245000481605,0,0,0
1746,61632.54844149245,2010-12-07 05:40:46,171.4341748956056,4,6,0.4478917717933655,4.199653148651123,5.476417925377815,4.663040991374167,21.93505182636992,16.926572018971083,-6.47544875391759e-05,0.0939245000481605,0,0,0
1747,61737.53079811413,2010-12-07 05:42:31,276.4165315222881,4,6,0.3976823985576629,4.199814796447754,5.488726574805659,4.663040991374167,21.986746020304125,16.926572018971083,-3.24249267578125e-05,0.0939245000481605,0,0,0
1748,61869.66890522142,2010-12-07 05:44:43,408.5546386396147,4,6,0.3476536273956299,4.199653148651123,5.502390073906133,4.663040991374167,22.044130086979056,16.926572018971083,-6.47544875391759e-05,0.0939245000481605,0,0,0
1749,62027.61898298494,2010-12-07 05:47:21,566.5047164883383,4,6,0.2976248562335968,4.199814796447754,5.516524154653067,4.663040991374167,22.10349045846316,16.926572018971083,0.0,0.0939245000481605,0,0,0
1750,62217.70909708271,2010-12-07 05:50:31,756.5948305660625,4,6,0.2475960701704025,4.199653148651123,5.53088729849198,4.663040991374167,22.163812341816257,16.926572018971083,-3.23295607813634e-05,0.0939245000481605,0,0,0
1751,62453.50142796418,2010-12-07 05:54:27,992.3871614425126,4,6,0.1975672990083694,4.199814796447754,5.545436700633411,4.663040991374167,22.224916818836185,16.926572018971083,3.23295607813634e-05,0.0939245000481605,0,0,0
1752,62765.120598063615,2010-12-07 05:59:38,1304.0063315670147,4,6,0.1475385427474975,4.199653148651123,5.560298000549468,4.663040991374167,22.28733149613277,16.926572018971083,0.0,0.0939245000481605,0,0,0
1753,63227.08024455624,2010-12-07 06:07:20,1765.9659780345703,4,6,0.0973291546106338,4.199814796447754,5.575806726701591,4.663040991374167,22.35246528383259,16.926572018971083,0.0,0.0939245000481605,0,0,0
1754,64078.26678882871,2010-12-07 06:21:31,2617.152522241887,4,6,0.0498289167881011,4.199653148651123,5.592557505457669,4.663040991374167,22.422815469715268,16.926572018971083,-3.23295607813634e-05,0.0939245000481605,0,0,0
1755,64108.28340504665,2010-12-07 06:22:02,30.01527022552274,5,6,0.0,4.191397190093994,5.592557505457669,4.663040991374167,22.422815469715268,16.926572018971083,-3.23295607813634e-05,0.0939245000481605,0,0,0
1756,64138.28271276508,2010-12-07 06:22:32,60.01457796902291,5,6,0.0,4.1901021003723145,5.592557505457669,4.663040991374167,22.422815469715268,16.926572018971083,0.0,0.0939245000481605,0,0,0
1757,64138.46883328713,2010-12-07 06:22:32,0.187522617822042,6,6,-1.9243103452026844e-05,4.190263748168945,5.592557505457669,4.663040992376534,22.422815469715268,16.926572023171257,0.0,0.0978845432400703,0,0,0
1758,64143.2968416302,2010-12-07 06:22:37,5.015530955878668,6,6,0.0007031940040178,4.189939975738525,5.59255843595816,4.663040992376534,22.42281936861092,16.926572023171257,-3.24249267578125e-05,0.0978845432400703,0,0,0
1759,64173.31077952964,2010-12-07 06:23:07,30.01511517969717,7,6,-1.099568486213684,4.001828670501709,5.59255843595816,4.672207448090497,22.42281936861092,16.96346617144204,-0.0009713172912597,0.0978845432400703,0,0,0
1760,64203.325857511765,2010-12-07 06:23:37,60.0301931668421,7,6,-1.0997490882873535,3.972203731536865,5.59255843595816,4.681375550437679,22.42281936861092,17.00000928581654,-0.0006799221155233,0.0978845432400703,0,0,0
1761,64233.340798327576,2010-12-07 06:24:07,90.04513396760399,7,6,-1.099568486213684,3.95180606842041,5.59255843595816,4.690543499368141,22.42281936861092,17.036327000137074,-0.0004209041653666,0.0978845432400703,0,0,0
1762,64263.35582602958,2010-12-07 06:24:37,120.06016168465374,7,6,-1.099568486213684,3.935941219329834,5.59255843595816,4.699711523923343,22.42281936861092,17.072480016447408,-0.0003237724304199,0.0978845432400703,0,0,0
1763,64293.37089992154,2010-12-07 06:25:07,150.07523558663289,7,6,-1.0997490882873535,3.922342777252197,5.59255843595816,4.708879557771009,22.42281936861092,17.108500248745553,-0.0003885269106831,0.0978845432400703,0,0,0
1764,64323.38591258112,2010-12-07 06:25:37,180.0902482261628,7,6,-1.0993878841400146,3.910525321960449,5.59255843595816,4.718047591792287,22.42281936861092,17.14440559280004,-0.0002913951757363,0.0978845432400703,0,0,0
1765,64353.400970488285,2010-12-07 06:26:07,210.105306138352,7,6,-1.0997490882873535,3.899517059326172,5.59255843595816,4.727215572494664,22.42281936861092,17.180207153336422,-0.0003237724304199,0.0978845432400703,0,0,0
1766,64383.4159946515,2010-12-07 06:26:37,240.1203303015581,7,6,-1.099929690361023,3.8894801139831534,5.59255843595816,4.736383520361447,22.42281936861092,17.21591180852602,-0.0002590179501567,0.0978845432400703,0,0,0
1767,64413.43118078777,2010-12-07 06:27:07,270.13551642780305,7,6,-1.099568486213684,3.8796050548553462,5.59255843595816,4.745551610265595,22.42281936861092,17.251525334405912,-0.0002590179501567,0.0978845432400703,0,0,0
1768,64443.44607857149,2010-12-07 06:27:37,300.15041421653115,7,6,-1.0997490882873535,3.870053768157959,5.59255843595816,4.754719542843652,22.42281936861092,17.287049621235735,-0.0002590179501567,0.0978845432400703,0,0,0
1769,64473.46111903024,2010-12-07 06:28:07,330.1654547003505,7,6,-1.099568486213684,3.860826253890991,5.59255843595816,4.763887623802988,22.42281936861092,17.322488192194164,-0.0002266406954731,0.0978845432400703,0,0,0
1770,64503.47618620549,2010-12-07 06:28:37,360.18052187559044,7,6,-1.0997490882873535,3.851598739624024,5.59255843595816,4.773055712177271,22.42281936861092,17.357842635636374,-0.0002913951757363,0.0978845432400703,0,0,0
1771,64533.49122239362,2010-12-07 06:29:07,390.19555803865774,7,6,-1.099568486213684,3.8428568840026855,5.59255843595816,4.782223809263941,22.42281936861092,17.39311553715707,-0.0002266406954731,0.0978845432400703,0,0,0
1772,64563.50625039637,2010-12-07 06:29:37,420.21058606648086,7,6,-1.0997490882873535,3.8342769145965576,5.59255843595816,4.791391879221147,22.42281936861092,17.42830873016421,-0.0002590179501567,0.0978845432400703,0,0,0
1773,64593.52129845404,2010-12-07 06:30:07,450.22563409908514,7,6,-1.0997490882873535,3.8258590698242183,5.59255843595816,4.800559891434816,22.42281936861092,17.463423174020548,-0.0002590179501567,0.0978845432400703,0,0,0
1774,64623.536340110775,2010-12-07 06:30:37,480.2406757658481,7,6,-1.0997490882873535,3.817602872848511,5.59255843595816,4.809727869696081,22.42281936861092,17.49846055904145,-0.0002266406954731,0.0978845432400703,0,0,0
1775,64653.55139901042,2010-12-07 06:31:07,510.25573466048206,7,6,-1.099568486213684,3.8093466758728023,5.59255843595816,4.818895850885886,22.42281936861092,17.53342286974447,-0.0002266406954731,0.0978845432400703,0,0,0
1776,64683.56668187239,2010-12-07 06:31:37,540.2710176076621,7,6,-1.099568486213684,3.8015761375427246,5.59255843595816,4.828063953982285,22.42281936861092,17.56831141205323,-0.0002266406954731,0.0978845432400703,0,0,0
1777,64713.581492915255,2010-12-07 06:32:07,570.2858285653144,7,6,-1.0993878841400146,3.793643712997437,5.59255843595816,4.837231935306738,22.42281936861092,17.603127214272117,-0.0001942634553415,0.0978845432400703,0,0,0
1778,64743.5966489065,2010-12-07 06:32:37,600.3009845515571,7,6,-1.099568486213684,3.786035060882568,5.59255843595816,4.84640000803785,22.42281936861092,17.637872449906872,-0.0001942634553415,0.0978845432400703,0,0,0
1779,64773.61160090513,2010-12-07 06:33:07,630.3159366454215,7,6,-1.0997490882873535,3.77858829498291,5.59255843595816,4.855568034904946,22.42281936861092,17.67254869762388,-0.0002266406954731,0.0978845432400703,0,0,0
1780,64803.626982527865,2010-12-07 06:33:37,660.331318258127,7,6,-1.0997490882873535,3.771303415298462,5.59255843595816,4.864736193393952,22.42281936861092,17.707158475853028,-0.0001942634553415,0.0978845432400703,0,0,0
1781,64833.64163132198,2010-12-07 06:34:07,690.3459670171542,7,6,-1.099568486213684,3.7643423080444336,5.59255843595816,4.873904132337868,22.42281936861092,17.74170188987735,-0.0001942634553415,0.0978845432400703,0,0,0
1782,64863.656673575206,2010-12-07 06:34:37,720.361009220252,7,6,-1.099568486213684,3.7572193145751953,5.59255843595816,4.883072157243111,22.42281936861092,17.776181572332845,-0.0002266406954731,0.0978845432400703,0,0,0
1783,64893.67171840484,2010-12-07 06:35:07,750.3760540498857,7,6,-1.099568486213684,3.750582218170166,5.59255843595816,4.89224028958687,22.42281936861092,17.810598506252298,-0.0001618862152099,0.0978845432400703,0,0,0
1784,64923.68680887805,2010-12-07 06:35:37,780.3911445231017,7,6,-1.099568486213684,3.7439448833465576,5.59255843595816,4.901408309305762,22.42281936861092,17.84495341296288,-0.0001942634553415,0.0978845432400703,0,0,0
1785,64953.70185971764,2010-12-07 06:36:07,810.4061954479031,7,6,-1.0997490882873535,3.7371456623077393,5.59255843595816,4.910576401336881,22.42281936861092,17.87924734575398,-0.0001618862152099,0.0978845432400703,0,0,0
1786,64983.716840142006,2010-12-07 06:36:37,840.4211757870547,7,6,-1.099568486213684,3.730832099914551,5.59255843595816,4.91974451161356,22.42281936861092,17.91348132861991,-0.0001618862152099,0.0978845432400703,0,0,0
1787,65013.73189049037,2010-12-07 06:37:07,870.4362261354216,7,6,-1.099568486213684,3.7245185375213614,5.59255843595816,4.928912563285003,22.42281936861092,17.94765667640318,-0.0001618862152099,0.0978845432400703,0,0,0
1788,65043.74703629127,2010-12-07 06:37:37,900.4513719363184,7,6,-1.0997490882873535,3.718043088912964,5.59255843595816,4.938080655474739,22.42281936861092,17.98177428189275,-0.0002266406954731,0.0978845432400703,0,0,0
1789,65073.762153821815,2010-12-07 06:38:07,930.4664894869156,7,6,-1.0993878841400146,3.7120532989501953,5.59255843595816,4.947248724032334,22.42281936861092,18.015834864564944,-0.0001618862152099,0.0978845432400703,0,0,0
1790,65103.77699293954,2010-12-07 06:38:37,960.4813285896056,7,6,-1.099568486213684,3.7060635089874263,5.59255843595816,4.956416749070649,22.42281936861092,18.0498393151624,-0.0001295089750783,0.0978845432400703,0,0,0
1791,65133.79206383405,2010-12-07 06:39:07,990.4963994841008,7,6,-1.099568486213684,3.700235605239868,5.59255843595816,4.965584846433047,22.42281936861092,18.08378953560524,-0.0001618862152099,0.0978845432400703,0,0,0
1792,65163.80722057717,2010-12-07 06:39:37,1020.5115562222144,7,6,-1.0997490882873535,3.6942458152771,5.59255843595816,4.974752951218685,22.42281936861092,18.11768594169283,-0.0001618862152099,0.0978845432400703,0,0,0
1793,65193.8221200952,2010-12-07 06:40:07,1050.526455740246,7,6,-1.099568486213684,3.688579797744751,5.59255843595816,4.983921039571049,22.42281936861092,18.15152912396951,-0.0001618862152099,0.0978845432400703,0,0,0
1794,65223.83715744622,2010-12-07 06:40:37,1080.541493091269,7,6,-1.099568486213684,3.6829137802124015,5.59255843595816,4.993089086667788,22.42281936861092,18.18531992114321,-0.0001295089750783,0.0978845432400703,0,0,0
1795,65253.852233278005,2010-12-07 06:41:07,1110.5565690082628,7,6,-1.099568486213684,3.6772477626800537,5.59255843595816,5.002257195638387,22.42281936861092,18.21905934491481,-0.0001942634553415,0.0978845432400703,0,0,0
1796,65283.86724146144,2010-12-07 06:41:37,1140.571577106492,7,6,-1.0993878841400146,3.671905755996704,5.59255843595816,5.011425238204795,22.42281936861092,18.252747687741017,-0.0001294612884521,0.0978845432400703,0,0,0
1797,65313.88228272721,2010-12-07 06:42:07,1170.586618367245,7,6,-1.0997490882873535,3.666239738464356,5.59255843595816,5.020593351439094,22.42281936861092,18.286386016167107,-0.0001618862152099,0.0978845432400703,0,0,0
1798,65343.89733756676,2010-12-07 06:42:37,1200.6016732118,7,6,-1.099568486213684,3.6610593795776367,5.59255843595816,5.029761416694252,22.42281936861092,18.319974733403697,-0.0001295089750783,0.0978845432400703,0,0,0
1799,65373.91237239149,2010-12-07 06:43:07,1230.6167080615994,7,6,-1.099568486213684,3.655717134475708,5.59255843595816,5.038929551361548,22.42281936861092,18.35351475562731,-0.0001295089750783,0.0978845432400703,0,0,0
1800,65403.92739515121,2010-12-07 06:43:37,1260.6317308263256,7,6,-1.099568486213684,3.650536775588989,5.59255843595816,5.0480977084339,22.42281936861092,18.38700677699681,-0.0001295089750783,0.0978845432400703,0,0,0
1801,65433.94244803087,2010-12-07 06:44:07,1290.6467837009793,7,6,-1.099568486213684,3.6453564167022714,5.59255843595816,5.057265750726002,22.42281936861092,18.420450960621825,-0.0001295089750783,0.0978845432400703,0,0,0
1802,65463.95748931669,2010-12-07 06:44:37,1320.661824956719,7,6,-1.099568486213684,3.640499830245972,5.59255843595816,5.066433820035575,22.42281936861092,18.453848817911616,-0.0001295089750783,0.0978845432400703,0,0,0
1803,65493.959181899765,2010-12-07 06:45:07,1350.6635176350378,7,6,-1.0997490882873535,3.635319471359253,5.59255843595816,5.075597829058168,22.42281936861092,18.487186185789017,-0.0001618862152099,0.0978845432400703,0,0,0
1804,65523.97202242408,2010-12-07 06:45:37,1380.6763581593427,7,6,-1.0997490882873535,3.630624771118164,5.59255843595816,5.084765234562943,22.42281936861092,18.520490964240444,-0.0001295089750783,0.0978845432400703,0,0,0
1805,65553.98699014683,2010-12-07 06:46:07,1410.6913257968868,7,6,-1.0997490882873535,3.625768184661865,5.59255843595816,5.093933263111902,22.42281936861092,18.55375399760601,-0.0001618862152099,0.0978845432400703,0,0,0
1806,65584.00215323073,2010-12-07 06:46:37,1440.706488875779,7,6,-1.0997490882873535,3.621073484420776,5.59255843595816,5.103101329403628,22.42281936861092,18.586974064414377,-0.0001295089750783,0.0978845432400703,0,0,0
1807,65614.0170639767,2010-12-07 06:47:07,1470.721399631776,7,6,-1.0997490882873535,3.6165406703948975,5.59255843595816,5.112269384868209,22.42281936861092,18.62015181824564,-0.0001295089750783,0.0978845432400703,0,0,0
1808,65644.0321224503,2010-12-07 06:47:38,1500.7364581053623,7,6,-1.099568486213684,3.6120078563690186,5.59255843595816,5.121437447587493,22.42281936861092,18.653288272055967,-0.0001618862152099,0.0978845432400703,0,0,0
1809,65674.04728377481,2010-12-07 06:48:08,1530.7516194198645,7,6,-1.099568486213684,3.6076369285583496,5.59255843595816,5.130605587325012,22.42281936861092,18.68638409089708,-9.713172767078504e-05,0.0978845432400703,0,0,0
1810,65704.0622470064,2010-12-07 06:48:38,1560.7665837241134,7,6,-1.099568486213684,3.60342788696289,5.59255843595816,5.139773639588756,22.42281936861092,18.71943935071205,-9.713172767078504e-05,0.0978845432400703,0,0,0
1811,65734.07737899793,2010-12-07 06:49:08,1590.7817146429768,7,6,-1.099568486213684,3.599218845367432,5.59255843595816,5.148941767566436,22.42281936861092,18.75245568472745,-9.713172767078504e-05,0.0978845432400703,0,0,0
1812,65764.09236689589,2010-12-07 06:49:38,1620.7967025509631,7,6,-1.099568486213684,3.5950098037719727,5.59255843595816,5.158109914841525,22.42281936861092,18.785433758882046,-9.713172767078504e-05,0.0978845432400703,0,0,0
1813,65794.10731144097,2010-12-07 06:50:08,1650.811647086018,7,6,-1.0997490882873535,3.5909628868103027,5.59255843595816,5.167277975390471,22.42281936861092,18.81837415556892,-0.0001295089750783,0.0978845432400703,0,0,0
1814,65824.12235833574,2010-12-07 06:50:38,1680.826693985803,7,6,-1.099568486213684,3.587077617645264,5.59255843595816,5.176446092315889,22.42281936861092,18.85127816515879,-6.47544875391759e-05,0.0978845432400703,0,0,0
1815,65854.13740466912,2010-12-07 06:51:08,1710.8417403642911,7,6,-1.099568486213684,3.583030462265014,5.59255843595816,5.185614151291517,22.42281936861092,18.88414599770733,-0.0001295089750783,0.0978845432400703,0,0,0
1816,65884.15245151377,2010-12-07 06:51:38,1740.856787153802,7,6,-1.099568486213684,3.5794689655303955,5.59255843595816,5.194782283733545,22.42281936861092,18.916979568350104,-9.713172767078504e-05,0.0978845432400703,0,0,0
1817,65914.16749605267,2010-12-07 06:52:08,1770.8718317177745,7,6,-1.099568486213684,3.5757455825805664,5.59255843595816,5.203950409012692,22.42281936861092,18.949779455994847,-9.713172767078504e-05,0.0978845432400703,0,0,0
1818,65944.1825201407,2010-12-07 06:52:38,1800.8868557857438,7,6,-1.0997490882873535,3.5721840858459477,5.59255843595816,5.213118545451072,22.42281936861092,18.982546514595168,-9.713172767078504e-05,0.0978845432400703,0,0,0
1819,65974.19757589251,2010-12-07 06:53:08,1830.9019115425688,7,6,-1.0997490882873535,3.568622589111328,5.59255843595816,5.222286709994538,22.42281936861092,19.01528153806196,-0.0001295089750783,0.0978845432400703,0,0,0
1820,66004.21264081715,2010-12-07 06:53:38,1860.9169765524207,7,6,-1.099568486213684,3.565384864807129,5.59255843595816,5.231454885788966,22.42281936861092,19.04798510263956,-6.47544875391759e-05,0.0978845432400703,0,0,0
1821,66034.22769330585,2010-12-07 06:54:08,1890.9320290411133,7,6,-1.099568486213684,3.56198525428772,5.59255843595816,5.240622980392139,22.42281936861092,19.080657126049008,-9.713172767078504e-05,0.0978845432400703,0,0,0
1822,66064.2428883192,2010-12-07 06:54:38,1920.9472239642496,7,6,-1.099568486213684,3.5587475299835205,5.59255843595816,5.249791202947335,22.42281936861092,19.113299402301003,-6.47544875391759e-05,0.0978845432400703,0,0,0
1823,66094.25773398823,2010-12-07 06:55:08,1950.9620696332795,7,6,-1.099568486213684,3.5555098056793213,5.59255843595816,5.258959216586993,22.42281936861092,19.14591049383485,-6.47544875391759e-05,0.0978845432400703,0,0,0
1824,66124.27305320065,2010-12-07 06:55:38,1980.977388935929,7,6,-1.099568486213684,3.552272081375122,5.59255843595816,5.268127390505502,22.42281936861092,19.17849200636465,-9.713172767078504e-05,0.0978845432400703,0,0,0
1825,66154.28781375288,2010-12-07 06:56:08,2010.9921494029377,7,6,-1.0997490882873535,3.548872470855713,5.59255843595816,5.277295473251955,22.42281936861092,19.211043280618213,-9.713172767078504e-05,0.0978845432400703,0,0,0
1826,66184.30302147787,2010-12-07 06:56:38,2041.0073571981045,7,6,-1.0997490882873535,3.5456347465515137,5.59255843595816,5.28646368897568,22.42281936861092,19.243565444300916,-9.713172767078504e-05,0.0978845432400703,0,0,0
1827,66214.31789443981,2010-12-07 06:57:08,2071.022230084865,7,6,-1.0993878841400146,3.5425589084625244,5.59255843595816,5.295631743758698,22.42281936861092,19.27605755740046,-3.237724376958795e-05,0.0978845432400703,0,0,0
1828,66244.33315917167,2010-12-07 06:57:38,2101.0374949269917,7,6,-1.099568486213684,3.539321184158325,5.59255843595816,5.304799909954074,22.42281936861092,19.308520686814536,-6.47544875391759e-05,0.0978845432400703,0,0,0
1829,66274.34810987207,2010-12-07 06:58:08,2131.052445517114,7,6,-1.099568486213684,3.535921573638916,5.59255843595816,5.313968077214854,22.42281936861092,19.340954347711204,-9.713172767078504e-05,0.0978845432400703,0,0,0
1830,66304.36315007017,2010-12-07 06:58:38,2161.0674857202343,7,6,-1.0997490882873535,3.5328457355499268,5.59255843595816,5.323136244376705,22.42281936861092,19.373358220418613,-6.47544875391759e-05,0.0978845432400703,0,0,0
1831,66334.3780874825,2010-12-07 06:59:08,2191.0824231526144,7,6,-1.099568486213684,3.5296080112457275,5.59255843595816,5.332304319832169,22.42281936861092,19.405731984330487,-6.47544875391759e-05,0.0978845432400703,0,0,0
1832,66364.39324017556,2010-12-07 06:59:38,2221.097575825612,7,6,-1.0997490882873535,3.5262084007263184,5.59255843595816,5.341472514367074,22.42281936861092,19.438076217937493,-9.713172767078504e-05,0.0978845432400703,0,0,0
1833,66394.40814122239,2010-12-07 07:00:08,2251.112476862423,7,6,-1.099568486213684,3.522808790206909,5.59255843595816,5.350640608351785,22.42281936861092,19.470389155444696,-9.713172767078504e-05,0.0978845432400703,0,0,0
1834,66424.4233083714,2010-12-07 07:00:38,2281.1276440164565,7,6,-1.0997490882873535,3.51924729347229,5.59255843595816,5.359808764981694,22.42281936861092,19.502670854474065,-9.713172767078504e-05,0.0978845432400703,0,0,0
1835,66454.43822147825,2010-12-07 07:01:08,2311.1425571283157,7,6,-1.099568486213684,3.515847682952881,5.59255843595816,5.368976894722425,22.42281936861092,19.534920276451537,-9.713172767078504e-05,0.0978845432400703,0,0,0
1836,66484.45328563599,2010-12-07 07:01:38,2341.1576212810337,7,6,-1.0997490882873535,3.5122861862182617,5.59255843595816,5.378145059431436,22.42281936861092,19.567137343347785,-9.713172767078504e-05,0.0978845432400703,0,0,0
1837,66514.46831027036,2010-12-07 07:02:08,2371.1726459104,7,6,-1.099568486213684,3.508563041687012,5.59255843595816,5.387313122998404,22.42281936861092,19.59932082496653,-6.47544875391759e-05,0.0978845432400703,0,0,0
1838,66544.48338154581,2010-12-07 07:02:38,2401.187717215918,7,6,-1.0997490882873535,3.5046777725219727,5.59255843595816,5.396481265385356,22.42281936861092,19.631470467532846,-9.713172767078504e-05,0.0978845432400703,0,0,0
1839,66574.4983820301,2010-12-07 07:03:08,2431.2027176801503,7,6,-1.099568486213684,3.500630617141724,5.59255843595816,5.405649366213854,22.42281936861092,19.663584067796915,-9.713172767078504e-05,0.0978845432400703,0,0,0
1840,66604.5134330401,2010-12-07 07:03:38,2461.2177686801383,7,6,-1.099568486213684,3.4965834617614746,5.59255843595816,5.414817450781309,22.42281936861092,19.695659820541305,-0.0001295089750783,0.0978845432400703,0,0,0
1841,66634.52858578328,2010-12-07 07:04:08,2491.2329214333363,7,6,-1.0997490882873535,3.492050647735596,5.59255843595816,5.423985614260136,22.42281936861092,19.72769605421273,-9.713172767078504e-05,0.0978845432400703,0,0,0
1842,66664.54350235876,2010-12-07 07:04:38,2521.247837998789,7,6,-1.099568486213684,3.487194061279297,5.59255843595816,5.433153727166983,22.42281936861092,19.759689964028457,-0.0001295089750783,0.0978845432400703,0,0,0
1843,66694.558542206,2010-12-07 07:05:08,2551.262877851037,7,6,-1.099568486213684,3.482013702392578,5.59255843595816,5.442321898892049,22.42281936861092,19.791637959337525,-0.0001295089750783,0.0978845432400703,0,0,0
1844,66724.57360725594,2010-12-07 07:05:38,2581.277942895976,7,6,-1.099929690361023,3.4760239124298096,5.59255843595816,5.451489914886123,22.42281936861092,19.823534648225504,-0.0001942634553415,0.0978845432400703,0,0,0
1845,66754.58903261751,2010-12-07 07:06:08,2611.293368357798,7,6,-1.099568486213684,3.469872236251831,5.59255843595816,5.460658132416372,22.42281936861092,19.85537629457775,-0.0001618862152099,0.0978845432400703,0,0,0
1846,66784.60365951715,2010-12-07 07:06:38,2641.3079952323665,7,6,-1.099568486213684,3.462587356567383,5.59255843595816,5.469825628304958,22.42281936861092,19.88715334231181,-0.0001942634553415,0.0978845432400703,0,0,0
1847,66814.61869259253,2010-12-07 07:07:08,2671.323028237576,7,6,-1.0997490882873535,3.454331159591675,5.59255843595816,5.478993108548881,22.42281936861092,19.918859879880188,-0.0002590179501567,0.0978845432400703,0,0,0
1848,66844.63373991837,2010-12-07 07:07:38,2701.3380755634216,7,6,-1.0993878841400146,3.445103645324707,5.59255843595816,5.488160583413973,22.42281936861092,19.95048626263999,-0.0002590179501567,0.0978845432400703,0,0,0
1849,66874.64876837727,2010-12-07 07:08:08,2731.353104022317,7,6,-1.099568486213684,3.4337716102600098,5.59255843595816,5.497328001429675,22.42281936861092,19.98201892865999,-0.0003561496851034,0.0978845432400703,0,0,0
1850,66904.66381036483,2010-12-07 07:08:38,2761.368146014891,7,6,-1.0997490882873535,3.420335292816162,5.59255843595816,5.506495979315635,22.42281936861092,20.01344098925423,-0.0004209041653666,0.0978845432400703,0,0,0
1851,66934.6789806667,2010-12-07 07:09:08,2791.3833163167574,7,6,-1.099568486213684,3.403661012649536,5.59255843595816,5.515664148574622,22.42281936861092,20.044726356253037,-0.0005180359003134,0.0978845432400703,0,0,0
1852,66964.69392121684,2010-12-07 07:09:38,2821.398256952108,7,6,-1.0993878841400146,3.382939577102661,5.59255843595816,5.524832279706295,22.42281936861092,20.07583959297578,-0.0005827903514727,0.0978845432400703,0,0,0
1853,66994.70892376124,2010-12-07 07:10:08,2851.413259401279,7,6,-1.0997490882873535,3.355095148086548,5.59255843595816,5.534000390211684,22.42281936861092,20.106732078226155,-0.0008418083307333,0.0978845432400703,0,0,0
1854,67024.72427054729,2010-12-07 07:10:38,2881.4286062073697,7,6,-1.099568486213684,3.3186709880828857,5.59255843595816,5.543168582349855,22.42281936861092,20.137333751268773,-0.0011332035064697,0.0978845432400703,0,0,0
1855,67054.73900008232,2010-12-07 07:11:08,2911.4433358326296,7,6,-1.0997490882873535,3.2697815895080566,5.59255843595816,5.552336627036255,22.42281936861092,20.167547463584327,-0.0014893055194988,0.0978845432400703,0,0,0
1856,67084.75412014918,2010-12-07 07:11:38,2941.458455804251,7,6,-1.099568486213684,3.202598810195923,5.59255843595816,5.56150475231058,22.42281936861092,20.197233975221444,-0.0021692751906812,0.0978845432400703,0,0,0
1857,67114.76911661346,2010-12-07 07:12:08,2971.4734522534927,7,6,-1.099568486213684,3.1054675579071045,5.59255843595816,5.570672867599339,22.42281936861092,20.226179280386138,-0.0030434131622314,0.0978845432400703,0,0,0
1858,67144.78426393314,2010-12-07 07:12:38,3001.4885995932186,7,6,-1.0997490882873535,2.9489240646362305,5.59255843595816,5.579841061166641,22.42281936861092,20.254004265271035,-0.0053421976044774,0.0978845432400703,0,0,0
1859,67166.97136450456,2010-12-07 07:13:00,3023.6757001696533,7,6,-1.0997490882873535,2.748347520828247,5.59255843595816,5.586618152146669,22.42281936861092,20.27335769299812,-0.0084827896207571,0.0978845432400703,0,0,0
1860,67171.45549970753,2010-12-07 07:13:05,3028.1598353475765,7,6,-1.0997490882873535,2.699781894683838,5.59255843595816,5.587987848516893,22.42281936861092,20.277089289806337,-0.0087418081238865,0.0978845432400703,0,0,0
1861,67231.4730184813,2010-12-07 07:14:05,60.01446591518124,8,6,0.0,3.397671222686768,5.59255843595816,5.587987848516893,22.42281936861092,20.277089289806337,0.0012950897216796,0.0978845432400703,0,0,0
1862,67231.66464303911,2010-12-07 07:14:05,0.187406338465335,9,6,-1.9243103452026844e-05,3.397833108901977,5.59255843595816,5.587987849518637,22.42281936861092,20.277089293210093,0.0,0.0963535830378532,0,0,0
1863,67236.49280862846,2010-12-07 07:14:10,5.015571922823334,9,6,0.0003419754502829,3.4057655334472656,5.592559061688039,5.587987849603246,22.422821497733185,20.277089293497585,0.0011008263099938,0.0963535830378532,0,0,0
