Data_Point,Test_Time(s),Date_Time,Step_Time(s),Step_Index,Cycle_Index,Current(A),Voltage(V),Charge_Capacity(Ah),Discharge_Capacity(Ah),Charge_Energy(Wh),Discharge_Energy(Wh),dV/dt(V/s),Internal_Resistance(Ohm),Is_FC_Data,AC_Impedance(Ohm),ACI_Phase_Angle(Deg)
8557,311702.3986008186,2010-12-10 03:09:05,30.014976384310188,1,29,0.0,3.43344783782959,25.731180150861817,25.718994655738204,103.232333907836,93.18934781664016,0.0008093834039755,0.0947341993451118,0,0,0
8558,311732.41375730105,2010-12-10 03:09:35,60.03013284673784,1,29,0.0,3.457245111465454,25.731180150861817,25.718994655738204,103.232333907836,93.18934781664016,0.0005504131549969,0.0947341993451118,0,0,0
8559,311762.42868263833,2010-12-10 03:10:05,90.04505808377,1,29,0.0,3.4753763675689697,25.731180150861817,25.718994655738204,103.232333907836,93.18934781664016,0.0003885269106831,0.0947341993451118,0,0,0
8560,311792.3968677093,2010-12-10 03:10:35,120.01324316973393,1,29,0.0,3.490269899368286,25.731180150861817,25.718994655738204,103.232333907836,93.18934781664016,0.0003885269106831,0.0947341993451118,0,0,0
8561,311822.40114256967,2010-12-10 03:11:05,30.01504545619291,2,29,0.5501165986061096,3.643899440765381,25.7357673771238,25.718994655738204,103.24890301662606,93.18934781664016,0.0013598442310467,0.0947341993451118,0,0,0
8562,311852.41616207623,2010-12-10 03:11:35,60.03006494276141,2,29,0.550297200679779,3.6855039596557617,25.740354580205896,25.718994655738204,103.26572044841856,93.18934781664016,0.0009389400365762,0.0947341993451118,0,0,0
8563,311882.4313633803,2010-12-10 03:12:05,90.04526626181305,2,29,0.5501165986061096,3.714967250823975,25.74494177545818,25.718994655738204,103.2826972060884,93.18934781664016,0.0006799221155233,0.0947341993451118,0,0,0
8564,311912.44641375367,2010-12-10 03:12:35,120.06031669037952,2,29,0.5501165986061096,3.737631320953369,25.74952895641124,25.718994655738204,103.29979273019308,93.18934781664016,0.0005180359003134,0.0947341993451118,0,0,0
8565,311942.4615782361,2010-12-10 03:13:05,150.07548111261485,2,29,0.550297200679779,3.7554385662078857,25.75411612933811,25.718994655738204,103.3169806553804,93.18934781664016,0.0004209041653666,0.0947341993451118,0,0,0
8566,311972.4764226921,2010-12-10 03:13:35,180.0903256287762,2,29,0.5501165986061096,3.768065690994263,25.758703332660712,25.718994655738204,103.33423845731537,93.18934781664016,0.0002913951757363,0.0947341993451118,0,0,0
8567,312002.49146651424,2010-12-10 03:14:05,210.1053693957656,2,29,0.5501165986061096,3.7764837741851807,25.76329051972884,25.718994655738204,103.35154401468203,93.18934781664016,0.0002266406954731,0.0947341993451118,0,0,0
8568,312032.5068582321,2010-12-10 03:14:35,240.12076118880444,2,29,0.5501165986061096,3.782473564147949,25.76787773998254,25.718994655738204,103.36888207113164,93.18934781664016,0.0001295089750783,0.0947341993451118,0,0,0
8569,312062.52165856323,2010-12-10 03:15:05,270.1355614297888,2,29,0.550297200679779,3.787815809249878,25.77246481992715,25.718994655738204,103.38624487474642,93.18934781664016,0.0001618862152099,0.0947341993451118,0,0,0
8570,312092.5367575377,2010-12-10 03:15:35,300.1506604743342,2,29,0.550297200679779,3.792348623275757,25.777052003041803,25.718994655738204,103.40363045004304,93.18934781664016,9.713172767078504e-05,0.0947341993451118,0,0,0
8571,312122.5517787836,2010-12-10 03:16:05,330.16568167516857,2,29,0.5499359965324402,3.796719551086426,25.781639167056184,25.718994655738204,103.4210369541064,93.18934781664016,9.713172767078504e-05,0.0947341993451118,0,0,0
8572,312152.56679074647,2010-12-10 03:16:35,360.18069361295227,2,29,0.5501165986061096,3.801090478897095,25.78622632386708,25.718994655738204,103.4384634036194,93.18934781664016,9.713172767078504e-05,0.0947341993451118,0,0,0
8573,312182.5818882371,2010-12-10 03:17:05,390.19579119385554,2,29,0.550297200679779,3.8052995204925537,25.790813521497725,25.718994655738204,103.45590913283615,93.18934781664016,9.713172767078504e-05,0.0947341993451118,0,0,0
8574,312212.5969241897,2010-12-10 03:17:35,420.2108270561744,2,29,0.5501165986061096,3.809022903442383,25.795400718952028,25.718994655738204,103.47337332146864,93.18934781664016,9.713172767078504e-05,0.0947341993451118,0,0,0
8575,312242.61197696405,2010-12-10 03:18:05,450.2258798305784,2,29,0.550297200679779,3.813070058822632,25.79998794643077,25.718994655738204,103.49085553229936,93.18934781664016,6.47544875391759e-05,0.0947341993451118,0,0,0
8576,312272.6270653271,2010-12-10 03:18:35,480.2409681935431,2,29,0.5501165986061096,3.816793441772461,25.80457514765705,25.718994655738204,103.50835547028092,93.18934781664016,9.713172767078504e-05,0.0947341993451118,0,0,0
8577,312302.64214044204,2010-12-10 03:19:05,510.2560433235783,2,29,0.550297200679779,3.82051682472229,25.80916236275773,25.718994655738204,103.5258726000242,93.18934781664016,9.713172767078504e-05,0.0947341993451118,0,0,0
8578,312332.65723620844,2010-12-10 03:19:35,540.2711391451033,2,29,0.550297200679779,3.824402093887329,25.81374957995504,25.718994655738204,103.54340662817056,93.18934781664016,9.713172767078504e-05,0.0947341993451118,0,0,0
8579,312362.6722933136,2010-12-10 03:20:05,570.2861961851222,2,29,0.5499359965324402,3.827639818191528,25.81833677513744,25.718994655738204,103.56095734119772,93.18934781664016,3.237724376958795e-05,0.0947341993451118,0,0,0
8580,312392.68749404623,2010-12-10 03:20:35,600.3013969828766,2,29,0.5499359965324402,3.831363201141357,25.82292395721704,25.718994655738204,103.57852479079568,93.18934781664016,9.713172767078504e-05,0.0947341993451118,0,0,0
8581,312422.7057386985,2010-12-10 03:21:05,630.3196417003081,2,29,0.5501165986061096,3.8352482318878174,25.82751162927613,25.718994655738204,103.59611092678831,93.18934781664016,0.0001295089750783,0.0947341993451118,0,0,0
8582,312452.71745372703,2010-12-10 03:21:35,660.3313565935231,2,29,0.5501165986061096,3.838809728622437,25.832098272554667,25.718994655738204,103.61371000390729,93.18934781664016,6.47544875391759e-05,0.0947341993451118,0,0,0
8583,312482.7325010278,2010-12-10 03:22:05,690.3464039093436,2,29,0.550297200679779,3.842694997787476,25.836685445652023,25.718994655738204,103.63132808987356,93.18934781664016,0.0001295089750783,0.0947341993451118,0,0,0
8584,312512.7475977215,2010-12-10 03:22:35,720.3615006130641,2,29,0.550297200679779,3.846256494522095,25.84127265591305,25.718994655738204,103.648963313867,93.18934781664016,9.713172767078504e-05,0.0947341993451118,0,0,0
8585,312542.7626401051,2010-12-10 03:23:05,750.3765429865857,2,29,0.5501165986061096,3.849979877471924,25.845859849796355,25.718994655738204,103.66661547529128,93.18934781664016,9.713172767078504e-05,0.0947341993451118,0,0,0
8586,312572.7776959571,2010-12-10 03:23:35,780.391598823611,2,29,0.550297200679779,3.853541374206543,25.85044704964935,25.718994655738204,103.68428460108946,93.18934781664016,6.47544875391759e-05,0.0947341993451118,0,0,0
8587,312602.79275510233,2010-12-10 03:24:05,810.406657983906,2,29,0.5501165986061096,3.857102870941162,25.8550342471476,25.718994655738204,103.7019704597516,93.18934781664016,0.0,0.0947341993451118,0,0,0
8588,312632.807844949,2010-12-10 03:24:35,840.4217478155255,2,29,0.5501165986061096,3.860988140106201,25.85962147241609,25.718994655738204,103.7196729708529,93.18934781664016,9.713172767078504e-05,0.0947341993451118,0,0,0
8589,312662.82293848484,2010-12-10 03:25:05,870.4368413664004,2,29,0.5501165986061096,3.8643877506256095,25.864208644350903,25.718994655738204,103.73739140558216,93.18934781664016,9.713172767078504e-05,0.0947341993451118,0,0,0
8590,312692.8381663249,2010-12-10 03:25:35,900.4520692114608,2,29,0.550297200679779,3.8676254749298096,25.86879584431814,25.718994655738204,103.75512569522752,93.18934781664016,6.47544875391759e-05,0.0947341993451118,0,0,0
8591,312722.8530608355,2010-12-10 03:26:05,930.4669637120064,2,29,0.5499359965324402,3.8710250854492183,25.873383069709707,25.718994655738204,103.7728753939806,93.18934781664016,9.713172767078504e-05,0.0947341993451118,0,0,0
8592,312752.8693926928,2010-12-10 03:26:35,960.4832956696088,2,29,0.5501165986061096,3.874100923538208,25.87797046260412,25.718994655738204,103.7906404919998,93.18934781664016,9.713172767078504e-05,0.0947341993451118,0,0,0
8593,312782.8831523343,2010-12-10 03:27:05,990.4970552008268,2,29,0.5501165986061096,3.8770148754119873,25.8825574223736,25.718994655738204,103.80841798722088,93.18934781664016,6.47544875391759e-05,0.0947341993451118,0,0,0
8594,312812.89836560306,2010-12-10 03:27:35,1020.5122684696148,2,29,0.5501165986061096,3.879928827285767,25.887144636325417,25.718994655738204,103.8262100538597,93.18934781664016,3.237724376958795e-05,0.0947341993451118,0,0,0
8595,312842.91337431787,2010-12-10 03:28:06,1050.5272771994155,2,29,0.550297200679779,3.883004665374756,25.89173187327228,25.718994655738204,103.84401514012336,93.18934781664016,0.0001295089750783,0.0947341993451118,0,0,0
8596,312872.9284428966,2010-12-10 03:28:36,1080.5423457681227,2,29,0.5499359965324402,3.8852710723876953,25.896319056013745,25.718994655738204,103.86183216989689,93.18934781664016,3.237724376958795e-05,0.0947341993451118,0,0,0
8597,312902.9436060557,2010-12-10 03:29:06,1110.5575090024022,2,29,0.5501165986061096,3.8876993656158447,25.90090621830193,25.718994655738204,103.87966066290738,93.18934781664016,3.237724376958795e-05,0.0947341993451118,0,0,0
8598,312932.9586443992,2010-12-10 03:29:36,1140.5725472857457,2,29,0.5501165986061096,3.890127658843994,25.905493433112373,25.718994655738204,103.897500260531,93.18934781664016,6.47544875391759e-05,0.0947341993451118,0,0,0
8599,312962.9735658618,2010-12-10 03:30:06,1170.5874687433727,2,29,0.550297200679779,3.892232179641724,25.91008064937343,25.718994655738204,103.91535025268352,93.18934781664016,0.0,0.0947341993451118,0,0,0
8600,312992.9887545043,2010-12-10 03:30:36,1200.602657370842,2,29,0.5501165986061096,3.894336700439453,25.91466792142028,25.718994655738204,103.93321025146686,93.18934781664016,6.47544875391759e-05,0.0947341993451118,0,0,0
8601,313023.0036555762,2010-12-10 03:31:06,1230.6175584427403,2,29,0.550297200679779,3.8962793350219727,25.91925516035236,25.718994655738204,103.95107896594682,93.18934781664016,6.47544875391759e-05,0.0947341993451118,0,0,0
8602,313053.01871055114,2010-12-10 03:31:36,1260.6326134326575,2,29,0.550297200679779,3.898221969604492,25.92384241276465,25.718994655738204,103.96895664071052,93.18934781664016,6.47544875391759e-05,0.0947341993451118,0,0,0
8603,313083.0337704984,2010-12-10 03:32:06,1290.6476733799109,2,29,0.550297200679779,3.900164604187012,25.928429636615867,25.718994655738204,103.98684272794488,93.18934781664016,9.713172767078504e-05,0.0947341993451118,0,0,0
8604,313113.0488438139,2010-12-10 03:32:36,1320.6627466803932,2,29,0.5501165986061096,3.901621580123901,25.93301687583788,25.718994655738204,104.0047370433123,93.18934781664016,0.0,0.0947341993451118,0,0,0
8605,313143.0672693162,2010-12-10 03:33:06,1350.681172272925,2,29,0.5501165986061096,3.903402328491211,25.93760465321902,25.718994655738204,104.02264154269288,93.18934781664016,3.237724376958795e-05,0.0947341993451118,0,0,0
8606,313173.07911934564,2010-12-10 03:33:36,1380.693022282372,2,29,0.550297200679779,3.905183076858521,25.94219136173368,25.718994655738204,104.04054975866892,93.18934781664016,3.237724376958795e-05,0.0947341993451118,0,0,0
8607,313203.0940432795,2010-12-10 03:34:06,1410.7079462562608,2,29,0.5499359965324402,3.90696382522583,25.94677855178282,25.718994655738204,104.05846739923663,93.18934781664016,6.47544875391759e-05,0.0947341993451118,0,0,0
8608,313233.1092939664,2010-12-10 03:34:36,1440.723196852938,2,29,0.5499359965324402,3.90842080116272,25.951365800380582,25.718994655738204,104.07639290929998,93.18934781664016,3.237724376958795e-05,0.0947341993451118,0,0,0
8609,313263.12425354886,2010-12-10 03:35:06,1470.7381565106243,2,29,0.550297200679779,3.910201549530029,25.95595300255752,25.718994655738204,104.09432578211153,93.18934781664016,3.237724376958795e-05,0.0947341993451118,0,0,0
8610,313293.1394707475,2010-12-10 03:35:36,1500.753373618967,2,29,0.5501165986061096,3.911820411682129,25.960540213472058,25.718994655738204,104.11226609131704,93.18934781664016,3.237724376958795e-05,0.0947341993451118,0,0,0
8611,313323.15429293807,2010-12-10 03:36:06,1530.7681958195972,2,29,0.550297200679779,3.913439273834229,25.96512745376526,25.718994655738204,104.13021400201951,93.18934781664016,6.47544875391759e-05,0.0947341993451118,0,0,0
8612,313353.1693810955,2010-12-10 03:36:36,1560.783283982063,2,29,0.5501165986061096,3.915057897567749,25.969714691951385,25.718994655738204,104.14816935135778,93.18934781664016,6.47544875391759e-05,0.0947341993451118,0,0,0
8613,313383.18478949985,2010-12-10 03:37:06,1590.798692381426,2,29,0.5501165986061096,3.916514873504639,25.974301745562297,25.718994655738204,104.16613124990764,93.18934781664016,3.237724376958795e-05,0.0947341993451118,0,0,0
8614,313413.1872906701,2010-12-10 03:37:36,1620.8011936418702,2,29,0.5499359965324402,3.917971849441528,25.978886318162584,25.718994655738204,104.18409079782003,93.18934781664016,0.0,0.0947341993451118,0,0,0
8615,313443.198983333,2010-12-10 03:38:06,1650.8128863047662,2,29,0.5497553944587708,3.919752597808838,25.983472383587987,25.718994655738204,104.20206362631195,93.18934781664016,0.0,0.0947341993451118,0,0,0
8616,313473.2139865691,2010-12-10 03:38:36,1680.8278894506714,2,29,0.5501165986061096,3.921533346176148,25.98805887156521,25.718994655738204,104.22004553207026,93.18934781664016,6.47544875391759e-05,0.0947341993451118,0,0,0
8617,313503.22919513617,2010-12-10 03:39:06,1710.8430980177595,2,29,0.550297200679779,3.923152208328247,25.992645296895805,25.718994655738204,104.23803464394368,93.18934781664016,3.237724376958795e-05,0.0947341993451118,0,0,0
8618,313533.2441225988,2010-12-10 03:39:36,1740.85802548033,2,29,0.5499359965324402,3.9246091842651367,25.99723173102999,25.718994655738204,104.2560311714449,93.18934781664016,3.237724376958795e-05,0.0947341993451118,0,0,0
8619,313563.25926157774,2010-12-10 03:40:06,1770.8731644592506,2,29,0.550297200679779,3.9263899326324463,26.00181825246453,25.718994655738204,104.2740354763622,93.18934781664016,6.47544875391759e-05,0.0947341993451118,0,0,0
8620,313593.2745468657,2010-12-10 03:40:36,1800.888449732218,2,29,0.550297200679779,3.927846908569336,26.00640553808948,25.718994655738204,104.29205030576124,93.18934781664016,0.0,0.0947341993451118,0,0,0
8621,313623.28938968765,2010-12-10 03:41:06,1830.9032925541635,2,29,0.550297200679779,3.9296276569366455,26.01099267031057,25.718994655738204,104.31007199032388,93.18934781664016,6.47544875391759e-05,0.0947341993451118,0,0,0
8622,313653.30438434746,2010-12-10 03:41:36,1860.9182872139515,2,29,0.550297200679779,3.931246519088745,26.015579832026248,25.718994655738204,104.32810130438494,93.18934781664016,3.237724376958795e-05,0.0947341993451118,0,0,0
8623,313683.31945062545,2010-12-10 03:42:06,1890.9333535972207,2,29,0.550297200679779,3.9328653812408447,26.020167116821465,25.718994655738204,104.3461386037193,93.18934781664016,3.237724376958795e-05,0.0947341993451118,0,0,0
8624,313713.3344987182,2010-12-10 03:42:36,1920.9484015847129,2,29,0.5501165986061096,3.934484243392944,26.02475433325209,25.718994655738204,104.36418319094078,93.18934781664016,3.237724376958795e-05,0.0947341993451118,0,0,0
8625,313743.34969352104,2010-12-10 03:43:06,1950.9635964777733,2,29,0.550297200679779,3.936264991760254,26.029341633609747,25.718994655738204,104.38223565981124,93.18934781664016,6.47544875391759e-05,0.0947341993451118,0,0,0
8626,313773.3646161917,2010-12-10 03:43:36,1980.9785190581947,2,29,0.5499359965324402,3.937721967697144,26.0339288289464,25.718994655738204,104.4002950928964,93.18934781664016,3.237724376958795e-05,0.0947341993451118,0,0,0
8627,313803.37967179815,2010-12-10 03:44:06,2010.993574684696,2,29,0.550297200679779,3.939178943634033,26.038516194244856,25.718994655738204,104.4183628818579,93.18934781664016,0.0,0.0947341993451118,0,0,0
8628,313833.39475438674,2010-12-10 03:44:36,2041.0086572682792,2,29,0.5504778623580933,3.9411215782165527,26.043103541163013,25.718994655738204,104.4364381498871,93.18934781664016,3.237724376958795e-05,0.0947341993451118,0,0,0
8629,313863.41008759395,2010-12-10 03:45:06,2071.023990480542,2,29,0.5501165986061096,3.942740440368652,26.04769095879756,25.718994655738204,104.4545212719484,93.18934781664016,6.47544875391759e-05,0.0947341993451118,0,0,0
8630,313893.4252198562,2010-12-10 03:45:36,2101.039122812923,2,29,0.550297200679779,3.944359302520752,26.05227835766715,25.718994655738204,104.47261191050669,93.18934781664016,3.237724376958795e-05,0.0947341993451118,0,0,0
8631,313923.4402692923,2010-12-10 03:46:06,2131.054172178845,2,29,0.550297200679779,3.9461400508880615,26.056865762964303,25.718994655738204,104.49071025703104,93.18934781664016,3.237724376958795e-05,0.0947341993451118,0,0,0
8632,313953.4549989175,2010-12-10 03:46:36,2161.0689017990926,2,29,0.550297200679779,3.947758913040161,26.06145306130181,25.718994655738204,104.50881574266872,93.18934781664016,6.47544875391759e-05,0.0947341993451118,0,0,0
8633,313983.47028400004,2010-12-10 03:47:06,2191.084186976823,2,29,0.5501165986061096,3.949215888977051,26.06604043088938,25.718994655738204,104.52692927595226,93.18934781664016,0.0,0.0947341993451118,0,0,0
8634,314013.48514409,2010-12-10 03:47:36,2221.0990469765147,2,29,0.5501165986061096,3.9511585235595694,26.070627727043625,25.718994655738204,104.54505029837216,93.18934781664016,9.713172767078504e-05,0.0947341993451118,0,0,0
8635,314043.50020477903,2010-12-10 03:48:06,2251.114107645564,2,29,0.5501165986061096,3.95277738571167,26.07521508044873,25.718994655738204,104.5631792893309,93.18934781664016,6.47544875391759e-05,0.0947341993451118,0,0,0
8636,314073.51526540297,2010-12-10 03:48:36,2281.129168274514,2,29,0.550297200679779,3.9543962478637695,26.0798024338592,25.718994655738204,104.58131611477756,93.18934781664016,3.237724376958795e-05,0.0947341993451118,0,0,0
8637,314103.53045584,2010-12-10 03:49:06,2311.144358706473,2,29,0.550297200679779,3.956338882446289,26.08438981255886,25.718994655738204,104.59946091257716,93.18934781664016,6.47544875391759e-05,0.0947341993451118,0,0,0
8638,314133.54541936726,2010-12-10 03:49:36,2341.1593222538395,2,29,0.5504778623580933,3.958119630813599,26.088977186509865,25.718994655738204,104.61761344289351,93.18934781664016,9.713172767078504e-05,0.0947341993451118,0,0,0
8639,314163.5605382813,2010-12-10 03:50:06,2371.174441152792,2,29,0.550297200679779,3.959738492965698,26.093564552058577,25.718994655738204,104.63577387563856,93.18934781664016,6.47544875391759e-05,0.0947341993451118,0,0,0
8640,314193.57571636245,2010-12-10 03:50:36,2401.189619299179,2,29,0.5501165986061096,3.961357355117798,26.09815196565301,25.718994655738204,104.6539424878475,93.18934781664016,3.237724376958795e-05,0.0947341993451118,0,0,0
8641,314223.5906917995,2010-12-10 03:51:06,2431.20459469102,2,29,0.550297200679779,3.9631381034851074,26.102739380215105,25.718994655738204,104.67211910370044,93.18934781664016,3.237724376958795e-05,0.0947341993451118,0,0,0
8642,314253.6057133511,2010-12-10 03:51:36,2461.219616217665,2,29,0.5501165986061096,3.964756965637207,26.1073267103016,25.718994655738204,104.69030339822864,93.18934781664016,3.237724376958795e-05,0.0947341993451118,0,0,0
8643,314283.62074313336,2010-12-10 03:52:06,2491.234645999853,2,29,0.550297200679779,3.966861486434937,26.11191412955948,25.718994655738204,104.70849616445231,93.18934781664016,6.47544875391759e-05,0.0947341993451118,0,0,0
8644,314313.6357788202,2010-12-10 03:52:36,2521.249681686736,2,29,0.5501165986061096,3.968480348587036,26.11650152027952,25.718994655738204,104.72669683693664,93.18934781664016,3.237724376958795e-05,0.0947341993451118,0,0,0
8645,314343.65087966924,2010-12-10 03:53:06,2551.264782535772,2,29,0.5501165986061096,3.970099210739136,26.121088850481723,25.718994655738204,104.74490550005414,93.18934781664016,3.237724376958795e-05,0.0947341993451118,0,0,0
8646,314373.66931942705,2010-12-10 03:53:36,2581.283222383778,2,29,0.5501165986061096,3.9720418453216553,26.12567672886256,25.718994655738204,104.76312466439192,93.18934781664016,3.237724376958795e-05,0.0947341993451118,0,0,0
8647,314403.68099496234,2010-12-10 03:54:06,2611.2948978488776,2,29,0.5501165986061096,3.973822593688965,26.130263646701515,25.718994655738204,104.7813483556384,93.18934781664016,6.47544875391759e-05,0.0947341993451118,0,0,0
8648,314433.69605820783,2010-12-10 03:54:36,2641.309961089326,2,29,0.550297200679779,3.975765228271485,26.13485106056647,25.718994655738204,104.79958248097148,93.18934781664016,6.47544875391759e-05,0.0947341993451118,0,0,0
8649,314463.711284529,2010-12-10 03:55:06,2671.325187395558,2,29,0.550297200679779,3.977707862854004,26.13943858149856,25.718994655738204,104.81782559903628,93.18934781664016,6.47544875391759e-05,0.0947341993451118,0,0,0
8650,314493.7262980458,2010-12-10 03:55:36,2701.3402009323204,2,29,0.5501165986061096,3.9794886112213135,26.1440259973722,25.718994655738204,104.83607644364706,93.18934781664016,3.237724376958795e-05,0.0947341993451118,0,0,0
8651,314523.7413878824,2010-12-10 03:56:06,2731.3552908441397,2,29,0.550297200679779,3.981431245803833,26.14861330894838,25.718994655738204,104.85433596391098,93.18934781664016,3.237724376958795e-05,0.0947341993451118,0,0,0
8652,314553.7563392294,2010-12-10 03:56:36,2761.370242115958,2,29,0.550297200679779,3.983373880386353,26.153200732922667,25.718994655738204,104.87260468513762,93.18934781664016,6.47544875391759e-05,0.0947341993451118,0,0,0
8653,314583.771505772,2010-12-10 03:57:06,2791.385408638419,2,29,0.550297200679779,3.985154628753662,26.15778803324405,25.718994655738204,104.89088174211663,93.18934781664016,3.237724376958795e-05,0.0947341993451118,0,0,0
8654,314613.78645054257,2010-12-10 03:57:36,2821.40035340906,2,29,0.5499359965324402,3.9870972633361816,26.16237539268573,25.718994655738204,104.9091679799989,93.18934781664016,3.237724376958795e-05,0.0947341993451118,0,0,0
8655,314643.80151056,2010-12-10 03:58:06,2851.4154134415257,2,29,0.5501165986061096,3.989039897918701,26.16696273513669,25.718994655738204,104.92746314019725,93.18934781664016,3.237724376958795e-05,0.0947341993451118,0,0,0
8656,314673.8165797854,2010-12-10 03:58:36,2881.430482666867,2,29,0.5501165986061096,3.991144418716431,26.171550003355577,25.718994655738204,104.94576708486288,93.18934781664016,6.47544875391759e-05,0.0947341993451118,0,0,0
8657,314703.831742794,2010-12-10 03:59:06,2911.4456457307224,2,29,0.5504778623580933,3.99324893951416,26.17613728182829,25.718994655738204,104.96408036065056,93.18934781664016,3.237724376958795e-05,0.0947341993451118,0,0,0
8658,314733.84672336373,2010-12-10 03:59:36,2941.4606262453103,2,29,0.550297200679779,3.9951913356781006,26.18072462042908,25.718994655738204,104.98240320757884,93.18934781664016,3.237724376958795e-05,0.0947341993451118,0,0,0
8659,314763.86196235154,2010-12-10 04:00:06,2971.475865238112,2,29,0.5501165986061096,3.99729585647583,26.185311927233045,25.718994655738204,105.00073538374475,93.18934781664016,6.47544875391759e-05,0.0947341993451118,0,0,0
8660,314793.87688674644,2010-12-10 04:00:37,3001.490789612999,2,29,0.550297200679779,3.99940037727356,26.18989937665277,25.718994655738204,105.0190777098584,93.18934781664016,6.47544875391759e-05,0.0947341993451118,0,0,0
8661,314823.8922196229,2010-12-10 04:01:07,3031.5061224994506,2,29,0.5501165986061096,4.001667022705078,26.194486662585188,25.718994655738204,105.03742906208612,93.18934781664016,9.71794142969884e-05,0.0947341993451118,0,0,0
8662,314853.906882873,2010-12-10 04:01:37,3061.5207857545506,2,29,0.550297200679779,4.0037713050842285,26.199071670207463,25.718994655738204,105.05578115069424,93.18934781664016,6.47544875391759e-05,0.0947341993451118,0,0,0
8663,314883.92203845823,2010-12-10 04:02:07,3091.535941344808,2,29,0.550297200679779,4.005876064300537,26.20366131664103,25.718994655738204,105.0741616619166,93.18934781664016,6.47544875391759e-05,0.0947341993451118,0,0,0
8664,314913.93711084145,2010-12-10 04:02:37,3121.551013722996,2,29,0.5501165986061096,4.007980346679688,26.20824867179631,25.718994655738204,105.09254306254824,93.18934781664016,3.23295607813634e-05,0.0947341993451118,0,0,0
8665,314943.9521606786,2010-12-10 04:03:07,3151.5660635600902,2,29,0.5501165986061096,4.010246753692627,26.212835992251684,25.718994655738204,105.1109343522653,93.18934781664016,0.0,0.0947341993451118,0,0,0
8666,314973.9672510415,2010-12-10 04:03:37,3181.581153907994,2,29,0.5501165986061096,4.012513160705566,26.21742335465919,25.718994655738204,105.12933607582067,93.18934781664016,6.47544875391759e-05,0.0947341993451118,0,0,0
8667,315003.98229641747,2010-12-10 04:04:07,3211.596199299025,2,29,0.5501165986061096,4.014779567718506,26.222010679252787,25.718994655738204,105.14774801889476,93.18934781664016,3.23295607813634e-05,0.0947341993451118,0,0,0
8668,315033.997385001,2010-12-10 04:04:37,3241.611287972763,2,29,0.550297200679779,4.017208099365234,26.22659802263353,25.718994655738204,105.16617057297783,93.18934781664016,9.71794142969884e-05,0.0947341993451118,0,0,0
8669,315064.0124839403,2010-12-10 04:05:07,3271.6263868067845,2,29,0.550297200679779,4.019312381744385,26.231185382622968,25.718994655738204,105.18460380872254,93.18934781664016,3.23295607813634e-05,0.0947341993451118,0,0,0
8670,315094.0309943689,2010-12-10 04:05:37,3301.6448973256524,2,29,0.5501165986061096,4.021740913391113,26.23577316531013,25.718994655738204,105.2030494547612,93.18934781664016,3.24249267578125e-05,0.0947341993451118,0,0,0
8671,315124.0428041984,2010-12-10 04:06:07,3331.6567071501004,2,29,0.5501165986061096,4.024168968200684,26.24036002806399,25.718994655738204,105.22150228801044,93.18934781664016,9.70840483205393e-05,0.0947341993451118,0,0,0
8672,315154.0576486293,2010-12-10 04:06:37,3361.6715515910746,2,29,0.5501165986061096,4.026435375213623,26.24494731963892,25.718994655738204,105.23996772594856,93.18934781664016,0.0,0.0947341993451118,0,0,0
8673,315184.0727169926,2010-12-10 04:07:07,3391.6866198740718,2,29,0.550297200679779,4.029025554656982,26.24953462858504,25.718994655738204,105.25844430108468,93.18934781664016,9.70840483205393e-05,0.0947341993451118,0,0,0
8674,315214.0878439215,2010-12-10 04:07:37,3421.7017468882186,2,29,0.5499359965324402,4.031291961669922,26.25412194568625,25.718994655738204,105.27693195475877,93.18934781664016,6.47544875391759e-05,0.0947341993451118,0,0,0
8675,315244.10282986955,2010-12-10 04:08:07,3451.716732751115,2,29,0.550297200679779,4.033882141113281,26.25870922920829,25.718994655738204,105.29543075402306,93.18934781664016,6.47544875391759e-05,0.0947341993451118,0,0,0
8676,315274.1179349993,2010-12-10 04:08:37,3481.7318379610037,2,29,0.550297200679779,4.036310195922852,26.263296572382583,25.718994655738204,105.31394115836544,93.18934781664016,6.47544875391759e-05,0.0947341993451118,0,0,0
8677,315304.1330857876,2010-12-10 04:09:07,3511.746988659086,2,29,0.5501165986061096,4.03873872756958,26.26788392528055,25.718994655738204,105.332463038388,93.18934781664016,6.47544875391759e-05,0.0947341993451118,0,0,0
8678,315334.15152343013,2010-12-10 04:09:37,3541.765426386816,2,29,0.5499359965324402,4.04132890701294,26.27247173516347,25.718994655738204,105.350998264267,93.18934781664016,6.47544875391759e-05,0.0947341993451118,0,0,0
8679,315364.16340713843,2010-12-10 04:10:07,3571.777310080084,2,29,0.550297200679779,4.043919086456299,26.277058570226263,25.718994655738204,105.36954120898471,93.18934781664016,6.47544875391759e-05,0.0947341993451118,0,0,0
8680,315394.1784729953,2010-12-10 04:10:37,3601.792375967118,2,29,0.5501165986061096,4.046509265899658,26.28164595154747,25.718994655738204,105.38809819117216,93.18934781664016,9.71794142969884e-05,0.0947341993451118,0,0,0
8681,315424.193532311,2010-12-10 04:11:07,3631.8074352026006,2,29,0.550297200679779,4.049261093139648,26.286233270217533,25.718994655738204,105.40666691906488,93.18934781664016,9.70840483205393e-05,0.0947341993451118,0,0,0
8682,315454.2083316999,2010-12-10 04:11:37,3661.8222346415887,2,29,0.550297200679779,4.051689624786377,26.290820707653328,25.718994655738204,105.42524810116336,93.18934781664016,3.24249267578125e-05,0.0947341993451118,0,0,0
8683,315484.22344846354,2010-12-10 04:12:07,3691.83735141024,2,29,0.5504778623580933,4.054441452026367,26.29540808637357,25.718994655738204,105.44384114230796,93.18934781664016,9.70840483205393e-05,0.0947341993451118,0,0,0
8684,315514.23853363853,2010-12-10 04:12:37,3721.852436495047,2,29,0.5501165986061096,4.057031631469727,26.299995479956472,25.718994655738204,105.46244650387744,93.18934781664016,3.23295607813634e-05,0.0947341993451118,0,0,0
8685,315544.25361109443,2010-12-10 04:13:07,3751.867513960896,2,29,0.5501165986061096,4.059783935546875,26.304582868428337,25.718994655738204,105.48106420550748,93.18934781664016,3.24249267578125e-05,0.0947341993451118,0,0,0
8686,315574.268821466,2010-12-10 04:13:37,3781.8827244577856,2,29,0.550297200679779,4.062374114990234,26.309170291608066,25.718994655738204,105.49969412796555,93.18934781664016,6.47544875391759e-05,0.0947341993451118,0,0,0
8687,315604.2836683229,2010-12-10 04:14:07,3811.89757120951,2,29,0.5501165986061096,4.065288066864014,26.313757634041625,25.718994655738204,105.51833626931038,93.18934781664016,6.47544875391759e-05,0.0947341993451118,0,0,0
8688,315634.2986977192,2010-12-10 04:14:37,3841.912600585688,2,29,0.550297200679779,4.068039894104004,26.31834496812132,25.718994655738204,105.5369910366366,93.18934781664016,9.70840483205393e-05,0.0947341993451118,0,0,0
8689,315664.31385291344,2010-12-10 04:15:07,3871.92775577996,2,29,0.5501165986061096,4.070792198181152,26.32293230698938,25.718994655738204,105.55565866483832,93.18934781664016,6.47544875391759e-05,0.0947341993451118,0,0,0
8690,315694.32886067586,2010-12-10 04:15:37,3901.94276355739,2,29,0.5501165986061096,4.073544025421143,26.32751961376193,25.718994655738204,105.57433897343076,93.18934781664016,6.47544875391759e-05,0.0947341993451118,0,0,0
8691,315724.3438818115,2010-12-10 04:16:07,3931.9577846780257,2,29,0.550297200679779,4.076457977294922,26.332106959098013,25.718994655738204,105.59303250061193,93.18934781664016,6.47544875391759e-05,0.0947341993451118,0,0,0
8692,315754.3589391473,2010-12-10 04:16:37,3961.9728420288175,2,29,0.550297200679779,4.079371929168701,26.33669430955069,25.718994655738204,105.61173911125772,93.18934781664016,9.70840483205393e-05,0.0947341993451118,0,0,0
8693,315784.3742525753,2010-12-10 04:17:07,3991.988155446824,2,29,0.5501165986061096,4.08212423324585,26.341281645751057,25.718994655738204,105.63045880606334,93.18934781664016,6.47544875391759e-05,0.0947341993451118,0,0,0
8694,315814.38934294827,2010-12-10 04:17:37,4022.003245829815,2,29,0.5501165986061096,4.085038185119629,26.345868975461947,25.718994655738204,105.64919180278496,93.18934781664016,6.47544875391759e-05,0.0947341993451118,0,0,0
8695,315844.4041499761,2010-12-10 04:18:07,4052.018052847663,2,29,0.550297200679779,4.088275909423828,26.350456260146483,25.718994655738204,105.66793811876605,93.18934781664016,0.0001295089750783,0.0947341993451118,0,0,0
8696,315874.4192072267,2010-12-10 04:18:37,4082.0331100931935,2,29,0.5501165986061096,4.091027736663818,26.35504359325744,25.718994655738204,105.68669824741774,93.18934781664016,9.70840483205393e-05,0.0947341993451118,0,0,0
8697,315904.43449213373,2010-12-10 04:19:07,4112.048395085463,2,29,0.5501165986061096,4.093941688537598,26.35963099170529,25.718994655738204,105.70547233160414,93.18934781664016,6.47544875391759e-05,0.0947341993451118,0,0,0
8698,315934.44935657945,2010-12-10 04:19:37,4142.063259516181,2,29,0.550297200679779,4.097017765045166,26.36421824407537,25.718994655738204,105.72425963498436,93.18934781664016,6.47544875391759e-05,0.0947341993451118,0,0,0
8699,315964.4646215569,2010-12-10 04:20:07,4172.078524423469,2,29,0.5501165986061096,4.100093364715576,26.36880563336041,25.718994655738204,105.74306141292094,93.18934781664016,6.47544875391759e-05,0.0947341993451118,0,0,0
8700,315994.47953549586,2010-12-10 04:20:37,4202.093438432561,2,29,0.5501165986061096,4.1031694412231445,26.373393067590097,25.718994655738204,105.76187749751408,93.18934781664016,6.47544875391759e-05,0.0947341993451118,0,0,0
8701,316024.4947810951,2010-12-10 04:21:07,4232.108684051852,2,29,0.5501165986061096,4.106245040893555,26.377980465094776,25.718994655738204,105.78070759653724,93.18934781664016,6.47544875391759e-05,0.0947341993451118,0,0,0
8702,316054.50961857376,2010-12-10 04:21:37,4262.123521455314,2,29,0.550297200679779,4.109482765197754,26.382567856356253,25.718994655738204,105.79955192312812,93.18934781664016,9.70840483205393e-05,0.0947341993451118,0,0,0
8703,316084.52480443433,2010-12-10 04:22:07,4292.138707290836,2,29,0.550297200679779,4.112558841705322,26.387155257226155,25.718994655738204,105.81841064881968,93.18934781664016,3.24249267578125e-05,0.0947341993451118,0,0,0
8704,316114.5397273957,2010-12-10 04:22:37,4322.1536302772665,2,29,0.550297200679779,4.115796089172363,26.39174258158213,25.718994655738204,105.83728350022032,93.18934781664016,9.70840483205393e-05,0.0947341993451118,0,0,0
8705,316144.5547975584,2010-12-10 04:23:07,4352.168700434929,2,29,0.5501165986061096,4.118710041046143,26.39632999598512,25.718994655738204,105.85617132839992,93.18934781664016,3.23295607813634e-05,0.0947341993451118,0,0,0
8706,316174.5698787636,2010-12-10 04:23:37,4382.183781645094,2,29,0.550297200679779,4.122271537780762,26.400917329107216,25.718994655738204,105.87507358533897,93.18934781664016,9.70840483205393e-05,0.0947341993451118,0,0,0
8707,316204.5849412822,2010-12-10 04:24:07,4412.198844163746,2,29,0.5501165986061096,4.12534761428833,26.40550472030334,25.718994655738204,105.8939909125244,93.18934781664016,9.71794142969884e-05,0.0947341993451118,0,0,0
8708,316234.60003939446,2010-12-10 04:24:37,4442.213942260934,2,29,0.5501165986061096,4.128585338592529,26.41009214298984,25.718994655738204,105.9129233980489,93.18934781664016,9.71794142969884e-05,0.0947341993451118,0,0,0
8709,316264.61539996474,2010-12-10 04:25:07,4472.229302846314,2,29,0.5501165986061096,4.131984710693359,26.414679629078947,25.718994655738204,105.9318712273492,93.18934781664016,6.47544875391759e-05,0.0947341993451118,0,0,0
8710,316294.6334102288,2010-12-10 04:25:37,4502.247313190516,2,29,0.5501165986061096,4.135222434997559,26.4192674225622,25.718994655738204,105.95083544625425,93.18934781664016,9.70840483205393e-05,0.0947341993451118,0,0,0
8711,316324.64561353734,2010-12-10 04:26:07,4532.259516524196,2,29,0.5501165986061096,4.138622283935547,26.423854402530125,25.718994655738204,105.96981160573574,93.18934781664016,6.47544875391759e-05,0.0947341993451118,0,0,0
8712,316354.6602975492,2010-12-10 04:26:37,4562.274200485825,2,29,0.5501165986061096,4.142183780670166,26.42844173054453,25.718994655738204,105.98880456953636,93.18934781664016,0.0001295089750783,0.0947341993451118,0,0,0
8713,316384.67536191235,2010-12-10 04:27:07,4592.289264778892,2,29,0.550297200679779,4.145421504974365,26.433029168073,25.718994655738204,106.0078135970798,93.18934781664016,6.47544875391759e-05,0.0947341993451118,0,0,0
8714,316414.69042552874,2010-12-10 04:27:37,4622.304328410313,2,29,0.550297200679779,4.148983001708984,26.43761650531567,25.718994655738204,106.0268381730278,93.18934781664016,9.71794142969884e-05,0.0947341993451118,0,0,0
8715,316444.70550014754,2010-12-10 04:28:07,4652.319403029076,2,29,0.5501165986061096,4.152382373809815,26.4422038646282,25.718994655738204,106.04587860197074,93.18934781664016,0.0001295089750783,0.0947341993451118,0,0,0
8716,316474.7205355337,2010-12-10 04:28:37,4682.33443841521,2,29,0.5501165986061096,4.155782222747803,26.4467911889716,25.718994655738204,106.06493476907607,93.18934781664016,9.71794142969884e-05,0.0947341993451118,0,0,0
8717,316504.7357277651,2010-12-10 04:29:07,4712.34963063161,2,29,0.5501165986061096,4.159343719482422,26.451378614270983,25.718994655738204,106.08400737291272,93.18934781664016,0.0001295089750783,0.0947341993451118,0,0,0
8718,316534.7507021645,2010-12-10 04:29:37,4742.364605041005,2,29,0.5501165986061096,4.162905216217041,26.45596595222125,25.718994655738204,106.10309568539512,93.18934781664016,0.0001295089750783,0.0947341993451118,0,0,0
8719,316564.76594297175,2010-12-10 04:30:07,4772.379845838297,2,29,0.5501165986061096,4.166304588317871,26.460553348564996,25.718994655738204,106.12220043079108,93.18934781664016,6.47544875391759e-05,0.0947341993451118,0,0,0
8720,316594.78084861004,2010-12-10 04:30:37,4802.394751486584,2,29,0.550297200679779,4.170028209686279,26.46514067797641,25.718994655738204,106.14132129463954,93.18934781664016,9.71794142969884e-05,0.0947341993451118,0,0,0
8721,316624.7958907981,2010-12-10 04:31:07,4832.409793664619,2,29,0.550297200679779,4.173751354217529,26.469728028526607,25.718994655738204,106.160458720054,93.18934781664016,0.0001295089750783,0.0947341993451118,0,0,0
8722,316654.8109576676,2010-12-10 04:31:37,4862.424860554149,2,29,0.5501165986061096,4.177312850952148,26.474315402732653,25.718994655738204,106.179612797145,93.18934781664016,0.0001295089750783,0.0947341993451118,0,0,0
8723,316684.8260849374,2010-12-10 04:32:07,4892.439987889094,2,29,0.550297200679779,4.181036472320557,26.47890272597791,25.718994655738204,106.19878322894904,93.18934781664016,0.0001295089750783,0.0947341993451118,0,0,0
8724,316714.8411877814,2010-12-10 04:32:38,4922.455090672944,2,29,0.5501165986061096,4.184435844421387,26.483490052916785,25.718994655738204,106.21797038653332,93.18934781664016,9.70840483205393e-05,0.0947341993451118,0,0,0
8725,316744.8562517236,2010-12-10 04:33:08,4952.470154595088,2,29,0.5501165986061096,4.188159465789795,26.48807739001145,25.718994655738204,106.23717434901248,93.18934781664016,0.0001295089750783,0.0947341993451118,0,0,0
8726,316774.8714276645,2010-12-10 04:33:38,4982.48533052095,2,29,0.550297200679779,4.191882610321045,26.492664797167077,25.718994655738204,106.25639549018864,93.18934781664016,0.0001295089750783,0.0947341993451118,0,0,0
8727,316804.88640803366,2010-12-10 04:34:08,5012.500310905214,2,29,0.5501165986061096,4.195444107055664,26.497252150233106,25.718994655738204,106.27563332914684,93.18934781664016,6.47544875391759e-05,0.0947341993451118,0,0,0
8728,316834.9013667641,2010-12-10 04:34:38,5042.515269645618,2,29,0.550297200679779,4.199167251586914,26.501839456138956,25.718994655738204,106.29488805108318,93.18934781664016,6.47544875391759e-05,0.0947341993451118,0,0,0
8729,316839.823109236,2010-12-10 04:34:42,5047.437012127486,2,29,0.5501165986061096,4.200138568878174,26.50259168616622,25.718994655738204,106.29804712612582,93.18934781664016,0.0001295089750783,0.0947341993451118,0,0,0
8730,316869.82779386867,2010-12-10 04:35:13,30.01503796755773,3,29,0.0,4.110777854919434,26.50259168616622,25.718994655738204,106.29804712612582,93.18934781664016,-0.0004209518374409,0.0947341993451118,0,0,0
8731,316899.8428174805,2010-12-10 04:35:43,60.0300615793918,3,29,0.0,4.099445819854736,26.50259168616622,25.718994655738204,106.29804712612582,93.18934781664016,-0.0002914428769145,0.0947341993451118,0,0,0
8732,316929.85788149294,2010-12-10 04:36:13,90.04512559176104,3,29,0.0,4.092808723449707,26.50259168616622,25.718994655738204,106.29804712612582,93.18934781664016,-0.0001942634553415,0.0947341993451118,0,0,0
8733,316959.82607642835,2010-12-10 04:36:43,120.01332050718518,3,29,0.0,4.088437557220459,26.50259168616622,25.718994655738204,106.29804712612582,93.18934781664016,-0.0001295089750783,0.0947341993451118,0,0,0
8734,316959.83343723486,2010-12-10 04:36:43,0.015480678071971,4,29,1.0043489933013916,4.199814796447754,26.50259600505603,25.718994655738204,106.29806526466317,93.18934781664016,0.0,0.0947341993451118,0,0,0
8735,316960.6927558161,2010-12-10 04:36:44,0.874799194148516,4,29,0.9539589285850524,4.199814796447754,26.502828286041886,25.718994655738204,106.29904078394782,93.18934781664016,0.0,0.0947341993451118,0,0,0
8736,316962.677088236,2010-12-10 04:36:46,2.859131609042502,4,29,0.9037495851516724,4.199814796447754,26.503339200218264,25.718994655738204,106.30118649261162,93.18934781664016,0.0,0.0947341993451118,0,0,0
8737,316965.67703241674,2010-12-10 04:36:49,5.859075789753733,4,29,0.8535401821136475,4.199814796447754,26.504070241480825,25.718994655738204,106.30425669775214,93.18934781664016,0.0,0.0947341993451118,0,0,0
8738,316969.8368010159,2010-12-10 04:36:53,10.018844484158658,4,29,0.8031502366065979,4.199814796447754,26.505026101482628,25.718994655738204,106.30827109650303,93.18934781664016,-3.24249267578125e-05,0.0947341993451118,0,0,0
8739,316975.3176828646,2010-12-10 04:36:58,15.499726242611422,4,29,0.7531214356422424,4.199814796447754,26.506209074854887,25.718994655738204,106.31323932766412,93.18934781664016,0.0,0.0947341993451118,0,0,0
8740,316982.41109833115,2010-12-10 04:37:05,22.593141679101457,4,29,0.7030926942825317,4.199814796447754,26.507641266039,25.718994655738204,106.3192542211917,93.18934781664016,0.0,0.0947341993451118,0,0,0
8741,316991.8171743997,2010-12-10 04:37:15,31.999217762663243,4,29,0.6528832912445068,4.199653148651123,26.50940966211064,25.718994655738204,106.32668108851588,93.18934781664016,0.0,0.0947341993451118,0,0,0
8742,317005.0044459177,2010-12-10 04:37:28,45.1864893858949,4,29,0.6026738882064819,4.199814796447754,26.511704750753825,25.718994655738204,106.33631999260017,93.18934781664016,-3.24249267578125e-05,0.0947341993451118,0,0,0
8743,317025.00420159043,2010-12-10 04:37:48,65.18624504362779,4,29,0.5526451468467712,4.199814796447754,26.51490383797504,25.718994655738204,106.34975553991676,93.18934781664016,-3.24249267578125e-05,0.0947341993451118,0,0,0
8744,317058.98782928084,2010-12-10 04:38:22,99.16987264886082,4,29,0.5026163458824158,4.199814796447754,26.519862331186285,25.718994655738204,106.37058021984572,93.18934781664016,0.0,0.0947341993451118,0,0,0
8745,317122.5491162438,2010-12-10 04:39:26,162.7311596168157,4,29,0.4525876045227051,4.199814796447754,26.528253510546243,25.718994655738204,106.40582147584342,93.18934781664016,0.0,0.0947341993451118,0,0,0
8746,317222.0004201435,2010-12-10 04:41:05,262.182463506495,4,29,0.402558833360672,4.199814796447754,26.540033565775797,25.718994655738204,106.455295362029,93.18934781664016,3.23295607813634e-05,0.0947341993451118,0,0,0
8747,317347.4980723241,2010-12-10 04:43:10,387.6801156821013,4,29,0.3523494601249695,4.199653148651123,26.553175786390227,25.718994655738204,106.51049015870085,93.18934781664016,0.0,0.0947341993451118,0,0,0
8748,317498.15150090674,2010-12-10 04:45:41,538.333544279804,4,29,0.3023206889629364,4.199653148651123,26.566859755956028,25.718994655738204,106.56796017001696,93.18934781664016,0.0,0.0947341993451118,0,0,0
8749,317678.8512587392,2010-12-10 04:48:42,719.0333021171916,4,29,0.2522919178009033,4.199653148651123,26.580749662584047,25.718994655738204,106.6262950511958,93.18934781664016,-3.23295607813634e-05,0.0947341993451118,0,0,0
8750,317901.5190216881,2010-12-10 04:52:24,941.7010650611328,4,29,0.2022631466388702,4.199814796447754,26.594763199340584,25.718994655738204,106.68514912016586,93.18934781664016,3.23295607813634e-05,0.0947341993451118,0,0,0
8751,318199.43541463366,2010-12-10 04:57:22,1239.6174580066552,4,29,0.1522343754768371,4.199653148651123,26.609345501595666,25.718994655738204,106.74639191336188,93.18934781664016,0.0,0.0947341993451118,0,0,0
8752,318633.80566441367,2010-12-10 05:04:37,1673.987707876909,4,29,0.102205604314804,4.199653148651123,26.62456495397036,25.718994655738204,106.81031078047708,93.18934781664016,0.0,0.0947341993451118,0,0,0
8753,319499.8480181366,2010-12-10 05:19:03,2540.030061514615,4,29,0.0521768368780612,4.199653148651123,26.642416419929877,25.718994655738204,106.88528383242442,93.18934781664016,-3.23295607813634e-05,0.0947341993451118,0,0,0
8754,319567.7529357373,2010-12-10 05:20:11,2607.9349791103245,4,29,0.0498289167881011,4.199814796447754,26.643386259120504,25.718994655738204,106.8893569895936,93.18934781664016,0.0,0.0947341993451118,0,0,0
8755,319597.76233049534,2010-12-10 05:20:41,30.015175970973925,5,29,0.0,4.191397190093994,26.643386259120504,25.718994655738204,106.8893569895936,93.18934781664016,-3.23295607813634e-05,0.0947341993451118,0,0,0
8756,319627.7618825468,2010-12-10 05:21:11,60.01472801240009,5,29,0.0,4.1901021003723145,26.643386259120504,25.718994655738204,106.8893569895936,93.18934781664016,0.0,0.0947341993451118,0,0,0
8757,319627.94431207527,2010-12-10 05:21:11,0.187306720570034,6,29,-1.9243103452026844e-05,4.1901021003723145,26.643386259120504,25.71899465673941,106.8893569895936,93.18934782083534,0.0,0.098061554133892,0,0,0
8758,319632.77257210464,2010-12-10 05:21:16,5.015566800075573,6,29,0.0005225847125984,4.189939975738525,26.64338739016108,25.71899465682325,106.8893617288375,93.1893478211866,-6.47544875391759e-05,0.098061554133892,0,0,0
8759,319662.78281735914,2010-12-10 05:21:46,30.014996088342915,7,29,-1.099568486213684,4.001504898071289,26.64338739016108,25.72816210447072,106.8893617288375,93.22624492231928,-0.0009713172912597,0.098061554133892,0,0,0
8760,319692.7976791483,2010-12-10 05:22:16,60.029857777237964,7,29,-1.099568486213684,3.971879959106445,26.64338739016108,25.73732947373592,106.8893617288375,93.26278266285168,-0.0006151676061563,0.098061554133892,0,0,0
8761,319722.8127194918,2010-12-10 05:22:46,90.04489814577043,7,29,-1.099568486213684,3.95132040977478,26.64338739016108,25.74649677544197,106.8893617288375,93.29909510968542,-0.0004856586456298,0.098061554133892,0,0,0
8762,319752.82789785374,2010-12-10 05:23:16,120.06007650268168,7,29,-1.099568486213684,3.935131788253784,26.64338739016108,25.75566420238267,106.8893617288375,93.33524246338216,-0.0004209041653666,0.098061554133892,0,0,0
8763,319782.84278046974,2010-12-10 05:23:46,150.07495910361556,7,29,-1.099568486213684,3.921533346176148,26.64338739016108,25.764831570852877,106.8893617288375,93.37125444835938,-0.0003561496851034,0.098061554133892,0,0,0
8764,319812.85784304346,2010-12-10 05:24:16,180.09002177264193,7,29,-1.0997490882873535,3.90906834602356,26.64338739016108,25.773998829714817,106.8893617288375,93.40714693480317,-0.0003561496851034,0.098061554133892,0,0,0
8765,319842.8728832817,2010-12-10 05:24:46,210.1050619306505,7,29,-1.0993878841400146,3.8977363109588623,26.64338739016108,25.783166066733777,106.8893617288375,93.4429296569254,-0.0002590179501567,0.098061554133892,0,0,0
8766,319872.8879573892,2010-12-10 05:25:16,240.120136048166,7,29,-1.0993878841400146,3.886889934539795,26.64338739016108,25.79233335626899,106.8893617288375,93.4786102406797,-0.0002590179501567,0.098061554133892,0,0,0
8767,319902.9031542972,2010-12-10 05:25:46,270.1353329361912,7,29,-1.0993878841400146,3.876367330551148,26.64338739016108,25.80150076133747,106.8893617288375,93.51419365483,-0.0002590179501567,0.098061554133892,0,0,0
8768,319932.9181695984,2010-12-10 05:26:16,300.150348232332,7,29,-1.099568486213684,3.86649227142334,26.64338739016108,25.81066815469377,106.8893617288375,93.54968307721649,-0.0002266406954731,0.098061554133892,0,0,0
8769,319962.9364330324,2010-12-10 05:26:46,330.1686117615759,7,29,-1.0993878841400146,3.856617212295532,26.64338739016108,25.81983654999678,106.8893617288375,93.58508639123164,-0.0002590179501567,0.098061554133892,0,0,0
8770,319992.9480683777,2010-12-10 05:27:16,360.1802471068389,7,29,-1.0993878841400146,3.847389698028565,26.64338739016108,25.829002850811708,106.8893617288375,93.62039429822288,-0.0001942634553415,0.098061554133892,0,0,0
8771,320022.96309566364,2010-12-10 05:27:46,390.1952743226413,7,29,-1.099568486213684,3.8380002975463863,26.64338739016108,25.838170151524103,106.8893617288375,93.6556207378942,-0.0002266406954731,0.098061554133892,0,0,0
8772,320052.97812581673,2010-12-10 05:28:16,420.2103045409153,7,29,-1.0997490882873535,3.828934907913208,26.64338739016108,25.847337500524805,106.8893617288375,93.69076402791764,-0.0002590179501567,0.098061554133892,0,0,0
8773,320082.99317784427,2010-12-10 05:28:46,450.2253564832486,7,29,-1.099568486213684,3.82019305229187,26.64338739016108,25.85650495350937,106.8893617288375,93.7258264260992,-0.0002590179501567,0.098061554133892,0,0,0
8774,320113.00812241447,2010-12-10 05:29:16,480.2403010734405,7,29,-1.099568486213684,3.811613082885742,26.64338739016108,25.865672317518392,106.8893617288375,93.76080875848298,-0.0002590179501567,0.098061554133892,0,0,0
8775,320143.0232281356,2010-12-10 05:29:46,510.25540688482494,7,29,-1.099568486213684,3.803356885910034,26.64338739016108,25.87483973362476,106.8893617288375,93.7957130129527,-0.0001942634553415,0.098061554133892,0,0,0
8776,320173.03831404744,2010-12-10 05:30:16,540.270492751578,7,29,-1.099568486213684,3.795100688934326,26.64338739016108,25.884007157370508,106.8893617288375,93.83054149575588,-0.0002266406954731,0.098061554133892,0,0,0
8777,320203.0535258075,2010-12-10 05:30:46,570.2857044664993,7,29,-1.099568486213684,3.786844491958618,26.64338739016108,25.89317460972686,106.8893617288375,93.86529574853895,-0.0002590179501567,0.098061554133892,0,0,0
8778,320233.0685720557,2010-12-10 05:31:16,600.3007507096506,7,29,-1.099568486213684,3.77907395362854,26.64338739016108,25.90234205783615,106.8893617288375,93.8999774445798,-0.0002266406954731,0.098061554133892,0,0,0
8779,320263.0833906123,2010-12-10 05:31:46,630.3155692662124,7,29,-1.0993878841400146,3.771627187728882,26.64338739016108,25.91150947134249,106.8893617288375,93.93458832968572,-0.0002266406954731,0.098061554133892,0,0,0
8780,320293.0984375521,2010-12-10 05:32:16,660.3306162060975,7,29,-1.099568486213684,3.7643423080444336,26.64338739016108,25.920676796526912,106.8893617288375,93.9691305464943,-0.0001942634553415,0.098061554133892,0,0,0
8781,320323.1134646677,2010-12-10 05:32:46,690.3456433066129,7,29,-1.0993878841400146,3.757057428359986,26.64338739016108,25.9298442658936,106.8893617288375,94.00360614835884,-0.0001618862152099,0.098061554133892,0,0,0
8782,320353.12861774664,2010-12-10 05:33:16,720.3607964056711,7,29,-1.099568486213684,3.749934673309326,26.64338739016108,25.939011710211823,106.8893617288375,94.03801614950828,-0.0002266406954731,0.098061554133892,0,0,0
8783,320383.1435534598,2010-12-10 05:33:47,750.3757321137598,7,29,-1.0993878841400146,3.742973566055298,26.64338739016108,25.94817908172884,106.8893617288375,94.0723613526262,-0.0001942634553415,0.098061554133892,0,0,0
8784,320413.1586937369,2010-12-10 05:34:17,780.390872441036,7,29,-1.099568486213684,3.7363362312316895,26.64338739016108,25.957346459381185,106.8893617288375,94.10664337046538,-0.0001295089750783,0.098061554133892,0,0,0
8785,320443.1738836978,2010-12-10 05:34:47,810.406062421873,7,29,-1.099568486213684,3.729375123977661,26.64338739016108,25.96651396187624,106.8893617288375,94.14086419502674,-0.0002266406954731,0.098061554133892,0,0,0
8786,320473.18881726044,2010-12-10 05:35:17,840.4209958994113,7,29,-1.099568486213684,3.722899675369263,26.64338739016108,25.97568126917449,106.8893617288375,94.17502406120396,-0.0001618862152099,0.098061554133892,0,0,0
8787,320503.2037439762,2010-12-10 05:35:47,870.435922625148,7,29,-1.0993878841400146,3.716586112976074,26.64338739016108,25.98484860391432,106.8893617288375,94.2091243063416,-0.0001618862152099,0.098061554133892,0,0,0
8788,320533.2186911929,2010-12-10 05:36:17,900.4508698468883,7,29,-1.099568486213684,3.710110664367676,26.64338739016108,25.99401595010144,106.8893617288375,94.24316610657588,-0.0001942634553415,0.098061554133892,0,0,0
8789,320563.23386373033,2010-12-10 05:36:47,930.4660423843178,7,29,-1.099568486213684,3.7041208744049072,26.64338739016108,26.00318343031331,106.8893617288375,94.27715140353058,-0.0001618862152099,0.098061554133892,0,0,0
8790,320593.2487735891,2010-12-10 05:37:17,960.480952233057,7,29,-1.099568486213684,3.6981310844421382,26.64338739016108,26.01235079819428,106.8893617288375,94.31108019223838,-0.0001618862152099,0.098061554133892,0,0,0
8791,320623.2637956471,2010-12-10 05:37:47,990.4959743010492,7,29,-1.099568486213684,3.69197940826416,26.64338739016108,26.02151823428037,106.8893617288375,94.34495376891476,-0.0001618862152099,0.098061554133892,0,0,0
8792,320653.27898387355,2010-12-10 05:38:17,1020.5111625826576,7,29,-1.0993878841400146,3.6861515045166016,26.64338739016108,26.03068572812285,106.8893617288375,94.37877226087096,-0.0001295089750783,0.098061554133892,0,0,0
8793,320683.297255157,2010-12-10 05:38:47,1050.529433916323,7,29,-1.099568486213684,3.680323600769043,26.64338739016108,26.039854125117756,106.8893617288375,94.41254079673742,-0.0001295089750783,0.098061554133892,0,0,0
8794,320713.3089882506,2010-12-10 05:39:17,1080.541166889529,7,29,-1.0997490882873535,3.674495697021485,26.64338739016108,26.049020531705835,106.8893617288375,94.44624950100156,-0.0001942634553415,0.098061554133892,0,0,0
8795,320743.32410323474,2010-12-10 05:39:47,1110.5562818737396,7,29,-1.099568486213684,3.668991804122925,26.64338739016108,26.058188013812355,106.8893617288375,94.47991044817596,-0.0001942634553415,0.098061554133892,0,0,0
8796,320773.3391324456,2010-12-10 05:40:17,1140.5713111145812,7,29,-1.099568486213684,3.663487672805786,26.64338739016108,26.067355442758387,106.8893617288375,94.51352046410192,-0.0001295089750783,0.098061554133892,0,0,0
8797,320803.3540210615,2010-12-10 05:40:47,1170.5861997004083,7,29,-1.0997490882873535,3.6578216552734375,26.64338739016108,26.076522807929216,106.8893617288375,94.547079710274,-0.0001942634553415,0.098061554133892,0,0,0
8798,320833.3690222525,2010-12-10 05:41:17,1200.601200891449,7,29,-1.099568486213684,3.652641296386719,26.64338739016108,26.08569016775217,106.8893617288375,94.58058954566744,-0.0001295089750783,0.098061554133892,0,0,0
8799,320863.38405982405,2010-12-10 05:41:47,1230.616238553246,7,29,-1.099568486213684,3.6474609375,26.64338739016108,26.09485760947728,106.8893617288375,94.61405086942464,-9.713172767078504e-05,0.098061554133892,0,0,0
8800,320893.3990535766,2010-12-10 05:42:17,1260.6312322155518,7,29,-1.099568486213684,3.6421186923980713,26.64338739016108,26.10402491636609,106.8893617288375,94.647463220202,-0.0001295089750783,0.098061554133892,0,0,0
8801,320923.4142139237,2010-12-10 05:42:47,1290.646392642846,7,29,-1.0992072820663452,3.637262105941773,26.64338739016108,26.113192324000533,106.8893617288375,94.68082901522956,-9.713172767078504e-05,0.098061554133892,0,0,0
8802,320953.41688619973,2010-12-10 05:43:17,1320.6490649589557,7,29,-1.099568486213684,3.6320817470550537,26.64338739016108,26.122355883808662,106.8893617288375,94.71413497112276,-0.0001295089750783,0.098061554133892,0,0,0
8803,320983.42867370864,2010-12-10 05:43:47,1350.6608524177473,7,29,-1.099568486213684,3.627225160598755,26.64338739016108,26.13152227284598,106.8893617288375,94.74740590440548,-0.0001295089750783,0.098061554133892,0,0,0
8804,321013.4436952052,2010-12-10 05:44:17,1380.6758739794798,7,29,-1.099568486213684,3.622368574142456,26.64338739016108,26.140689670854176,106.8893617288375,94.78063576792668,-0.0001295089750783,0.098061554133892,0,0,0
8805,321043.4587724906,2010-12-10 05:44:47,1410.6909511295414,7,29,-1.099568486213684,3.617673873901367,26.64338739016108,26.14985710383569,106.8893617288375,94.81382226368063,-0.0001295089750783,0.098061554133892,0,0,0
8806,321073.47368479543,2010-12-10 05:45:17,1440.7058634544426,7,29,-1.099568486213684,3.6129791736602783,26.64338739016108,26.15902438739509,106.8893617288375,94.84696518280862,-0.0001295089750783,0.098061554133892,0,0,0
8807,321103.4886608139,2010-12-10 05:45:47,1470.7208394527922,7,29,-1.099568486213684,3.6084463596344,26.64338739016108,26.168191734272785,106.8893617288375,94.88006604594597,-0.0001295089750783,0.098061554133892,0,0,0
8808,321133.5038315217,2010-12-10 05:46:17,1500.736010265931,7,29,-1.099568486213684,3.6040754318237305,26.64338739016108,26.17735914168394,106.8893617288375,94.91312597424592,-9.713172767078504e-05,0.098061554133892,0,0,0
8809,321163.5188888976,2010-12-10 05:46:47,1530.7510675515607,7,29,-1.0993878841400146,3.5998663902282715,26.64338739016108,26.186526504067643,106.8893617288375,94.94614574735589,-6.47544875391759e-05,0.098061554133892,0,0,0
8810,321193.5337726414,2010-12-10 05:47:17,1560.7659513003512,7,29,-1.099568486213684,3.5954954624176025,26.64338739016108,26.195693881668745,106.8893617288375,94.9791265297424,-0.0001295089750783,0.098061554133892,0,0,0
8811,321223.54878455907,2010-12-10 05:47:47,1590.7809632130727,7,29,-1.099568486213684,3.5914485454559326,26.64338739016108,26.204861301044406,106.8893617288375,95.0120695204711,-0.0001295089750783,0.098061554133892,0,0,0
8812,321253.5639686854,2010-12-10 05:48:17,1620.7961474345775,7,29,-1.0993878841400146,3.587401390075684,26.64338739016108,26.214028775811556,106.8893617288375,95.0449755715398,-0.0001295089750783,0.098061554133892,0,0,0
8813,321283.5789180123,2010-12-10 05:48:47,1650.8110966663198,7,29,-1.0997490882873535,3.5835161209106445,26.64338739016108,26.22319624637787,106.8893617288375,95.07784539892296,-9.713172767078504e-05,0.098061554133892,0,0,0
8814,321313.5939333285,2010-12-10 05:49:17,1680.8261119825104,7,29,-1.099568486213684,3.5794689655303955,26.64338739016108,26.232364381158337,106.8893617288375,95.110681708643,-0.0001295089750783,0.098061554133892,0,0,0
8815,321343.609035967,2010-12-10 05:49:47,1710.8412146109742,7,29,-1.099568486213684,3.5757455825805664,26.64338739016108,26.241532491898425,106.8893617288375,95.14348276903526,-0.0001295089750783,0.098061554133892,0,0,0
8816,321373.623980091,2010-12-10 05:50:17,1740.8561587450308,7,29,-1.099568486213684,3.5721840858459477,26.64338739016108,26.250699916865024,106.8893617288375,95.17624787597,-0.0001295089750783,0.098061554133892,0,0,0
8817,321403.6391607738,2010-12-10 05:50:47,1770.871339522967,7,29,-1.099568486213684,3.568622589111328,26.64338739016108,26.25986733952129,106.8893617288375,95.20897955146916,-9.713172767078504e-05,0.098061554133892,0,0,0
8818,321433.6542686603,2010-12-10 05:51:17,1800.8864473142785,7,29,-1.099568486213684,3.565222978591919,26.64338739016108,26.269034803263462,106.8893617288375,95.24167823506828,-6.47544875391759e-05,0.098061554133892,0,0,0
8819,321463.6690644051,2010-12-10 05:51:47,1830.9012430640864,7,29,-1.0997490882873535,3.5616614818573,26.64338739016108,26.278202174636604,106.8893617288375,95.2743445327076,-9.713172767078504e-05,0.098061554133892,0,0,0
8820,321493.68408240296,2010-12-10 05:52:17,1860.9162610318751,7,29,-1.099568486213684,3.5580999851226807,26.64338739016108,26.287369559608987,106.8893617288375,95.30697920511987,-9.713172767078504e-05,0.098061554133892,0,0,0
8821,321523.6993409143,2010-12-10 05:52:47,1890.9315196434973,7,29,-1.0997490882873535,3.5547003746032715,26.64338739016108,26.29653705425715,106.8893617288375,95.3395827972729,-6.47544875391759e-05,0.098061554133892,0,0,0
8822,321553.7142041521,2010-12-10 05:53:17,1920.9463828712217,7,29,-1.0997490882873535,3.5513007640838623,26.64338739016108,26.305704431023702,106.8893617288375,95.37215504545492,-0.0001295089750783,0.098061554133892,0,0,0
8823,321583.72925687634,2010-12-10 05:53:47,1950.961435535352,7,29,-1.099568486213684,3.548063039779663,26.64338739016108,26.314871812146546,106.8893617288375,95.40469695547895,-9.713172767078504e-05,0.098061554133892,0,0,0
8824,321613.74425612256,2010-12-10 05:54:17,1980.9764347665152,7,29,-1.099568486213684,3.544663429260254,26.64338739016108,26.32403925334265,106.8893617288375,95.43720812794407,-9.713172767078504e-05,0.098061554133892,0,0,0
8825,321643.75936611433,2010-12-10 05:54:47,2010.9915447482776,7,29,-1.099568486213684,3.5412638187408447,26.64338739016108,26.33320670568754,106.8893617288375,95.46968842913114,-9.713172767078504e-05,0.098061554133892,0,0,0
8826,321673.7742744844,2010-12-10 05:55:17,2041.0064531383864,7,29,-1.099568486213684,3.5378642082214355,26.64338739016108,26.34237414905701,106.8893617288375,95.50213809668364,-0.0001295089750783,0.098061554133892,0,0,0
8827,321703.78943204955,2010-12-10 05:55:47,2071.021610678496,7,29,-1.099568486213684,3.5346264839172363,26.64338739016108,26.35154167610731,106.8893617288375,95.53455763759868,-9.713172767078504e-05,0.098061554133892,0,0,0
8828,321733.8043274424,2010-12-10 05:56:17,2101.0365060963245,7,29,-1.099568486213684,3.531388759613037,26.64338739016108,26.36070903239113,106.8893617288375,95.56694618274568,-9.713172767078504e-05,0.098061554133892,0,0,0
8829,321763.81934567576,2010-12-10 05:56:47,2131.051524334787,7,29,-1.099568486213684,3.527989149093628,26.64338739016108,26.36987651662825,106.8893617288375,95.59930408509815,-9.713172767078504e-05,0.098061554133892,0,0,0
8830,321793.8343949014,2010-12-10 05:57:17,2161.06657354031,7,29,-1.0997490882873535,3.524427652359009,26.64338739016108,26.379043952557996,106.8893617288375,95.63163018094065,-6.47544875391759e-05,0.098061554133892,0,0,0
8831,321823.84944272845,2010-12-10 05:57:47,2191.081621367403,7,29,-1.099568486213684,3.5208661556243896,26.64338739016108,26.388211375846268,106.8893617288375,95.66392397743904,-9.713172767078504e-05,0.098061554133892,0,0,0
8832,321853.86451950256,2010-12-10 05:58:17,2221.096698141529,7,29,-1.099568486213684,3.5176284313201904,26.64338739016108,26.3973787991483,106.8893617288375,95.69618564932476,-3.237724376958795e-05,0.098061554133892,0,0,0
8833,321883.8797799388,2010-12-10 05:58:47,2251.1119586478662,7,29,-1.099568486213684,3.513743162155152,26.64338739016108,26.40654633813232,106.8893617288375,95.72841488140789,-0.0001295089750783,0.098061554133892,0,0,0
8834,321913.89783082885,2010-12-10 05:59:17,2281.130009558015,7,29,-1.099568486213684,3.5100200176239014,26.64338739016108,26.41571467306183,106.8893617288375,95.7606129611816,-0.0001295089750783,0.098061554133892,0,0,0
8835,321943.90959569643,2010-12-10 05:59:47,2311.1417743353654,7,29,-1.0993878841400146,3.5061347484588623,26.64338739016108,26.424881119434847,106.8893617288375,95.79276940051204,-9.713172767078504e-05,0.098061554133892,0,0,0
8836,321973.92460342875,2010-12-10 06:00:17,2341.1567820827213,7,29,-1.099568486213684,3.5020875930786133,26.64338739016108,26.43404857020549,106.8893617288375,95.82489307675448,-9.713172767078504e-05,0.098061554133892,0,0,0
8837,322003.9396680927,2010-12-10 06:00:47,2371.1718467316746,7,29,-1.0993878841400146,3.4978785514831543,26.64338739016108,26.44321597648306,106.8893617288375,95.85697875133351,-0.0001295089750783,0.098061554133892,0,0,0
8838,322033.9546717299,2010-12-10 06:01:17,2401.18685038384,7,29,-1.0997490882873535,3.493183851242065,26.64338739016108,26.45238339239133,106.8893617288375,95.88902439257949,-0.0001618862152099,0.098061554133892,0,0,0
8839,322063.96969301085,2010-12-10 06:01:47,2431.201871649836,7,29,-1.099568486213684,3.4886510372161865,26.64338739016108,26.461550833193204,106.8893617288375,95.92102785443689,-0.0001295089750783,0.098061554133892,0,0,0
8840,322093.9847181816,2010-12-10 06:02:17,2461.216896835587,7,29,-1.099568486213684,3.4836325645446777,26.64338739016108,26.470718290958185,106.8893617288375,95.9529868093778,-0.0001295089750783,0.098061554133892,0,0,0
8841,322123.99982844904,2010-12-10 06:02:47,2491.232007093035,7,29,-1.099568486213684,3.477966547012329,26.64338739016108,26.479885640210536,106.8893617288375,95.98489700186778,-0.0001618862152099,0.098061554133892,0,0,0
8842,322154.01484493824,2010-12-10 06:03:17,2521.247023577132,7,29,-1.0993878841400146,3.4719767570495605,26.64338739016108,26.48905301888279,106.8893617288375,96.01675418755558,-0.0001942634553415,0.098061554133892,0,0,0
8843,322184.02982527734,2010-12-10 06:03:47,2551.262003916284,7,29,-1.099568486213684,3.465015649795532,26.64338739016108,26.49822044882837,106.8893617288375,96.04855272967728,-0.0002266406954731,0.098061554133892,0,0,0
8844,322214.0449948273,2010-12-10 06:04:17,2581.277173481317,7,29,-1.099568486213684,3.457406997680664,26.64338739016108,26.50738789722539,106.8893617288375,96.08028552379464,-0.0002590179501567,0.098061554133892,0,0,0
8845,322244.060003081,2010-12-10 06:04:47,2611.292181744958,7,29,-1.0993878841400146,3.448827028274536,26.64338739016108,26.516555288504204,106.8893617288375,96.11194337059648,-0.0002590179501567,0.098061554133892,0,0,0
8846,322274.074916278,2010-12-10 06:05:17,2641.3070949169664,7,29,-1.099568486213684,3.4386281967163086,26.64338739016108,26.52572269958869,106.8893617288375,96.14351465722372,-0.0002590179501567,0.098061554133892,0,0,0
8847,322304.0900631215,2010-12-10 06:05:47,2671.3222418306327,7,29,-1.0993878841400146,3.4264869689941406,26.64338739016108,26.53489019106335,106.8893617288375,96.17498406088404,-0.0003237724304199,0.098061554133892,0,0,0
8848,322334.1050836908,2010-12-10 06:06:18,2701.3372623347327,7,29,-1.099568486213684,3.411755323410034,26.64338739016108,26.544057665216027,106.8893617288375,96.20633107341808,-0.0004532813909463,0.098061554133892,0,0,0
8849,322364.1200932827,2010-12-10 06:06:48,2731.3522719216667,7,29,-1.099568486213684,3.3937859535217285,26.64338739016108,26.55322518405487,106.8893617288375,96.23752927443724,-0.0005504131549969,0.098061554133892,0,0,0
8850,322394.1352996293,2010-12-10 06:07:18,2761.367478278254,7,29,-1.099568486213684,3.370959997177124,26.64338739016108,26.56239274455221,106.8893617288375,96.26854246015026,-0.0007122993702068,0.098061554133892,0,0,0
8851,322424.15033547656,2010-12-10 06:07:48,2791.382514185685,7,29,-1.099568486213684,3.3416588306427,26.64338739016108,26.57156020437837,106.8893617288375,96.29931849795088,-0.0009065627818927,0.098061554133892,0,0,0
8852,322454.16527701414,2010-12-10 06:08:18,2821.397455748343,7,29,-1.0997490882873535,3.3028061389923096,26.64338739016108,26.580727667595397,106.8893617288375,96.32978462475432,-0.0011979580158367,0.098061554133892,0,0,0
8853,322484.18012987106,2010-12-10 06:08:48,2851.412308510023,7,29,-1.099568486213684,3.250679016113281,26.64338739016108,26.5898950679522,106.8893617288375,96.35983697584368,-0.0016188621520996,0.098061554133892,0,0,0
8854,322514.1951752321,2010-12-10 06:09:18,2881.427353870979,7,29,-1.0992072820663452,3.178963661193848,26.64338739016108,26.59906256171563,106.8893617288375,96.38932761807276,-0.0021692751906812,0.098061554133892,0,0,0
8855,322544.2103703507,2010-12-10 06:09:48,2911.4425490597755,7,29,-1.099568486213684,3.074547290802002,26.64338739016108,26.60823013321174,106.8893617288375,96.41802391579172,-0.0033024786971509,0.098061554133892,0,0,0
8856,322574.2252170272,2010-12-10 06:10:18,2941.457395681176,7,29,-1.099568486213684,2.900358200073242,26.64338739016108,26.61739760133571,106.8893617288375,96.44549420726196,-0.006022167392075,0.098061554133892,0,0,0
8857,322595.89683626813,2010-12-10 06:10:39,2963.1290149772703,7,29,-1.0993878841400146,2.700267553329468,26.64338739016108,26.624016777307503,106.8893617288375,96.4640611709897,-0.0080618858337402,0.098061554133892,0,0,0
8858,322595.9280654107,2010-12-10 06:10:39,2963.1602441197906,7,29,-1.099568486213684,2.699943780899048,26.64338739016108,26.624026314630377,106.8893617288375,96.46408692353548,-0.0080618858337402,0.098061554133892,0,0,0
8859,322655.9495534837,2010-12-10 06:11:39,60.01456737766673,8,29,0.0,3.4190402030944824,26.64338739016108,26.624026314630377,106.8893617288375,96.46408692353548,0.0012950897216796,0.098061554133892,0,0,0
8860,322656.1484569842,2010-12-10 06:11:40,0.190796840599492,9,29,-1.9243103452026844e-05,3.4190402030944824,26.64338739016108,26.624026315650244,106.8893617288375,96.46408692702244,0.0,0.0956302732229232,0,0,0
8861,322660.97320077854,2010-12-10 06:11:45,5.015540614914808,9,29,0.0008838032954372,3.4271345138549805,26.643388425444652,26.624026315715888,106.88936527355742,96.46408692724688,0.0011008263099938,0.0956302732229232,0,0,0
