Data_Point,Test_Time(s),Date_Time,Step_Time(s),Step_Index,Cycle_Index,Current(A),Voltage(V),Charge_Capacity(Ah),Discharge_Capacity(Ah),Charge_Energy(Wh),Discharge_Energy(Wh),dV/dt(V/s),Internal_Resistance(Ohm),Is_FC_Data,AC_Impedance(Ohm),ACI_Phase_Angle(Deg)
4010,145274.77300808334,2010-12-08 04:54:58,30.01512666828608,1,14,0.0,3.4175832271575928,12.049717826258428,12.04837321793141,48.32307182576951,43.69701867271768,0.0007770538213662,0.0932833403348922,0,0,0
4011,145304.78805912848,2010-12-08 04:55:28,60.0301776532371,1,14,0.0,3.441704034805298,12.049717826258428,12.04837321793141,48.32307182576951,43.69701867271768,0.0005504131549969,0.0932833403348922,0,0,0
4012,145334.80320999192,2010-12-08 04:55:58,90.04532861698148,1,14,0.0,3.459835290908813,12.049717826258428,12.04837321793141,48.32307182576951,43.69701867271768,0.0003885269106831,0.0932833403348922,0,0,0
4013,145364.77134879777,2010-12-08 04:56:28,120.0134673125046,1,14,0.0,3.47472882270813,12.049717826258428,12.04837321793141,48.32307182576951,43.69701867271768,0.0003885269106831,0.0932833403348922,0,0,0
4014,145394.7870021165,2010-12-08 04:56:58,30.015150292072967,2,14,0.5501165986061096,3.631110429763794,12.05430448854456,12.04837321793141,48.33957374555282,43.69701867271768,0.0014893531333655,0.0932833403348922,0,0,0
4015,145424.80193728325,2010-12-08 04:57:28,60.03008552397698,2,14,0.5501165986061096,3.674171924591065,12.058891135692576,12.04837321793141,48.356333775554674,43.69701867271768,0.0009388923645019,0.0932833403348922,0,0,0
4016,145454.81700236327,2010-12-08 04:57:58,90.04515053884089,2,14,0.5501165986061096,3.705254077911377,12.063477717386098,12.04837321793141,48.37326050255333,43.69701867271768,0.0007446765666827,0.0932833403348922,0,0,0
4017,145484.83206501725,2010-12-08 04:58:28,120.0602132028548,2,14,0.5501165986061096,3.729213237762451,12.068064333066191,12.04837321793141,48.39031239375026,43.69701867271768,0.0005827903514727,0.0932833403348922,0,0,0
4018,145514.8471329644,2010-12-08 04:58:58,150.07528112996573,2,14,0.5501165986061096,3.748477697372437,12.07265093048174,12.04837321793141,48.40746245345932,43.69701867271768,0.0004532813909463,0.0932833403348922,0,0,0
4019,145544.8623383185,2010-12-08 04:59:28,180.0904864840584,2,14,0.5497553944587708,3.762399673461914,12.077237557087198,12.04837321793141,48.42468900208839,43.69701867271768,0.0002913951757363,0.0932833403348922,0,0,0
4020,145574.87784158395,2010-12-08 04:59:58,210.1059897545045,2,14,0.5501165986061096,3.7719509601593018,12.08182429078234,12.04837321793141,48.441970165759166,43.69701867271768,0.0002266406954731,0.0932833403348922,0,0,0
4021,145604.89237161752,2010-12-08 05:00:28,240.1205198081379,2,14,0.5501165986061096,3.77875018119812,12.08641076030896,12.04837321793141,48.459286826349526,43.69701867271768,0.0001618862152099,0.0932833403348922,0,0,0
4022,145634.90756060087,2010-12-08 05:00:58,270.1357087664303,2,14,0.5501165986061096,3.784092426300049,12.09099735023928,12.04837321793141,48.4766308581491,43.69701867271768,0.0001295089750783,0.0932833403348922,0,0,0
4023,145664.92254425326,2010-12-08 05:01:28,300.1506924438892,2,14,0.5501165986061096,3.788949012756348,12.095583917056592,12.04837321793141,48.49399804658943,43.69701867271768,0.0001295089750783,0.0932833403348922,0,0,0
4024,145694.93769298145,2010-12-08 05:01:58,330.1658411520206,2,14,0.5501165986061096,3.7934818267822266,12.100170411754297,12.04837321793141,48.51138634844151,43.69701867271768,9.713172767078504e-05,0.0932833403348922,0,0,0
4025,145724.9526585739,2010-12-08 05:02:28,360.1808068347001,2,14,0.5501165986061096,3.7976908683776855,12.104756869389725,12.04837321793141,48.52879478936828,43.69701867271768,9.713172767078504e-05,0.0932833403348922,0,0,0
4026,145754.96775211475,2010-12-08 05:02:58,390.19590028031286,2,14,0.5501165986061096,3.801899909973145,12.109343396071043,12.04837321793141,48.54622307560869,43.69701867271768,9.713172767078504e-05,0.0932833403348922,0,0,0
4027,145784.98283562064,2010-12-08 05:03:28,420.21098378619104,2,14,0.5499359965324402,3.8059470653533936,12.113929887866012,12.04837321793141,48.563670192935966,43.69701867271768,9.713172767078504e-05,0.0932833403348922,0,0,0
4028,145814.9980194662,2010-12-08 05:03:58,450.2261676317606,2,14,0.5499359965324402,3.8099942207336426,12.118516410609054,12.04837321793141,48.58113584112392,43.69701867271768,9.713172767078504e-05,0.0932833403348922,0,0,0
4029,145845.01296145492,2010-12-08 05:04:28,480.2411096254912,2,14,0.5501165986061096,3.8138794898986816,12.123102989188226,12.04837321793141,48.59861971846696,43.69701867271768,9.713172767078504e-05,0.0932833403348922,0,0,0
4030,145875.02804724648,2010-12-08 05:04:58,510.2561954320945,2,14,0.5499359965324402,3.817602872848511,12.127689537451234,12.04837321793141,48.6161211762138,43.69701867271768,6.47544875391759e-05,0.0932833403348922,0,0,0
4031,145905.04310586042,2010-12-08 05:05:28,540.27125402598,2,14,0.5501165986061096,3.82132625579834,12.13227598402011,12.04837321793141,48.63363939098414,43.69701867271768,9.713172767078504e-05,0.0932833403348922,0,0,0
4032,145935.058388156,2010-12-08 05:05:58,570.2865364268006,2,14,0.550297200679779,3.825049638748169,12.13686248719582,12.04837321793141,48.651174806120615,43.69701867271768,9.713172767078504e-05,0.0932833403348922,0,0,0
4033,145965.07322881755,2010-12-08 05:06:28,600.3013770733324,2,14,0.550297200679779,3.828773021697998,12.141448961512934,12.04837321793141,48.66872714706587,43.69701867271768,9.713172767078504e-05,0.0932833403348922,0,0,0
4034,145995.0883307994,2010-12-08 05:06:58,630.3164789749877,2,14,0.5501165986061096,3.832658290863037,12.146035487041637,12.04837321793141,48.68629678983455,43.69701867271768,0.0001295089750783,0.0932833403348922,0,0,0
4035,146025.1033608623,2010-12-08 05:07:28,660.3315090278501,2,14,0.550297200679779,3.836381435394287,12.150621914972051,12.04837321793141,48.70388304363135,43.69701867271768,9.713172767078504e-05,0.0932833403348922,0,0,0
4036,146055.11841574695,2010-12-08 05:07:58,690.3465639125054,2,14,0.5501165986061096,3.840104818344116,12.155208386652738,12.04837321793141,48.72148679473986,43.69701867271768,0.0001295089750783,0.0932833403348922,0,0,0
4037,146085.13351240553,2010-12-08 05:08:28,720.3616606011883,2,14,0.5499359965324402,3.843828201293945,12.15979486942434,12.04837321793141,48.73910792638623,43.69701867271768,9.713172767078504e-05,0.0932833403348922,0,0,0
4038,146115.14853841835,2010-12-08 05:08:58,750.3766866039722,2,14,0.5501165986061096,3.847713470458984,12.164381323145417,12.04837321793141,48.75674636460468,43.69701867271768,6.47544875391759e-05,0.0932833403348922,0,0,0
4039,146145.1636025711,2010-12-08 05:09:28,780.3917507617032,2,14,0.5499359965324402,3.851274967193604,12.16896781401984,12.04837321793141,48.7744022726352,43.69701867271768,3.237724376958795e-05,0.0932833403348922,0,0,0
4040,146175.17867088417,2010-12-08 05:09:58,810.4068190497121,2,14,0.5501165986061096,3.8551602363586426,12.17355436067368,12.04837321793141,48.79207561626912,43.69701867271768,6.47544875391759e-05,0.0932833403348922,0,0,0
4041,146205.1939221074,2010-12-08 05:10:28,840.4220703431231,2,14,0.5501165986061096,3.858883619308472,12.178140823109862,12.04837321793141,48.80976567767298,43.69701867271768,9.713172767078504e-05,0.0932833403348922,0,0,0
4042,146235.20899629005,2010-12-08 05:10:58,870.437144455626,2,14,0.5501165986061096,3.862445116043091,12.182727294402977,12.04837321793141,48.82747252886946,43.69701867271768,9.713172767078504e-05,0.0932833403348922,0,0,0
4043,146265.2238253678,2010-12-08 05:11:28,900.451973558432,2,14,0.5499359965324402,3.86600661277771,12.187313716396693,12.04837321793141,48.84519563249752,43.69701867271768,0.0001295089750783,0.0932833403348922,0,0,0
4044,146295.2388908188,2010-12-08 05:11:58,930.4670389893312,2,14,0.5501165986061096,3.869406223297119,12.191900162714164,12.04837321793141,48.862934891728734,43.69701867271768,9.713172767078504e-05,0.0932833403348922,0,0,0
4045,146325.25392000447,2010-12-08 05:12:28,960.4820681750356,2,14,0.5501165986061096,3.8726439476013184,12.196486617203252,12.04837321793141,48.88068971487763,43.69701867271768,6.47544875391759e-05,0.0932833403348922,0,0,0
4046,146355.26898100434,2010-12-08 05:12:58,990.497129169896,2,14,0.5499359965324402,3.876043558120728,12.201073097422729,12.04837321793141,48.89845961803083,43.69701867271768,9.713172767078504e-05,0.0932833403348922,0,0,0
4047,146385.28419640844,2010-12-08 05:13:28,1020.5123445840226,2,14,0.5499359965324402,3.878957509994507,12.20565957449705,12.04837321793141,48.9162439515656,43.69701867271768,3.237724376958795e-05,0.0932833403348922,0,0,0
4048,146415.29910123968,2010-12-08 05:13:58,1050.5272495105128,2,14,0.5501165986061096,3.882033348083496,12.210246072953476,12.04837321793141,48.93404218821771,43.69701867271768,9.713172767078504e-05,0.0932833403348922,0,0,0
4049,146445.31414354304,2010-12-08 05:14:28,1080.5422917136102,2,14,0.550297200679779,3.8847854137420654,12.214832567325722,12.04837321793141,48.95185355335062,43.69701867271768,6.47544875391759e-05,0.0932833403348922,0,0,0
4050,146475.32918646795,2010-12-08 05:14:58,1110.5573346334918,2,14,0.5501165986061096,3.887375593185425,12.219419114677745,12.04837321793141,48.969677542036685,43.69701867271768,6.47544875391759e-05,0.0932833403348922,0,0,0
4051,146505.34427457026,2010-12-08 05:15:28,1140.572422755858,2,14,0.5501165986061096,3.889965772628784,12.22400563263108,12.04837321793141,48.98751316578863,43.69701867271768,6.47544875391759e-05,0.0932833403348922,0,0,0
4052,146535.359290909,2010-12-08 05:15:58,1170.5874390745432,2,14,0.5501165986061096,3.8923940658569336,12.22859221899726,12.04837321793141,49.00536015307044,43.69701867271768,6.47544875391759e-05,0.0932833403348922,0,0,0
4053,146565.37434098666,2010-12-08 05:16:28,1200.602489157249,2,14,0.5501165986061096,3.894660472869873,12.233178801544076,12.04837321793141,49.0232175959017,43.69701867271768,9.713172767078504e-05,0.0932833403348922,0,0,0
4054,146595.39169383972,2010-12-08 05:16:58,1230.6198421055471,2,14,0.5499359965324402,3.896441221237183,12.237765649851138,12.04837321793141,49.04108543446299,43.69701867271768,3.237724376958795e-05,0.0932833403348922,0,0,0
4055,146625.4044776128,2010-12-08 05:17:28,1260.6326257783794,2,14,0.5501165986061096,3.898545742034912,12.24235177798661,12.04837321793141,49.058959824424434,43.69701867271768,6.47544875391759e-05,0.0932833403348922,0,0,0
4056,146655.4194997961,2010-12-08 05:17:58,1290.6476479616583,2,14,0.5501165986061096,3.9003264904022217,12.24693826709004,12.04837321793141,49.0768444867659,43.69701867271768,3.237724376958795e-05,0.0932833403348922,0,0,0
4057,146685.43455640005,2010-12-08 05:18:28,1320.662704565592,2,14,0.5501165986061096,3.9021072387695312,12.251524798084818,12.04837321793141,49.09473783099303,43.69701867271768,6.47544875391759e-05,0.0932833403348922,0,0,0
4058,146715.4496110942,2010-12-08 05:18:58,1350.6777592848357,2,14,0.5501165986061096,3.903887987136841,12.2561112632424,12.04837321793141,49.112639091680926,43.69701867271768,6.47544875391759e-05,0.0932833403348922,0,0,0
4059,146745.4646501144,2010-12-08 05:19:29,1380.6927982799505,2,14,0.5499359965324402,3.9056687355041504,12.260697862221566,12.04837321793141,49.13054882006029,43.69701867271768,9.713172767078504e-05,0.0932833403348922,0,0,0
4060,146775.47982723822,2010-12-08 05:19:59,1410.7079754689555,2,14,0.5501165986061096,3.90728759765625,12.265284357250106,12.04837321793141,49.14846589156251,43.69701867271768,3.237724376958795e-05,0.0932833403348922,0,0,0
4061,146805.4947325958,2010-12-08 05:20:29,1440.7228807713811,2,14,0.5499359965324402,3.9089064598083496,12.26987085983105,12.04837321793141,49.166390646583,43.69701867271768,3.237724376958795e-05,0.0932833403348922,0,0,0
4062,146835.50988874244,2010-12-08 05:20:59,1470.7380369982225,2,14,0.5497553944587708,3.9103634357452393,12.274457412963988,12.04837321793141,49.18432313851376,43.69701867271768,0.0,0.0932833403348922,0,0,0
4063,146865.52484279117,2010-12-08 05:21:29,1500.752990956727,2,14,0.5501165986061096,3.912144184112549,12.279043914108971,12.04837321793141,49.20226284254378,43.69701867271768,0.0,0.0932833403348922,0,0,0
4064,146895.5398735658,2010-12-08 05:21:59,1530.7680217313855,2,14,0.5501165986061096,3.913762807846069,12.283630476069812,12.04837321793141,49.22021020485128,43.69701867271768,0.0,0.0932833403348922,0,0,0
4065,146925.55507446383,2010-12-08 05:22:29,1560.7832226544515,2,14,0.5499359965324402,3.915381669998169,12.288216978962913,12.04837321793141,49.23816472513018,43.69701867271768,3.237724376958795e-05,0.0932833403348922,0,0,0
4066,146955.56996321006,2010-12-08 05:22:59,1590.7981113756157,2,14,0.5501165986061096,3.9171624183654794,12.29280336361414,12.04837321793141,49.25612607719584,43.69701867271768,6.47544875391759e-05,0.0932833403348922,0,0,0
4067,146985.5850237187,2010-12-08 05:23:29,1620.813171884266,2,14,0.5501165986061096,3.918619394302368,12.29738964310464,12.04837321793141,49.274094465994565,43.69701867271768,3.237724376958795e-05,0.0932833403348922,0,0,0
4068,147015.60005580663,2010-12-08 05:23:59,1650.8282039721923,2,14,0.5501165986061096,3.920076370239258,12.30197591504188,12.04837321793141,49.29207020391264,43.69701867271768,0.0,0.0932833403348922,0,0,0
4069,147045.61511580402,2010-12-08 05:24:29,1680.8432639695704,2,14,0.5501165986061096,3.921857118606568,12.306562273763507,12.04837321793141,49.31005360153418,43.69701867271768,6.47544875391759e-05,0.0932833403348922,0,0,0
4070,147075.6301658366,2010-12-08 05:24:59,1710.858314007164,2,14,0.5501165986061096,3.923475980758667,12.311148689122644,12.04837321793141,49.32804447580402,43.69701867271768,6.47544875391759e-05,0.0932833403348922,0,0,0
4071,147105.64765587103,2010-12-08 05:25:29,1740.875804126808,2,14,0.5499359965324402,3.9249329566955566,12.315735543444966,12.04837321793141,49.3460443035719,43.69701867271768,0.0,0.0932833403348922,0,0,0
4072,147135.66030893385,2010-12-08 05:25:59,1770.8884572196966,2,14,0.5501165986061096,3.926713705062866,12.320321622458597,12.04837321793141,49.36404836843579,43.69701867271768,6.47544875391759e-05,0.0932833403348922,0,0,0
4073,147165.67531019004,2010-12-08 05:26:29,1800.9034583656253,2,14,0.5501165986061096,3.928332567214966,12.324908109110712,12.04837321793141,49.38206140465,43.69701867271768,6.47544875391759e-05,0.0932833403348922,0,0,0
4074,147195.6903297518,2010-12-08 05:26:59,1830.9184779424183,2,14,0.5501165986061096,3.9299514293670654,12.329494588430768,12.04837321793141,49.40008174370494,43.69701867271768,6.47544875391759e-05,0.0932833403348922,0,0,0
4075,147225.70539274163,2010-12-08 05:27:29,1860.933541002417,2,14,0.5501165986061096,3.931408405303955,12.33408113319833,12.04837321793141,49.41810978022004,43.69701867271768,6.47544875391759e-05,0.0932833403348922,0,0,0
4076,147255.7204253057,2010-12-08 05:27:59,1890.9485734763043,2,14,0.5501165986061096,3.933027267456055,12.338667647005863,12.04837321793141,49.43614510082537,43.69701867271768,3.237724376958795e-05,0.0932833403348922,0,0,0
4077,147285.73547172433,2010-12-08 05:28:29,1920.963619894892,2,14,0.5499359965324402,3.9346461296081534,12.343254146543588,12.04837321793141,49.454187798039385,43.69701867271768,3.237724376958795e-05,0.0932833403348922,0,0,0
4078,147315.75050862422,2010-12-08 05:28:59,1950.9786567897809,2,14,0.550297200679779,3.936264991760254,12.347840649866434,12.04837321793141,49.47223800650952,43.69701867271768,3.237724376958795e-05,0.0932833403348922,0,0,0
4079,147345.765582451,2010-12-08 05:29:29,1980.9937306165727,2,14,0.5499359965324402,3.9378838539123535,12.352427151152192,12.04837321793141,49.4902955606299,43.69701867271768,3.237724376958795e-05,0.0932833403348922,0,0,0
4080,147375.780623396,2010-12-08 05:29:59,2011.008771566552,2,14,0.5501165986061096,3.939664602279663,12.357013678793203,12.04837321793141,49.50836080210941,43.69701867271768,9.713172767078504e-05,0.0932833403348922,0,0,0
4081,147405.79577417928,2010-12-08 05:30:29,2041.023922349848,2,14,0.5499359965324402,3.9412834644317623,12.361600095421792,12.04837321793141,49.52643315246288,43.69701867271768,6.47544875391759e-05,0.0932833403348922,0,0,0
4082,147435.81069079987,2010-12-08 05:30:59,2071.038838970438,2,14,0.5499359965324402,3.9429023265838623,12.36618654318843,12.04837321793141,49.5445131337251,43.69701867271768,3.237724376958795e-05,0.0932833403348922,0,0,0
4083,147465.82587046505,2010-12-08 05:31:29,2101.054018630592,2,14,0.5501165986061096,3.944521188735962,12.37077308250882,12.04837321793141,49.56260108418613,43.69701867271768,0.0,0.0932833403348922,0,0,0
4084,147495.8407855869,2010-12-08 05:31:59,2131.068933757466,2,14,0.5501165986061096,3.9461400508880615,12.375359597602406,12.04837321793141,49.580696566113005,43.69701867271768,0.0,0.0932833403348922,0,0,0
4085,147525.85589061133,2010-12-08 05:32:29,2161.084038867104,2,14,0.5499359965324402,3.947758913040161,12.37994608333171,12.04837321793141,49.59879944295545,43.69701867271768,6.47544875391759e-05,0.0932833403348922,0,0,0
4086,147555.87100617198,2010-12-08 05:32:59,2191.099154367599,2,14,0.5501165986061096,3.949539661407471,12.38453260035198,12.04837321793141,49.61691011842247,43.69701867271768,3.237724376958795e-05,0.0932833403348922,0,0,0
4087,147585.885927389,2010-12-08 05:33:29,2221.114075559565,2,14,0.550297200679779,3.95132040977478,12.389119030773289,12.04837321793141,49.63502818593562,43.69701867271768,6.47544875391759e-05,0.0932833403348922,0,0,0
4088,147615.90095371258,2010-12-08 05:33:59,2251.129101883148,2,14,0.550297200679779,3.95293927192688,12.393705473722983,12.04837321793141,49.65315393848656,43.69701867271768,3.237724376958795e-05,0.0932833403348922,0,0,0
4089,147645.91604750906,2010-12-08 05:34:29,2281.144195764846,2,14,0.550297200679779,3.9543962478637695,12.398291949645223,12.04837321793141,49.67128761775758,43.69701867271768,3.237724376958795e-05,0.0932833403348922,0,0,0
4090,147675.93104432922,2010-12-08 05:34:59,2311.1591924947847,2,14,0.5501165986061096,3.956338882446289,12.402878404399006,12.04837321793141,49.68942899499067,43.69701867271768,6.47544875391759e-05,0.0932833403348922,0,0,0
4091,147705.9460920962,2010-12-08 05:35:29,2341.174240286791,2,14,0.5499359965324402,3.9579577445983887,12.407464867469931,12.04837321793141,49.70757813029396,43.69701867271768,3.237724376958795e-05,0.0932833403348922,0,0,0
4092,147735.96134340964,2010-12-08 05:35:59,2371.189491585214,2,14,0.5501165986061096,3.959576606750488,12.412051347459604,12.04837321793141,49.72573516867206,43.69701867271768,0.0,0.0932833403348922,0,0,0
4093,147765.97617379064,2010-12-08 05:36:29,2401.204321991263,2,14,0.5501165986061096,3.961357355117798,12.416637779968102,12.04837321793141,49.74389990277615,43.69701867271768,3.237724376958795e-05,0.0932833403348922,0,0,0
4094,147795.9911727511,2010-12-08 05:36:59,2431.219320921678,2,14,0.5501165986061096,3.9631381034851074,12.421224277435812,12.04837321793141,49.762072809146765,43.69701867271768,6.47544875391759e-05,0.0932833403348922,0,0,0
4095,147826.0064342449,2010-12-08 05:37:29,2461.234582505697,2,14,0.5501165986061096,3.964918851852417,12.425810730065026,12.04837321793141,49.78025345378006,43.69701867271768,3.237724376958795e-05,0.0932833403348922,0,0,0
4096,147856.0214791397,2010-12-08 05:37:59,2491.249627405505,2,14,0.5499359965324402,3.9665377140045166,12.430397223045096,12.04837321793141,49.7984422970622,43.69701867271768,0.0,0.0932833403348922,0,0,0
4097,147886.03634966057,2010-12-08 05:38:29,2521.264497891291,2,14,0.5501165986061096,3.968480348587036,12.43498373807142,12.04837321793141,49.81663925954889,43.69701867271768,6.47544875391759e-05,0.0932833403348922,0,0,0
4098,147916.05136980378,2010-12-08 05:38:59,2551.279517969331,2,14,0.5499359965324402,3.9702610969543457,12.439570148172406,12.04837321793141,49.83484395779946,43.69701867271768,3.237724376958795e-05,0.0932833403348922,0,0,0
4099,147946.0664876,2010-12-08 05:39:29,2581.2946357755645,2,14,0.5499359965324402,3.971879959106445,12.444156658161322,12.04837321793141,49.85305726473951,43.69701867271768,0.0,0.0932833403348922,0,0,0
4100,147976.08154647957,2010-12-08 05:39:59,2611.3096946501487,2,14,0.5501165986061096,3.973660707473755,12.448743086110431,12.04837321793141,49.87127847550968,43.69701867271768,3.237724376958795e-05,0.0932833403348922,0,0,0
4101,148006.09656315917,2010-12-08 05:40:29,2641.32471132472,2,14,0.5501165986061096,3.9756033420562735,12.453329566182571,12.04837321793141,49.88950822929653,43.69701867271768,6.47544875391759e-05,0.0932833403348922,0,0,0
4102,148036.1116213721,2010-12-08 05:40:59,2671.339769557707,2,14,0.5501165986061096,3.977384090423584,12.457916130134787,12.04837321793141,49.90774676048213,43.69701867271768,3.237724376958795e-05,0.0932833403348922,0,0,0
4103,148066.1266751891,2010-12-08 05:41:29,2701.354823379718,2,14,0.5501165986061096,3.9791648387908936,12.462502649026783,12.04837321793141,49.92599303690107,43.69701867271768,3.237724376958795e-05,0.0932833403348922,0,0,0
4104,148096.1416860843,2010-12-08 05:41:59,2731.369834259869,2,14,0.5499359965324402,3.981107473373413,12.467089057419791,12.04837321793141,49.944247899565845,43.69701867271768,3.237724376958795e-05,0.0932833403348922,0,0,0
4105,148126.15699339207,2010-12-08 05:42:29,2761.3851416478697,2,14,0.5499359965324402,3.982888221740722,12.471675438767942,12.04837321793141,49.96251127579442,43.69701867271768,6.47544875391759e-05,0.0932833403348922,0,0,0
4106,148156.17190732097,2010-12-08 05:42:59,2791.400055496563,2,14,0.5501165986061096,3.984992742538452,12.476261814554414,12.04837321793141,49.98078321879101,43.69701867271768,6.47544875391759e-05,0.0932833403348922,0,0,0
4107,148186.1869123616,2010-12-08 05:43:29,2821.41506063242,2,14,0.5501165986061096,3.9867734909057617,12.480848211890269,12.04837321793141,49.99906398886766,43.69701867271768,6.47544875391759e-05,0.0932833403348922,0,0,0
4108,148216.20186544795,2010-12-08 05:43:59,2851.4300136185047,2,14,0.5501165986061096,3.988716125488281,12.485434671295552,12.04837321793141,50.01735379354171,43.69701867271768,9.713172767078504e-05,0.0932833403348922,0,0,0
4109,148246.2168963529,2010-12-08 05:44:29,2881.4450445285,2,14,0.5499359965324402,3.990658760070801,12.49002106276356,12.04837321793141,50.03565220888924,43.69701867271768,6.47544875391759e-05,0.0932833403348922,0,0,0
4110,148276.23194268628,2010-12-08 05:44:59,2911.4600908518505,2,14,0.5499359965324402,3.99260139465332,12.494607499364951,12.04837321793141,50.05395977005921,43.69701867271768,3.237724376958795e-05,0.0932833403348922,0,0,0
4111,148306.24698948083,2010-12-08 05:45:29,2941.4751376463737,2,14,0.5501165986061096,3.994705677032471,12.49919390718856,12.04837321793141,50.07227626943735,43.69701867271768,9.713172767078504e-05,0.0932833403348922,0,0,0
4112,148336.26201936827,2010-12-08 05:45:59,2971.4901675338247,2,14,0.5499359965324402,3.99648642539978,12.503780372542208,12.04837321793141,50.09060223768753,43.69701867271768,0.0,0.0932833403348922,0,0,0
4113,148366.2770831751,2010-12-08 05:46:29,3001.505231410857,2,14,0.5501165986061096,3.99875283241272,12.508366877214996,12.04837321793141,50.10893766323751,43.69701867271768,6.47544875391759e-05,0.0932833403348922,0,0,0
4114,148396.29213719766,2010-12-08 05:46:59,3031.520285383242,2,14,0.5501165986061096,4.000857353210449,12.51295324619936,12.04837321793141,50.127281868507794,43.69701867271768,6.47544875391759e-05,0.0932833403348922,0,0,0
4115,148426.3071605889,2010-12-08 05:47:29,3061.53530875949,2,14,0.5501165986061096,4.002962112426758,12.517539614466424,12.04837321793141,50.14563565956822,43.69701867271768,6.47544875391759e-05,0.0932833403348922,0,0,0
4116,148456.32218559925,2010-12-08 05:47:59,3091.5503337647915,2,14,0.550297200679779,4.005066394805908,12.522126045968214,12.04837321793141,50.16399931428273,43.69701867271768,6.47544875391759e-05,0.0932833403348922,0,0,0
4117,148486.33722483995,2010-12-08 05:48:29,3121.565373005518,2,14,0.550297200679779,4.007171154022217,12.526712431935112,12.04837321793141,50.18237243172276,43.69701867271768,6.47544875391759e-05,0.0932833403348922,0,0,0
4118,148516.35454143782,2010-12-08 05:48:59,3151.5826897036086,2,14,0.5501165986061096,4.009275436401367,12.531299204871834,12.04837321793141,50.20075691240406,43.69701867271768,3.23295607813634e-05,0.0932833403348922,0,0,0
4119,148546.3673300429,2010-12-08 05:49:29,3181.595478208465,2,14,0.5499359965324402,4.011380195617676,12.535885312461394,12.04837321793141,50.2191487304417,43.69701867271768,6.47544875391759e-05,0.0932833403348922,0,0,0
4120,148576.3823475997,2010-12-08 05:49:59,3211.610495790293,2,14,0.5501165986061096,4.013646602630615,12.540471675392896,12.04837321793141,50.23755170400363,43.69701867271768,3.24249267578125e-05,0.0932833403348922,0,0,0
4121,148606.39743286994,2010-12-08 05:50:29,3241.6255810405123,2,14,0.5501165986061096,4.015913009643555,12.54505805481936,12.04837321793141,50.25596491972922,43.69701867271768,6.47544875391759e-05,0.0932833403348922,0,0,0
4122,148636.41243319382,2010-12-08 05:50:59,3271.6405813944702,2,14,0.5501165986061096,4.018179416656494,12.549644402182992,12.04837321793141,50.274388347364926,43.69701867271768,9.71794142969884e-05,0.0932833403348922,0,0,0
4123,148666.427485462,2010-12-08 05:51:30,3301.65563363254,2,14,0.5499359965324402,4.0202836990356445,12.55423085523497,12.04837321793141,50.29282258502492,43.69701867271768,3.23295607813634e-05,0.0932833403348922,0,0,0
4124,148696.44263643574,2010-12-08 05:52:00,3331.670784671471,2,14,0.5501165986061096,4.022712230682373,12.558817321273674,12.04837321793141,50.31126745875418,43.69701867271768,3.24249267578125e-05,0.0932833403348922,0,0,0
4125,148726.4575511115,2010-12-08 05:52:30,3361.685699282059,2,14,0.5499359965324402,4.025140285491943,12.563403774725824,12.04837321793141,50.32972294848144,43.69701867271768,6.47544875391759e-05,0.0932833403348922,0,0,0
4126,148756.47260140974,2010-12-08 05:53:00,3391.7007495752896,2,14,0.5501165986061096,4.027568817138672,12.567990121931864,12.04837321793141,50.34818878009043,43.69701867271768,6.47544875391759e-05,0.0932833403348922,0,0,0
4127,148786.48764579828,2010-12-08 05:53:30,3421.7157939688377,2,14,0.550297200679779,4.029835224151611,12.572576540269,12.04837321793141,50.36666580115091,43.69701867271768,6.47544875391759e-05,0.0932833403348922,0,0,0
4128,148816.50268677837,2010-12-08 05:54:00,3451.7308349639293,2,14,0.5501165986061096,4.032101631164551,12.577162926671551,12.04837321793141,50.38515365564121,43.69701867271768,0.0,0.0932833403348922,0,0,0
4129,148846.51783620825,2010-12-08 05:54:30,3481.745984373807,2,14,0.5501165986061096,4.034691333770752,12.581749372750776,12.04837321793141,50.4036528404268,43.69701867271768,9.70840483205393e-05,0.0932833403348922,0,0,0
4130,148876.53275372606,2010-12-08 05:55:00,3511.760901896643,2,14,0.5501165986061096,4.0371198654174805,12.586335735669865,12.04837321793141,50.42216287629666,43.69701867271768,3.24249267578125e-05,0.0932833403348922,0,0,0
4131,148906.54793951148,2010-12-08 05:55:30,3541.7760877020896,2,14,0.5499359965324402,4.039547920227051,12.590922172588732,12.04837321793141,50.4406845237909,43.69701867271768,6.47544875391759e-05,0.0932833403348922,0,0,0
4132,148936.56295522867,2010-12-08 05:56:00,3571.791103404241,2,14,0.5501165986061096,4.04213809967041,12.595508578380292,12.04837321793141,50.45921729737192,43.69701867271768,6.47544875391759e-05,0.0932833403348922,0,0,0
4133,148966.57789034527,2010-12-08 05:56:30,3601.806038510833,2,14,0.5501165986061096,4.044566631317139,12.600095008166946,12.04837321793141,50.477761666177365,43.69701867271768,6.47544875391759e-05,0.0932833403348922,0,0,0
4134,148996.5929245986,2010-12-08 05:57:00,3631.821072764147,2,14,0.5501165986061096,4.047156810760498,12.604681327668144,12.04837321793141,50.49631714830387,43.69701867271768,9.71794142969884e-05,0.0932833403348922,0,0,0
4135,149026.6079834481,2010-12-08 05:57:30,3661.83613163372,2,14,0.5501165986061096,4.049746990203857,12.609267720148956,12.04837321793141,50.514884609059855,43.69701867271768,6.47544875391759e-05,0.0932833403348922,0,0,0
4136,149056.6231647423,2010-12-08 05:58:00,3691.851313043227,2,14,0.5501165986061096,4.052175045013428,12.613854173901816,12.04837321793141,50.5334640664906,43.69701867271768,6.47544875391759e-05,0.0932833403348922,0,0,0
4137,149086.63822881988,2010-12-08 05:58:30,3721.866377055596,2,14,0.5499359965324402,4.054927349090576,12.618440610028738,12.04837321793141,50.55205537089897,43.69701867271768,9.71794142969884e-05,0.0932833403348922,0,0,0
4138,149116.653088193,2010-12-08 05:59:00,3751.8812363585535,2,14,0.5497553944587708,4.0573554039001465,12.6230270640602,12.04837321793141,50.570658766020046,43.69701867271768,3.23295607813634e-05,0.0932833403348922,0,0,0
4139,149146.66813308277,2010-12-08 05:59:30,3781.896281263376,2,14,0.5501165986061096,4.060107707977295,12.627613540152742,12.04837321793141,50.58927442011196,43.69701867271768,3.24249267578125e-05,0.0932833403348922,0,0,0
4140,149176.68328775576,2010-12-08 06:00:00,3811.911436016549,2,14,0.5501165986061096,4.062697887420654,12.632200008521982,12.04837321793141,50.60790189964941,43.69701867271768,6.47544875391759e-05,0.0932833403348922,0,0,0
4141,149206.69819332386,2010-12-08 06:00:30,3841.926341494411,2,14,0.5501165986061096,4.0654497146606445,12.63678645076631,12.04837321793141,50.62654169503082,43.69701867271768,6.47544875391759e-05,0.0932833403348922,0,0,0
4142,149236.71325791263,2010-12-08 06:01:00,3871.9414061082766,2,14,0.5501165986061096,4.068202018737793,12.64137286116818,12.04837321793141,50.64519380838695,43.69701867271768,9.71794142969884e-05,0.0932833403348922,0,0,0
4143,149266.72850116104,2010-12-08 06:01:30,3901.956649416818,2,14,0.550297200679779,4.070953845977783,12.645959389713113,12.04837321793141,50.66385905257145,43.69701867271768,9.70840483205393e-05,0.0932833403348922,0,0,0
4144,149296.74331230414,2010-12-08 06:02:00,3931.9714604697074,2,14,0.5501165986061096,4.073706150054932,12.650545775230151,12.04837321793141,50.68253635258468,43.69701867271768,6.47544875391759e-05,0.0932833403348922,0,0,0
4145,149326.75835769015,2010-12-08 06:02:30,3961.9865058557257,2,14,0.5501165986061096,4.076457977294922,12.655132170955069,12.04837321793141,50.70122662785168,43.69701867271768,3.23295607813634e-05,0.0932833403348922,0,0,0
4146,149356.77341428908,2010-12-08 06:03:00,3992.001562459659,2,14,0.5499359965324402,4.079371929168701,12.659718587381365,12.04837321793141,50.71992996679825,43.69701867271768,9.70840483205393e-05,0.0932833403348922,0,0,0
4147,149386.78869309096,2010-12-08 06:03:30,4022.0168412565113,2,14,0.5501165986061096,4.0824480056762695,12.664305026907371,12.04837321793141,50.738646458971225,43.69701867271768,0.0001295089750783,0.0932833403348922,0,0,0
4148,149416.8034723046,2010-12-08 06:04:00,4052.0316204701694,2,14,0.5501165986061096,4.08519983291626,12.6688913678861,12.04837321793141,50.7573757033736,43.69701867271768,6.47544875391759e-05,0.0932833403348922,0,0,0
4149,149446.81852974065,2010-12-08 06:04:30,4082.046677926224,2,14,0.5499359965324402,4.087952136993408,12.673477770789448,12.04837321793141,50.776118550819234,43.69701867271768,3.24249267578125e-05,0.0932833403348922,0,0,0
4150,149476.83355259054,2010-12-08 06:05:00,4112.061700761125,2,14,0.5501165986061096,4.091027736663818,12.678064190934862,12.04837321793141,50.79487497571376,43.69701867271768,6.47544875391759e-05,0.0932833403348922,0,0,0
4151,149506.84861469816,2010-12-08 06:05:30,4142.0767628687545,2,14,0.550297200679779,4.093941688537598,12.682650614200288,12.04837321793141,50.813644917551656,43.69701867271768,3.23295607813634e-05,0.0932833403348922,0,0,0
4152,149536.86363426995,2010-12-08 06:06:00,4172.091782445547,2,14,0.5499359965324402,4.097017765045166,12.687236968305571,12.04837321793141,50.83242816831849,43.69701867271768,9.71794142969884e-05,0.0932833403348922,0,0,0
4153,149566.87884512777,2010-12-08 06:06:30,4202.1069933684985,2,14,0.5501165986061096,4.099931716918945,12.691823404073691,12.04837321793141,50.85122548912491,43.69701867271768,6.47544875391759e-05,0.0932833403348922,0,0,0
4154,149596.89373449553,2010-12-08 06:07:00,4232.121882781383,2,14,0.5501165986061096,4.103007316589356,12.69640986554898,12.04837321793141,50.8700368314472,43.69701867271768,9.70840483205393e-05,0.0932833403348922,0,0,0
4155,149626.9087763327,2010-12-08 06:07:30,4262.136924508296,2,14,0.5501165986061096,4.106083393096924,12.700996372280963,12.04837321793141,50.88886252047539,43.69701867271768,9.71794142969884e-05,0.0932833403348922,0,0,0
4156,149656.92393192297,2010-12-08 06:08:00,4292.152080118603,2,14,0.5501165986061096,4.109158992767334,12.705582856010396,12.04837321793141,50.90770224931328,43.69701867271768,9.70840483205393e-05,0.0932833403348922,0,0,0
4157,149686.93882869917,2010-12-08 06:08:30,4322.166976869749,2,14,0.5501165986061096,4.112235069274902,12.71016930346538,12.04837321793141,50.92655614035439,43.69701867271768,3.24249267578125e-05,0.0932833403348922,0,0,0
4158,149716.95399843462,2010-12-08 06:09:00,4352.182146605206,2,14,0.5501165986061096,4.115472316741943,12.714755769240934,12.04837321793141,50.94542437645378,43.69701867271768,9.70840483205393e-05,0.0932833403348922,0,0,0
4159,149746.96894086443,2010-12-08 06:09:30,4382.197089125247,2,14,0.550297200679779,4.118710041046143,12.7193422079169,12.04837321793141,50.96430692250846,43.69701867271768,9.70840483205393e-05,0.0932833403348922,0,0,0
4160,149776.98416957667,2010-12-08 06:10:00,4412.212317847489,2,14,0.5501165986061096,4.121947765350342,12.723928670421069,12.04837321793141,50.983204163571145,43.69701867271768,0.0001295089750783,0.0932833403348922,0,0,0
4161,149806.99899403792,2010-12-08 06:10:30,4442.22714229872,2,14,0.5501165986061096,4.12502384185791,12.72851503925993,12.04837321793141,51.00211563262339,43.69701867271768,9.71794142969884e-05,0.0932833403348922,0,0,0
4162,149837.01406874188,2010-12-08 06:11:00,4472.242216982645,2,14,0.5501165986061096,4.128261566162109,12.733101466242438,12.04837321793141,51.021042177737804,43.69701867271768,9.71794142969884e-05,0.0932833403348922,0,0,0
4163,149867.0290916921,2010-12-08 06:11:30,4502.257239882709,2,14,0.5501165986061096,4.131499290466309,12.737687914028108,12.04837321793141,51.03998384181419,43.69701867271768,6.47544875391759e-05,0.0932833403348922,0,0,0
4164,149897.04412380006,2010-12-08 06:12:00,4532.272271965622,2,14,0.5501165986061096,4.134898662567139,12.742274384289408,12.04837321793141,51.05894065543144,43.69701867271768,0.0001295089750783,0.0932833403348922,0,0,0
4165,149927.0592933701,2010-12-08 06:12:30,4562.287441535667,2,14,0.5501165986061096,4.138136386871338,12.746860836850963,12.04837321793141,51.077912621291766,43.69701867271768,6.47544875391759e-05,0.0932833403348922,0,0,0
4166,149957.074198462,2010-12-08 06:13:00,4592.302346632582,2,14,0.5501165986061096,4.141536235809326,12.751447294976382,12.04837321793141,51.09689987180157,43.69701867271768,6.47544875391759e-05,0.0932833403348922,0,0,0
4167,149987.08935847328,2010-12-08 06:13:30,4622.317506648854,2,14,0.5501165986061096,4.144935607910156,12.756033792040949,12.04837321793141,51.11590268932128,43.69701867271768,9.70840483205393e-05,0.0932833403348922,0,0,0
4168,150017.1042798457,2010-12-08 06:14:00,4652.332428081419,2,14,0.5499359965324402,4.1483354568481445,12.760620196031818,12.04837321793141,51.13492095398518,43.69701867271768,6.47544875391759e-05,0.0932833403348922,0,0,0
4169,150047.1194878313,2010-12-08 06:14:30,4682.347636062046,2,14,0.5499359965324402,4.151573181152344,12.765206634622006,12.04837321793141,51.15395491452711,43.69701867271768,6.47544875391759e-05,0.0932833403348922,0,0,0
4170,150077.13437246231,2010-12-08 06:15:00,4712.36252066797,2,14,0.550297200679779,4.155296325683594,12.769793008761065,12.04837321793141,51.17300432369358,43.69701867271768,0.0001295089750783,0.0932833403348922,0,0,0
4171,150107.14938223473,2010-12-08 06:15:30,4742.37753041029,2,14,0.5501165986061096,4.158696174621582,12.774379366138612,12.04837321793141,51.192069589038525,43.69701867271768,9.71794142969884e-05,0.0932833403348922,0,0,0
4172,150137.16445856274,2010-12-08 06:16:00,4772.392606793444,2,14,0.550297200679779,4.162257671356201,12.77896572379218,12.04837321793141,51.21115078094086,43.69701867271768,0.0001295089750783,0.0932833403348922,0,0,0
4173,150167.17944888672,2010-12-08 06:16:30,4802.40759705228,2,14,0.5501165986061096,4.165657043457031,12.78355218507966,12.04837321793141,51.23024850985298,43.69701867271768,6.47544875391759e-05,0.0932833403348922,0,0,0
4174,150197.19449154593,2010-12-08 06:17:00,4832.4226397115135,2,14,0.5499359965324402,4.16921854019165,12.78813859632316,12.04837321793141,51.24936227350892,43.69701867271768,6.47544875391759e-05,0.0932833403348922,0,0,0
4175,150227.20953631544,2010-12-08 06:17:30,4862.437684480997,2,14,0.5499359965324402,4.172942161560059,12.792724979081727,12.04837321793141,51.26849233533421,43.69701867271768,6.47544875391759e-05,0.0932833403348922,0,0,0
4176,150257.22456287962,2010-12-08 06:18:00,4892.452711045177,2,14,0.5501165986061096,4.176341533660889,12.79731138124738,12.04837321793141,51.28763894383123,43.69701867271768,9.70840483205393e-05,0.0932833403348922,0,0,0
4177,150287.2397967497,2010-12-08 06:18:30,4922.467945010469,2,14,0.5501165986061096,4.180226802825928,12.801897847796813,12.04837321793141,51.30680237081736,43.69701867271768,9.70840483205393e-05,0.0932833403348922,0,0,0
4178,150317.25464693495,2010-12-08 06:19:00,4952.482795105512,2,14,0.5501165986061096,4.183788299560547,12.806484248125976,12.04837321793141,51.32598210715327,43.69701867271768,0.0001295089750783,0.0932833403348922,0,0,0
4179,150347.26971611517,2010-12-08 06:19:30,4982.4978642907545,2,14,0.550297200679779,4.187349796295166,12.811070639864228,12.04837321793141,51.34517844228497,43.69701867271768,6.47544875391759e-05,0.0932833403348922,0,0,0
4180,150377.28472384246,2010-12-08 06:20:00,5012.512872013048,2,14,0.5501165986061096,4.191073417663574,12.81565703740378,12.04837321793141,51.36439159645635,43.69701867271768,9.71794142969884e-05,0.0932833403348922,0,0,0
4181,150407.2997522262,2010-12-08 06:20:30,5042.527900396757,2,14,0.5501165986061096,4.194634914398193,12.820243395238188,12.04837321793141,51.38362156878363,43.69701867271768,6.47544875391759e-05,0.0932833403348922,0,0,0
4182,150437.31704433306,2010-12-08 06:21:00,5072.545192588866,2,14,0.5501165986061096,4.198358058929443,12.824830164109164,12.04837321793141,51.4028702934459,43.69701867271768,9.71794142969884e-05,0.0932833403348922,0,0,0
4183,150449.5489736036,2010-12-08 06:21:13,5084.777121879446,2,14,0.5501165986061096,4.200138568878174,12.826699256663591,12.04837321793141,51.4107190101072,43.69701867271768,0.0001618385285837,0.0932833403348922,0,0,0
4184,150479.56855103618,2010-12-08 06:21:43,30.015010990426177,3,14,0.0,4.108511447906494,12.826699256663591,12.04837321793141,51.4107190101072,43.69701867271768,-0.0004209518374409,0.0932833403348922,0,0,0
4185,150509.5836118506,2010-12-08 06:22:13,60.0300718098499,3,14,0.0,4.097179412841797,12.826699256663591,12.04837321793141,51.4107190101072,43.69701867271768,-0.0002266883820993,0.0932833403348922,0,0,0
4186,150539.5990649161,2010-12-08 06:22:43,90.04552498062486,3,14,0.0,4.089894771575928,12.826699256663591,12.04837321793141,51.4107190101072,43.69701867271768,-0.0001942634553415,0.0932833403348922,0,0,0
4187,150569.56678673424,2010-12-08 06:23:13,120.0132466884902,3,14,0.0,4.085685729980469,12.826699256663591,12.04837321793141,51.4107190101072,43.69701867271768,-6.47544875391759e-05,0.0932833403348922,0,0,0
4188,150569.5737505474,2010-12-08 06:23:13,2.686685714e-06,4,14,1.0182558298110962,4.199814796447754,12.82669925742352,12.04837321793141,51.41071901329874,43.69701867271768,0.0,0.0932833403348922,0,0,0
4189,150569.9955890162,2010-12-08 06:23:13,0.421841165515726,4,14,0.9673240184783936,4.199491024017334,12.826814256575972,12.04837321793141,51.41120197397856,43.69701867271768,-6.47544875391759e-05,0.0932833403348922,0,0,0
4190,150571.69871739065,2010-12-08 06:23:15,2.124969635207613,4,14,0.916934072971344,4.199653148651123,12.827258910242724,12.04837321793141,51.41306938431902,43.69701867271768,-3.23295607813634e-05,0.0932833403348922,0,0,0
4191,150574.4486330049,2010-12-08 06:23:18,4.874885159223144,4,14,0.8667246699333191,4.199814796447754,12.827939156348878,12.04837321793141,51.41592624197736,43.69701867271768,3.23295607813634e-05,0.0932833403348922,0,0,0
4192,150578.32588579934,2010-12-08 06:23:22,8.752138084001343,4,14,0.8166959285736084,4.199814796447754,12.828844470616374,12.04837321793141,51.41972832501222,43.69701867271768,3.23295607813634e-05,0.0932833403348922,0,0,0
4193,150583.46407547675,2010-12-08 06:23:27,13.89032763106654,4,14,0.7664865255355835,4.199653148651123,12.829972907736256,12.04837321793141,51.424467486312594,43.69701867271768,-3.23295607813634e-05,0.0932833403348922,0,0,0
4194,150590.19832475207,2010-12-08 06:23:34,20.62457690136609,4,14,0.7164577841758728,4.199976921081543,12.83135807300954,12.04837321793141,51.43028487140447,43.69701867271768,3.24249267578125e-05,0.0932833403348922,0,0,0
4195,150599.05979503502,2010-12-08 06:23:42,29.486047289601437,4,14,0.6664289832115173,4.199653148651123,12.833057209306194,12.04837321793141,51.437420829544415,43.69701867271768,0.0,0.0932833403348922,0,0,0
4196,150611.15116319465,2010-12-08 06:23:55,41.57741544921401,4,14,0.6164002418518066,4.199814796447754,12.835207153089096,12.04837321793141,51.44645007080133,43.69701867271768,3.23295607813634e-05,0.0932833403348922,0,0,0
4197,150628.97880784768,2010-12-08 06:24:12,59.40505999699252,4,14,0.5663714408874512,4.199653148651123,12.83812741993507,12.04837321793141,51.45871450507442,43.69701867271768,0.0,0.0932833403348922,0,0,0
4198,150658.69705231604,2010-12-08 06:24:42,89.12330453050475,4,14,0.5163426995277405,4.199814796447754,12.842577837666967,12.04837321793141,51.477405224426505,43.69701867271768,0.0,0.0932833403348922,0,0,0
4199,150713.80524944005,2010-12-08 06:25:37,144.2315015943521,4,14,0.466313898563385,4.199653148651123,12.85006172548602,12.04837321793141,51.508835757905366,43.69701867271768,-3.23295607813634e-05,0.0932833403348922,0,0,0
4200,150809.3034294981,2010-12-08 06:27:13,239.7296816674571,4,14,0.4162851274013519,4.199653148651123,12.861732847108648,12.04837321793141,51.557851645887446,43.69701867271768,-3.23295607813634e-05,0.0932833403348922,0,0,0
4201,150934.23843756047,2010-12-08 06:29:18,364.6646897348402,4,14,0.3662563562393188,4.199653148651123,12.875289840766008,12.04837321793141,51.61478788831828,43.69701867271768,-3.23295607813634e-05,0.0932833403348922,0,0,0
4202,151084.79811500205,2010-12-08 06:31:48,515.2243672415588,4,14,0.3162276148796081,4.199814796447754,12.889540933396146,12.04837321793141,51.67463924484741,43.69701867271768,-3.24249267578125e-05,0.0932833403348922,0,0,0
4203,151266.31254570652,2010-12-08 06:34:50,696.7387979560676,4,14,0.2661988437175751,4.199814796447754,12.904200129963415,12.04837321793141,51.73620461019775,43.69701867271768,0.0,0.0932833403348922,0,0,0
4204,151488.02447461925,2010-12-08 06:38:31,918.450726773548,4,14,0.2161700576543808,4.199653148651123,12.919013262898076,12.04837321793141,51.79841642930866,43.69701867271768,0.0,0.0932833403348922,0,0,0
4205,151772.8003595259,2010-12-08 06:43:16,1203.2266117754566,4,14,0.1661412864923477,4.199653148651123,12.934068291705554,12.04837321793141,51.8616441995101,43.69701867271768,-3.23295607813634e-05,0.0932833403348922,0,0,0
4206,152177.79205657242,2010-12-08 06:50:01,1608.2183087217038,4,14,0.1161125227808952,4.199814796447754,12.94977820491948,12.04837321793141,51.92762222513086,43.69701867271768,3.23295607813634e-05,0.0932833403348922,0,0,0
4207,152887.07507910384,2010-12-08 07:01:50,2317.50133127822,4,14,0.0660837516188621,4.199814796447754,12.967202265405136,12.04837321793141,52.00079920875822,43.69701867271768,-3.24249267578125e-05,0.0932833403348922,0,0,0
4208,153290.97332135512,2010-12-08 07:08:34,2721.399573529514,4,14,0.0496483072638511,4.199491024017334,12.973697596465104,12.04837321793141,52.02807807774941,43.69701867271768,-6.47544875391759e-05,0.0932833403348922,0,0,0
4209,153320.98649643856,2010-12-08 07:09:05,30.01518815128416,5,14,0.0,4.191235065460205,12.973697596465104,12.04837321793141,52.02807807774941,43.69701867271768,-3.24249267578125e-05,0.0932833403348922,0,0,0
4210,153350.9859052185,2010-12-08 07:09:35,60.01459697632185,5,14,0.0,4.189939975738525,12.973697596465104,12.04837321793141,52.02807807774941,43.69701867271768,-3.24249267578125e-05,0.0932833403348922,0,0,0
4211,153351.17243369535,2010-12-08 07:09:35,0.187513755769164,6,14,-1.9243103452026844e-05,4.189778327941895,12.973697596465104,12.048373218933728,52.02807807774941,43.697018676917175,0.0,0.0979729741811752,0,0,0
4212,153356.0004431913,2010-12-08 07:09:40,5.015523251707132,6,14,0.0005225847125984,4.189939975738525,12.9736984392218,12.04837321910068,52.02808160889061,43.69701867761667,-3.24249267578125e-05,0.0979729741811752,0,0,0
4213,153386.0148629111,2010-12-08 07:10:10,30.0151479913477,7,14,-1.0997490882873535,3.99940037727356,12.9736984392218,12.057541476959614,52.02808160889061,43.73390202118084,-0.0010036944877356,0.0979729741811752,0,0,0
4214,153416.02976545168,2010-12-08 07:10:40,60.0300506521999,7,14,-1.099568486213684,3.969289779663086,12.9736984392218,12.066709588451952,52.02808160889061,43.77042158054363,-0.0006799221155233,0.0979729741811752,0,0,0
4215,153446.0447840661,2010-12-08 07:11:10,90.04506917136105,7,14,-1.0997490882873535,3.948406457901001,12.9736984392218,12.075877708532648,52.02808160889061,43.80671231949094,-0.0004856586456298,0.0979729741811752,0,0,0
4216,153476.06021259553,2010-12-08 07:11:40,120.0604977659792,7,14,-1.0997490882873535,3.932055950164795,12.9736984392218,12.085045880704074,52.02808160889061,43.84283474752339,-0.0003885269106831,0.0979729741811752,0,0,0
4217,153506.0748734296,2010-12-08 07:12:10,150.0751585148427,7,14,-1.099568486213684,3.918457508087158,12.9736984392218,12.094213873804607,52.02808160889061,43.8788202968096,-0.0003561496851034,0.0979729741811752,0,0,0
4218,153536.08988822447,2010-12-08 07:12:40,180.09017331474865,7,14,-1.099568486213684,3.9063162803649902,12.9736984392218,12.10338194632155,52.02808160889061,43.914687916413776,-0.0002913951757363,0.0979729741811752,0,0,0
4219,153566.10495194615,2010-12-08 07:13:10,210.10523702636945,7,14,-1.099568486213684,3.894984245300293,12.9736984392218,12.112550034193822,52.02808160889061,43.95044829080744,-0.0003237724304199,0.0979729741811752,0,0,0
4220,153596.11994949813,2010-12-08 07:13:40,240.12023460341692,7,14,-1.0997490882873535,3.884623527526856,12.9736984392218,12.12171804847022,52.02808160889061,43.98610957764528,-0.0002266406954731,0.0979729741811752,0,0,0
4221,153626.13511888773,2010-12-08 07:14:10,270.1354039729635,7,14,-1.099568486213684,3.874586582183838,12.9736984392218,12.130886203395798,52.02808160889061,44.02167720241287,-0.0002266406954731,0.0979729741811752,0,0,0
4222,153656.15001511254,2010-12-08 07:14:40,300.1503002178498,7,14,-1.099568486213684,3.86487340927124,12.9736984392218,12.140054288033475,52.02808160889061,44.05715432347175,-0.0002266406954731,0.0979729741811752,0,0,0
4223,153686.16505000246,2010-12-08 07:15:10,330.16533510774894,7,14,-1.099568486213684,3.8554840087890634,12.9736984392218,12.149222492285991,52.02808160889061,44.09254433144948,-0.0002266406954731,0.0979729741811752,0,0,0
4224,153716.18006745394,2010-12-08 07:15:40,360.1803525592532,7,14,-1.099568486213684,3.8464183807373047,12.9736984392218,12.15839058209734,52.02808160889061,44.12784861158346,-0.0002590179501567,0.0979729741811752,0,0,0
4225,153746.19523129976,2010-12-08 07:16:10,390.19551637999166,7,14,-1.0997490882873535,3.837190866470337,12.9736984392218,12.167558829781385,52.02808160889061,44.16307100068168,-0.0002590179501567,0.0979729741811752,0,0,0
4226,153776.21014386023,2010-12-08 07:16:40,420.2104289655412,7,14,-1.0997490882873535,3.828611135482788,12.9736984392218,12.17672701085844,52.02808160889061,44.19821253678267,-0.0002266406954731,0.0979729741811752,0,0,0
4227,153806.22518677512,2010-12-08 07:17:10,450.2254718553477,7,14,-1.0997490882873535,3.82003116607666,12.9736984392218,12.185895200296384,52.02808160889061,44.23327542059089,-0.0002590179501567,0.0979729741811752,0,0,0
4228,153836.24021110375,2010-12-08 07:17:40,480.2404962792024,7,14,-1.099568486213684,3.811774969100952,12.9736984392218,12.195063329402476,52.02808160889061,44.26826023615208,-0.0002266406954731,0.0979729741811752,0,0,0
4229,153866.25522695124,2010-12-08 07:18:10,510.2555120565406,7,14,-1.0997490882873535,3.803356885910034,12.9736984392218,12.20423136081998,52.02808160889061,44.30316812694798,-0.0002266406954731,0.0979729741811752,0,0,0
4230,153896.27038839104,2010-12-08 07:18:40,540.2706734963543,7,14,-1.0993878841400146,3.795748233795166,12.9736984392218,12.213399391448483,52.02808160889061,44.33800146948668,-0.0001295089750783,0.0979729741811752,0,0,0
4231,153926.28528933763,2010-12-08 07:19:10,570.2855744429406,7,14,-1.099568486213684,3.787653923034668,12.9736984392218,12.222567369355366,52.02808160889061,44.37276247070928,-0.0001942634553415,0.0979729741811752,0,0,0
4232,153956.3003377111,2010-12-08 07:19:40,600.3006228915802,7,14,-1.099568486213684,3.7800452709198,12.9736984392218,12.231735419871686,52.02808160889061,44.40745246996431,-0.0001618862152099,0.0979729741811752,0,0,0
4233,153986.31552708542,2010-12-08 07:20:10,630.3158121756833,7,14,-1.0997490882873535,3.772436618804932,12.9736984392218,12.240903462593376,52.02808160889061,44.44207288264429,-0.0002590179501567,0.0979729741811752,0,0,0
4234,154016.3306236438,2010-12-08 07:20:40,660.3309088042166,7,14,-1.099568486213684,3.7651517391204834,12.9736984392218,12.2500715109482,52.02808160889061,44.476625181401786,-0.0001942634553415,0.0979729741811752,0,0,0
4235,154046.34540758922,2010-12-08 07:21:10,690.3456927646874,7,14,-1.0997490882873535,3.757866859436035,12.9736984392218,12.259239461145349,52.02808160889061,44.51111091092758,-0.0001942634553415,0.0979729741811752,0,0,0
4236,154076.36043861954,2010-12-08 07:21:40,720.3607237097701,7,14,-1.099568486213684,3.750905990600586,12.9736984392218,12.2684075267487,52.02808160889061,44.54553176877902,-0.0001942634553415,0.0979729741811752,0,0,0
4237,154106.3754814241,2010-12-08 07:22:10,750.375766529402,7,14,-1.0997490882873535,3.744106769561768,12.9736984392218,12.27757551743872,52.02808160889061,44.57988883162864,-0.0001942634553415,0.0979729741811752,0,0,0
4238,154136.3905053016,2010-12-08 07:22:40,780.3907904068972,7,14,-1.0997490882873535,3.737307548522949,12.9736984392218,12.286743539230455,52.02808160889061,44.61418364943372,-0.0001618862152099,0.0979729741811752,0,0,0
4239,154166.40553113396,2010-12-08 07:23:10,810.4058162392568,7,14,-1.099568486213684,3.730670213699341,12.9736984392218,12.295911534572705,52.02808160889061,44.64841736483724,-0.0001942634553415,0.0979729741811752,0,0,0
4240,154196.42058366776,2010-12-08 07:23:40,840.4208687730622,7,14,-1.099568486213684,3.7245185375213614,12.9736984392218,12.305079482160114,52.02808160889061,44.682591682839856,-0.0001295089750783,0.0979729741811752,0,0,0
4241,154226.4356061919,2010-12-08 07:24:10,870.4358912821522,7,14,-1.099568486213684,3.718204975128174,12.9736984392218,12.314247437316732,52.02808160889061,44.716708235522745,-0.0001295089750783,0.0979729741811752,0,0,0
4242,154256.45061895173,2010-12-08 07:24:40,900.4509040570188,7,14,-1.099568486213684,3.711891412734986,12.9736984392218,12.323415448405203,52.02808160889061,44.75076754120848,-0.0001618862152099,0.0979729741811752,0,0,0
4243,154286.46587309724,2010-12-08 07:25:10,930.4661582576643,7,14,-1.0997490882873535,3.705577850341797,12.9736984392218,12.332583564172552,52.02808160889061,44.78476993051883,-0.0001942634553415,0.0979729741811752,0,0,0
4244,154316.48068567392,2010-12-08 07:25:40,960.4809707792082,7,14,-1.099568486213684,3.699588060379028,12.9736984392218,12.341751536534236,52.02808160889061,44.81871583870797,-0.0001942634553415,0.0979729741811752,0,0,0
4245,154346.49572767652,2010-12-08 07:26:10,990.4960127818068,7,14,-1.099568486213684,3.69392204284668,12.9736984392218,12.3509195138959,52.02808160889061,44.85260704743201,-0.0001295089750783,0.0979729741811752,0,0,0
4246,154376.5107370028,2010-12-08 07:26:40,1020.511022108092,7,14,-1.099568486213684,3.687770366668701,12.9736984392218,12.360087500491865,52.02808160889061,44.88644434054101,-0.0001942634553415,0.0979729741811752,0,0,0
4247,154406.52585023263,2010-12-08 07:27:10,1050.5261354281615,7,14,-1.0997490882873535,3.682104349136353,12.9736984392218,12.36925547708924,52.02808160889061,44.92022778057579,-0.0001618862152099,0.0979729741811752,0,0,0
4248,154436.54092598424,2010-12-08 07:27:40,1080.5412110895188,7,14,-1.0997490882873535,3.676438331604004,12.9736984392218,12.378423501182237,52.02808160889061,44.95395909821659,-0.0001295089750783,0.0979729741811752,0,0,0
4249,154466.55584250455,2010-12-08 07:28:10,1110.55612760986,7,14,-1.099568486213684,3.6710963249206543,12.9736984392218,12.387591499702678,52.02808160889061,44.9876390213641,-9.713172767078504e-05,0.0979729741811752,0,0,0
4250,154496.57086328935,2010-12-08 07:28:40,1140.5711483946588,7,14,-1.0993878841400146,3.665592193603516,12.9736984392218,12.396759470621332,52.02808160889061,45.02126852562024,-0.0001295089750783,0.0979729741811752,0,0,0
4251,154526.58589004903,2010-12-08 07:29:10,1170.5861751543262,7,14,-1.099568486213684,3.660088062286377,12.9736984392218,12.4059274555967,52.02808160889061,45.05484860444484,-0.0001295089750783,0.0979729741811752,0,0,0
4252,154556.60093674832,2010-12-08 07:29:40,1200.601221858625,7,14,-1.0997490882873535,3.654745817184448,12.9736984392218,12.415095445786042,52.02808160889061,45.088379871068845,-0.0001295089750783,0.0979729741811752,0,0,0
4253,154586.6159691019,2010-12-08 07:30:10,1230.6162542072002,7,14,-1.099568486213684,3.6495654582977295,12.9736984392218,12.424263451601458,52.02808160889061,45.12186303441874,-0.0001295089750783,0.0979729741811752,0,0,0
4254,154616.63100963584,2010-12-08 07:30:40,1260.6312947411443,7,14,-1.0997490882873535,3.644223213195801,12.9736984392218,12.433431379004134,52.02808160889061,45.155298003393895,-0.0001942634553415,0.0979729741811752,0,0,0
4255,154646.64600841588,2010-12-08 07:31:10,1290.6462935261975,7,14,-1.0997490882873535,3.639366626739502,12.9736984392218,12.442599261957287,52.02808160889061,45.18868629498217,-0.0001295089750783,0.0979729741811752,0,0,0
4256,154676.66334086817,2010-12-08 07:31:40,1320.6636260486673,7,14,-1.099568486213684,3.634510040283203,12.9736984392218,12.451767941343016,52.02808160889061,45.22203190683108,-0.0001295089750783,0.0979729741811752,0,0,0
4257,154706.67610299742,2010-12-08 07:32:10,1350.6763880876642,7,14,-1.099568486213684,3.629653453826904,12.9736984392218,12.46093519156772,52.02808160889061,45.25532717987149,-0.0001295089750783,0.0979729741811752,0,0,0
4258,154736.6912727078,2010-12-08 07:32:40,1380.6915578632213,7,14,-1.0993878841400146,3.6247968673706055,12.9736984392218,12.470103227202546,52.02808160889061,45.28858081435675,-9.713172767078504e-05,0.0979729741811752,0,0,0
4259,154766.70613273757,2010-12-08 07:33:10,1410.7064178278254,7,14,-1.0997490882873535,3.619940280914306,12.9736984392218,12.479271114519642,52.02808160889061,45.32179041111634,-9.713172767078504e-05,0.0979729741811752,0,0,0
4260,154796.7212934255,2010-12-08 07:33:40,1440.7215785308051,7,14,-1.099568486213684,3.615407466888428,12.9736984392218,12.488439163127438,52.02808160889061,45.354957935929214,-0.0001295089750783,0.0979729741811752,0,0,0
4261,154826.73621684802,2010-12-08 07:34:11,1470.7365019382848,7,14,-1.099568486213684,3.610874652862549,12.9736984392218,12.497607100791647,52.02808160889061,45.38808276197333,-0.0001295089750783,0.0979729741811752,0,0,0
4262,154856.75134819795,2010-12-08 07:34:41,1500.7516332781963,7,14,-1.099568486213684,3.60650372505188,12.9736984392218,12.506775122954044,52.02808160889061,45.42116637241968,-6.47544875391759e-05,0.0979729741811752,0,0,0
4263,154886.76625195655,2010-12-08 07:35:11,1530.7665370618424,7,14,-1.099568486213684,3.601970911026001,12.9736984392218,12.5159430968721,52.02808160889061,45.454209196399546,-0.0001295089750783,0.0979729741811752,0,0,0
4264,154916.78142472956,2010-12-08 07:35:41,1560.781709819821,7,14,-1.099568486213684,3.597599983215332,12.9736984392218,12.525111160921506,52.02808160889061,45.487213169640405,-0.0001618862152099,0.0979729741811752,0,0,0
4265,154946.79632040305,2010-12-08 07:36:11,1590.7966054832602,7,14,-1.099568486213684,3.593552827835083,12.9736984392218,12.534279134225084,52.02808160889061,45.52017800973221,-9.713172767078504e-05,0.0979729741811752,0,0,0
4266,154976.81146477538,2010-12-08 07:36:41,1620.8117498656272,7,14,-1.099568486213684,3.589505910873413,12.9736984392218,12.543447153704102,52.02808160889061,45.55310553966023,-9.713172767078504e-05,0.0979729741811752,0,0,0
4267,155006.82644573104,2010-12-08 07:37:11,1650.8267309065252,7,14,-1.0993878841400146,3.585782527923584,12.9736984392218,12.552615133270088,52.02808160889061,45.58599642949227,-3.237724376958795e-05,0.0979729741811752,0,0,0
4268,155036.8414132383,2010-12-08 07:37:41,1680.8416983235204,7,14,-1.0997490882873535,3.581735372543335,12.9736984392218,12.561783117880976,52.02808160889061,45.618851426677146,-9.713172767078504e-05,0.0979729741811752,0,0,0
4269,155066.85643794783,2010-12-08 07:38:11,1710.8567230531362,7,14,-1.099568486213684,3.578011989593506,12.9736984392218,12.570951125326054,52.02808160889061,45.6516716145539,-9.713172767078504e-05,0.0979729741811752,0,0,0
4270,155096.87144759492,2010-12-08 07:38:41,1740.8717327052318,7,14,-1.0997490882873535,3.5742886066436768,12.9736984392218,12.580119132816431,52.02808160889061,45.68445764858803,-0.0001295089750783,0.0979729741811752,0,0,0
4271,155126.88648436952,2010-12-08 07:39:11,1770.886769449746,7,14,-1.099568486213684,3.570888996124268,12.9736984392218,12.589287109259732,52.02808160889061,45.717210463404456,-6.47544875391759e-05,0.0979729741811752,0,0,0
4272,155156.9015076054,2010-12-08 07:39:41,1800.9017927608318,7,14,-1.0997490882873535,3.5670037269592285,12.9736984392218,12.598455098293153,52.02808160889061,45.74993066679952,-0.0001618862152099,0.0979729741811752,0,0,0
4273,155186.91883757655,2010-12-08 07:40:11,1830.919122772052,7,14,-1.099568486213684,3.5637660026550293,12.9736984392218,12.60762383329094,52.02808160889061,45.78262157897228,-9.713172767078504e-05,0.0979729741811752,0,0,0
4274,155216.9316740608,2010-12-08 07:40:41,1860.9319591510407,7,14,-1.0997490882873535,3.56020450592041,12.9736984392218,12.61679114418191,52.02808160889061,45.81527649318559,-0.0001295089750783,0.0979729741811752,0,0,0
4275,155246.9467820125,2010-12-08 07:41:11,1890.9470671177896,7,14,-1.099568486213684,3.557128667831421,12.9736984392218,12.625959160709492,52.02808160889061,45.8479033126952,-9.713172767078504e-05,0.0979729741811752,0,0,0
4276,155276.96161404758,2010-12-08 07:41:41,1920.961899152892,7,14,-1.099568486213684,3.553729057312012,12.9736984392218,12.635127156292915,52.02808160889061,45.88049906788709,-6.47544875391759e-05,0.0979729741811752,0,0,0
4277,155306.97664714805,2010-12-08 07:42:11,1950.9769322383008,7,14,-1.099568486213684,3.5504913330078125,12.9736984392218,12.644295146794075,52.02808160889061,45.91306442144997,-9.713172767078504e-05,0.0979729741811752,0,0,0
4278,155336.9917892397,2010-12-08 07:42:41,1980.9920743299672,7,14,-1.099568486213684,3.5470917224884038,12.9736984392218,12.6534631538421,52.02808160889061,45.945599358169325,-9.713172767078504e-05,0.0979729741811752,0,0,0
4279,155367.00669004096,2010-12-08 07:43:11,2011.0069751211668,7,14,-1.099568486213684,3.543853998184204,12.9736984392218,12.66263115273177,52.02808160889061,45.978103938024525,-6.47544875391759e-05,0.0979729741811752,0,0,0
4280,155397.02173698583,2010-12-08 07:43:41,2041.0220220660644,7,14,-1.099568486213684,3.540454387664795,12.9736984392218,12.671799173087154,52.02808160889061,46.01057886516423,-9.713172767078504e-05,0.0979729741811752,0,0,0
4281,155427.03676696352,2010-12-08 07:44:11,2071.0370520738143,7,14,-1.0997490882873535,3.537216663360596,12.9736984392218,12.680967159937092,52.02808160889061,46.04302376402557,-9.713172767078504e-05,0.0979729741811752,0,0,0
4282,155457.05179683593,2010-12-08 07:44:41,2101.052081921165,7,14,-1.099568486213684,3.5341408252716064,12.9736984392218,12.690135166832349,52.02808160889061,46.07543909527243,-6.47544875391759e-05,0.0979729741811752,0,0,0
4283,155487.06680272866,2010-12-08 07:45:11,2131.0670878389687,7,14,-1.0997490882873535,3.5305793285369877,12.9736984392218,12.699303194741027,52.02808160889061,46.10782409212591,-9.713172767078504e-05,0.0979729741811752,0,0,0
4284,155517.08183967866,2010-12-08 07:45:41,2161.0821247639315,7,14,-1.0997490882873535,3.527503490447998,12.9736984392218,12.708471182263072,52.02808160889061,46.140178831087205,-9.713172767078504e-05,0.0979729741811752,0,0,0
4285,155547.09701543412,2010-12-08 07:46:11,2191.097300514357,7,14,-1.099568486213684,3.524103879928589,12.9736984392218,12.717639266232142,52.02808160889061,46.17250344127554,-9.713172767078504e-05,0.0979729741811752,0,0,0
4286,155577.11189227572,2010-12-08 07:46:41,2221.112177355959,7,14,-1.0997490882873535,3.5205423831939697,12.9736984392218,12.726807199865052,52.02808160889061,46.20479643154613,-0.0001295089750783,0.0979729741811752,0,0,0
4287,155607.12693627327,2010-12-08 07:47:11,2251.127221448759,7,14,-1.0997490882873535,3.5169808864593506,12.9736984392218,12.73597519404914,52.02808160889061,46.23705786208071,-0.0001618862152099,0.0979729741811752,0,0,0
4288,155637.1419432437,2010-12-08 07:47:41,2281.142228328957,7,14,-1.099568486213684,3.5134193897247314,12.9736984392218,12.745143150374856,52.02808160889061,46.26928655111468,-0.0001295089750783,0.0979729741811752,0,0,0
4289,155667.15719771,2010-12-08 07:48:11,2311.157482890501,7,14,-1.0993878841400146,3.5100200176239014,12.9736984392218,12.75431123188568,52.02808160889061,46.301482172154095,-3.237724376958795e-05,0.0979729741811752,0,0,0
4290,155697.17200078306,2010-12-08 07:48:41,2341.172285873308,7,14,-1.099568486213684,3.5059728622436523,12.9736984392218,12.763479195384352,52.02808160889061,46.33364235052444,-9.713172767078504e-05,0.0979729741811752,0,0,0
4291,155727.1874694925,2010-12-08 07:49:11,2371.187754597788,7,14,-1.0997490882873535,3.5019257068634038,12.9736984392218,12.77264729278861,52.02808160889061,46.365766948424096,-9.713172767078504e-05,0.0979729741811752,0,0,0
4292,155757.20206268827,2010-12-08 07:49:41,2401.202347793548,7,14,-1.099568486213684,3.4977166652679443,12.9736984392218,12.78181519592936,52.02808160889061,46.39785340083946,-0.0001295089750783,0.0979729741811752,0,0,0
4293,155787.21724913028,2010-12-08 07:50:11,2431.217534240591,7,14,-1.099568486213684,3.4933457374572754,12.9736984392218,12.790983274900642,52.02808160889061,46.42990130564789,-0.0001295089750783,0.0979729741811752,0,0,0
4294,155817.23224324873,2010-12-08 07:50:41,2461.2325284241942,7,14,-1.099568486213684,3.4888129234313965,12.9736984392218,12.800151326755351,52.02808160889061,46.461907545346506,-0.0001295089750783,0.0979729741811752,0,0,0
4295,155847.24727066,2010-12-08 07:51:11,2491.2475557402463,7,14,-1.099568486213684,3.483794450759888,12.9736984392218,12.809319357190512,52.02808160889061,46.49386926859306,-6.47544875391759e-05,0.0979729741811752,0,0,0
4296,155877.26223129014,2010-12-08 07:51:41,2521.262516395415,7,14,-1.0993878841400146,3.478128433227539,12.9736984392218,12.818487309598938,52.02808160889061,46.52578261066702,-0.0001295089750783,0.0979729741811752,0,0,0
4297,155907.27722334844,2010-12-08 07:52:11,2551.277508438692,7,14,-1.0993878841400146,3.4724624156951904,12.9736984392218,12.827655226434391,52.02808160889061,46.55764381871773,-0.0001295089750783,0.0979729741811752,0,0,0
4298,155937.29244297303,2010-12-08 07:52:41,2581.292728063296,7,14,-1.099568486213684,3.465663194656372,12.9736984392218,12.836823250753543,52.02808160889061,46.5894484279924,-0.0001942634553415,0.0979729741811752,0,0,0
4299,155967.30725912863,2010-12-08 07:53:11,2611.3075442339205,7,14,-1.0997490882873535,3.458216428756714,12.9736984392218,12.845991222825685,52.02808160889061,46.621188703161685,-0.0002590179501567,0.0979729741811752,0,0,0
4300,155997.32230565746,2010-12-08 07:53:41,2641.322590762783,7,14,-1.099568486213684,3.449798345565796,12.9736984392218,12.855159225936427,52.02808160889061,46.65285638880285,-0.0002590179501567,0.0979729741811752,0,0,0
4301,156027.33732827683,2010-12-08 07:54:11,2671.3376133570846,7,14,-1.099568486213684,3.4399232864379883,12.9736984392218,12.864327218790754,52.02808160889061,46.68444056212938,-0.0002913951757363,0.0979729741811752,0,0,0
4302,156057.35233869584,2010-12-08 07:54:41,2701.352623801152,7,14,-1.099568486213684,3.42826771736145,12.9736984392218,12.873495179276375,52.02808160889061,46.71592602141278,-0.0003237724304199,0.0979729741811752,0,0,0
4303,156087.36751013054,2010-12-08 07:55:11,2731.367795235837,7,14,-1.0997490882873535,3.4140217304229736,12.9736984392218,12.882663236162886,52.02808160889061,46.74729403458145,-0.0004532813909463,0.0979729741811752,0,0,0
4304,156117.38239572392,2010-12-08 07:55:41,2761.3826808292174,7,14,-1.0997490882873535,3.396699905395508,12.9736984392218,12.89183115425533,52.02808160889061,46.77851737465963,-0.0004856586456298,0.0979729741811752,0,0,0
4305,156147.39745665863,2010-12-08 07:56:11,2791.397741804028,7,14,-1.0992072820663452,3.374845266342163,12.9736984392218,12.900999139549498,52.02808160889061,46.80956178296342,-0.0005827903514727,0.0979729741811752,0,0,0
4306,156177.41247114274,2010-12-08 07:56:41,2821.412756248048,7,14,-1.099568486213684,3.346191644668579,12.9736984392218,12.910167134899805,52.02808160889061,46.8403764116069,-0.0008741855854168,0.0979729741811752,0,0,0
4307,156207.42781605915,2010-12-08 07:57:11,2851.4281011393737,7,14,-1.099568486213684,3.308795928955078,12.9736984392218,12.91933523409949,52.02808160889061,46.87089188701814,-0.0011008263099938,0.0979729741811752,0,0,0
4308,156237.44251607073,2010-12-08 07:57:41,2881.4428011659784,7,14,-1.099568486213684,3.2582876682281494,12.9736984392218,12.928503094822393,52.02808160889061,46.9010072107547,-0.0015541076427325,0.0979729741811752,0,0,0
4309,156267.4576814453,2010-12-08 07:58:11,2911.4579665255465,7,14,-1.099568486213684,3.189000606536865,12.9736984392218,12.937671090517725,52.02808160889061,46.930579756381526,-0.0021368502639234,0.0979729741811752,0,0,0
4310,156297.47258345454,2010-12-08 07:58:41,2941.4728685598398,7,14,-1.0997490882873535,3.0889551639556885,12.9736984392218,12.94683906021442,52.02808160889061,46.9593882497456,-0.0031405924819409,0.0979729741811752,0,0,0
4311,156327.48772604746,2010-12-08 07:59:11,2971.488011152753,7,14,-1.099568486213684,2.926907539367676,12.9736984392218,12.956007060517656,52.02808160889061,46.98703884903204,-0.0055364607833325,0.0979729741811752,0,0,0
4312,156349.72176597564,2010-12-08 07:59:34,2993.7220511511337,7,14,-1.099568486213684,2.7266547679901123,12.9736984392218,12.96279835654755,52.02808160889061,47.0062759018091,-0.0081266881898045,0.0979729741811752,0,0,0
4313,156352.28415559366,2010-12-08 07:59:36,2996.284440774157,7,14,-1.0993878841400146,2.699943780899048,12.9736984392218,12.963581031989667,52.02808160889061,47.00839958911066,-0.0082561494782567,0.0979729741811752,0,0,0
4314,156412.29477191227,2010-12-08 08:00:36,60.01455813466588,8,14,0.0,3.4111077785491943,12.9736984392218,12.963581031989667,52.02808160889061,47.00839958911066,0.0012950897216796,0.0979729741811752,0,0,0
4315,156412.4795602903,2010-12-08 08:00:37,0.187497961465647,9,14,-1.9243103452026844e-05,3.4112696647644043,12.9736984392218,12.963581032991902,52.02808160889061,47.00839959252955,0.0,0.0970755815505981,0,0,0
4316,156417.30760247257,2010-12-08 08:00:41,5.015540138729839,9,14,0.0007031940040178,3.4190402030944824,12.973699334235874,12.963581033243727,52.02808466605542,47.00839959338974,0.0011008263099938,0.0970755815505981,0,0,0
