Data_Point,Test_Time(s),Date_Time,Step_Time(s),Step_Index,Cycle_Index,Current(A),Voltage(V),Charge_Capacity(Ah),Discharge_Capacity(Ah),Charge_Energy(Wh),Discharge_Energy(Wh),dV/dt(V/s),Internal_Resistance(Ohm),Is_FC_Data,AC_Impedance(Ohm),ACI_Phase_Angle(Deg)
1241,44915.30290944082,2010-12-07 01:02:07,30.01505810767564,1,5,0.0,3.411593437194824,3.724749252117959,3.727692893556211,14.94351009119644,13.525373211655456,0.0007446765666827,0.0924721807241439,0,0,0
1242,44945.31803203396,2010-12-07 01:02:37,60.03018070082089,1,5,0.0,3.436199903488159,3.724749252117959,3.727692893556211,14.94351009119644,13.525373211655456,0.0006151676061563,0.0924721807241439,0,0,0
1243,44975.33312956474,2010-12-07 01:03:07,90.0452782315994,1,5,0.0,3.4546549320220947,3.724749252117959,3.727692893556211,14.94351009119644,13.525373211655456,0.0003885269106831,0.0924721807241439,0,0,0
1244,45005.301301407744,2010-12-07 01:03:37,120.01345007460874,1,5,0.0,3.469548463821411,3.724749252117959,3.727692893556211,14.94351009119644,13.525373211655456,0.0003237724304199,0.0924721807241439,0,0,0
1245,45035.31728125382,2010-12-07 01:04:07,30.01516891341145,2,5,0.550297200679779,3.625768184661865,3.729335785525179,3.727692893556211,14.95998552285372,13.525373211655456,0.0014893531333655,0.0924721807241439,0,0,0
1246,45065.332241573145,2010-12-07 01:04:37,60.030129222719616,2,5,0.5501165986061096,3.669801235198975,3.733922295424561,3.727692893556211,14.976722969063522,13.525373211655456,0.0009713172912597,0.0924721807241439,0,0,0
1247,45095.347430366026,2010-12-07 01:05:07,90.04531801560037,2,5,0.5501165986061096,3.701368808746338,3.738508737233141,3.727692893556211,14.993630141403644,13.525373211655456,0.0007770538213662,0.0924721807241439,0,0,0
1248,45125.36250138583,2010-12-07 01:05:37,120.06038910056948,2,5,0.550297200679779,3.726137399673462,3.743095171440836,3.727692893556211,15.010665000487275,13.525373211655456,0.0006475448608398,0.0924721807241439,0,0,0
1249,45155.37747300328,2010-12-07 01:06:07,150.0753606628803,2,5,0.550297200679779,3.745725631713867,3.747681594592587,3.727692893556211,15.027800752465785,13.525373211655456,0.0005180359003134,0.0924721807241439,0,0,0
1250,45185.3926702522,2010-12-07 01:06:37,180.09055790679113,2,5,0.5501165986061096,3.7604570388793945,3.752268092304741,3.727692893556211,15.045016129337714,13.525373211655456,0.0003561496851034,0.0924721807241439,0,0,0
1251,45215.40762595003,2010-12-07 01:07:07,210.1055136046238,2,5,0.5501165986061096,3.770493984222412,3.756854558012145,3.727692893556211,15.062288631842016,13.525373211655456,0.0001618862152099,0.0924721807241439,0,0,0
1252,45245.42267354154,2010-12-07 01:07:37,240.12056120114283,2,5,0.5501165986061096,3.7772932052612314,3.761441033565925,3.727692893556211,15.079598673719326,13.525373211655456,0.0001618862152099,0.0924721807241439,0,0,0
1253,45275.43787012381,2010-12-07 01:08:07,270.13575777338224,2,5,0.5499359965324402,3.782149791717529,3.766027502752566,3.727692893556211,15.096934769033302,13.525373211655456,9.713172767078504e-05,0.0924721807241439,0,0,0
1254,45305.452870337416,2010-12-07 01:08:37,300.1507579869907,2,5,0.5501165986061096,3.786844491958618,3.770613965393637,3.727692893556211,15.114292524475994,13.525373211655456,0.0001295089750783,0.0924721807241439,0,0,0
1255,45335.467896440445,2010-12-07 01:09:07,330.16578409002403,2,5,0.5501165986061096,3.790891647338867,3.775200475445146,3.727692893556211,15.131670376508138,13.525373211655456,9.713172767078504e-05,0.0924721807241439,0,0,0
1256,45365.48303683289,2010-12-07 01:09:37,360.18092460777393,2,5,0.5501165986061096,3.795100688934326,3.77978694611883,3.727692893556211,15.149066724656745,13.525373211655456,9.713172767078504e-05,0.0924721807241439,0,0,0
1257,45395.49804269055,2010-12-07 01:10:07,390.195930345128,2,5,0.5501165986061096,3.7988240718841553,3.784373402243956,3.727692893556211,15.166481070601506,13.525373211655456,9.713172767078504e-05,0.0924721807241439,0,0,0
1258,45425.51314196065,2010-12-07 01:10:37,420.2110296152348,2,5,0.5501165986061096,3.802547454833984,3.788959988497699,3.727692893556211,15.183913265404133,13.525373211655456,9.713172767078504e-05,0.0924721807241439,0,0,0
1259,45455.528324081926,2010-12-07 01:11:07,450.2262118016758,2,5,0.5501165986061096,3.806108951568604,3.793546458233269,3.727692893556211,15.20136183793819,13.525373211655456,6.47544875391759e-05,0.0924721807241439,0,0,0
1260,45485.54327151921,2010-12-07 01:11:37,480.2411591687777,2,5,0.5501165986061096,3.8098323345184326,3.798132866602132,3.727692893556211,15.218826671466422,13.525373211655456,0.0001295089750783,0.0924721807241439,0,0,0
1261,45515.55846825685,2010-12-07 01:12:07,510.2563559164536,2,5,0.5499359965324402,3.813393831253052,3.802719337678802,3.727692893556211,15.23630789614366,13.525373211655456,9.713172767078504e-05,0.0924721807241439,0,0,0
1262,45545.57355096073,2010-12-07 01:12:37,540.271438620336,2,5,0.550297200679779,3.816793441772461,3.807305804620505,3.727692893556211,15.253805266524036,13.525373211655456,9.713172767078504e-05,0.0924721807241439,0,0,0
1263,45575.58876433479,2010-12-07 01:13:07,570.2866520795981,2,5,0.5501165986061096,3.82019305229187,3.811892247628064,3.727692893556211,15.2713182283504,13.525373211655456,9.713172767078504e-05,0.0924721807241439,0,0,0
1264,45605.60371907524,2010-12-07 01:13:37,600.3016068150359,2,5,0.5499359965324402,3.823430776596069,3.816478716644451,3.727692893556211,15.288847045141976,13.525373211655456,6.47544875391759e-05,0.0924721807241439,0,0,0
1265,45635.61865689859,2010-12-07 01:14:07,630.316544558189,2,5,0.5501165986061096,3.8271541595458975,3.821065155860898,3.727692893556211,15.306391561947422,13.525373211655456,9.713172767078504e-05,0.0924721807241439,0,0,0
1266,45665.63372887578,2010-12-07 01:14:37,660.3316165353784,2,5,0.550297200679779,3.8307156562805176,3.82565162694942,3.727692893556211,15.323952269853685,13.525373211655456,0.0001295089750783,0.0924721807241439,0,0,0
1267,45695.64879404604,2010-12-07 01:15:07,690.3466816956042,2,5,0.5501165986061096,3.834115028381348,3.83023806445164,3.727692893556211,15.341529102211128,13.525373211655456,9.713172767078504e-05,0.0924721807241439,0,0,0
1268,45725.663864654816,2010-12-07 01:15:37,720.3617523043882,2,5,0.5501165986061096,3.8378384113311768,3.834824463134066,3.727692893556211,15.359122252731956,13.525373211655456,0.0001295089750783,0.0924721807241439,0,0,0
1269,45755.678945358726,2010-12-07 01:16:07,750.3768330133063,2,5,0.5499359965324402,3.841399908065796,3.83941089166055,3.727692893556211,15.376732076117534,13.525373211655456,9.713172767078504e-05,0.0924721807241439,0,0,0
1270,45785.69416775522,2010-12-07 01:16:37,780.3920555100577,2,5,0.5501165986061096,3.844961404800415,3.843997403830565,3.727692893556211,15.394358868825616,13.525373211655456,9.713172767078504e-05,0.0924721807241439,0,0,0
1271,45815.70908735824,2010-12-07 01:17:07,810.4069750128203,2,5,0.5501165986061096,3.848522901535034,3.848583841521401,3.727692893556211,15.412001954408858,13.525373211655456,6.47544875391759e-05,0.0924721807241439,0,0,0
1272,45845.724528093066,2010-12-07 01:17:37,840.4224157676989,2,5,0.5501165986061096,3.852084398269653,3.853170385554432,3.727692893556211,15.429662028246062,13.525373211655456,6.47544875391759e-05,0.0924721807241439,0,0,0
1273,45875.73924092653,2010-12-07 01:18:07,870.437128591148,2,5,0.550297200679779,3.855645895004273,3.857756813648654,3.727692893556211,15.447337982529223,13.525373211655456,6.47544875391759e-05,0.0924721807241439,0,0,0
1274,45905.75445890204,2010-12-07 01:18:37,900.4523465516111,2,5,0.550297200679779,3.859207391738892,3.862343247467358,3.727692893556211,15.4650301052052,13.525373211655456,9.713172767078504e-05,0.0924721807241439,0,0,0
1275,45935.76938686585,2010-12-07 01:19:07,930.4672745254536,2,5,0.550297200679779,3.862768888473511,3.866929643978534,3.727692893556211,15.482737908543818,13.525373211655456,9.713172767078504e-05,0.0924721807241439,0,0,0
1276,45965.78446268761,2010-12-07 01:19:37,960.48235036726,2,5,0.5501165986061096,3.86616849899292,3.87151607050254,3.727692893556211,15.500461263639,13.525373211655456,0.0001295089750783,0.0924721807241439,0,0,0
1277,45995.79954413336,2010-12-07 01:20:07,990.4974318781738,2,5,0.5501165986061096,3.869244337081909,3.876102531513653,3.727692893556211,15.518199701317902,13.525373211655456,9.713172767078504e-05,0.0924721807241439,0,0,0
1278,46025.814649408414,2010-12-07 01:20:37,1020.512537073024,2,5,0.5501165986061096,3.8723201751708975,3.880689027060779,3.727692893556211,15.535952750545992,13.525373211655456,9.713172767078504e-05,0.0924721807241439,0,0,0
1279,46055.82970591711,2010-12-07 01:21:07,1050.527593576708,2,5,0.5501165986061096,3.8752341270446777,3.885275507429646,3.727692893556211,15.553719620476455,13.525373211655456,9.713172767078504e-05,0.0924721807241439,0,0,0
1280,46085.84476724781,2010-12-07 01:21:37,1080.5426549074043,2,5,0.5501165986061096,3.877986192703247,3.88986198631408,3.727692893556211,15.57149976811766,13.525373211655456,6.47544875391759e-05,0.0924721807241439,0,0,0
1281,46115.8598320722,2010-12-07 01:22:07,1110.5577197217692,2,5,0.5499359965324402,3.8805763721466064,3.894448474007547,3.727692893556211,15.589292606001456,13.525373211655456,3.237724376958795e-05,0.0924721807241439,0,0,0
1282,46145.87492207424,2010-12-07 01:22:37,1140.5728097238127,2,5,0.5499359965324402,3.883166551589966,3.899034988997236,3.727692893556211,15.607097536024614,13.525373211655456,3.237724376958795e-05,0.0924721807241439,0,0,0
1283,46175.88998729461,2010-12-07 01:23:07,1170.5878749492006,2,5,0.5501165986061096,3.885432958602905,3.903621529001254,3.727692893556211,15.624913815202293,13.525373211655456,3.237724376958795e-05,0.0924721807241439,0,0,0
1284,46205.9050616377,2010-12-07 01:23:37,1200.602949287265,2,5,0.550297200679779,3.8880231380462646,3.908208034068745,3.727692893556211,15.642740566610716,13.525373211655456,9.713172767078504e-05,0.0924721807241439,0,0,0
1285,46235.9202658339,2010-12-07 01:24:07,1230.6181534884886,2,5,0.550297200679779,3.890127658843994,3.912794609137696,3.727692893556211,15.660577625162398,13.525373211655456,9.713172767078504e-05,0.0924721807241439,0,0,0
1286,46265.93530247316,2010-12-07 01:24:37,1260.6331902279906,2,5,0.550297200679779,3.8920702934265137,3.917381108465407,3.727692893556211,15.678423792384404,13.525373211655456,3.237724376958795e-05,0.0924721807241439,0,0,0
1287,46295.95036861582,2010-12-07 01:25:07,1290.6482563856982,2,5,0.5501165986061096,3.894012928009033,3.921967642157731,3.727692893556211,15.69627900963591,13.525373211655456,6.47544875391759e-05,0.0924721807241439,0,0,0
1288,46325.96548786064,2010-12-07 01:25:37,1320.663375510212,2,5,0.5499359965324402,3.895631790161133,3.926554221086807,3.727692893556211,15.714142609113138,13.525373211655456,6.47544875391759e-05,0.0924721807241439,0,0,0
1289,46355.98043280672,2010-12-07 01:26:07,1350.6783204562892,2,5,0.5499359965324402,3.897250652313232,3.931140711883547,3.727692893556211,15.73201394221169,13.525373211655456,3.237724376958795e-05,0.0924721807241439,0,0,0
1290,46385.99552881871,2010-12-07 01:26:38,1380.693416478313,2,5,0.5501165986061096,3.899193286895752,3.935727168060706,3.727692893556211,15.749892955963428,13.525373211655456,6.47544875391759e-05,0.0924721807241439,0,0,0
1291,46416.01082507902,2010-12-07 01:27:08,1410.7087128338596,2,5,0.5499359965324402,3.9006502628326416,3.940313735958996,3.727692893556211,15.767780069247706,13.525373211655456,3.237724376958795e-05,0.0924721807241439,0,0,0
1292,46446.02568823658,2010-12-07 01:27:38,1440.7235759813843,2,5,0.550297200679779,3.902431011199951,3.944900161248064,3.727692893556211,15.785674046264427,13.525373211655456,9.713172767078504e-05,0.0924721807241439,0,0,0
1293,46476.040757381714,2010-12-07 01:28:08,1470.7386450363017,2,5,0.550297200679779,3.903887987136841,3.949486646958304,3.727692893556211,15.803575515358013,13.525373211655456,6.47544875391759e-05,0.0924721807241439,0,0,0
1294,46506.05581156964,2010-12-07 01:28:38,1500.7536992192108,2,5,0.5501165986061096,3.905506849288941,3.954073150051094,3.727692893556211,15.821484235383029,13.525373211655456,6.47544875391759e-05,0.0924721807241439,0,0,0
1295,46536.07087471485,2010-12-07 01:29:08,1530.7687623594095,2,5,0.5501165986061096,3.90696382522583,3.958659626921999,3.727692893556211,15.839399877363077,13.525373211655456,3.237724376958795e-05,0.0924721807241439,0,0,0
1296,46566.08608223433,2010-12-07 01:29:38,1560.7839698839034,2,5,0.5501165986061096,3.9085826873779297,3.963246118505558,3.727692893556211,15.857322684564904,13.525373211655456,6.47544875391759e-05,0.0924721807241439,0,0,0
1297,46596.101033852014,2010-12-07 01:30:08,1590.7989215015828,2,5,0.5501165986061096,3.9100396633148193,3.967832496522767,3.727692893556211,15.87525207986008,13.525373211655456,6.47544875391759e-05,0.0924721807241439,0,0,0
1298,46626.11607631075,2010-12-07 01:30:38,1620.813963965329,2,5,0.5501165986061096,3.911496639251709,3.972419462981404,3.727692893556211,15.8931908016184,13.525373211655456,3.237724376958795e-05,0.0924721807241439,0,0,0
1299,46656.13114335065,2010-12-07 01:31:08,1650.8290310052323,2,5,0.5501165986061096,3.9132773876190186,3.977006733613913,3.727692893556211,15.911137772840329,13.525373211655456,9.713172767078504e-05,0.0924721807241439,0,0,0
1300,46686.14625958797,2010-12-07 01:31:38,1680.8441472425611,2,5,0.5501165986061096,3.914572238922119,3.981593915847334,3.727692893556211,15.929091428336363,13.525373211655456,3.237724376958795e-05,0.0924721807241439,0,0,0
1301,46716.16145989952,2010-12-07 01:32:08,1710.8593476142555,2,5,0.550297200679779,3.9161911010742183,3.986181315777742,3.727692893556211,15.947052872559688,13.525373211655456,6.47544875391759e-05,0.0924721807241439,0,0,0
1302,46746.17863053915,2010-12-07 01:32:38,1740.876518278948,2,5,0.550297200679779,3.917648077011109,3.990768975957554,3.727692893556211,15.965022392843531,13.525373211655456,6.47544875391759e-05,0.0924721807241439,0,0,0
1303,46776.19151087753,2010-12-07 01:33:08,1770.8893986423907,2,5,0.5501165986061096,3.919266939163208,3.995355964244266,3.727692893556211,15.982996222642893,13.525373211655456,6.47544875391759e-05,0.0924721807241439,0,0,0
1304,46806.20673658728,2010-12-07 01:33:38,1800.9046242418633,2,5,0.5501165986061096,3.920885801315308,3.999943038880181,3.727692893556211,16.00097743816107,13.525373211655456,6.47544875391759e-05,0.0924721807241439,0,0,0
1305,46836.22163326825,2010-12-07 01:34:08,1830.9195209178224,2,5,0.5501165986061096,3.922342777252197,4.004529605188012,3.727692893556211,16.018963605432674,13.525373211655456,3.237724376958795e-05,0.0924721807241439,0,0,0
1306,46866.23685292794,2010-12-07 01:34:38,1860.934740682776,2,5,0.550297200679779,3.923799753189087,4.009116228528797,3.727692893556211,16.036957140557064,13.525373211655456,3.237724376958795e-05,0.0924721807241439,0,0,0
1307,46896.25177155853,2010-12-07 01:35:08,1890.9496592883056,2,5,0.550297200679779,3.9254186153411865,4.013702762272779,3.727692893556211,16.054957451669836,13.525373211655456,3.237724376958795e-05,0.0924721807241439,0,0,0
1308,46926.26681228796,2010-12-07 01:35:38,1920.9646999375368,2,5,0.550297200679779,3.927037477493286,4.018289340468733,3.727692893556211,16.072964966900194,13.525373211655456,6.47544875391759e-05,0.0924721807241439,0,0,0
1309,46956.28189385902,2010-12-07 01:36:08,1950.9797815336624,2,5,0.5501165986061096,3.928494453430176,4.022875852824204,3.727692893556211,16.09097941136999,13.525373211655456,9.713172767078504e-05,0.0924721807241439,0,0,0
1310,46986.29697900398,2010-12-07 01:36:38,1980.9948666585697,2,5,0.5501165986061096,3.929789543151856,4.027462460466044,3.727692893556211,16.109001363160758,13.525373211655456,0.0,0.0924721807241439,0,0,0
1311,47016.312048665415,2010-12-07 01:37:08,2011.009936314984,2,5,0.5501165986061096,3.931570291519165,4.032049091985154,3.727692893556211,16.127030636982447,13.525373211655456,3.237724376958795e-05,0.0924721807241439,0,0,0
1312,47046.32726543792,2010-12-07 01:37:38,2041.0251531877404,2,5,0.550297200679779,3.9333510398864746,4.036635832418597,3.727692893556211,16.145067563349926,13.525373211655456,6.47544875391759e-05,0.0924721807241439,0,0,0
1313,47076.34219143184,2010-12-07 01:38:08,2071.0400790914314,2,5,0.5501165986061096,3.934808015823364,4.04122248728503,3.727692893556211,16.163111386684868,13.525373211655456,6.47544875391759e-05,0.0924721807241439,0,0,0
1314,47106.35742493597,2010-12-07 01:38:38,2101.055312645699,2,5,0.5499359965324402,3.936264991760254,4.045809243959716,3.727692893556211,16.181162929832,13.525373211655456,3.237724376958795e-05,0.0924721807241439,0,0,0
1315,47136.372320464085,2010-12-07 01:39:08,2131.070208128689,2,5,0.5501165986061096,3.938045740127564,4.050395945374313,3.727692893556211,16.199221460373078,13.525373211655456,6.47544875391759e-05,0.0924721807241439,0,0,0
1316,47166.38740777943,2010-12-07 01:39:38,2161.08529542901,2,5,0.550297200679779,3.939664602279663,4.054982647184341,3.727692893556211,16.217287428868055,13.525373211655456,6.47544875391759e-05,0.0924721807241439,0,0,0
1317,47196.40247148103,2010-12-07 01:40:08,2191.1003591356184,2,5,0.5501165986061096,3.9412834644317623,4.059569403540941,3.727692893556211,16.235361038283802,13.525373211655456,6.47544875391759e-05,0.0924721807241439,0,0,0
1318,47226.4176950304,2010-12-07 01:40:38,2221.115582690001,2,5,0.5501165986061096,3.9429023265838623,4.064156115600065,3.727692893556211,16.253441831682494,13.525373211655456,6.47544875391759e-05,0.0924721807241439,0,0,0
1319,47256.43263075353,2010-12-07 01:41:08,2251.130518413128,2,5,0.5501165986061096,3.944359302520752,4.068742703338307,3.727692893556211,16.271529568152033,13.525373211655456,3.237724376958795e-05,0.0924721807241439,0,0,0
1320,47286.447733467205,2010-12-07 01:41:38,2281.145621181942,2,5,0.5501165986061096,3.945978164672852,4.073329436891755,3.727692893556211,16.289625379496755,13.525373211655456,3.237724376958795e-05,0.0924721807241439,0,0,0
1321,47316.46281641169,2010-12-07 01:42:08,2311.1607040863223,2,5,0.5501165986061096,3.947758913040161,4.077916180717444,3.727692893556211,16.307728562504774,13.525373211655456,6.47544875391759e-05,0.0924721807241439,0,0,0
1322,47346.47787379255,2010-12-07 01:42:38,2341.175761452152,2,5,0.550297200679779,3.9493777751922607,4.082502860040271,3.727692893556211,16.32583904931995,13.525373211655456,6.47544875391759e-05,0.0924721807241439,0,0,0
1323,47376.49307107656,2010-12-07 01:43:08,2371.1909588314,2,5,0.5501165986061096,3.95099663734436,4.087089587331699,3.727692893556211,16.343957298753484,13.525373211655456,3.237724376958795e-05,0.0924721807241439,0,0,0
1324,47406.508135053846,2010-12-07 01:43:38,2401.206022713445,2,5,0.550297200679779,3.95261549949646,4.091676266551961,3.727692893556211,16.362082960869568,13.525373211655456,3.237724376958795e-05,0.0924721807241439,0,0,0
1325,47436.523084235465,2010-12-07 01:44:08,2431.220971895062,2,5,0.5501165986061096,3.95423436164856,4.096262918216428,3.727692893556211,16.380216170698993,13.525373211655456,3.237724376958795e-05,0.0924721807241439,0,0,0
1326,47466.53816704962,2010-12-07 01:44:38,2461.236054709219,2,5,0.5501165986061096,3.956015110015869,4.100849645710454,3.727692893556211,16.398357338966843,13.525373211655456,6.47544875391759e-05,0.0924721807241439,0,0,0
1327,47496.55364799953,2010-12-07 01:45:08,2491.2515357292955,2,5,0.5501165986061096,3.9576339721679688,4.105436412238712,3.727692893556211,16.416506356719637,13.525373211655456,3.237724376958795e-05,0.0924721807241439,0,0,0
1328,47526.56832608152,2010-12-07 01:45:38,2521.266213731092,2,5,0.5501165986061096,3.9594147205352783,4.110023020711189,3.727692893556211,16.434662525124516,13.525373211655456,6.47544875391759e-05,0.0924721807241439,0,0,0
1329,47556.58338364284,2010-12-07 01:46:08,2551.2812712924083,2,5,0.550297200679779,3.961033582687378,4.114609738240706,3.727692893556211,16.45282694457803,13.525373211655456,3.237724376958795e-05,0.0924721807241439,0,0,0
1330,47586.59847222635,2010-12-07 01:46:38,2581.2963598809347,2,5,0.5501165986061096,3.9626524448394775,4.119196430927499,3.727692893556211,16.470999146768804,13.525373211655456,3.237724376958795e-05,0.0924721807241439,0,0,0
1331,47616.61353845924,2010-12-07 01:47:08,2611.311426108817,2,5,0.5501165986061096,3.964433193206787,4.12378313937164,3.727692893556211,16.48917933419902,13.525373211655456,3.237724376958795e-05,0.0924721807241439,0,0,0
1332,47646.628612140674,2010-12-07 01:47:38,2641.32649979526,2,5,0.5501165986061096,3.966375827789306,4.128369864726944,3.727692893556211,16.507367573721417,13.525373211655456,6.47544875391759e-05,0.0924721807241439,0,0,0
1333,47676.64367152152,2010-12-07 01:48:08,2671.3415591811163,2,5,0.5501165986061096,3.968156576156616,4.132956655749855,3.727692893556211,16.525564118059496,13.525373211655456,6.47544875391759e-05,0.0924721807241439,0,0,0
1334,47706.658752902105,2010-12-07 01:48:38,2701.356640576743,2,5,0.5499359965324402,3.969937324523926,4.137543351148834,3.727692893556211,16.543768392420617,13.525373211655456,6.47544875391759e-05,0.0924721807241439,0,0,0
1335,47736.67383288422,2010-12-07 01:49:08,2731.37172055384,2,5,0.550297200679779,3.9717180728912354,4.142130154036034,3.727692893556211,16.561981292672684,13.525373211655456,9.713172767078504e-05,0.0924721807241439,0,0,0
1336,47766.68922249683,2010-12-07 01:49:38,2761.3871101714653,2,5,0.550297200679779,3.973498821258545,4.146717001120073,3.727692893556211,16.580202664051054,13.525373211655456,6.47544875391759e-05,0.0924721807241439,0,0,0
1337,47796.703973234624,2010-12-07 01:50:08,2791.401860894225,2,5,0.5501165986061096,3.9752795696258554,4.151303748685676,3.727692893556211,16.598431966853514,13.525373211655456,6.47544875391759e-05,0.0924721807241439,0,0,0
1338,47826.71919697448,2010-12-07 01:50:38,2821.417084629058,2,5,0.5501165986061096,3.977060317993164,4.155890653637112,3.727692893556211,16.61667033505589,13.525373211655456,3.237724376958795e-05,0.0924721807241439,0,0,0
1339,47856.73412387064,2010-12-07 01:51:08,2851.432011530231,2,5,0.5501165986061096,3.9788410663604736,4.160477495503295,3.727692893556211,16.63491657777971,13.525373211655456,0.0,0.0924721807241439,0,0,0
1340,47886.74922339638,2010-12-07 01:51:38,2881.4471111060984,2,5,0.550297200679779,3.980945587158203,4.1650642862021,3.727692893556211,16.653171687853142,13.525373211655456,9.713172767078504e-05,0.0924721807241439,0,0,0
1341,47916.76427560437,2010-12-07 01:52:08,2911.462163258956,2,5,0.5501165986061096,3.9827263355255127,4.169651007222018,3.727692893556211,16.6714352311434,13.525373211655456,0.0,0.0924721807241439,0,0,0
1342,47946.77940922496,2010-12-07 01:52:38,2941.4772969647547,2,5,0.5501165986061096,3.984830856323242,4.174237764344879,3.727692893556211,16.689707591666338,13.525373211655456,6.47544875391759e-05,0.0924721807241439,0,0,0
1343,47976.79443112253,2010-12-07 01:53:08,2971.492318772098,2,5,0.550297200679779,3.9867734909057617,4.178824504678059,3.727692893556211,16.70798877339436,13.525373211655456,9.713172767078504e-05,0.0924721807241439,0,0,0
1344,48006.80962752935,2010-12-07 01:53:38,3001.5075151839387,2,5,0.5501165986061096,3.9885542392730713,4.183411272382785,3.727692893556211,16.726278970942253,13.525373211655456,6.47544875391759e-05,0.0924721807241439,0,0,0
1345,48036.82459483607,2010-12-07 01:54:08,3031.5224825858963,2,5,0.5501165986061096,3.990496873855591,4.187997997727373,3.727692893556211,16.74457805058638,13.525373211655456,3.237724376958795e-05,0.0924721807241439,0,0,0
1346,48066.839681630125,2010-12-07 01:54:38,3061.537569279707,2,5,0.550297200679779,3.9924395084381104,4.192584718274899,3.727692893556211,16.762886281317233,13.525373211655456,3.237724376958795e-05,0.0924721807241439,0,0,0
1347,48096.85462881679,2010-12-07 01:55:08,3091.552516496435,2,5,0.5499359965324402,3.994705677032471,4.197171444341028,3.727692893556211,16.781203821138895,13.525373211655456,6.47544875391759e-05,0.0924721807241439,0,0,0
1348,48126.869786727824,2010-12-07 01:55:38,3121.567674377393,2,5,0.5501165986061096,3.9968101978302,4.201758265136191,3.727692893556211,16.7995311599614,13.525373211655456,6.47544875391759e-05,0.0924721807241439,0,0,0
1349,48156.88716865824,2010-12-07 01:56:08,3151.585056408061,2,5,0.5501165986061096,3.9985909461975098,4.206345385430008,3.727692893556211,16.81786917062285,13.525373211655456,3.237724376958795e-05,0.0924721807241439,0,0,0
1350,48186.90000156859,2010-12-07 01:56:38,3181.597889333457,2,5,0.5501165986061096,4.000857353210449,4.210931736811955,3.727692893556211,16.836213664144804,13.525373211655456,6.47544875391759e-05,0.0924721807241439,0,0,0
1351,48216.91485441048,2010-12-07 01:57:08,3211.612742070074,2,5,0.5501165986061096,4.002962112426758,4.215518440327302,3.727692893556211,16.854569339430487,13.525373211655456,3.24249267578125e-05,0.0924721807241439,0,0,0
1352,48246.93017588352,2010-12-07 01:57:38,3241.6280635431244,2,5,0.5499359965324402,4.005066394805908,4.220104401149053,3.727692893556211,16.872931723930723,13.525373211655456,3.23295607813634e-05,0.0924721807241439,0,0,0
1353,48276.94510111053,2010-12-07 01:58:08,3271.6429887601066,2,5,0.5501165986061096,4.007332801818848,4.224690361793424,3.727692893556211,16.891304068693678,13.525373211655456,6.47544875391759e-05,0.0924721807241439,0,0,0
1354,48306.960231778765,2010-12-07 01:58:39,3301.6581194283467,2,5,0.5501165986061096,4.009599208831787,4.229276509435159,3.727692893556211,16.909687228741774,13.525373211655456,9.70840483205393e-05,0.0924721807241439,0,0,0
1355,48336.97542693248,2010-12-07 01:59:09,3331.6733146572437,2,5,0.5499359965324402,4.011541843414307,4.233862411692434,3.727692893556211,16.92807948007704,13.525373211655456,6.47544875391759e-05,0.0924721807241439,0,0,0
1356,48366.99039812888,2010-12-07 01:59:39,3361.688285783469,2,5,0.5499359965324402,4.013808250427246,4.23844830689004,3.727692893556211,16.946482022400748,13.525373211655456,3.23295607813634e-05,0.0924721807241439,0,0,0
1357,48397.00544617151,2010-12-07 02:00:09,3391.703333826098,2,5,0.5499359965324402,4.016236782073975,4.243034285286727,3.727692893556211,16.96489523808396,13.525373211655456,3.24249267578125e-05,0.0924721807241439,0,0,0
1358,48427.020661816205,2010-12-07 02:00:39,3421.7185494908485,2,5,0.5501165986061096,4.018664836883545,4.247621045870941,3.727692893556211,16.98332223577269,13.525373211655456,6.47544875391759e-05,0.0924721807241439,0,0,0
1359,48457.035724415065,2010-12-07 02:01:09,3451.733612064638,2,5,0.550297200679779,4.021093368530273,4.252207833960318,3.727692893556211,17.00175987932833,13.525373211655456,9.71794142969884e-05,0.0924721807241439,0,0,0
1360,48487.05080131952,2010-12-07 02:01:39,3481.748688969088,2,5,0.5501165986061096,4.023197650909424,4.256794635326036,3.727692893556211,17.020208420601293,13.525373211655456,3.23295607813634e-05,0.0924721807241439,0,0,0
1361,48517.06575427552,2010-12-07 02:02:09,3511.7636419301107,2,5,0.5501165986061096,4.025626182556152,4.261381444956487,3.727692893556211,17.038667805867462,13.525373211655456,6.47544875391759e-05,0.0924721807241439,0,0,0
1362,48547.08083928514,2010-12-07 02:02:39,3541.778726934718,2,5,0.550297200679779,4.028054237365723,4.265968267087917,3.727692893556211,17.057138136245882,13.525373211655456,6.47544875391759e-05,0.0924721807241439,0,0,0
1363,48577.095922445165,2010-12-07 02:03:09,3571.793810094736,2,5,0.550297200679779,4.030482769012451,4.270555184151485,3.727692893556211,17.075619820736403,13.525373211655456,6.47544875391759e-05,0.0924721807241439,0,0,0
1364,48607.11099041237,2010-12-07 02:03:39,3601.808878132121,2,5,0.5499359965324402,4.0329108238220215,4.275141987242205,3.727692893556211,17.09411212471205,13.525373211655456,3.23295607813634e-05,0.0924721807241439,0,0,0
1365,48637.12606672535,2010-12-07 02:04:09,3631.8239543749246,2,5,0.550297200679779,4.035338878631592,4.279728790274691,3.727692893556211,17.112615646686056,13.525373211655456,6.47544875391759e-05,0.0924721807241439,0,0,0
1366,48667.1411525069,2010-12-07 02:04:39,3661.839040166491,2,5,0.5504778623580933,4.037929058074951,4.284315593899956,3.727692893556211,17.131130425340203,13.525373211655456,0.0001295089750783,0.0924721807241439,0,0,0
1367,48697.14294430186,2010-12-07 02:05:09,3691.8408320516814,2,5,0.5501165986061096,4.040195465087891,4.288900389163734,3.727692893556211,17.149648534453867,13.525373211655456,6.47544875391759e-05,0.0924721807241439,0,0,0
1368,48727.15572734312,2010-12-07 02:05:39,3721.853615092943,2,5,0.550297200679779,4.042623996734619,4.293486842178383,3.727692893556211,17.168184853170082,13.525373211655456,3.24249267578125e-05,0.0924721807241439,0,0,0
1369,48757.17094437126,2010-12-07 02:06:09,3751.868832025849,2,5,0.5501165986061096,4.045375823974609,4.298073700182649,3.727692893556211,17.186734457606995,13.525373211655456,6.47544875391759e-05,0.0924721807241439,0,0,0
1370,48787.18581446106,2010-12-07 02:06:39,3781.883702110637,2,5,0.550297200679779,4.047966003417969,4.302660531057247,3.727692893556211,17.2052957003294,13.525373211655456,6.47544875391759e-05,0.0924721807241439,0,0,0
1371,48817.20102780002,2010-12-07 02:07:09,3811.8989155247873,2,5,0.5501165986061096,4.050394535064697,4.307247395330065,3.727692893556211,17.223869021874634,13.525373211655456,6.47544875391759e-05,0.0924721807241439,0,0,0
1372,48847.21612634332,2010-12-07 02:07:39,3841.914014063073,2,5,0.5501165986061096,4.053146362304688,4.311834190810835,3.727692893556211,17.242453944909332,13.525373211655456,6.47544875391759e-05,0.0924721807241439,0,0,0
1373,48877.23104418696,2010-12-07 02:08:09,3871.9289318465567,2,5,0.550297200679779,4.055898666381836,4.316421038405615,3.727692893556211,17.26105121073118,13.525373211655456,6.47544875391759e-05,0.0924721807241439,0,0,0
1374,48907.24612216909,2010-12-07 02:08:39,3901.9440098788136,2,5,0.550297200679779,4.058488845825195,4.321007939787097,3.727692893556211,17.279660893412995,13.525373211655456,6.47544875391759e-05,0.0924721807241439,0,0,0
1375,48937.26122065224,2010-12-07 02:09:09,3931.9591083619625,2,5,0.550297200679779,4.061079025268555,4.325594853115992,3.727692893556211,17.29828283513592,13.525373211655456,9.71794142969884e-05,0.0924721807241439,0,0,0
1376,48967.276263722495,2010-12-07 02:09:39,3961.974151372068,2,5,0.550297200679779,4.063992977142334,4.330181715173391,3.727692893556211,17.316916750313236,13.525373211655456,9.71794142969884e-05,0.0924721807241439,0,0,0
1377,48997.291761524335,2010-12-07 02:10:09,3991.989649249093,2,5,0.5501165986061096,4.066583156585693,4.334768627710767,3.727692893556211,17.335563372440653,13.525373211655456,9.71794142969884e-05,0.0924721807241439,0,0,0
1378,49027.3064244035,2010-12-07 02:10:39,4022.0043120530704,2,5,0.550297200679779,4.069334983825684,4.339355401788586,3.727692893556211,17.35422201960269,13.525373211655456,6.47544875391759e-05,0.0924721807241439,0,0,0
1379,49057.32165297035,2010-12-07 02:11:09,4052.0195406199273,2,5,0.5499359965324402,4.071925163269043,4.343942195368986,3.727692893556211,17.37289343065658,13.525373211655456,0.0,0.0924721807241439,0,0,0
1380,49087.336572688655,2010-12-07 02:11:39,4082.0344603482513,2,5,0.5501165986061096,4.074839115142822,4.348528973504027,3.727692893556211,17.391577619150105,13.525373211655456,3.23295607813634e-05,0.0924721807241439,0,0,0
1381,49117.35167369809,2010-12-07 02:12:09,4112.049561452924,2,5,0.550297200679779,4.077915191650391,4.353115784834933,3.727692893556211,17.410274931630028,13.525373211655456,0.0001295089750783,0.0924721807241439,0,0,0
1382,49147.36675105366,2010-12-07 02:12:39,4142.06463871326,2,5,0.550297200679779,4.08082914352417,4.357702633673378,3.727692893556211,17.42898552540872,13.525373211655456,0.0001295089750783,0.0924721807241439,0,0,0
1383,49177.38182694058,2010-12-07 02:13:09,4172.079714590153,2,5,0.550297200679779,4.08358097076416,4.362289483680979,3.727692893556211,17.44770923789128,13.525373211655456,9.70840483205393e-05,0.0924721807241439,0,0,0
1384,49207.3968770684,2010-12-07 02:13:39,4202.094764722983,2,5,0.550297200679779,4.086333274841309,4.36687629347705,3.727692893556211,17.466446054119217,13.525373211655456,3.24249267578125e-05,0.0924721807241439,0,0,0
1385,49237.4119628349,2010-12-07 02:14:09,4232.109850494499,2,5,0.5501165986061096,4.089247226715088,4.371463145740535,3.727692893556211,17.48519647441987,13.525373211655456,6.47544875391759e-05,0.0924721807241439,0,0,0
1386,49267.42704454631,2010-12-07 02:14:39,4262.124932200901,2,5,0.5501165986061096,4.092161178588867,4.376049984144135,3.727692893556211,17.50396036281756,13.525373211655456,3.24249267578125e-05,0.0924721807241439,0,0,0
1387,49297.44211886935,2010-12-07 02:15:09,4292.140006518915,2,5,0.550297200679779,4.095075130462647,4.380636816556819,3.727692893556211,17.52273777905921,13.525373211655456,6.47544875391759e-05,0.0924721807241439,0,0,0
1388,49327.45732034879,2010-12-07 02:15:39,4322.155208073553,2,5,0.5499359965324402,4.098312854766846,4.385223654656374,3.727692893556211,17.54152895531279,13.525373211655456,9.71794142969884e-05,0.0924721807241439,0,0,0
1389,49357.47227904409,2010-12-07 02:16:09,4352.170166703681,2,5,0.5501165986061096,4.101226806640625,4.389810498111181,3.727692893556211,17.560334046919678,13.525373211655456,6.47544875391759e-05,0.0924721807241439,0,0,0
1390,49387.48735298115,2010-12-07 02:16:39,4382.185240630724,2,5,0.5501165986061096,4.104302406311035,4.394397389386519,3.727692893556211,17.579153274211315,13.525373211655456,6.47544875391759e-05,0.0924721807241439,0,0,0
1391,49417.50242739441,2010-12-07 02:17:09,4412.200315043975,2,5,0.5501165986061096,4.107378482818604,4.398984240690705,3.727692893556211,17.597986468824665,13.525373211655456,6.47544875391759e-05,0.0924721807241439,0,0,0
1392,49447.517765067765,2010-12-07 02:17:39,4442.215652737388,2,5,0.5501165986061096,4.110616207122803,4.40357111885722,3.727692893556211,17.616834037371685,13.525373211655456,6.47544875391759e-05,0.0924721807241439,0,0,0
1393,49477.53257318334,2010-12-07 02:18:09,4472.230460832919,2,5,0.550297200679779,4.113853931427002,4.408157924397714,3.727692893556211,17.635695620089017,13.525373211655456,9.71794142969884e-05,0.0924721807241439,0,0,0
1394,49507.54768674401,2010-12-07 02:18:39,4502.245574483812,2,5,0.550297200679779,4.116929531097412,4.41274474987735,3.727692893556211,17.654571689819523,13.525373211655456,9.71794142969884e-05,0.0924721807241439,0,0,0
1395,49537.562735834246,2010-12-07 02:19:09,4532.2606234938485,2,5,0.550297200679779,4.120167255401611,4.417331581904525,3.727692893556211,17.6734623367229,13.525373211655456,6.47544875391759e-05,0.0924721807241439,0,0,0
1396,49567.57781823738,2010-12-07 02:19:39,4562.275705896982,2,5,0.5499359965324402,4.1232428550720215,4.421918518521321,3.727692893556211,17.69236816881146,13.525373211655456,9.70840483205393e-05,0.0924721807241439,0,0,0
1397,49597.5928779691,2010-12-07 02:20:09,4592.290765628699,2,5,0.5499359965324402,4.126480579376221,4.426505374658162,3.727692893556211,17.71128851173914,13.525373211655456,6.47544875391759e-05,0.0924721807241439,0,0,0
1398,49627.60796376067,2010-12-07 02:20:39,4622.305851420265,2,5,0.550297200679779,4.129880428314209,4.431092224734735,3.727692893556211,17.730223782243574,13.525373211655456,0.0001295089750783,0.0924721807241439,0,0,0
1399,49657.623034815566,2010-12-07 02:21:09,4652.320922470147,2,5,0.550297200679779,4.133118152618408,4.43567910719483,3.727692893556211,17.749174235372795,13.525373211655456,6.47544875391759e-05,0.0924721807241439,0,0,0
1400,49687.63822946301,2010-12-07 02:21:39,4682.336117112584,2,5,0.5501165986061096,4.136355876922607,4.440266010326249,3.727692893556211,17.768139904194925,13.525373211655456,6.47544875391759e-05,0.0924721807241439,0,0,0
1401,49717.6534061207,2010-12-07 02:22:09,4712.351293890567,2,5,0.5501165986061096,4.1397552490234375,4.444852963910195,3.727692893556211,17.787121094799595,13.525373211655456,9.70840483205393e-05,0.0924721807241439,0,0,0
1402,49747.668258285885,2010-12-07 02:22:39,4742.366145940475,2,5,0.5501165986061096,4.143155097961426,4.449439893806445,3.727692893556211,17.806117506744044,13.525373211655456,9.71794142969884e-05,0.0924721807241439,0,0,0
1403,49777.683357851725,2010-12-07 02:23:09,4772.381245526368,2,5,0.5501165986061096,4.146392822265625,4.454026789801534,3.727692893556211,17.825129441215175,13.525373211655456,6.47544875391759e-05,0.0924721807241439,0,0,0
1404,49807.69853405328,2010-12-07 02:23:39,4802.396421712878,2,5,0.5499359965324402,4.149792194366455,4.458613604889686,3.727692893556211,17.844156787863593,13.525373211655456,3.23295607813634e-05,0.0924721807241439,0,0,0
1405,49837.713455019686,2010-12-07 02:24:09,4832.411342674271,2,5,0.5501165986061096,4.153515815734863,4.46320040586571,3.727692893556211,17.863199822655407,13.525373211655456,0.0001295089750783,0.0924721807241439,0,0,0
1406,49867.72869142605,2010-12-07 02:24:39,4862.426579075623,2,5,0.5499359965324402,4.156753540039063,4.467787293789204,3.727692893556211,17.882258946043944,13.525373211655456,6.47544875391759e-05,0.0924721807241439,0,0,0
1407,49897.743660371845,2010-12-07 02:25:09,4892.441548026435,2,5,0.550297200679779,4.160315036773682,4.47237405835881,3.727692893556211,17.901333459120533,13.525373211655456,9.71794142969884e-05,0.0924721807241439,0,0,0
1408,49927.75871956723,2010-12-07 02:25:39,4922.456607322067,2,5,0.5501165986061096,4.163714408874512,4.476960900742334,3.727692893556211,17.920424280582697,13.525373211655456,6.47544875391759e-05,0.0924721807241439,0,0,0
1409,49957.77392333237,2010-12-07 02:26:09,4952.471810986956,2,5,0.5499359965324402,4.1671142578125,4.481547741863486,3.727692893556211,17.93953106164001,13.525373211655456,6.47544875391759e-05,0.0924721807241439,0,0,0
1410,49987.78903201089,2010-12-07 02:26:39,4982.486919680512,2,5,0.550297200679779,4.170999526977539,4.48613457855497,3.727692893556211,17.958654104532236,13.525373211655456,0.0001295089750783,0.0924721807241439,0,0,0
1411,50017.80396083685,2010-12-07 02:27:09,5012.501848496451,2,5,0.5501165986061096,4.174398899078369,4.490721433837628,3.727692893556211,17.977793600884443,13.525373211655456,9.70840483205393e-05,0.0924721807241439,0,0,0
1412,50047.819152948,2010-12-07 02:27:39,5042.517040692801,2,5,0.550297200679779,4.178284168243408,4.495308346847666,3.727692893556211,17.996949732984376,13.525373211655456,0.0001295089750783,0.0924721807241439,0,0,0
1413,50077.834270428415,2010-12-07 02:28:09,5072.532158088012,2,5,0.5501165986061096,4.1816840171813965,4.499895220366699,3.727692893556211,18.01612236631184,13.525373211655456,9.71794142969884e-05,0.0924721807241439,0,0,0
1414,50107.849188046486,2010-12-07 02:28:39,5102.547075701072,2,5,0.5501165986061096,4.185407161712647,4.504482049333705,3.727692893556211,18.0353114760854,13.525373211655456,9.70840483205393e-05,0.0924721807241439,0,0,0
1415,50137.86446303385,2010-12-07 02:29:09,5132.562350773655,2,5,0.5501165986061096,4.188968658447266,4.509068899435666,3.727692893556211,18.054517507020435,13.525373211655456,9.70840483205393e-05,0.0924721807241439,0,0,0
1416,50167.879362977954,2010-12-07 02:29:39,5162.5772507277725,2,5,0.5501165986061096,4.192853927612305,4.51365570108483,3.727692893556211,18.073740319840816,13.525373211655456,0.0001295089750783,0.0924721807241439,0,0,0
1417,50197.89458128428,2010-12-07 02:30:09,5192.592469029084,2,5,0.550297200679779,4.196577072143555,4.51824256543551,3.727692893556211,18.092980367618324,13.525373211655456,9.70840483205393e-05,0.0924721807241439,0,0,0
1418,50225.89407186468,2010-12-07 02:30:37,5220.591959539314,2,5,0.550297200679779,4.200138568878174,4.522521354664212,3.727692893556211,18.11094347169737,13.525373211655456,0.0001295089750783,0.0924721807241439,0,0,0
1419,50255.907852379365,2010-12-07 02:31:08,30.01511941022467,3,5,0.0,4.112396717071533,4.522521354664212,3.727692893556211,18.11094347169737,13.525373211655456,-0.0003885269106831,0.0924721807241439,0,0,0
1420,50285.92286357531,2010-12-07 02:31:38,60.030130515937735,3,5,0.0,4.101388454437256,4.522521354664212,3.727692893556211,18.11094347169737,13.525373211655456,-0.0001942634553415,0.0924721807241439,0,0,0
1421,50315.93794631929,2010-12-07 02:32:08,90.04521325991988,3,5,0.0,4.094913005828857,4.522521354664212,3.727692893556211,18.11094347169737,13.525373211655456,-0.0001619339018361,0.0924721807241439,0,0,0
1422,50345.906156953824,2010-12-07 02:32:38,120.01342395461012,3,5,0.0,4.090866088867188,4.522521354664212,3.727692893556211,18.11094347169737,13.525373211655456,-9.70840483205393e-05,0.0924721807241439,0,0,0
1423,50345.90716289204,2010-12-07 02:32:38,2.711748081e-06,4,5,1.0068774223327637,4.199814796447754,4.522521355422656,3.727692893556211,18.110943474882696,13.525373211655456,0.0,0.0924721807241439,0,0,0
1424,50346.50071296857,2010-12-07 02:32:38,0.593552803322113,4,5,0.9557650685310364,4.199814796447754,4.522681488881495,3.727692893556211,18.11161598666169,13.525373211655456,0.0,0.0924721807241439,0,0,0
1425,50348.31317716099,2010-12-07 02:32:40,2.406016995754821,4,5,0.905375063419342,4.199653148651123,4.523148954884255,3.727692893556211,18.11357921926391,13.525373211655456,-3.23295607813634e-05,0.0924721807241439,0,0,0
1426,50351.20375838119,2010-12-07 02:32:43,5.296598215945063,4,5,0.8551656603813171,4.199814796447754,4.523854795858318,3.727692893556211,18.116543569125643,13.525373211655456,3.23295607813634e-05,0.0924721807241439,0,0,0
1427,50355.23523309094,2010-12-07 02:32:47,9.328073020940572,4,5,0.804956316947937,4.199653148651123,4.524783337258664,3.727692893556211,18.120443210744344,13.525373211655456,-3.23295607813634e-05,0.0924721807241439,0,0,0
1428,50360.60986387794,2010-12-07 02:32:52,14.702703727737871,4,5,0.7549275159835815,4.199653148651123,4.525946596351912,3.727692893556211,18.125328617702923,13.525373211655456,0.0,0.0924721807241439,0,0,0
1429,50367.57845871317,2010-12-07 02:32:59,21.671298552937504,4,5,0.7048987746238708,4.199814796447754,4.527357798898649,3.727692893556211,18.13125534117267,13.525373211655456,0.0,0.0924721807241439,0,0,0
1430,50376.859582347366,2010-12-07 02:33:09,30.95242233249664,4,5,0.6548699736595154,4.199814796447754,4.529108051425895,3.727692893556211,18.13860599570155,13.525373211655456,3.23295607813634e-05,0.0924721807241439,0,0,0
1431,50389.76554344517,2010-12-07 02:33:22,43.85838327993122,4,5,0.6046606302261353,4.199814796447754,4.531361209281211,3.727692893556211,18.148068735036965,13.525373211655456,3.23295607813634e-05,0.0924721807241439,0,0,0
1432,50408.98394835662,2010-12-07 02:33:41,63.07678828662094,4,5,0.5546318292617798,4.199653148651123,4.534447361958185,3.727692893556211,18.16102987304334,13.525373211655456,-3.23295607813634e-05,0.0924721807241439,0,0,0
1433,50442.04585157617,2010-12-07 02:34:14,96.13869141093411,4,5,0.5046030879020691,4.199653148651123,4.539291146638313,3.727692893556211,18.181372666234008,13.525373211655456,-3.23295607813634e-05,0.0924721807241439,0,0,0
1434,50502.99787290694,2010-12-07 02:35:15,157.0907127467197,4,5,0.454574316740036,4.199653148651123,4.547371077888102,3.727692893556211,18.215306508070675,13.525373211655456,0.0,0.0924721807241439,0,0,0
1435,50599.23069500347,2010-12-07 02:36:51,253.32353493346903,4,5,0.4045455455780029,4.199653148651123,4.558825149012206,3.727692893556211,18.263410986696776,13.525373211655456,0.0,0.0924721807241439,0,0,0
1436,50723.07196595812,2010-12-07 02:38:55,377.16480579788936,4,5,0.3545167744159698,4.199814796447754,4.5718644407028,3.727692893556211,18.318173084640108,13.525373211655456,3.23295607813634e-05,0.0924721807241439,0,0,0
1437,50870.913018210456,2010-12-07 02:41:23,525.0058580502249,4,5,0.3044880032539367,4.199653148651123,4.585378882017696,3.727692893556211,18.37493074557385,13.525373211655456,-6.47544875391759e-05,0.0924721807241439,0,0,0
1438,51048.47240178227,2010-12-07 02:44:20,702.5652416220363,4,5,0.2544592320919037,4.199814796447754,4.599145165203077,3.727692893556211,18.43274607385521,13.525373211655456,0.0,0.0924721807241439,0,0,0
1439,51267.3901715424,2010-12-07 02:47:59,921.4830113771576,4,5,0.2044304609298706,4.199653148651123,4.61305902765579,3.727692893556211,18.491181190050543,13.525373211655456,-3.23295607813634e-05,0.0924721807241439,0,0,0
1440,51548.72891175671,2010-12-07 02:52:41,1202.8217515914605,4,5,0.1544016897678375,4.199653148651123,4.627008276138917,3.727692893556211,18.549764910780247,13.525373211655456,-3.23295607813634e-05,0.0924721807241439,0,0,0
1441,51965.0493246669,2010-12-07 02:59:37,1619.1421645066762,4,5,0.1040116995573043,4.199814796447754,4.641783661896754,3.727692893556211,18.61181826447265,13.525373211655456,0.0,0.0924721807241439,0,0,0
1442,52750.8631942277,2010-12-07 03:12:43,2404.95603409253,4,5,0.0539829321205616,4.199814796447754,4.658389735998537,3.727692893556211,18.681560071725496,13.525373211655456,0.0,0.0924721807241439,0,0,0
1443,52861.33007985385,2010-12-07 03:14:33,2515.4229197888594,4,5,0.0496483072638511,4.199653148651123,4.659998690371329,3.727692893556211,18.688317301231105,13.525373211655456,-3.23295607813634e-05,0.0924721807241439,0,0,0
1444,52891.3449434232,2010-12-07 03:15:03,30.015074007241097,5,5,0.0,4.191558837890625,4.659998690371329,3.727692893556211,18.688317301231105,13.525373211655456,-3.24249267578125e-05,0.0924721807241439,0,0,0
1445,52921.344379105074,2010-12-07 03:15:33,60.01450971417335,5,5,0.0,4.190263748168945,4.659998690371329,3.727692893556211,18.688317301231105,13.525373211655456,-6.47544875391759e-05,0.0924721807241439,0,0,0
1446,52921.53296474426,2010-12-07 03:15:34,0.187505374913728,6,5,-1.9243103452026844e-05,4.190263748168945,4.659998694072627,3.727692893556211,18.68831731674052,13.525373211655456,0.0,0.0963535830378532,0,0,0
1447,52926.361128875,2010-12-07 03:15:38,5.015669515679402,6,5,0.0003419754502829,4.190263748168945,4.659999585584989,3.727692893723348,18.688321052545444,13.525373212355802,0.0,0.0963535830378532,0,0,0
1448,52956.37721986359,2010-12-07 03:16:09,30.015064298080222,7,5,-1.0997490882873535,4.009275436401367,4.659999585584989,3.736861880564568,18.688321052545444,13.562337902726489,-0.0009389877086505,0.0963535830378532,0,0,0
1449,52986.392302452194,2010-12-07 03:16:39,60.03014691173806,7,5,-1.099929690361023,3.981269359588623,4.659999585584989,3.746030801401366,18.688321052545444,13.598961143969174,-0.0006475448608398,0.0963535830378532,0,0,0
1450,53016.407390870285,2010-12-07 03:17:09,90.0452353148026,7,5,-1.099929690361023,3.9620048999786377,4.659999585584989,3.755199655166587,18.688321052545444,13.635372225366474,-0.0004532813909463,0.0963535830378532,0,0,0
1451,53046.42247000028,2010-12-07 03:17:39,120.06031442975404,7,5,-1.099568486213684,3.947111368179321,4.659999585584989,3.764368488039583,18.688321052545444,13.671628034730109,-0.0003237724304199,0.0963535830378532,0,0,0
1452,53076.43753192747,2010-12-07 03:18:09,150.0753763719718,7,5,-1.0997490882873535,3.9343223571777344,4.659999585584989,3.773537300037515,18.688321052545444,13.707757653106304,-0.0002913951757363,0.0963535830378532,0,0,0
1453,53106.45261288199,2010-12-07 03:18:39,180.090457316476,7,5,-1.099568486213684,3.922828435897827,4.659999585584989,3.782706135190394,18.688321052545444,13.743777149164377,-0.0002590179501567,0.0963535830378532,0,0,0
1454,53136.46767762618,2010-12-07 03:19:09,210.1055220606664,7,5,-1.0997490882873535,3.911982297897339,4.659999585584989,3.791875001822773,18.688321052545444,13.77969534731573,-0.0003237724304199,0.0963535830378532,0,0,0
1455,53166.48276180874,2010-12-07 03:19:39,240.1206062432283,7,5,-1.0997490882873535,3.9021072387695312,4.659999585584989,3.801043861143725,18.688321052545444,13.815518582278408,-0.0002913951757363,0.0963535830378532,0,0,0
1456,53196.49792033631,2010-12-07 03:20:09,270.1357648560071,7,5,-1.0997490882873535,3.8923940658569336,4.659999585584989,3.810212718361757,18.688321052545444,13.851251368477223,-0.0002590179501567,0.0963535830378532,0,0,0
1457,53226.51315882786,2010-12-07 03:20:39,300.15100332751115,7,5,-1.0997490882873535,3.883004665374756,4.659999585584989,3.819381575891162,18.688321052545444,13.886897493809254,-0.0002590179501567,0.0963535830378532,0,0,0
1458,53256.52802812569,2010-12-07 03:21:09,330.16587256017857,7,5,-1.0997490882873535,3.873939037322998,4.659999585584989,3.828550367748025,18.688321052545444,13.922458342094044,-0.0002266406954731,0.0963535830378532,0,0,0
1459,53286.54313176166,2010-12-07 03:21:39,360.18097619614963,7,5,-1.0997490882873535,3.86503529548645,4.659999585584989,3.83771925714692,18.688321052545444,13.957937235805485,-0.0002266406954731,0.0963535830378532,0,0,0
1460,53316.558184465895,2010-12-07 03:22:09,390.1960289254414,7,5,-1.099568486213684,3.856293439865112,4.659999585584989,3.846888128422866,18.688321052545444,13.993335659370906,-0.0002266406954731,0.0963535830378532,0,0,0
1461,53346.57325978139,2010-12-07 03:22:39,420.2111042158757,7,5,-1.0997490882873535,3.8478753566741934,4.659999585584989,3.856057010962927,18.688321052545444,14.028655069876958,-0.0002266406954731,0.0963535830378532,0,0,0
1462,53376.5883505704,2010-12-07 03:23:09,450.2261950048775,7,5,-1.0997490882873535,3.839457273483277,4.659999585584989,3.865225920827846,18.688321052545444,14.063896867931048,-0.0001942634553415,0.0963535830378532,0,0,0
1463,53406.60344435184,2010-12-07 03:23:39,480.241288871538,7,5,-1.0997490882873535,3.831201314926148,4.659999585584989,3.874394783122494,18.688321052545444,14.099062099168846,-0.0002266406954731,0.0963535830378532,0,0,0
1464,53436.61851894554,2010-12-07 03:24:09,510.2563634050889,7,5,-1.099568486213684,3.8232688903808594,4.659999585584989,3.883563646833091,18.688321052545444,14.134152838440691,-0.0001942634553415,0.0963535830378532,0,0,0
1465,53466.63356920869,2010-12-07 03:24:39,540.2714136682437,7,5,-1.099929690361023,3.815012693405152,4.659999585584989,3.892732778725901,18.688321052545444,14.169171298360425,-0.0002590179501567,0.0963535830378532,0,0,0
1466,53496.6487733598,2010-12-07 03:25:09,570.2866178193427,7,5,-1.0997490882873535,3.807242155075073,4.659999585584989,3.901902513673611,18.688321052545444,14.204119177033562,-0.0002266406954731,0.0963535830378532,0,0,0
1467,53526.664016653296,2010-12-07 03:25:39,600.301861142921,7,5,-1.0997490882873535,3.799633502960205,4.659999585584989,3.911072226773087,18.688321052545444,14.238996348135146,-0.0002590179501567,0.0963535830378532,0,0,0
1468,53556.67887920434,2010-12-07 03:26:09,630.3167237340614,7,5,-1.0997490882873535,3.792348623275757,4.659999585584989,3.920241795950405,18.688321052545444,14.273804140641776,-0.0001618862152099,0.0963535830378532,0,0,0
1469,53586.69396441447,2010-12-07 03:26:39,660.3318088539559,7,5,-1.0997490882873535,3.785225629806519,4.659999585584989,3.929411205912972,18.688321052545444,14.308544302794134,-0.0001618862152099,0.0963535830378532,0,0,0
1470,53616.70896969066,2010-12-07 03:27:09,690.3468141451998,7,5,-1.0997490882873535,3.7779407501220703,4.659999585584989,3.938580095666227,18.688321052545444,14.343216942888873,-0.0002266406954731,0.0963535830378532,0,0,0
1471,53646.72409471987,2010-12-07 03:27:39,720.3619391744071,7,5,-1.0997490882873535,3.770979642868042,4.659999585584989,3.947749018754311,18.688321052545444,14.377825512837354,-0.0001942634553415,0.0963535830378532,0,0,0
1472,53676.73912991052,2010-12-07 03:28:09,750.3769743450047,7,5,-1.0997490882873535,3.764180421829224,4.659999585584989,3.956917882368089,18.688321052545444,14.412370315751588,-0.0001942634553415,0.0963535830378532,0,0,0
1473,53706.75421008812,2010-12-07 03:28:39,780.3920545226005,7,5,-1.099929690361023,3.7575430870056152,4.659999585584989,3.966086813730489,18.688321052545444,14.446853679719666,-0.0001618862152099,0.0963535830378532,0,0,0
1474,53736.769288365984,2010-12-07 03:29:09,810.4071328205188,7,5,-1.099929690361023,3.750905990600586,4.659999585584989,3.975255727350239,18.688321052545444,14.481276624932567,-0.0001942634553415,0.0963535830378532,0,0,0
1475,53766.78438479402,2010-12-07 03:29:39,840.4222292535655,7,5,-1.099568486213684,3.744754314422608,4.659999585584989,3.984424662182875,18.688321052545444,14.51564045144356,-0.0001618862152099,0.0963535830378532,0,0,0
1476,53796.79969279855,2010-12-07 03:30:09,870.4375372430624,7,5,-1.0997490882873535,3.738440752029419,4.659999585584989,3.99359370894863,18.688321052545444,14.549946877798602,-0.0001942634553415,0.0963535830378532,0,0,0
1477,53826.81452500408,2010-12-07 03:30:39,900.4523694335519,7,5,-1.0997490882873535,3.73228907585144,4.659999585584989,4.002762549991671,18.688321052545444,14.584195937609913,-0.0001618862152099,0.0963535830378532,0,0,0
1478,53856.82962490074,2010-12-07 03:31:09,930.4674693552804,7,5,-1.099929690361023,3.726299285888672,4.659999585584989,4.011931516811631,18.688321052545444,14.61838983203092,-0.0001942634553415,0.0963535830378532,0,0,0
1479,53886.84482166848,2010-12-07 03:31:39,960.4826661280184,7,5,-1.099568486213684,3.720471382141113,4.659999585584989,4.021100483911806,18.688321052545444,14.652529024506448,-0.0001618862152099,0.0963535830378532,0,0,0
1480,53916.86006367377,2010-12-07 03:32:09,990.4979082085036,7,5,-1.0997490882873535,3.714319705963135,4.659999585584989,4.030269484034878,18.688321052545444,14.686614011254326,-0.0001618862152099,0.0963535830378532,0,0,0
1481,53946.87485494744,2010-12-07 03:32:39,1020.512699567385,7,5,-1.0997490882873535,3.708653688430786,4.659999585584989,4.039438281345198,18.688321052545444,14.720644771048084,-0.0001618862152099,0.0963535830378532,0,0,0
1482,53976.8900597251,2010-12-07 03:33:09,1050.527904224744,7,5,-1.0997490882873535,3.7029876708984375,4.659999585584989,4.048607292211157,18.688321052545444,14.754623544394068,-0.0001618862152099,0.0963535830378532,0,0,0
1483,54006.905016821416,2010-12-07 03:33:39,1080.542861250882,7,5,-1.099568486213684,3.697321653366089,4.659999585584989,4.057776178603231,18.688321052545444,14.788549914233908,-0.0001295089750783,0.0963535830378532,0,0,0
1484,54036.92021703772,2010-12-07 03:34:09,1110.5580614972644,7,5,-1.0997490882873535,3.69197940826416,4.659999585584989,4.066945156896803,18.688321052545444,14.82242583820844,-9.713172767078504e-05,0.0963535830378532,0,0,0
1485,54066.935193081175,2010-12-07 03:34:39,1140.5730375908513,7,5,-1.099568486213684,3.6864752769470215,4.659999585584989,4.076114155013205,18.688321052545444,14.856251596507724,-0.0001295089750783,0.0963535830378532,0,0,0
1486,54096.95023414645,2010-12-07 03:35:09,1170.588078605993,7,5,-1.0997490882873535,3.6811330318450928,4.659999585584989,4.08528311090311,18.688321052545444,14.890027871506549,-0.0001295089750783,0.0963535830378532,0,0,0
1487,54126.96534391267,2010-12-07 03:35:39,1200.6031883722185,7,5,-1.099568486213684,3.675790786743164,4.659999585584989,4.094452065655387,18.688321052545444,14.923755284091358,-0.0001295089750783,0.0963535830378532,0,0,0
1488,54156.98040413561,2010-12-07 03:36:09,1230.618248595158,7,5,-1.0997490882873535,3.670610666275024,4.659999585584989,4.103621042712512,18.688321052545444,14.957434772228147,-0.0001295089750783,0.0963535830378532,0,0,0
1489,54186.99569400502,2010-12-07 03:36:39,1260.633538489626,7,5,-1.099568486213684,3.665592193603516,4.659999585584989,4.112790068363045,18.688321052545444,14.99106687227648,-9.713172767078504e-05,0.0963535830378532,0,0,0
1490,54217.01056407477,2010-12-07 03:37:09,1290.6484085092518,7,5,-1.0997490882873535,3.660411834716797,4.659999585584989,4.121959024892342,18.688321052545444,15.024652096335812,-0.0001295089750783,0.0963535830378532,0,0,0
1491,54247.02565114952,2010-12-07 03:37:39,1320.6634955840111,7,5,-1.0997490882873535,3.655393362045288,4.659999585584989,4.131127975714455,18.688321052545444,15.05819130768562,-0.0001295089750783,0.0963535830378532,0,0,0
1492,54277.040739692944,2010-12-07 03:38:09,1350.6785841474748,7,5,-1.099929690361023,3.650536775588989,4.659999585584989,4.140296936140286,18.688321052545444,15.091685263974371,-0.0001295089750783,0.0963535830378532,0,0,0
1493,54307.05579782568,2010-12-07 03:38:39,1380.6936422551505,7,5,-1.099568486213684,3.6456801891326895,4.659999585584989,4.149465862703827,18.688321052545444,15.125134438748438,-0.0001295089750783,0.0963535830378532,0,0,0
1494,54337.07088184283,2010-12-07 03:39:09,1410.708726327438,7,5,-1.099929690361023,3.6409854888916016,4.659999585584989,4.158634811432751,18.688321052545444,15.158539982961916,-9.713172767078504e-05,0.0963535830378532,0,0,0
1495,54367.08598015054,2010-12-07 03:39:39,1440.723824580013,7,5,-1.099929690361023,3.636128902435303,4.659999585584989,4.167803789441162,18.688321052545444,15.191902491338144,-0.0001618862152099,0.0963535830378532,0,0,0
1496,54397.10103404774,2010-12-07 03:40:09,1470.7388784772106,7,5,-1.0997490882873535,3.631757974624634,4.659999585584989,4.176972736672901,18.688321052545444,15.225222856773122,-0.0001295089750783,0.0963535830378532,0,0,0
1497,54427.11612351846,2010-12-07 03:40:39,1500.7539679780066,7,5,-1.0997490882873535,3.627225160598755,4.659999585584989,4.186141675173626,18.688321052545444,15.25850182878236,-0.0001618862152099,0.0963535830378532,0,0,0
1498,54457.13131495291,2010-12-07 03:41:09,1530.7691593924112,7,5,-1.0997490882873535,3.623016119003296,4.659999585584989,4.195310603806885,18.688321052545444,15.291740038167882,-9.713172767078504e-05,0.0963535830378532,0,0,0
1499,54487.14629261039,2010-12-07 03:41:39,1560.7841370599144,7,5,-1.0997490882873535,3.618645191192627,4.659999585584989,4.204479518332478,18.688321052545444,15.324938687097465,-9.713172767078504e-05,0.0963535830378532,0,0,0
1500,54517.16147478681,2010-12-07 03:42:09,1590.7993192463557,7,5,-1.099568486213684,3.614436149597168,4.659999585584989,4.213648449065401,18.688321052545444,15.358098532230438,-9.713172767078504e-05,0.0963535830378532,0,0,0
1501,54547.17642994831,2010-12-07 03:42:39,1620.8142743777787,7,5,-1.099568486213684,3.610388994216919,4.659999585584989,4.222817355702622,18.688321052545444,15.391220146142382,-0.0001295089750783,0.0963535830378532,0,0,0
1502,54577.19153859175,2010-12-07 03:43:09,1650.8293830763475,7,5,-1.0997490882873535,3.60634183883667,4.659999585584989,4.231986330138311,18.688321052545444,15.424304923833258,-0.0001295089750783,0.0963535830378532,0,0,0
1503,54607.20665239301,2010-12-07 03:43:39,1680.844496932752,7,5,-1.0997490882873535,3.602456569671631,4.659999585584989,4.241155356643526,18.688321052545444,15.457353826946107,-9.713172767078504e-05,0.0963535830378532,0,0,0
1504,54637.22180254974,2010-12-07 03:44:09,1710.8596470092884,7,5,-1.0997490882873535,3.5987331867218018,4.659999585584989,4.250324401309337,18.688321052545444,15.49036768478932,-6.47544875391759e-05,0.0963535830378532,0,0,0
1505,54667.236748623625,2010-12-07 03:44:39,1740.8745930831724,7,5,-1.099929690361023,3.5950098037719727,4.659999585584989,4.259493387011053,18.688321052545444,15.52334730124684,-0.0001295089750783,0.0963535830378532,0,0,0
1506,54697.25200539568,2010-12-07 03:45:09,1770.889849890304,7,5,-1.0997490882873535,3.5916104316711426,4.659999585584989,4.268662458868463,18.688321052545444,15.556294100069044,-3.237724376958795e-05,0.0963535830378532,0,0,0
1507,54727.26704739827,2010-12-07 03:45:40,1800.9048918427782,7,5,-1.0997490882873535,3.5880489349365234,4.659999585584989,4.277831434535279,18.688321052545444,15.589208046827984,-9.713172767078504e-05,0.0963535830378532,0,0,0
1508,54757.28222859224,2010-12-07 03:46:10,1830.920073036749,7,5,-1.0997490882873535,3.5846493244171143,4.659999585584989,4.287000529938868,18.688321052545444,15.622090663968915,-6.47544875391759e-05,0.0963535830378532,0,0,0
1509,54787.29706416615,2010-12-07 03:46:40,1860.9349085956208,7,5,-1.099568486213684,3.581249713897705,4.659999585584989,4.296169501520004,18.688321052545444,15.654942014207569,-9.713172767078504e-05,0.0963535830378532,0,0,0
1510,54817.31214175229,2010-12-07 03:47:10,1890.949986181768,7,5,-1.0997490882873535,3.577850103378296,4.659999585584989,4.305338502301601,18.688321052545444,15.687763270638062,-0.0001295089750783,0.0963535830378532,0,0,0
1511,54847.32735791328,2010-12-07 03:47:40,1920.965202352778,7,5,-1.0997490882873535,3.5746123790740967,4.659999585584989,4.314507625986881,18.688321052545444,15.720555221743629,-0.0001295089750783,0.0963535830378532,0,0,0
1512,54877.34230085437,2010-12-07 03:48:10,1950.9801453139155,7,5,-1.0997490882873535,3.5715365409851074,4.659999585584989,4.323676613619912,18.688321052545444,15.753317398121684,-9.713172767078504e-05,0.0963535830378532,0,0,0
1513,54907.35741398396,2010-12-07 03:48:40,1980.9952584384987,7,5,-1.0997490882873535,3.568460702896118,4.659999585584989,4.332845696648151,18.688321052545444,15.78605113783244,-6.47544875391759e-05,0.0963535830378532,0,0,0
1514,54937.3724711092,2010-12-07 03:49:10,2011.010315588792,7,5,-1.0997490882873535,3.565384864807129,4.659999585584989,4.342014723982912,18.688321052545444,15.818756198831316,-9.713172767078504e-05,0.0963535830378532,0,0,0
1515,54967.38755405869,2010-12-07 03:49:40,2041.025398518236,7,5,-1.0997490882873535,3.56230902671814,4.659999585584989,4.351183701287092,18.688321052545444,15.851432893570337,-6.47544875391759e-05,0.0963535830378532,0,0,0
1516,54997.403010066526,2010-12-07 03:50:10,2071.0408546162957,7,5,-1.099929690361023,3.5590713024139404,4.659999585584989,4.360352802919477,18.688321052545444,15.884082340315937,-0.0001295089750783,0.0963535830378532,0,0,0
1517,55027.417833239575,2010-12-07 03:50:40,2101.055677684083,7,5,-1.0997490882873535,3.556319236755371,4.659999585584989,4.369521715922816,18.688321052545444,15.916703212192663,-6.47544875391759e-05,0.0963535830378532,0,0,0
1518,55057.43282816502,2010-12-07 03:51:10,2131.0706725944947,7,5,-1.0997490882873535,3.553081512451172,4.659999585584989,4.378690736615826,18.688321052545444,15.949296476115832,-9.713172767078504e-05,0.0963535830378532,0,0,0
1519,55087.44788082915,2010-12-07 03:51:40,2161.085725263637,7,5,-1.0997490882873535,3.5501675605773926,4.659999585584989,4.3878596534216,18.688321052545444,15.981861077318882,-6.47544875391759e-05,0.0963535830378532,0,0,0
1520,55117.46304772755,2010-12-07 03:52:10,2191.100892257271,7,5,-1.0997490882873535,3.5469298362731934,4.659999585584989,4.397028616116819,18.688321052545444,16.01439735797926,-9.713172767078504e-05,0.0963535830378532,0,0,0
1521,55147.47822777868,2010-12-07 03:52:40,2221.1160723134108,7,5,-1.099568486213684,3.543853998184204,4.659999585584989,4.406197714325224,18.688321052545444,16.04690493846682,-3.237724376958795e-05,0.0963535830378532,0,0,0
1522,55177.493113938464,2010-12-07 03:53:10,2251.1309583679385,7,5,-1.0997490882873535,3.540454387664795,4.659999585584989,4.415366662483983,18.688321052545444,16.079382275325393,-9.713172767078504e-05,0.0963535830378532,0,0,0
1523,55207.50830860597,2010-12-07 03:53:40,2281.1461530404504,7,5,-1.0997490882873535,3.537216663360596,4.659999585584989,4.424535796114516,18.688321052545444,16.11183020193507,-6.47544875391759e-05,0.0963535830378532,0,0,0
1524,55237.52326292537,2010-12-07 03:54:10,2311.1611073598533,7,5,-1.099568486213684,3.5338170528411865,4.659999585584989,4.433704321275307,18.688321052545444,16.14424536994759,-9.713172767078504e-05,0.0963535830378532,0,0,0
1525,55267.53834099271,2010-12-07 03:54:40,2341.17618543221,7,5,-1.099568486213684,3.5304174423217773,4.659999585584989,4.442872680679351,18.688321052545444,16.1766285435907,-6.47544875391759e-05,0.0963535830378532,0,0,0
1526,55297.55344451841,2010-12-07 03:55:10,2371.1912889528944,7,5,-1.099929690361023,3.526694059371948,4.659999585584989,4.452041488480525,18.688321052545444,16.208980821023143,-6.47544875391759e-05,0.0963535830378532,0,0,0
1527,55327.56857273054,2010-12-07 03:55:40,2401.206417270284,7,5,-1.0997490882873535,3.522970676422119,4.659999585584989,4.461210683700215,18.688321052545444,16.241301152851104,-9.713172767078504e-05,0.0963535830378532,0,0,0
1528,55357.58360761041,2010-12-07 03:56:10,2431.221452039884,7,5,-1.099929690361023,3.51908540725708,4.659999585584989,4.470379769076724,18.688321052545444,16.273586479372668,-0.0001618862152099,0.0963535830378532,0,0,0
1529,55387.5986627507,2010-12-07 03:56:40,2461.2365071902,7,5,-1.0997490882873535,3.515362024307251,4.659999585584989,4.479548884616905,18.688321052545444,16.30583637404802,-6.47544875391759e-05,0.0963535830378532,0,0,0
1530,55417.61374190576,2010-12-07 03:57:10,2491.251586340238,7,5,-1.099929690361023,3.511153221130371,4.659999585584989,4.488718026967518,18.688321052545444,16.338049181720056,-9.713172767078504e-05,0.0963535830378532,0,0,0
1531,55447.62897041247,2010-12-07 03:57:40,2521.266814907096,7,5,-1.0997490882873535,3.506782293319702,4.659999585584989,4.497887136767852,18.688321052545444,16.370223027325466,-0.0001295089750783,0.0963535830378532,0,0,0
1532,55477.64396102217,2010-12-07 03:58:10,2551.281805461668,7,5,-1.099929690361023,3.5019257068634038,4.659999585584989,4.507056204583889,18.688321052545444,16.402355327456466,-0.0001618862152099,0.0963535830378532,0,0,0
1533,55507.65902267868,2010-12-07 03:58:40,2581.29686710815,7,5,-1.0997490882873535,3.4970691204071045,4.659999585584989,4.516225331679077,18.688321052545444,16.434443524727723,-0.0001295089750783,0.0963535830378532,0,0,0
1534,55537.67411964807,2010-12-07 03:59:10,2611.3119641025937,7,5,-1.0997490882873535,3.491564989089966,4.659999585584989,4.52539448468591,18.688321052545444,16.46648395724888,-0.0001618862152099,0.0963535830378532,0,0,0
1535,55567.68934986903,2010-12-07 03:59:40,2641.327194303517,7,5,-1.0997490882873535,3.4857370853424072,4.659999585584989,4.53456367695889,18.688321052545444,16.498472117220196,-0.0001618862152099,0.0963535830378532,0,0,0
1536,55597.70426414379,2010-12-07 04:00:10,2671.342108573257,7,5,-1.099929690361023,3.478937864303589,4.659999585584989,4.54373266584132,18.688321052545444,16.530401321528398,-0.0001618862152099,0.0963535830378532,0,0,0
1537,55627.71934305324,2010-12-07 04:00:40,2701.3571874826976,7,5,-1.0997490882873535,3.4713292121887207,4.659999585584989,4.552901747457367,18.688321052545444,16.56226547941578,-0.0001942634553415,0.0963535830378532,0,0,0
1538,55657.73439636898,2010-12-07 04:01:10,2731.372240803461,7,5,-1.0997490882873535,3.4627492427825928,4.659999585584989,4.562070822193136,18.688321052545444,16.594056159068955,-0.0002590179501567,0.0963535830378532,0,0,0
1539,55687.74949048626,2010-12-07 04:01:40,2761.3873349357823,7,5,-1.0997490882873535,3.452550411224365,4.659999585584989,4.57123983603272,18.688321052545444,16.625761045553478,-0.0002913951757363,0.0963535830378532,0,0,0
1540,55717.764672301775,2010-12-07 04:02:10,2791.402516781375,7,5,-1.099568486213684,3.440408945083618,4.659999585584989,4.580408900647771,18.688321052545444,16.65736371560345,-0.0003237724304199,0.0963535830378532,0,0,0
1541,55747.779704961125,2010-12-07 04:02:40,2821.4175494156616,7,5,-1.0997490882873535,3.425029993057251,4.659999585584989,4.589578015055081,18.688321052545444,16.68884074039949,-0.0004209041653666,0.0963535830378532,0,0,0
1542,55777.794768442174,2010-12-07 04:03:10,2851.432612871646,7,5,-1.0997490882873535,3.405279874801636,4.659999585584989,4.598747150416291,18.688321052545444,16.72015863591119,-0.0005827903514727,0.0963535830378532,0,0,0
1543,55807.80998418211,2010-12-07 04:03:40,2881.447828616596,7,5,-1.0997490882873535,3.379701852798462,4.659999585584989,4.607916324680186,18.688321052545444,16.75127069111212,-0.0007446765666827,0.0963535830378532,0,0,0
1544,55837.8251929096,2010-12-07 04:04:10,2911.463037344083,7,5,-1.0997490882873535,3.3453822135925293,4.659999585584989,4.617085522484302,18.688321052545444,16.78211064163788,-0.0010360718006268,0.0963535830378532,0,0,0
1545,55867.84000578703,2010-12-07 04:04:40,2941.4778502165004,7,5,-1.0997490882873535,3.2990827560424805,4.659999585584989,4.626254597378662,18.688321052545444,16.8125833424511,-0.0014245987404137,0.0963535830378532,0,0,0
1546,55897.855089368095,2010-12-07 04:05:10,2971.492933802578,7,5,-1.099568486213684,3.234490394592285,4.659999585584989,4.635423721631436,18.688321052545444,16.842553229436092,-0.0019750117789953,0.0963535830378532,0,0,0
1547,55927.87024321903,2010-12-07 04:05:40,3001.5080876986194,7,5,-1.099568486213684,3.1417298316955566,4.659999585584989,4.644592879011381,18.688321052545444,16.87181467699748,-0.002978706266731,0.0963535830378532,0,0,0
1548,55957.88527060525,2010-12-07 04:06:10,3031.523115059784,7,5,-1.099929690361023,2.9948995113372803,4.659999585584989,4.653762029698271,18.688321052545444,16.900012264391798,-0.0050184726715087,0.0963535830378532,0,0,0
1549,55980.16610228293,2010-12-07 04:06:32,3053.8039467224207,7,5,-1.0997490882873535,2.794646739959717,4.659999585584989,4.660568461009982,18.688321052545444,16.919778169127984,-0.0088389869779348,0.0963535830378532,0,0,0
1550,55988.259824008135,2010-12-07 04:06:41,3061.8976684927493,7,5,-1.0997490882873535,2.699943780899048,4.659999585584989,4.663040990288526,18.688321052545444,16.92657201531565,-0.0094541069120168,0.0963535830378532,0,0,0
1551,56048.27629742352,2010-12-07 04:07:41,60.014546821513534,8,5,0.0,3.366750955581665,4.659999585584989,4.663040990288526,18.688321052545444,16.92657201531565,0.0012627125252038,0.0963535830378532,0,0,0
1552,56048.4628229579,2010-12-07 04:07:41,0.187300490065663,9,5,-1.9243103452026844e-05,3.367074728012085,4.659999585584989,4.663040991289705,18.688321052545444,16.92657201868669,0.0,0.0939245000481605,0,0,0
1553,56053.29098781545,2010-12-07 04:07:46,5.015465437839547,9,5,0.0007031940040178,3.375169038772583,4.660000347879797,4.663040991374167,18.688323622894657,16.926572018971083,0.0011332035064697,0.0939245000481605,0,0,0
