Data_Point,Test_Time(s),Date_Time,Step_Time(s),Step_Index,Cycle_Index,Current(A),Voltage(V),Charge_Capacity(Ah),Discharge_Capacity(Ah),Charge_Energy(Wh),Discharge_Energy(Wh),dV/dt(V/s),Internal_Resistance(Ohm),Is_FC_Data,AC_Impedance(Ohm),ACI_Phase_Angle(Deg)
5528,200893.7417476521,2010-12-08 20:22:03,30.01513393135996,1,19,0.0,3.4523885250091557,16.62599443491638,16.61298213902522,66.69068329681345,60.21138935822605,0.0007446765666827,0.0955438911914825,0,0,0
5529,200923.7566835406,2010-12-08 20:22:33,60.030069915134966,1,19,0.0,3.47553825378418,16.62599443491638,16.61298213902522,66.69068329681345,60.21138935822605,0.0005504131549969,0.0955438911914825,0,0,0
5530,200953.7716818144,2010-12-08 20:23:03,90.04506809367928,1,19,0.0,3.4933457374572754,16.62599443491638,16.61298213902522,66.69068329681345,60.21138935822605,0.0004856586456298,0.0955438911914825,0,0,0
5531,200983.73984701585,2010-12-08 20:23:33,120.01323329516144,1,19,0.0,3.506944179534912,16.62599443491638,16.61298213902522,66.69068329681345,60.21138935822605,0.0002913951757363,0.0955438911914825,0,0,0
5532,201013.76217131407,2010-12-08 20:24:03,30.015229193415923,2,19,0.5501165986061096,3.660249948501587,16.63058174527949,16.61298213902522,66.70733419922911,60.21138935822605,0.0013274669181555,0.0955438911914825,0,0,0
5533,201043.7769798808,2010-12-08 20:24:33,60.03003777515587,2,19,0.5501165986061096,3.699588060379028,16.635168900117694,16.61298213902522,66.72422053275997,60.21138935822605,0.0009065627818927,0.0955438911914825,0,0,0
5534,201073.7922570987,2010-12-08 20:25:03,90.04531491789183,2,19,0.550297200679779,3.727594375610352,16.63975614428297,16.61298213902522,66.74125861815295,60.21138935822605,0.0007122993702068,0.0955438911914825,0,0,0
5535,201103.80711824624,2010-12-08 20:25:33,120.06017604538988,2,19,0.5501165986061096,3.7489633560180655,16.644343324294756,16.61298213902522,66.7584084653324,60.21138935822605,0.0004856586456298,0.0955438911914825,0,0,0
5536,201133.82209477093,2010-12-08 20:26:03,150.0751525750618,2,19,0.550297200679779,3.765313625335693,16.648930485846837,16.61298213902522,66.77564476877185,60.21138935822605,0.0003561496851034,0.0955438911914825,0,0,0
5537,201163.8372682056,2010-12-08 20:26:33,180.09032610997366,2,19,0.5501165986061096,3.7764837741851807,16.653517703174092,16.61298213902522,66.79294462960209,60.21138935822605,0.0001942634553415,0.0955438911914825,0,0,0
5538,201193.85211651612,2010-12-08 20:27:03,210.1051743403778,2,19,0.550297200679779,3.784254312515259,16.658104843829086,16.61298213902522,66.81028696268146,60.21138935822605,0.0001942634553415,0.0955438911914825,0,0,0
5539,201223.86727095852,2010-12-08 20:27:33,240.12032884794084,2,19,0.550297200679779,3.7900822162628174,16.662692031494714,16.61298213902522,66.82765962169428,60.21138935822605,0.0001295089750783,0.0955438911914825,0,0,0
5540,201253.8821465972,2010-12-08 20:28:03,270.1352044013372,2,19,0.5501165986061096,3.794938802719116,16.667279167669054,16.61298213902522,66.8450568222538,60.21138935822605,9.713172767078504e-05,0.0955438911914825,0,0,0
5541,201283.8972106296,2010-12-08 20:28:33,300.1502684337563,2,19,0.5501165986061096,3.799795389175415,16.67186636201598,16.61298213902522,66.86247673292299,60.21138935822605,0.0001295089750783,0.0955438911914825,0,0,0
5542,201313.91220763023,2010-12-08 20:29:03,330.16526543436936,2,19,0.5501165986061096,3.804328203201294,16.676453538995265,16.61298213902522,66.87991777877674,60.21138935822605,9.713172767078504e-05,0.0955438911914825,0,0,0
5543,201343.9272326656,2010-12-08 20:29:33,360.1802904697459,2,19,0.5501165986061096,3.808699131011963,16.681040703100283,16.61298213902522,66.89737909561971,60.21138935822605,0.0001295089750783,0.0955438911914825,0,0,0
5544,201373.9424295937,2010-12-08 20:30:03,390.19548747305794,2,19,0.5501165986061096,3.812908172607422,16.685627946595993,16.61298213902522,66.91486023785575,60.21138935822605,9.713172767078504e-05,0.0955438911914825,0,0,0
5545,201403.96074572383,2010-12-08 20:30:33,420.213803633272,2,19,0.5501165986061096,3.817117214202881,16.690215589968357,16.61298213902522,66.9323621969717,60.21138935822605,0.0001295089750783,0.0955438911914825,0,0,0
5546,201433.97250104768,2010-12-08 20:31:03,450.2255589520847,2,19,0.5501165986061096,3.82116436958313,16.694802214977784,16.61298213902522,66.9498786958431,60.21138935822605,0.0001618862152099,0.0955438911914825,0,0,0
5547,201463.98734493728,2010-12-08 20:31:33,480.2404027414374,2,19,0.5501165986061096,3.824887752532959,16.69938933136887,16.61298213902522,66.9674150154656,60.21138935822605,0.0001295089750783,0.0955438911914825,0,0,0
5548,201494.00231890057,2010-12-08 20:32:03,510.2553767197603,2,19,0.5501165986061096,3.828773021697998,16.70397599383481,16.61298213902522,66.98496710595707,60.21138935822605,0.0001295089750783,0.0955438911914825,0,0,0
5549,201524.01736713367,2010-12-08 20:32:33,540.2704250280506,2,19,0.5499359965324402,3.832334518432617,16.70856245628101,16.61298213902522,67.002535749591,60.21138935822605,6.47544875391759e-05,0.0955438911914825,0,0,0
5550,201554.0324117177,2010-12-08 20:33:03,570.285469536886,2,19,0.5499359965324402,3.836057662963867,16.713149024566622,16.61298213902522,67.0201218661609,60.21138935822605,6.47544875391759e-05,0.0955438911914825,0,0,0
5551,201584.04742484345,2010-12-08 20:33:33,600.3004827328004,2,19,0.5501165986061096,3.839942932128906,16.717735443206024,16.61298213902522,67.03772451809444,60.21138935822605,0.0001295089750783,0.0955438911914825,0,0,0
5552,201614.0624878884,2010-12-08 20:34:03,630.3155457075877,2,19,0.5501165986061096,3.843666315078736,16.72232188176161,16.61298213902522,67.05534427487807,60.21138935822605,0.0001295089750783,0.0955438911914825,0,0,0
5553,201644.0776681651,2010-12-08 20:34:33,660.3307259792638,2,19,0.5501165986061096,3.8472278118133545,16.72690833995147,16.61298213902522,67.07298119949013,60.21138935822605,9.713172767078504e-05,0.0955438911914825,0,0,0
5554,201674.092617452,2010-12-08 20:35:03,690.345675256118,2,19,0.550297200679779,3.851274967193604,16.73149512403967,16.61298213902522,67.09063659687163,60.21138935822605,0.0001618862152099,0.0955438911914825,0,0,0
5555,201704.10771911303,2010-12-08 20:35:33,720.3607770023867,2,19,0.5501165986061096,3.8546745777130127,16.736082359064028,16.61298213902522,67.10831089333288,60.21138935822605,9.713172767078504e-05,0.0955438911914825,0,0,0
5556,201734.12256715292,2010-12-08 20:36:03,750.3756249571048,2,19,0.5501165986061096,3.858397960662842,16.740669483900525,16.61298213902522,67.12600187469963,60.21138935822605,6.47544875391759e-05,0.0955438911914825,0,0,0
5557,201764.13764667392,2010-12-08 20:36:33,780.390704493104,2,19,0.5501165986061096,3.862121343612671,16.745256709450455,16.61298213902522,67.14371015147242,60.21138935822605,9.713172767078504e-05,0.0955438911914825,0,0,0
5558,201794.1527692019,2010-12-08 20:37:03,810.4058270912617,2,19,0.5501165986061096,3.86568284034729,16.749843918166846,16.61298213902522,67.16143503284718,60.21138935822605,9.713172767078504e-05,0.0955438911914825,0,0,0
5559,201824.1676747349,2010-12-08 20:37:34,840.4207325540865,2,19,0.550297200679779,3.869244337081909,16.754431142746512,16.61298213902522,67.1791764019974,60.21138935822605,9.713172767078504e-05,0.0955438911914825,0,0,0
5560,201854.1828065209,2010-12-08 20:38:04,870.4358643451205,2,19,0.5501165986061096,3.8726439476013184,16.75901837842281,16.61298213902522,67.19693391484246,60.21138935822605,6.47544875391759e-05,0.0955438911914825,0,0,0
5561,201884.197954001,2010-12-08 20:38:34,900.4510118853455,2,19,0.550297200679779,3.8762054443359375,16.76360563900225,16.61298213902522,67.21470709590285,60.21138935822605,0.0001295089750783,0.0955438911914825,0,0,0
5562,201914.21291577892,2010-12-08 20:39:04,930.4659735831088,2,19,0.550297200679779,3.8794431686401367,16.768192892131776,16.61298213902522,67.23249554321437,60.21138935822605,9.713172767078504e-05,0.0955438911914825,0,0,0
5563,201944.22785414365,2010-12-08 20:39:34,960.4809119478084,2,19,0.550297200679779,3.882680892944336,16.77278010528631,16.61298213902522,67.25029844250041,60.21138935822605,0.0001295089750783,0.0955438911914825,0,0,0
5564,201974.2429889372,2010-12-08 20:40:04,990.4960467563512,2,19,0.550297200679779,3.8855948448181152,16.777367360846082,16.61298213902522,67.26811553653855,60.21138935822605,6.47544875391759e-05,0.0955438911914825,0,0,0
5565,202004.2578346112,2010-12-08 20:40:34,1020.510892430394,2,19,0.550297200679779,3.8885087966918954,16.78195456710457,16.61298213902522,67.28594580194867,60.21138935822605,9.713172767078504e-05,0.0955438911914825,0,0,0
5566,202034.27308053125,2010-12-08 20:41:04,1050.526138335396,2,19,0.550297200679779,3.891098976135254,16.786541876327743,16.61298213902522,67.30378922319177,60.21138935822605,6.47544875391759e-05,0.0955438911914825,0,0,0
5567,202064.2880049061,2010-12-08 20:41:34,1080.5410627804577,2,19,0.550297200679779,3.8935272693634033,16.791129184931318,16.61298213902522,67.32164471897217,60.21138935822605,6.47544875391759e-05,0.0955438911914825,0,0,0
5568,202094.30289428897,2010-12-08 20:42:04,1110.555952108131,2,19,0.5501165986061096,3.8959555625915527,16.79571651639156,16.61298213902522,67.33951143446481,60.21138935822605,3.237724376958795e-05,0.0955438911914825,0,0,0
5569,202124.31802168905,2010-12-08 20:42:34,1140.5710796134997,2,19,0.5501165986061096,3.898060083389282,16.80030380632276,16.61298213902522,67.35738857479214,60.21138935822605,3.237724376958795e-05,0.0955438911914825,0,0,0
5570,202154.32081836465,2010-12-08 20:43:04,1170.5738761888238,2,19,0.550297200679779,3.9003264904022217,16.804889223356483,16.61298213902522,67.37526851652792,60.21138935822605,6.47544875391759e-05,0.0955438911914825,0,0,0
5571,202184.33242182556,2010-12-08 20:43:34,1200.5854796497438,2,19,0.5501165986061096,3.902269124984741,16.80947601665456,16.61298213902522,67.39316338329098,60.21138935822605,3.237724376958795e-05,0.0955438911914825,0,0,0
5572,202214.34756482943,2010-12-08 20:44:04,1230.6006227038054,2,19,0.5501165986061096,3.9042117595672607,16.814063204579057,16.61298213902522,67.41106880690656,60.21138935822605,3.237724376958795e-05,0.0955438911914825,0,0,0
5573,202244.3625122016,2010-12-08 20:44:34,1260.6155700909571,2,19,0.550297200679779,3.9059925079345694,16.818650501971828,16.61298213902522,67.42898334145451,60.21138935822605,3.237724376958795e-05,0.0955438911914825,0,0,0
5574,202274.37778877796,2010-12-08 20:45:04,1290.6308466472335,2,19,0.5501165986061096,3.90793514251709,16.8232377597872,16.61298213902522,67.44690603951172,60.21138935822605,6.47544875391759e-05,0.0955438911914825,0,0,0
5575,202304.3924609051,2010-12-08 20:45:34,1320.6455187242868,2,19,0.5501165986061096,3.9097158908844,16.827824937948602,16.61298213902522,67.46483655414842,60.21138935822605,3.237724376958795e-05,0.0955438911914825,0,0,0
5576,202334.40748324376,2010-12-08 20:46:04,1350.6605410629527,2,19,0.5499359965324402,3.911334753036499,16.83241223642408,16.61298213902522,67.48277540573811,60.21138935822605,0.0,0.0955438911914825,0,0,0
5577,202364.4225194369,2010-12-08 20:46:34,1380.6755772560948,2,19,0.5501165986061096,3.912953615188599,16.836999467595227,16.61298213902522,67.50072168782324,60.21138935822605,3.237724376958795e-05,0.0955438911914825,0,0,0
5578,202394.44093761093,2010-12-08 20:47:04,1410.6939955203911,2,19,0.5499359965324402,3.914734125137329,16.84158726796676,16.61298213902522,67.51867778542768,60.21138935822605,6.47544875391759e-05,0.0955438911914825,0,0,0
5579,202424.45258341223,2010-12-08 20:47:34,1440.7056413016237,2,19,0.550297200679779,3.9163529872894287,16.846174068728804,16.61298213902522,67.53663735172681,60.21138935822605,3.237724376958795e-05,0.0955438911914825,0,0,0
5580,202454.4676736198,2010-12-08 20:48:04,1470.7207315342407,2,19,0.5501165986061096,3.9178099632263184,16.850761271473196,16.61298213902522,67.55460590558175,60.21138935822605,0.0,0.0955438911914825,0,0,0
5581,202484.4829027932,2010-12-08 20:48:34,1500.7359607326694,2,19,0.550297200679779,3.919428825378418,16.855348501279014,16.61298213902522,67.57258193190987,60.21138935822605,3.237724376958795e-05,0.0955438911914825,0,0,0
5582,202514.49792084616,2010-12-08 20:49:04,1530.7509786653711,2,19,0.5501165986061096,3.9210476875305176,16.859935779220788,16.61298213902522,67.59056556513966,60.21138935822605,3.237724376958795e-05,0.0955438911914825,0,0,0
5583,202544.5127340444,2010-12-08 20:49:34,1560.7657918686114,2,19,0.5501165986061096,3.922828435897827,16.86452293609251,16.61298213902522,67.60855607261253,60.21138935822605,3.237724376958795e-05,0.0955438911914825,0,0,0
5584,202574.5278233597,2010-12-08 20:50:04,1590.7808811789337,2,19,0.5499359965324402,3.924285411834717,16.869110160030342,16.61298213902522,67.62655421002319,60.21138935822605,6.47544875391759e-05,0.0955438911914825,0,0,0
5585,202604.54273673223,2010-12-08 20:50:34,1620.795794556454,2,19,0.5501165986061096,3.9257423877716064,16.87369739026615,16.61298213902522,67.64455969546516,60.21138935822605,0.0,0.0955438911914825,0,0,0
5586,202634.55775476017,2010-12-08 20:51:04,1650.8108125643428,2,19,0.5501165986061096,3.927523136138916,16.878284650371455,16.61298213902522,67.66257247291838,60.21138935822605,3.237724376958795e-05,0.0955438911914825,0,0,0
5587,202664.57276694852,2010-12-08 20:51:34,1680.8258247677877,2,19,0.5501165986061096,3.929141998291016,16.88287187667806,16.61298213902522,67.68059248301901,60.21138935822605,6.47544875391759e-05,0.0955438911914825,0,0,0
5588,202694.5878286352,2010-12-08 20:52:04,1710.8408865445936,2,19,0.550297200679779,3.930922746658325,16.88745909795864,16.61298213902522,67.69861981900395,60.21138935822605,9.713172767078504e-05,0.0955438911914825,0,0,0
5589,202724.60282630243,2010-12-08 20:52:34,1740.855884121641,2,19,0.550297200679779,3.932379722595215,16.892046393574464,16.61298213902522,67.71665475255564,60.21138935822605,6.47544875391759e-05,0.0955438911914825,0,0,0
5590,202754.6178967408,2010-12-08 20:53:04,1770.870954560001,2,19,0.550297200679779,3.933836698532105,16.896633721535483,16.61298213902522,67.73469722531098,60.21138935822605,6.47544875391759e-05,0.0955438911914825,0,0,0
5591,202784.6330714987,2010-12-08 20:53:34,1800.8861293079317,2,19,0.550297200679779,3.935617446899414,16.901221018227822,16.61298213902522,67.75274696814445,60.21138935822605,3.237724376958795e-05,0.0955438911914825,0,0,0
5592,202814.6479660344,2010-12-08 20:54:04,1830.9010238636145,2,19,0.5501165986061096,3.9372363090515137,16.905808284542278,16.61298213902522,67.7708038872681,60.21138935822605,6.47544875391759e-05,0.0955438911914825,0,0,0
5593,202844.663204145,2010-12-08 20:54:34,1860.916262119582,2,19,0.5501165986061096,3.9386932849884033,16.910395552094148,16.61298213902522,67.7888683812127,60.21138935822605,0.0,0.0955438911914825,0,0,0
5594,202874.67796916835,2010-12-08 20:55:04,1890.931026987542,2,19,0.5501165986061096,3.940474033355713,16.914982788403577,16.61298213902522,67.8069401469311,60.21138935822605,6.47544875391759e-05,0.0955438911914825,0,0,0
5595,202904.69318567016,2010-12-08 20:55:34,1920.9462435796,2,19,0.550297200679779,3.942092895507813,16.919570085183196,16.61298213902522,67.82501965964721,60.21138935822605,6.47544875391759e-05,0.0955438911914825,0,0,0
5596,202934.7080047731,2010-12-08 20:56:04,1950.961062592297,2,19,0.550297200679779,3.943711757659912,16.92415729972496,16.61298213902522,67.84310631357437,60.21138935822605,3.237724376958795e-05,0.0955438911914825,0,0,0
5597,202964.72326395617,2010-12-08 20:56:34,1980.976321850528,2,19,0.5501165986061096,3.945330619812012,16.92874464970958,16.61298213902522,67.86120103639279,60.21138935822605,6.47544875391759e-05,0.0955438911914825,0,0,0
5598,202994.7381008433,2010-12-08 20:57:04,2010.9911587377053,2,19,0.5501165986061096,3.946787595748901,16.933331885672768,16.61298213902522,67.8793028226653,60.21138935822605,3.237724376958795e-05,0.0955438911914825,0,0,0
5599,203024.75332408192,2010-12-08 20:57:34,2041.0063819011152,2,19,0.550297200679779,3.948568344116211,16.9379192351472,16.61298213902522,67.89741258439886,60.21138935822605,3.237724376958795e-05,0.0955438911914825,0,0,0
5600,203054.76829421063,2010-12-08 20:58:04,2071.021352095021,2,19,0.550297200679779,3.950187206268311,16.942506496551317,16.61298213902522,67.9155295791936,60.21138935822605,3.237724376958795e-05,0.0955438911914825,0,0,0
5601,203084.78335519048,2010-12-08 20:58:34,2101.036413004669,2,19,0.550297200679779,3.95196795463562,16.947093775857205,16.61298213902522,67.9336542932417,60.21138935822605,6.47544875391759e-05,0.0955438911914825,0,0,0
5602,203114.79817877457,2010-12-08 20:59:04,2131.0512365937543,2,19,0.5501165986061096,3.95358681678772,16.951681043410627,16.61298213902522,67.95178652195399,60.21138935822605,3.237724376958795e-05,0.0955438911914825,0,0,0
5603,203144.8132108124,2010-12-08 20:59:34,2161.066268631556,2,19,0.550297200679779,3.955367565155029,16.95626830683353,16.61298213902522,67.96992638788316,60.21138935822605,6.47544875391759e-05,0.0955438911914825,0,0,0
5604,203174.82822717115,2010-12-08 21:00:04,2191.0812849903414,2,19,0.5501165986061096,3.956824541091919,16.960855604035075,16.61298213902522,67.98807406138818,60.21138935822605,0.0,0.0955438911914825,0,0,0
5605,203204.84325482804,2010-12-08 21:00:34,2221.0963126472416,2,19,0.550297200679779,3.9584434032440186,16.96544288671914,16.61298213902522,68.00622908090682,60.21138935822605,6.47544875391759e-05,0.0955438911914825,0,0,0
5606,203234.8583472812,2010-12-08 21:01:04,2251.111405170559,2,19,0.550297200679779,3.960062265396118,16.970030177362048,16.61298213902522,68.02439176266627,60.21138935822605,6.47544875391759e-05,0.0955438911914825,0,0,0
5607,203264.8733191092,2010-12-08 21:01:34,2281.1263769283564,2,19,0.550297200679779,3.9620048999786377,16.974617476309657,16.61298213902522,68.04256208514508,60.21138935822605,6.47544875391759e-05,0.0955438911914825,0,0,0
5608,203294.88837654016,2010-12-08 21:02:04,2311.141434359348,2,19,0.5501165986061096,3.9634618759155273,16.979204837497765,16.61298213902522,68.06074023678775,60.21138935822605,3.237724376958795e-05,0.0955438911914825,0,0,0
5609,203324.90355938824,2010-12-08 21:02:34,2341.1566172625726,2,19,0.550297200679779,3.965080738067627,16.983792158078497,16.61298213902522,68.07892584005016,60.21138935822605,3.237724376958795e-05,0.0955438911914825,0,0,0
5610,203354.92175394585,2010-12-08 21:03:04,2371.174811840234,2,19,0.550297200679779,3.966861486434937,16.98837994382882,16.61298213902522,68.09712095990356,60.21138935822605,6.47544875391759e-05,0.0955438911914825,0,0,0
5611,203384.93345147587,2010-12-08 21:03:34,2401.186509300066,2,19,0.5501165986061096,3.968480348587036,16.99296682257424,16.61298213902522,68.11532006546152,60.21138935822605,3.237724376958795e-05,0.0955438911914825,0,0,0
5612,203414.94847863656,2010-12-08 21:04:04,2431.201536545943,2,19,0.5501165986061096,3.970099210739136,16.99755409735816,16.61298213902522,68.13352842499796,60.21138935822605,3.237724376958795e-05,0.0955438911914825,0,0,0
5613,203444.96353529056,2010-12-08 21:04:34,2461.2165931147897,2,19,0.5501165986061096,3.9717180728912354,17.002141424736017,16.61298213902522,68.15174473922677,60.21138935822605,3.237724376958795e-05,0.0955438911914825,0,0,0
5614,203474.97854971452,2010-12-08 21:05:04,2491.231607533747,2,19,0.5501165986061096,3.973660707473755,17.006728776127137,16.61298213902522,68.16996896256711,60.21138935822605,9.713172767078504e-05,0.0955438911914825,0,0,0
5615,203504.99356965223,2010-12-08 21:05:34,2521.2466274714384,2,19,0.5501165986061096,3.975117683410645,17.011316100275895,16.61298213902522,68.18820088977307,60.21138935822605,3.237724376958795e-05,0.0955438911914825,0,0,0
5616,203535.0086000109,2010-12-08 21:06:04,2551.261657815024,2,19,0.5501165986061096,3.977060317993164,17.01590347592455,16.61298213902522,68.20644092351834,60.21138935822605,6.47544875391759e-05,0.0955438911914825,0,0,0
5617,203565.023677993,2010-12-08 21:06:34,2581.276735812194,2,19,0.5501165986061096,3.978679180145264,17.02049084751321,16.61298213902522,68.22468844796055,60.21138935822605,3.237724376958795e-05,0.0955438911914825,0,0,0
5618,203595.03872130887,2010-12-08 21:07:04,2611.2917791130235,2,19,0.550297200679779,3.980621814727783,17.02507807067436,16.61298213902522,68.24294390774858,60.21138935822605,9.713172767078504e-05,0.0955438911914825,0,0,0
5619,203625.0537893713,2010-12-08 21:07:34,2641.306847195521,2,19,0.5501165986061096,3.982240676879883,17.029665320664304,16.61298213902522,68.26120757882096,60.21138935822605,3.237724376958795e-05,0.0955438911914825,0,0,0
5620,203655.06876511403,2010-12-08 21:08:04,2671.3218229282097,2,19,0.550297200679779,3.984021425247192,17.03425262446337,16.61298213902522,68.27947958898923,60.21138935822605,3.237724376958795e-05,0.0955438911914825,0,0,0
5621,203685.08377542777,2010-12-08 21:08:34,2701.3368333021017,2,19,0.550297200679779,3.985964059829712,17.038839897985373,16.61298213902522,68.29775968968245,60.21138935822605,9.713172767078504e-05,0.0955438911914825,0,0,0
5622,203715.0988175457,2010-12-08 21:09:04,2731.3518753648505,2,19,0.5501165986061096,3.9877448081970215,17.04342717544057,16.61298213902522,68.31604817413023,60.21138935822605,6.47544875391759e-05,0.0955438911914825,0,0,0
5623,203745.11384451084,2010-12-08 21:09:34,2761.366902330029,2,19,0.5501165986061096,3.989363670349121,17.04801441927581,16.61298213902522,68.33434483704322,60.21138935822605,3.237724376958795e-05,0.0955438911914825,0,0,0
5624,203775.1288885886,2010-12-08 21:10:05,2791.3819464077915,2,19,0.5501165986061096,3.9914681911468506,17.052601690547483,16.61298213902522,68.35265015269995,60.21138935822605,6.47544875391759e-05,0.0955438911914825,0,0,0
5625,203805.14405032413,2010-12-08 21:10:35,2821.397108213516,2,19,0.5504778623580933,3.99341082572937,17.057189009140036,16.61298213902522,68.37096428889616,60.21138935822605,6.47544875391759e-05,0.0955438911914825,0,0,0
5626,203835.1592058492,2010-12-08 21:11:05,2851.4122637386117,2,19,0.5499359965324402,3.99502944946289,17.061776319470287,16.61298213902522,68.38928702321013,60.21138935822605,0.0,0.0955438911914825,0,0,0
5627,203865.17433046244,2010-12-08 21:11:35,2881.4273882665707,2,19,0.550297200679779,3.99713397026062,17.06636356841003,16.61298213902522,68.40761833867725,60.21138935822605,6.47544875391759e-05,0.0955438911914825,0,0,0
5628,203895.189088734,2010-12-08 21:12:05,2911.442146538116,2,19,0.550297200679779,3.99907660484314,17.070950823275886,16.61298213902522,68.42595844733388,60.21138935822605,3.237724376958795e-05,0.0955438911914825,0,0,0
5629,203925.20408331355,2010-12-08 21:12:35,2941.457141132741,2,19,0.5501165986061096,4.001019477844238,17.07553805391235,16.61298213902522,68.44430749461507,60.21138935822605,3.24249267578125e-05,0.0955438911914825,0,0,0
5630,203955.21912311064,2010-12-08 21:13:05,2971.472180929852,2,19,0.5499359965324402,4.002799987792969,17.08012533541581,16.61298213902522,68.46266583004746,60.21138935822605,-3.24249267578125e-05,0.0955438911914825,0,0,0
5631,203985.2341606221,2010-12-08 21:13:35,3001.4872184412748,2,19,0.5499359965324402,4.004742622375488,17.084712624425745,16.61298213902522,68.4810333540811,60.21138935822605,0.0,0.0955438911914825,0,0,0
5632,204015.2492041735,2010-12-08 21:14:05,3031.502261997741,2,19,0.550297200679779,4.007171154022217,17.08929996596671,16.61298213902522,68.49941043611653,60.21138935822605,6.47544875391759e-05,0.0955438911914825,0,0,0
5633,204045.2642411737,2010-12-08 21:14:35,3061.5172989928783,2,19,0.5501165986061096,4.009113788604736,17.093887286408552,16.61298213902522,68.51779681561104,60.21138935822605,9.71794142969884e-05,0.0955438911914825,0,0,0
5634,204075.27933280985,2010-12-08 21:15:05,3091.5323906139506,2,19,0.550297200679779,4.011380195617676,17.098474595235864,16.61298213902522,68.53619266413116,60.21138935822605,9.71794142969884e-05,0.0955438911914825,0,0,0
5635,204105.29452906124,2010-12-08 21:15:35,3121.5475870408286,2,19,0.550297200679779,4.013484477996826,17.10306180026007,16.61298213902522,68.55459775114207,60.21138935822605,9.70840483205393e-05,0.0955438911914825,0,0,0
5636,204135.30941062456,2010-12-08 21:16:05,3151.562468443781,2,19,0.5501165986061096,4.015589237213135,17.10764904286126,16.61298213902522,68.57301277413207,60.21138935822605,9.71794142969884e-05,0.0955438911914825,0,0,0
5637,204165.3244925816,2010-12-08 21:16:35,3181.5775503757427,2,19,0.550297200679779,4.017693519592285,17.112236388508002,16.61298213902522,68.59143815803192,60.21138935822605,6.47544875391759e-05,0.0955438911914825,0,0,0
5638,204195.33951105564,2010-12-08 21:17:05,3211.592568869841,2,19,0.550297200679779,4.019798278808594,17.116823725142055,16.61298213902522,68.60987346651147,60.21138935822605,6.47544875391759e-05,0.0955438911914825,0,0,0
5639,204225.35453789556,2010-12-08 21:17:35,3241.607595714721,2,19,0.550297200679779,4.022064685821533,17.12141105400423,16.61298213902522,68.6283190083515,60.21138935822605,3.24249267578125e-05,0.0955438911914825,0,0,0
5640,204255.369534846,2010-12-08 21:18:05,3271.622592665209,2,19,0.550297200679779,4.024331092834473,17.12599831171601,16.61298213902522,68.64677457536331,60.21138935822605,3.24249267578125e-05,0.0955438911914825,0,0,0
5641,204285.38460933947,2010-12-08 21:18:35,3301.63766715866,2,19,0.5501165986061096,4.026597499847412,17.1305856948779,16.61298213902522,68.66524106782977,60.21138935822605,6.47544875391759e-05,0.0955438911914825,0,0,0
5642,204315.4000878633,2010-12-08 21:19:05,3331.6531456875377,2,19,0.550297200679779,4.029025554656982,17.1351731161368,16.61298213902522,68.68371829491417,60.21138935822605,6.47544875391759e-05,0.0955438911914825,0,0,0
5643,204345.4147354645,2010-12-08 21:19:35,3361.667793373896,2,19,0.5501165986061096,4.031291961669922,17.139760405487174,16.61298213902522,68.70220561640949,60.21138935822605,3.23295607813634e-05,0.0955438911914825,0,0,0
5644,204375.42972513183,2010-12-08 21:20:05,3391.682782951036,2,19,0.5501165986061096,4.033558368682861,17.144347711728546,16.61298213902522,68.72070383700789,60.21138935822605,3.23295607813634e-05,0.0955438911914825,0,0,0
5645,204405.44488118324,2010-12-08 21:20:35,3421.6979389974285,2,19,0.5501165986061096,4.035986423492432,17.148935041412276,16.61298213902522,68.73921298655401,60.21138935822605,3.23295607813634e-05,0.0955438911914825,0,0,0
5646,204435.4598509661,2010-12-08 21:21:05,3451.712908770286,2,19,0.550297200679779,4.038576602935791,17.153522330271205,16.61298213902522,68.75773297518023,60.21138935822605,9.70840483205393e-05,0.0955438911914825,0,0,0
5647,204465.4748876004,2010-12-08 21:21:35,3481.727945404526,2,19,0.5501165986061096,4.0408430099487305,17.158109633656824,16.61298213902522,68.77626409698236,60.21138935822605,3.23295607813634e-05,0.0955438911914825,0,0,0
5648,204495.4900189353,2010-12-08 21:22:05,3511.743076754462,2,19,0.550297200679779,4.043271541595459,17.162696928045715,16.61298213902522,68.79480640732768,60.21138935822605,3.24249267578125e-05,0.0955438911914825,0,0,0
5649,204525.50493065867,2010-12-08 21:22:35,3541.757988477866,2,19,0.550297200679779,4.045861721038818,17.1672841218271,16.61298213902522,68.81335964980197,60.21138935822605,6.47544875391759e-05,0.0955438911914825,0,0,0
5650,204555.5199782652,2010-12-08 21:23:05,3571.7730360894225,2,19,0.5501165986061096,4.048289775848389,17.171871471798717,16.61298213902522,68.83192497334805,60.21138935822605,3.23295607813634e-05,0.0955438911914825,0,0,0
5651,204585.53502108983,2010-12-08 21:23:35,3601.7880789090545,2,19,0.550297200679779,4.051042079925537,17.176458775196824,16.61298213902522,68.85050164216304,60.21138935822605,0.0001295089750783,0.0955438911914825,0,0,0
5652,204615.55012298148,2010-12-08 21:24:05,3631.8031808558217,2,19,0.550297200679779,4.053308486938477,17.181046100178975,16.61298213902522,68.86908997202764,60.21138935822605,6.47544875391759e-05,0.0955438911914825,0,0,0
5653,204645.5651059572,2010-12-08 21:24:35,3661.81816376136,2,19,0.5504778623580933,4.056060314178467,17.185633417426548,16.61298213902522,68.88768999188068,60.21138935822605,9.70840483205393e-05,0.0955438911914825,0,0,0
5654,204675.58029622372,2010-12-08 21:25:05,3691.833354027908,2,19,0.5499359965324402,4.058488845825195,17.190220772179746,16.61298213902522,68.90630201481048,60.21138935822605,6.47544875391759e-05,0.0955438911914825,0,0,0
5655,204705.59533019635,2010-12-08 21:25:35,3721.8483880005247,2,19,0.5501165986061096,4.061079025268555,17.194808191952493,16.61298213902522,68.9249262234402,60.21138935822605,6.47544875391759e-05,0.0955438911914825,0,0,0
5656,204735.61049647324,2010-12-08 21:26:05,3751.863554277375,2,19,0.5501165986061096,4.063830852508545,17.199395478451542,16.61298213902522,68.94356176943776,60.21138935822605,9.70840483205393e-05,0.0955438911914825,0,0,0
5657,204765.6256231415,2010-12-08 21:26:35,3781.8786809657104,2,19,0.5501165986061096,4.066421031951904,17.2039828073342,16.61298213902522,68.96220976791943,60.21138935822605,6.47544875391759e-05,0.0955438911914825,0,0,0
5658,204795.6405914006,2010-12-08 21:27:05,3811.893649294976,2,19,0.5501165986061096,4.069011211395264,17.20857009205731,16.61298213902522,68.98086997300355,60.21138935822605,3.23295607813634e-05,0.0955438911914825,0,0,0
5659,204825.65540950603,2010-12-08 21:27:35,3841.908467330241,2,19,0.550297200679779,4.071925163269043,17.213157381661276,16.61298213902522,68.99954265456135,60.21138935822605,6.47544875391759e-05,0.0955438911914825,0,0,0
5660,204855.67044320292,2010-12-08 21:28:05,3871.9235010923335,2,19,0.550297200679779,4.074839115142822,17.217744698088648,16.61298213902522,69.01822801057469,60.21138935822605,0.0001295089750783,0.0955438911914825,0,0,0
5661,204885.6857127919,2010-12-08 21:28:35,3901.938770666234,2,19,0.5501165986061096,4.077429294586182,17.222332018300204,16.61298213902522,69.03692603609615,60.21138935822605,6.47544875391759e-05,0.0955438911914825,0,0,0
5662,204915.7007047299,2010-12-08 21:29:05,3931.9537626192873,2,19,0.550297200679779,4.08018159866333,17.226919304020566,16.61298213902522,69.05563667987279,60.21138935822605,6.47544875391759e-05,0.0955438911914825,0,0,0
5663,204945.71561458867,2010-12-08 21:29:35,3961.968672407877,2,19,0.5501165986061096,4.08293342590332,17.23150660555695,16.61298213902522,69.07436022862973,60.21138935822605,6.47544875391759e-05,0.0955438911914825,0,0,0
5664,204975.7307269915,2010-12-08 21:30:05,3991.983784810664,2,19,0.550297200679779,4.086009502410889,17.236093942661185,16.61298213902522,69.09309697734386,60.21138935822605,9.71794142969884e-05,0.0955438911914825,0,0,0
5665,205005.745878276,2010-12-08 21:30:35,4021.998936085181,2,19,0.5501165986061096,4.088761329650879,17.240681301882706,16.61298213902522,69.11184704517022,60.21138935822605,6.47544875391759e-05,0.0955438911914825,0,0,0
5666,205035.76093976712,2010-12-08 21:31:05,4052.0139975913135,2,19,0.5501165986061096,4.091675281524658,17.245268545611147,16.61298213902522,69.13060999675658,60.21138935822605,3.23295607813634e-05,0.0955438911914825,0,0,0
5667,205065.7757880376,2010-12-08 21:31:35,4082.0288458568048,2,19,0.5504778623580933,4.094751358032227,17.249855823763575,16.61298213902522,69.14938654597215,60.21138935822605,0.0001295089750783,0.0955438911914825,0,0,0
5668,205095.79084592973,2010-12-08 21:32:05,4112.043903748944,2,19,0.5501165986061096,4.097503185272217,17.25444318987995,16.61298213902522,69.16817702116427,60.21138935822605,6.47544875391759e-05,0.0955438911914825,0,0,0
5669,205125.8059320822,2010-12-08 21:32:35,4142.058989896396,2,19,0.550297200679779,4.100579261779785,17.25903054860272,16.61298213902522,69.18698115284026,60.21138935822605,6.47544875391759e-05,0.0955438911914825,0,0,0
5670,205155.82096256613,2010-12-08 21:33:05,4172.074020390356,2,19,0.5499359965324402,4.103331089019775,17.263617853343327,16.61298213902522,69.20579886417362,60.21138935822605,0.0,0.0955438911914825,0,0,0
5671,205185.83600473416,2010-12-08 21:33:35,4202.089062623529,2,19,0.5501165986061096,4.106568813323975,17.26820519076113,16.61298213902522,69.22463070866772,60.21138935822605,6.47544875391759e-05,0.0955438911914825,0,0,0
5672,205215.8511654672,2010-12-08 21:34:05,4232.104223286409,2,19,0.550297200679779,4.109806537628174,17.27279249799043,16.61298213902522,69.24347641165555,60.21138935822605,0.0001295089750783,0.0955438911914825,0,0,0
5673,205245.8660606244,2010-12-08 21:34:35,4262.1191184486015,2,19,0.5501165986061096,4.112720489501953,17.277379845715465,16.61298213902522,69.26233638657726,60.21138935822605,6.47544875391759e-05,0.0955438911914825,0,0,0
5674,205275.88475555216,2010-12-08 21:35:05,4292.137813461575,2,19,0.5499359965324402,4.115958213806152,17.28196776158549,16.61298213902522,69.28121289151586,60.21138935822605,9.71794142969884e-05,0.0955438911914825,0,0,0
5675,205305.89640626064,2010-12-08 21:35:35,4322.149464059795,2,19,0.550297200679779,4.119357585906982,17.286554599643754,16.61298213902522,69.30009937547104,60.21138935822605,0.0001295089750783,0.0955438911914825,0,0,0
5676,205335.91135378316,2010-12-08 21:36:05,4352.1644116023335,2,19,0.5501165986061096,4.122271537780762,17.291141932746427,16.61298213902522,69.31900237783007,60.21138935822605,6.47544875391759e-05,0.0955438911914825,0,0,0
5677,205365.92628682457,2010-12-08 21:36:35,4382.179344648799,2,19,0.5504778623580933,4.125509262084961,17.2957292213598,16.61298213902522,69.33791966783505,60.21138935822605,9.70840483205393e-05,0.0955438911914825,0,0,0
5678,205395.9413977036,2010-12-08 21:37:05,4412.194455577919,2,19,0.5501165986061096,4.128585338592529,17.300316545554093,16.61298213902522,69.35685183617755,60.21138935822605,6.47544875391759e-05,0.0955438911914825,0,0,0
5679,205425.9564466936,2010-12-08 21:37:35,4442.209504497731,2,19,0.550297200679779,4.131984710693359,17.304903848933858,16.61298213902522,69.37579882824244,60.21138935822605,9.70840483205393e-05,0.0955438911914825,0,0,0
5680,205455.97147961857,2010-12-08 21:38:05,4472.22453744279,2,19,0.5501165986061096,4.135222434997559,17.309491249206395,16.61298213902522,69.3947611533935,60.21138935822605,9.70840483205393e-05,0.0955438911914825,0,0,0
5681,205485.98666403056,2010-12-08 21:38:35,4502.239721904894,2,19,0.550297200679779,4.138460159301758,17.31407865100495,16.61298213902522,69.4137385398957,60.21138935822605,9.70840483205393e-05,0.0955438911914825,0,0,0
5682,205516.00159404948,2010-12-08 21:39:05,4532.254651853651,2,19,0.550297200679779,4.141860008239746,17.318666095294176,16.61298213902522,69.43273135716494,60.21138935822605,6.47544875391759e-05,0.0955438911914825,0,0,0
5683,205546.0166845628,2010-12-08 21:39:35,4562.269742366967,2,19,0.550297200679779,4.145259380340576,17.323253504016584,16.61298213902522,69.45173942088299,60.21138935822605,9.70840483205393e-05,0.0955438911914825,0,0,0
5684,205576.03187009256,2010-12-08 21:40:05,4592.284927896728,2,19,0.550297200679779,4.1486592292785645,17.327840892804172,16.61298213902522,69.47076317030339,60.21138935822605,6.47544875391759e-05,0.0955438911914825,0,0,0
5685,205606.04685442164,2010-12-08 21:40:35,4622.299912225808,2,19,0.5504778623580933,4.152220726013184,17.33242824689991,16.61298213902522,69.489802327995,60.21138935822605,0.0001295089750783,0.0955438911914825,0,0,0
5686,205636.0618020745,2010-12-08 21:41:05,4652.314859878621,2,19,0.5504778623580933,4.155620098114014,17.33701556703342,16.61298213902522,69.50885697493118,60.21138935822605,0.0001618385285837,0.0955438911914825,0,0,0
5687,205666.07685332507,2010-12-08 21:41:35,4682.329911209433,2,19,0.5501165986061096,4.158857822418213,17.34160281778765,16.61298213902522,69.5279271655341,60.21138935822605,3.23295607813634e-05,0.0955438911914825,0,0,0
5688,205696.09188359347,2010-12-08 21:42:06,4712.344941422694,2,19,0.5501165986061096,4.162257671356201,17.346190086481116,16.61298213902522,69.54701327856039,60.21138935822605,6.47544875391759e-05,0.0955438911914825,0,0,0
5689,205726.1071813575,2010-12-08 21:42:36,4742.360239161683,2,19,0.5501165986061096,4.16581916809082,17.350777422259604,16.61298213902522,69.56611559239484,60.21138935822605,6.47544875391759e-05,0.0955438911914825,0,0,0
5690,205756.12227132448,2010-12-08 21:43:06,4772.375329228889,2,19,0.550297200679779,4.16938066482544,17.355364698416604,16.61298213902522,69.58523378974701,60.21138935822605,6.47544875391759e-05,0.0955438911914825,0,0,0
5691,205786.1371851581,2010-12-08 21:43:36,4802.390242962294,2,19,0.550297200679779,4.172942161560059,17.359951996049258,16.61298213902522,69.60436827599581,60.21138935822605,9.71794142969884e-05,0.0955438911914825,0,0,0
5692,205816.1521190968,2010-12-08 21:44:06,4832.405177006242,2,19,0.550297200679779,4.176665306091309,17.36453929127012,16.61298213902522,69.62351906751714,60.21138935822605,0.0001618385285837,0.0955438911914825,0,0,0
5693,205846.1674459984,2010-12-08 21:44:36,4862.420503872714,2,19,0.5501165986061096,4.180065155029297,17.369126632483155,16.61298213902522,69.64268651500896,60.21138935822605,6.47544875391759e-05,0.0955438911914825,0,0,0
5694,205876.18232215327,2010-12-08 21:45:06,4892.435379957433,2,19,0.5501165986061096,4.183626651763916,17.373713941522688,16.61298213902522,69.6618704390496,60.21138935822605,9.71794142969884e-05,0.0955438911914825,0,0,0
5695,205906.19745639543,2010-12-08 21:45:36,4922.450514224628,2,19,0.5501165986061096,4.187349796295166,17.37830129528075,16.61298213902522,69.68107114262483,60.21138935822605,6.47544875391759e-05,0.0955438911914825,0,0,0
5696,205936.2123052524,2010-12-08 21:46:06,4952.4653630465045,2,19,0.550297200679779,4.191235065460205,17.382888518614944,16.61298213902522,69.70028811919597,60.21138935822605,0.0001618385285837,0.0955438911914825,0,0,0
5697,205966.2273771694,2010-12-08 21:46:36,4982.480434973569,2,19,0.550297200679779,4.194796562194824,17.387475794851724,16.61298213902522,69.71952216625863,60.21138935822605,9.70840483205393e-05,0.0955438911914825,0,0,0
5698,205996.2458724403,2010-12-08 21:47:06,5012.498930364793,2,19,0.550297200679779,4.198358058929443,17.39206366421805,16.61298213902522,69.73877550639295,60.21138935822605,6.47544875391759e-05,0.0955438911914825,0,0,0
5699,206008.1485038909,2010-12-08 21:47:18,5024.4015617903015,2,19,0.5504778623580933,4.200138568878174,17.393882788674922,16.61298213902522,69.74641434795683,60.21138935822605,0.0001618385285837,0.0955438911914825,0,0,0
5700,206038.15620163555,2010-12-08 21:47:48,30.01156644881686,3,19,0.0,4.109321117401123,17.393882788674922,16.61298213902522,69.74641434795683,60.21138935822605,-0.0004532813909463,0.0955438911914825,0,0,0
5701,206068.17124155292,2010-12-08 21:48:18,60.026606361214256,3,19,0.0,4.098150730133057,17.393882788674922,16.61298213902522,69.74641434795683,60.21138935822605,-0.0002590179501567,0.0955438911914825,0,0,0
5702,206098.18627084396,2010-12-08 21:48:48,90.0416356521806,3,19,0.0,4.091189861297607,17.393882788674922,16.61298213902522,69.74641434795683,60.21138935822605,-0.0001295089750783,0.0955438911914825,0,0,0
5703,206128.15448234565,2010-12-08 21:49:18,120.00984715387908,3,19,0.0,4.0866570472717285,17.393882788674922,16.61298213902522,69.74641434795683,60.21138935822605,-9.70840483205393e-05,0.0955438911914825,0,0,0
5704,206128.1685202224,2010-12-08 21:49:18,0.015585183128786,4,19,1.0005561113357544,4.199814796447754,17.39388715118999,16.61298213902522,69.74643267006586,60.21138935822605,-3.24249267578125e-05,0.0955438911914825,0,0,0
5705,206129.0938582656,2010-12-08 21:49:19,0.940923331521131,4,19,0.9501661658287048,4.199814796447754,17.394136338006422,16.61298213902522,69.7474792051347,60.21138935822605,-3.24249267578125e-05,0.0955438911914825,0,0,0
5706,206131.16846808227,2010-12-08 21:49:21,3.015533042995454,4,19,0.8995955586433411,4.199653148651123,17.394668258243644,16.61298213902522,69.74971316436567,60.21138935822605,-6.47544875391759e-05,0.0955438911914825,0,0,0
5707,206134.30903143843,2010-12-08 21:49:24,6.156096384078842,4,19,0.8493862152099609,4.199814796447754,17.395429990517002,16.61298213902522,69.75291227825525,60.21138935822605,0.0,0.0955438911914825,0,0,0
5708,206138.63721030005,2010-12-08 21:49:28,10.484275260745008,4,19,0.7989962100982666,4.199976921081543,17.396419389866253,16.61298213902522,69.75706755965291,60.21138935822605,6.47544875391759e-05,0.0955438911914825,0,0,0
5709,206144.2619648153,2010-12-08 21:49:34,16.109029776019558,4,19,0.7489674091339111,4.199814796447754,17.397627069119743,16.61298213902522,69.76213957161802,60.21138935822605,0.0,0.0955438911914825,0,0,0
5710,206151.65247722625,2010-12-08 21:49:41,23.499542191916035,4,19,0.6989386677742004,4.199814796447754,17.39911120520088,16.61298213902522,69.76837266634176,60.21138935822605,0.0,0.0955438911914825,0,0,0
5711,206161.480399984,2010-12-08 21:49:51,33.32746494970176,4,19,0.648909866809845,4.199814796447754,17.400947936020497,16.61298213902522,69.77608660831409,60.21138935822605,0.0,0.0955438911914825,0,0,0
5712,206175.30824820243,2010-12-08 21:50:05,47.15531316815306,4,19,0.5988811254501343,4.199653148651123,17.403338951022743,16.61298213902522,69.78612844441052,60.21138935822605,-6.47544875391759e-05,0.0955438911914825,0,0,0
5713,206196.5111143995,2010-12-08 21:50:26,68.35817938523942,4,19,0.5488523244857788,4.199814796447754,17.40670829700399,16.61298213902522,69.80027912199823,60.21138935822605,-3.24249267578125e-05,0.0955438911914825,0,0,0
5714,206233.15093791104,2010-12-08 21:51:03,104.99800289181154,4,19,0.4988235831260681,4.199814796447754,17.41201816965983,16.61298213902522,69.82257966205658,60.21138935822605,0.0,0.0955438911914825,0,0,0
5715,206302.7903100252,2010-12-08 21:52:12,174.63737500086756,4,19,0.448794811964035,4.199814796447754,17.421144058642607,16.61298213902522,69.86090676741463,60.21138935822605,0.0,0.0955438911914825,0,0,0
5716,206408.03829772453,2010-12-08 21:53:58,279.88536270527044,4,19,0.3987660408020019,4.199814796447754,17.433505805010242,16.61298213902522,69.91282394526314,60.21138935822605,3.23295607813634e-05,0.0955438911914825,0,0,0
5717,206540.34848034516,2010-12-08 21:56:10,412.1955453308812,4,19,0.3487372696399688,4.199653148651123,17.447223117851948,16.61298213902522,69.97043438552933,60.21138935822605,-3.23295607813634e-05,0.0955438911914825,0,0,0
5718,206697.5952338583,2010-12-08 21:58:47,569.4422989092087,4,19,0.2987084984779358,4.199653148651123,17.46134246240222,16.61298213902522,70.02973320892019,60.21138935822605,-3.23295607813634e-05,0.0955438911914825,0,0,0
5719,206885.09166462487,2010-12-08 22:01:55,756.9387296757699,4,19,0.2484991252422332,4.199653148651123,17.475568909360693,16.61298213902522,70.08948130142606,60.21138935822605,-6.47544875391759e-05,0.0955438911914825,0,0,0
5720,207121.883989137,2010-12-08 22:05:52,993.7310541027094,4,19,0.1984703540802002,4.199814796447754,17.490239062021335,16.61298213902522,70.15109341186987,60.21138935822605,3.23295607813634e-05,0.0955438911914825,0,0,0
5721,207434.61260551584,2010-12-08 22:11:04,1306.4596704965818,4,19,0.1484415829181671,4.199491024017334,17.50520860073139,16.61298213902522,70.21396288921939,60.21138935822605,-6.47544875391759e-05,0.0955438911914825,0,0,0
5722,207907.1971966044,2010-12-08 22:18:57,1779.0442615952002,4,19,0.098412811756134,4.199814796447754,17.52116320598364,16.61298213902522,70.2809693695173,60.21138935822605,0.0,0.0955438911914825,0,0,0
5723,208826.86727002024,2010-12-08 22:34:17,2698.714334980895,4,19,0.0498289167881011,4.199653148651123,17.539275277967146,16.61298213902522,70.35703676358685,60.21138935822605,-3.23295607813634e-05,0.0955438911914825,0,0,0
5724,208856.8853590674,2010-12-08 22:34:47,30.015217965475625,5,19,0.0,4.191558837890625,17.539275277967146,16.61298213902522,70.35703676358685,60.21138935822605,0.0,0.0955438911914825,0,0,0
5725,208886.88467061537,2010-12-08 22:35:17,60.014529458305866,5,19,0.0,4.1901021003723145,17.539275277967146,16.61298213902522,70.35703676358685,60.21138935822605,-6.47544875391759e-05,0.0955438911914825,0,0,0
5726,208887.0761398852,2010-12-08 22:35:17,0.187456799034521,6,19,-1.9243103452026844e-05,4.1901021003723145,17.539275277967146,16.612982140027235,70.35703676358685,60.2113893624246,0.0,0.0972511246800422,0,0,0
5727,208891.9041847692,2010-12-08 22:35:22,5.015501617872166,6,19,0.0012450218200683,4.190263748168945,17.539276349585574,16.612982140112702,70.35704125390913,60.21138936278271,3.23295607813634e-05,0.0972511246800422,0,0,0
5728,208921.92323333092,2010-12-08 22:35:52,30.015031446329907,7,19,-1.0997490882873535,4.0037713050842285,17.539276349645057,16.622149994998637,70.35704125415836,60.2483059876385,-0.0010037422180175,0.0972511246800422,0,0,0
5729,208951.93827256165,2010-12-08 22:36:22,60.03007070209329,7,19,-1.0997490882873535,3.974632024765015,17.539276349645057,16.631317914176854,70.35704125415836,60.28487015507403,-0.0006475448608398,0.0972511246800422,0,0,0
5730,208981.95358011505,2010-12-08 22:36:52,90.04537823044267,7,19,-1.099568486213684,3.9547200202941895,17.539276349645057,16.640485749522664,70.35704125415836,60.321214173714125,-0.0004856586456298,0.0972511246800422,0,0,0
5731,209011.96864341063,2010-12-08 22:37:22,120.06044161625276,7,19,-1.099568486213684,3.939178943634033,17.539276349645057,16.649653546635285,70.35704125415836,60.35739646513644,-0.0003561496851034,0.0972511246800422,0,0,0
5732,209041.98345194728,2010-12-08 22:37:52,150.07525008771827,7,19,-1.099568486213684,3.9257423877716064,17.539276349645057,16.658821286335236,70.35704125415836,60.393446368576186,-0.0003237724304199,0.0972511246800422,0,0,0
5733,209071.9985308417,2010-12-08 22:38:22,180.09032898212087,7,19,-1.099568486213684,3.913762807846069,17.539276349645057,16.66798909804059,70.35704125415836,60.429380756050286,-0.0002913951757363,0.0972511246800422,0,0,0
5734,209102.01401696444,2010-12-08 22:38:52,210.10581509487068,7,19,-1.0993878841400146,3.902431011199951,17.539276349645057,16.67715704446839,70.35704125415836,60.465209112521336,-0.0002590179501567,0.0972511246800422,0,0,0
5735,209132.0287464694,2010-12-08 22:39:22,240.1205446800307,7,19,-1.099568486213684,3.8920702934265137,17.539276349645057,16.686324746390735,70.35704125415836,60.50093700719566,-0.0002913951757363,0.0972511246800422,0,0,0
5736,209162.0438418248,2010-12-08 22:39:52,270.1356399702336,7,19,-1.0997490882873535,3.881709575653076,17.539276349645057,16.695492522146886,70.35704125415836,60.536571132484085,-0.0002913951757363,0.0972511246800422,0,0,0
5737,209192.05872546832,2010-12-08 22:40:22,300.15052360874944,7,19,-1.099568486213684,3.872482061386109,17.539276349645057,16.704660288876813,70.35704125415836,60.57211471848629,-0.0002266406954731,0.0972511246800422,0,0,0
5738,209222.07377894447,2010-12-08 22:40:52,330.1655770848997,7,19,-1.099568486213684,3.8629307746887207,17.539276349645057,16.71382811671457,70.35704125415836,60.607571245888,-0.0002266406954731,0.0972511246800422,0,0,0
5739,209252.0889789452,2010-12-08 22:41:22,360.18077707564595,7,19,-1.099929690361023,3.853541374206543,17.539276349645057,16.72299599658196,70.35704125415836,60.64294310283097,-0.0002590179501567,0.0972511246800422,0,0,0
5740,209282.10389332025,2010-12-08 22:41:52,390.1956914456358,7,19,-1.099568486213684,3.844961404800415,17.539276349645057,16.732163818155783,70.35704125415836,60.67823251054697,-0.0002266406954731,0.0972511246800422,0,0,0
5741,209312.1189875628,2010-12-08 22:42:22,420.2107857082818,7,19,-1.099568486213684,3.836219549179077,17.539276349645057,16.74133161801788,70.35704125415836,60.7134408478008,-0.0002266406954731,0.0972511246800422,0,0,0
5742,209342.13400784132,2010-12-08 22:42:52,450.22580598180855,7,19,-1.099568486213684,3.8274779319763184,17.539276349645057,16.750499420750398,70.35704125415836,60.7485702130044,-0.0002266406954731,0.0972511246800422,0,0,0
5743,209372.14927748044,2010-12-08 22:43:22,480.24107569104655,7,19,-1.0997490882873535,3.8192217350006095,17.539276349645057,16.75966735752166,70.35704125415836,60.78362267346969,-0.0001942634553415,0.0972511246800422,0,0,0
5744,209402.16428770396,2010-12-08 22:43:52,510.2560858443897,7,19,-1.099568486213684,3.811127424240112,17.539276349645057,16.768835186628827,70.35704125415836,60.81859962544164,-0.0002266406954731,0.0972511246800422,0,0,0
5745,209432.17938990137,2010-12-08 22:44:22,540.2711880417809,7,19,-1.0997490882873535,3.8030331134796143,17.539276349645057,16.77800299360266,70.35704125415836,60.8535026201492,-0.0002913951757363,0.0972511246800422,0,0,0
5746,209462.19435864664,2010-12-08 22:44:52,570.2861567720443,7,19,-1.099568486213684,3.795424461364746,17.539276349645057,16.787170879452145,70.35704125415836,60.888333605863714,-0.0001618862152099,0.0972511246800422,0,0,0
5747,209492.2127571868,2010-12-08 22:45:22,600.3045554175197,7,19,-1.099568486213684,3.787653923034668,17.539276349645057,16.796340551964686,70.35704125415836,60.92310052543803,-0.0002266406954731,0.0972511246800422,0,0,0
5748,209522.2244050282,2010-12-08 22:45:52,630.3162031686544,7,19,-1.0997490882873535,3.7802071571350098,17.539276349645057,16.80550822373236,70.35704125415836,60.9577909402998,-0.0002266406954731,0.0972511246800422,0,0,0
5749,209552.23945612344,2010-12-08 22:46:22,660.3312542638797,7,19,-1.0997490882873535,3.773084163665772,17.539276349645057,16.814676184672656,70.35704125415836,60.99241573502304,-0.0001942634553415,0.0972511246800422,0,0,0
5750,209582.2546318939,2010-12-08 22:46:52,690.3464300243298,7,19,-1.0997490882873535,3.7657992839813232,17.539276349645057,16.82384411664905,70.35704125415836,61.02697455814686,-0.0002266406954731,0.0972511246800422,0,0,0
5751,209612.2695808249,2010-12-08 22:47:22,720.361378950311,7,19,-1.0997490882873535,3.759000062942505,17.539276349645057,16.833012032186,70.35704125415836,61.06146883709842,-0.0001942634553415,0.0972511246800422,0,0,0
5752,209642.28462249663,2010-12-08 22:47:52,750.3764206371238,7,19,-1.099568486213684,3.752362966537476,17.539276349645057,16.842180005441804,70.35704125415836,61.09590041779426,-0.0001942157687153,0.0972511246800422,0,0,0
5753,209672.2997539669,2010-12-08 22:48:22,780.3915520923221,7,19,-1.0993878841400146,3.745725631713867,17.539276349645057,16.851347981053493,70.35704125415836,61.13027106959344,-0.0001942634553415,0.0972511246800422,0,0,0
5754,209702.3147830674,2010-12-08 22:48:52,810.4065812128644,7,19,-1.0997490882873535,3.739088296890259,17.539276349645057,16.860515976228058,70.35704125415836,61.1645819473136,-0.0001942634553415,0.0972511246800422,0,0,0
5755,209732.3300133485,2010-12-08 22:49:22,840.4218114889745,7,19,-1.0993878841400146,3.73293662071228,17.539276349645057,16.869684009954106,70.35704125415836,61.19883435788204,-0.0001618862152099,0.0972511246800422,0,0,0
5756,209762.344854782,2010-12-08 22:49:52,870.4366529274773,7,19,-1.0997490882873535,3.726623058319092,17.539276349645057,16.87885193445195,70.35704125415836,61.2330290650842,-0.0001942634553415,0.0972511246800422,0,0,0
5757,209792.3599140476,2010-12-08 22:50:22,900.4517121729841,7,19,-1.099568486213684,3.720795154571533,17.539276349645057,16.888019864346624,70.35704125415836,61.26716773646785,-0.0001618862152099,0.0972511246800422,0,0,0
5758,209822.37495849625,2010-12-08 22:50:52,930.4667566367076,7,19,-1.0993878841400146,3.7148053646087646,17.539276349645057,16.89718785830555,70.35704125415836,61.30125107611136,-0.0001295089750783,0.0972511246800422,0,0,0
5759,209852.39003570145,2010-12-08 22:51:22,960.4818338419068,7,19,-1.099568486213684,3.708491802215576,17.539276349645057,16.906355853550668,70.35704125415836,61.33527966426973,-0.0001942634553415,0.0972511246800422,0,0,0
5760,209882.405068842,2010-12-08 22:51:52,990.4968669724276,7,19,-1.099568486213684,3.7029876708984375,17.539276349645057,16.91552386965557,70.35704125415836,61.36925437559232,-0.0001618862152099,0.0972511246800422,0,0,0
5761,209912.42014262368,2010-12-08 22:52:23,1020.5119407490948,7,19,-1.099568486213684,3.697159767150879,17.539276349645057,16.92469184631008,70.35704125415836,61.403175889566256,-0.0001618862152099,0.0972511246800422,0,0,0
5762,209942.43533112583,2010-12-08 22:52:53,1050.527129251252,7,19,-1.0993878841400146,3.6914937496185294,17.539276349645057,16.933859922380115,70.35704125415836,61.437045637276206,-0.0001618862152099,0.0972511246800422,0,0,0
5763,209972.4507263073,2010-12-08 22:53:23,1080.5425245229474,7,19,-1.0997490882873535,3.685989618301392,17.539276349645057,16.943028007823997,70.35704125415836,61.47086402955016,-0.0001295089750783,0.0972511246800422,0,0,0
5764,210002.4653580039,2010-12-08 22:53:53,1110.5571561292911,7,19,-1.099568486213684,3.680485486984253,17.539276349645057,16.952195850440805,70.35704125415836,61.50463115665555,-0.0001618862152099,0.0972511246800422,0,0,0
5765,210032.48036879383,2010-12-08 22:54:23,1140.5721669342558,7,19,-1.0997490882873535,3.674981355667114,17.539276349645057,16.961363842925063,70.35704125415836,61.53834928887306,-0.0001618862152099,0.0972511246800422,0,0,0
5766,210062.4955466996,2010-12-08 22:54:53,1170.587344814982,7,19,-1.0993878841400146,3.669801235198975,17.539276349645057,16.97053191288372,70.35704125415836,61.5720188683604,-0.0001295089750783,0.0972511246800422,0,0,0
5767,210092.5105410135,2010-12-08 22:55:23,1200.6023392040963,7,19,-1.0993878841400146,3.664782762527466,17.539276349645057,16.979699952248723,70.35704125415836,61.60564019719901,-0.0001295089750783,0.0972511246800422,0,0,0
5768,210122.52553801413,2010-12-08 22:55:53,1230.6173361545848,7,19,-1.099568486213684,3.659440517425537,17.539276349645057,16.988867878616766,70.35704125415836,61.63921389133345,-0.0001618862152099,0.0972511246800422,0,0,0
5769,210152.5406278608,2010-12-08 22:56:23,1260.6324261415907,7,19,-1.0993878841400146,3.6545839309692383,17.539276349645057,16.9980358761052,70.35704125415836,61.67274102316529,-0.0001295089750783,0.0972511246800422,0,0,0
5770,210182.5556554475,2010-12-08 22:56:53,1290.647453587967,7,19,-1.099568486213684,3.64940357208252,17.539276349645057,17.007203988767184,70.35704125415836,61.706222316745205,-0.0001295089750783,0.0972511246800422,0,0,0
5771,210212.5742152139,2010-12-08 22:57:23,1320.6660134847102,7,19,-1.099568486213684,3.6443850994110103,17.539276349645057,17.016373082694507,70.35704125415836,61.739661493876255,-0.0001295089750783,0.0972511246800422,0,0,0
5772,210242.5858853207,2010-12-08 22:57:53,1350.6776835263136,7,19,-1.099568486213684,3.639690399169922,17.539276349645057,17.025539983597053,70.35704125415836,61.77304826776611,-0.0001295089750783,0.0972511246800422,0,0,0
5773,210272.60101432985,2010-12-08 22:58:23,1380.692812480287,7,19,-1.099568486213684,3.634995698928833,17.539276349645057,17.034708048267813,70.35704125415836,61.8063953068492,-0.0001295089750783,0.0972511246800422,0,0,0
5774,210302.61605779105,2010-12-08 22:58:53,1410.7078559164536,7,19,-1.099568486213684,3.630300998687744,17.539276349645057,17.043876047262554,70.35704125415836,61.83969886577174,-9.713172767078504e-05,0.0972511246800422,0,0,0
5775,210332.63096371503,2010-12-08 22:59:23,1440.7227618404258,7,19,-1.099568486213684,3.625768184661865,17.539276349645057,17.05304406631392,70.35704125415836,61.87296016497179,-9.713172767078504e-05,0.0972511246800422,0,0,0
5776,210362.646048068,2010-12-08 22:59:53,1470.737846213462,7,19,-1.099568486213684,3.6212353706359854,17.539276349645057,17.062212127049758,70.35704125415836,61.90618033190178,-9.713172767078504e-05,0.0972511246800422,0,0,0
5777,210392.6610620709,2010-12-08 23:00:23,1500.7528601963347,7,19,-1.099568486213684,3.616864442825317,17.539276349645057,17.07138015644629,70.35704125415836,61.93935983227002,-9.713172767078504e-05,0.0972511246800422,0,0,0
5778,210422.67612412345,2010-12-08 23:00:53,1530.767922238802,7,19,-1.099568486213684,3.6126554012298575,17.539276349645057,17.080548170682146,70.35704125415836,61.97249955840649,-9.713172767078504e-05,0.0972511246800422,0,0,0
5779,210452.69454717464,2010-12-08 23:01:23,1560.7863454203346,7,19,-1.0997490882873535,3.6082844734191895,17.539276349645057,17.08971729271451,70.35704125415836,62.00560439855188,-0.0001295089750783,0.0972511246800422,0,0,0
5780,210482.70634123983,2010-12-08 23:01:53,1590.798139470529,7,19,-1.099568486213684,3.6043992042541504,17.539276349645057,17.098884314212615,70.35704125415836,62.038663946448295,-9.713172767078504e-05,0.0972511246800422,0,0,0
5781,210512.72129551417,2010-12-08 23:02:23,1620.8130936395569,7,19,-1.0993878841400146,3.6005139350891118,17.539276349645057,17.108052326750492,70.35704125415836,62.071690472105885,-9.713172767078504e-05,0.0972511246800422,0,0,0
5782,210542.73652653213,2010-12-08 23:02:53,1650.8283246725505,7,19,-1.0993878841400146,3.5967905521392822,17.539276349645057,17.11722034891854,70.35704125415836,62.104681297771975,-3.237724376958795e-05,0.0972511246800422,0,0,0
5783,210572.75149633,2010-12-08 23:03:23,1680.8432944604458,7,19,-1.0997490882873535,3.592905282974243,17.539276349645057,17.126388367214982,70.35704125415836,62.137637215045885,-6.47544875391759e-05,0.0972511246800422,0,0,0
5784,210602.76653138036,2010-12-08 23:03:53,1710.8583295057315,7,19,-1.099568486213684,3.589182138442993,17.539276349645057,17.13555631857814,70.35704125415836,62.17055870934634,-6.47544875391759e-05,0.0972511246800422,0,0,0
5785,210632.7816479284,2010-12-08 23:04:23,1740.873446068871,7,19,-1.0997490882873535,3.585296869277954,17.539276349645057,17.144724453921217,70.35704125415836,62.203447518536514,-0.0001295089750783,0.0972511246800422,0,0,0
5786,210662.78168590408,2010-12-08 23:04:53,1770.873484114701,7,19,-1.0997490882873535,3.582059144973755,17.539276349645057,17.153887844028038,70.35704125415836,62.236287039084345,-9.713172767078504e-05,0.0972511246800422,0,0,0
5787,210692.7961387155,2010-12-08 23:05:23,1800.887936840908,7,19,-1.099568486213684,3.578497648239136,17.539276349645057,17.16305566650094,70.35704125415836,62.26911077867895,-0.0001295089750783,0.0972511246800422,0,0,0
5788,210722.8111376008,2010-12-08 23:05:53,1830.9029357412485,7,19,-1.099568486213684,3.5750980377197266,17.539276349645057,17.172223672674217,70.35704125415836,62.30190416947114,-9.713172767078504e-05,0.0972511246800422,0,0,0
5789,210752.8261377292,2010-12-08 23:06:23,1860.917935869645,7,19,-1.0993878841400146,3.5721840858459477,17.539276349645057,17.181391725982337,70.35704125415836,62.33466729668464,-6.47544875391759e-05,0.0972511246800422,0,0,0
5790,210782.84119960124,2010-12-08 23:06:53,1890.9329978319124,7,19,-1.099568486213684,3.568784475326538,17.539276349645057,17.190559765823192,70.35704125415836,62.36740060724103,-9.713172767078504e-05,0.0972511246800422,0,0,0
5791,210812.85639918092,2010-12-08 23:07:23,1920.948197306374,7,19,-1.099568486213684,3.565546751022339,17.539276349645057,17.19972783466957,70.35704125415836,62.40010424660413,-9.713172767078504e-05,0.0972511246800422,0,0,0
5792,210842.8713181223,2010-12-08 23:07:53,1950.96311624774,7,19,-1.099568486213684,3.5624709129333496,17.539276349645057,17.20889575304851,70.35704125415836,62.43277803676889,-6.47544875391759e-05,0.0972511246800422,0,0,0
5793,210872.8864170215,2010-12-08 23:08:23,1980.9782151469235,7,19,-1.0993878841400146,3.5593950748443604,17.539276349645057,17.218063717549725,70.35704125415836,62.46542360137951,-6.47544875391759e-05,0.0972511246800422,0,0,0
5794,210902.9016014335,2010-12-08 23:08:53,2010.9933995589024,7,19,-1.0993878841400146,3.556157350540161,17.539276349645057,17.227231744968584,70.35704125415836,62.49804061955496,-9.713172767078504e-05,0.0972511246800422,0,0,0
5795,210932.91683295267,2010-12-08 23:09:23,2041.008631093143,7,19,-1.0997490882873535,3.552757740020752,17.539276349645057,17.236399887888226,70.35704125415836,62.53062909833441,-0.0001295089750783,0.0972511246800422,0,0,0
5796,210962.93184660972,2010-12-08 23:09:53,2071.0236448454425,7,19,-1.099568486213684,3.5498437881469727,17.539276349645057,17.245567907237362,70.35704125415836,62.56318828572409,-9.713172767078504e-05,0.0972511246800422,0,0,0
5797,210992.9466078186,2010-12-08 23:10:23,2101.03840595906,7,19,-1.0997490882873535,3.546606063842773,17.539276349645057,17.2547358672585,70.35704125415836,62.59571794646328,-9.713172767078504e-05,0.0972511246800422,0,0,0
5798,211022.9616969585,2010-12-08 23:10:53,2131.0534950989577,7,19,-1.099568486213684,3.543368339538574,17.539276349645057,17.263903951220684,70.35704125415836,62.62821884708553,-3.237724376958795e-05,0.0972511246800422,0,0,0
5799,211052.97694062293,2010-12-08 23:11:23,2161.068738838572,7,19,-1.099568486213684,3.540130615234375,17.539276349645057,17.273071978397535,70.35704125415836,62.66068980153234,-9.713172767078504e-05,0.0972511246800422,0,0,0
5800,211082.99179075303,2010-12-08 23:11:53,2191.083588948653,7,19,-1.099568486213684,3.536731004714966,17.539276349645057,17.28223990277464,70.35704125415836,62.69313044122017,-9.713172767078504e-05,0.0972511246800422,0,0,0
5801,211113.00697383675,2010-12-08 23:12:23,2221.0987720323265,7,19,-1.099568486213684,3.5334932804107666,17.539276349645057,17.291408024774338,70.35704125415836,62.7255415781728,-0.0001295089750783,0.0972511246800422,0,0,0
5802,211143.0219539904,2010-12-08 23:12:53,2251.11375213088,7,19,-1.099568486213684,3.5302555561065674,17.539276349645057,17.300576077344644,70.35704125415836,62.75792184563477,-9.713172767078504e-05,0.0972511246800422,0,0,0
5803,211173.0371568433,2010-12-08 23:13:23,2281.1289550539227,7,19,-1.099568486213684,3.526694059371948,17.539276349645057,17.309744213063535,70.35704125415836,62.7902707430562,-6.47544875391759e-05,0.0972511246800422,0,0,0
5804,211203.05222093585,2010-12-08 23:13:53,2311.144019066292,7,19,-1.099568486213684,3.523132562637329,17.539276349645057,17.318912343684175,70.35704125415836,62.8225870486173,-9.713172767078504e-05,0.0972511246800422,0,0,0
5805,211233.0670435225,2010-12-08 23:14:23,2341.1588416478694,7,19,-1.099568486213684,3.51924729347229,17.539276349645057,17.328080293162312,70.35704125415836,62.85486930130483,-0.0001295089750783,0.0972511246800422,0,0,0
5806,211263.0821037504,2010-12-08 23:14:53,2371.173901895872,7,19,-1.099568486213684,3.515362024307251,17.539276349645057,17.337248339511817,70.35704125415836,62.88711755101728,-0.0001295089750783,0.0972511246800422,0,0,0
5807,211293.09717145696,2010-12-08 23:15:23,2401.188969597421,7,19,-1.0997490882873535,3.511476993560791,17.539276349645057,17.346416396074623,70.35704125415836,62.91933011523391,-0.0001618385285837,0.0972511246800422,0,0,0
5808,211323.1124342089,2010-12-08 23:15:53,2431.2042323493465,7,19,-1.0997490882873535,3.507429838180542,17.539276349645057,17.355584568156416,70.35704125415836,62.95150625734544,-0.0001295089750783,0.0972511246800422,0,0,0
5809,211353.127346634,2010-12-08 23:16:23,2461.219144779509,7,19,-1.0997490882873535,3.503058910369873,17.539276349645057,17.36475259837395,70.35704125415836,62.98364281278254,-9.713172767078504e-05,0.0972511246800422,0,0,0
5810,211383.142514555,2010-12-08 23:16:53,2491.234312685413,7,19,-1.099568486213684,3.498526096343994,17.539276349645057,17.373920718173085,70.35704125415836,63.0157380734556,-9.713172767078504e-05,0.0972511246800422,0,0,0
5811,211413.15745972664,2010-12-08 23:17:23,2521.2492579372515,7,19,-1.099568486213684,3.4933457374572754,17.539276349645057,17.38308876078435,70.35704125415836,63.04778895964064,-0.0001618862152099,0.0972511246800422,0,0,0
5812,211443.1760167011,2010-12-08 23:17:53,2551.267814916735,7,19,-1.099568486213684,3.4881653785705566,17.539276349645057,17.392257891884164,70.35704125415836,63.0797959851769,-0.0001295089750783,0.0972511246800422,0,0,0
5813,211473.1877765061,2010-12-08 23:18:23,2581.279574631487,7,19,-1.099568486213684,3.481851816177368,17.539276349645057,17.40142497199332,70.35704125415836,63.11174358398117,-0.0001942634553415,0.0972511246800422,0,0,0
5814,211503.2027014624,2010-12-08 23:18:53,2611.2944996078704,7,19,-1.099568486213684,3.47505259513855,17.539276349645057,17.41059293084232,70.35704125415836,63.14363520822008,-0.0002266406954731,0.0972511246800422,0,0,0
5815,211533.2176824181,2010-12-08 23:19:23,2641.309480558544,7,19,-1.0993878841400146,3.467605829238892,17.539276349645057,17.41976095016921,70.35704125415836,63.17546113983165,-0.0001942634553415,0.0972511246800422,0,0,0
5816,211563.232769553,2010-12-08 23:19:53,2671.324567698465,7,19,-1.0997490882873535,3.4588639736175537,17.539276349645057,17.428928946871803,70.35704125415836,63.207212428349344,-0.0002590179501567,0.0972511246800422,0,0,0
5817,211593.2478000319,2010-12-08 23:20:23,2701.3395981773874,7,19,-1.099568486213684,3.448665142059326,17.539276349645057,17.438097024203806,70.35704125415836,63.23887739021097,-0.0002590179501567,0.0972511246800422,0,0,0
5818,211623.26285032017,2010-12-08 23:20:53,2731.354648460592,7,19,-1.099568486213684,3.436199903488159,17.539276349645057,17.447265108708198,70.35704125415836,63.27043934675272,-0.0003561496851034,0.0972511246800422,0,0,0
5819,211653.278040306,2010-12-08 23:21:23,2761.3698384514546,7,19,-1.099568486213684,3.420982837677002,17.539276349645057,17.45643325744433,70.35704125415836,63.30187594503223,-0.0004209041653666,0.0972511246800422,0,0,0
5820,211683.29315015243,2010-12-08 23:21:53,2791.3849482828427,7,19,-1.099568486213684,3.4017183780670166,17.539276349645057,17.465601398734456,70.35704125415836,63.33315559497476,-0.0005827903514727,0.0972511246800422,0,0,0
5821,211713.30803331977,2010-12-08 23:22:23,2821.3998314602104,7,19,-1.099568486213684,3.3767879009246826,17.539276349645057,17.474769418031723,70.35704125415836,63.3642345140949,-0.0007770538213662,0.0972511246800422,0,0,0
5822,211743.3233960154,2010-12-08 23:22:53,2851.4151941608534,7,19,-1.0997490882873535,3.3437633514404297,17.539276349645057,17.48393761107801,70.35704125415836,63.395050382014425,-0.0010036944877356,0.0972511246800422,0,0,0
5823,211773.33828327796,2010-12-08 23:23:23,2881.430081403338,7,19,-1.099568486213684,3.2990827560424805,17.539276349645057,17.493105656260617,70.35704125415836,63.42551274272409,-0.0013922214275225,0.0972511246800422,0,0,0
5824,211803.352852474,2010-12-08 23:23:53,2911.444650594364,7,19,-1.099568486213684,3.2378900051116943,17.539276349645057,17.502269007316354,70.35704125415836,63.45547945986484,-0.0018778800731524,0.0972511246800422,0,0,0
5825,211833.35326849035,2010-12-08 23:24:23,2941.4450667260453,7,19,-1.0997490882873535,3.1514430046081543,17.539276349645057,17.511437127316185,70.35704125415836,63.48479343682624,-0.0026873112656176,0.0972511246800422,0,0,0
5826,211863.3676093432,2010-12-08 23:24:53,2971.4594075237223,7,19,-1.099568486213684,3.0183730125427246,17.539276349645057,17.520600349427966,70.35704125415836,63.51311013318288,-0.0044032572768628,0.0972511246800422,0,0,0
5827,211888.60201240965,2010-12-08 23:25:19,2996.6938106052366,7,19,-1.0993878841400146,2.818282127380371,17.539276349645057,17.528312843662363,70.35704125415836,63.53569237135413,-0.0079648019745945,0.0972511246800422,0,0,0
5828,211899.55459291,2010-12-08 23:25:30,3007.6463910504217,7,19,-1.099929690361023,2.699943780899048,17.539276349645057,17.53165831976724,70.35704125415836,63.544925827058464,-0.0088389394804835,0.0972511246800422,0,0,0
5829,211959.56392593196,2010-12-08 23:26:30,60.01098860703366,8,19,0.0,3.3858535289764404,17.539276349645057,17.53165831976724,70.35704125415836,63.544925827058464,0.0012950897216796,0.0972511246800422,0,0,0
5830,211959.75074966013,2010-12-08 23:26:30,0.187467686126631,9,19,-1.9243103452026844e-05,3.3861773014068604,17.539276349645057,17.53165832076931,70.35704125415836,63.54492583045166,0.0,0.0931989923119545,0,0,0
5831,211964.57868946763,2010-12-08 23:26:35,5.015407493647654,9,19,0.0008838032954372,3.3942716121673584,17.539277365759176,17.531658320852237,70.35704469976055,63.54492583073248,0.0011655807029455,0.0931989923119545,0,0,0
