Data_Point,Test_Time(s),Date_Time,Step_Time(s),Step_Index,Cycle_Index,Current(A),Voltage(V),Charge_Capacity(Ah),Discharge_Capacity(Ah),Charge_Energy(Wh),Discharge_Energy(Wh),dV/dt(V/s),Internal_Resistance(Ohm),Is_FC_Data,AC_Impedance(Ohm),ACI_Phase_Angle(Deg)
12144,441022.5435768341,2010-12-11 15:04:40,30.01502053417543,1,41,0.0,3.4352285861968994,36.45908387262951,36.44340329667865,146.2560260216829,132.0083429979594,0.0007770061492919,0.0947341993451118,0,0,0
12145,441052.5586911517,2010-12-11 15:05:10,60.03013485172718,1,41,0.0,3.4596734046936035,36.45908387262951,36.44340329667865,146.2560260216829,132.0083429979594,0.0005827903514727,0.0947341993451118,0,0,0
12146,441082.5737424424,2010-12-11 15:05:40,90.04518611236423,1,41,0.0,3.477966547012329,36.45908387262951,36.44340329667865,146.2560260216829,132.0083429979594,0.0003885269106831,0.0947341993451118,0,0,0
12147,441112.5419861343,2010-12-11 15:06:10,120.01342981419148,1,41,0.0,3.492860078811645,36.45908387262951,36.44340329667865,146.2560260216829,132.0083429979594,0.0003885269106831,0.0947341993451118,0,0,0
12148,441142.5609190411,2010-12-11 15:06:41,30.0150712604057,2,41,0.550297200679779,3.6456801891326895,36.46367138268264,36.44340329667865,146.2726039419368,132.0083429979594,0.0014893531333655,0.0947341993451118,0,0,0
12149,441172.576125523,2010-12-11 15:07:11,60.03027780746704,2,41,0.550297200679779,3.6869609355926514,36.46825887377209,36.44340329667865,146.28942920335405,132.0083429979594,0.0009713172912597,0.0947341993451118,0,0,0
12150,441202.59108596266,2010-12-11 15:07:41,90.04523818193735,2,41,0.5501165986061096,3.7162623405456543,36.472846292541846,36.44340329667865,146.3064129325326,132.0083429979594,0.0007122993702068,0.0947341993451118,0,0,0
12151,441232.60615467175,2010-12-11 15:08:11,120.06030687094425,2,41,0.550297200679779,3.738926410675049,36.47743372785839,36.44340329667865,146.32351478851632,132.0083429979594,0.0005504131549969,0.0947341993451118,0,0,0
12152,441262.621224694,2010-12-11 15:08:41,150.07537690830645,2,41,0.550297200679779,3.756247997283936,36.48202109931093,36.44340329667865,146.34070799588807,132.0083429979594,0.0004209041653666,0.0947341993451118,0,0,0
12153,441292.6364558775,2010-12-11 15:09:11,180.09060806661194,2,41,0.5501165986061096,3.768713235855103,36.48660851918488,36.44340329667865,146.35796988252577,132.0083429979594,0.0002590179501567,0.0947341993451118,0,0,0
12154,441322.6513867184,2010-12-11 15:09:41,210.1055389376641,2,41,0.550297200679779,3.7768075466156006,36.49119592082664,36.44340329667865,146.37527828143968,132.0083429979594,0.0001618862152099,0.0947341993451118,0,0,0
12155,441352.6664836226,2010-12-11 15:10:11,240.12063584188343,2,41,0.550297200679779,3.782797336578369,36.49578333259928,36.44340329667865,146.39261839659082,132.0083429979594,0.0001618862152099,0.0947341993451118,0,0,0
12156,441382.6816762851,2010-12-11 15:10:41,270.13582855953086,2,41,0.550297200679779,3.787977695465088,36.500370786456,36.44340329667865,146.4099836513529,132.0083429979594,0.0001295089750783,0.0947341993451118,0,0,0
12157,441412.69661196816,2010-12-11 15:11:11,300.1507641824078,2,41,0.5504778623580933,3.7926723957061768,36.50495816852932,36.44340329667865,146.42737099626035,132.0083429979594,0.0001618862152099,0.0947341993451118,0,0,0
12158,441442.71169492765,2010-12-11 15:11:41,330.16584714693875,2,41,0.550297200679779,3.7970433235168457,36.509545600607815,36.44340329667865,146.44477954721435,132.0083429979594,0.0001295089750783,0.0947341993451118,0,0,0
12159,441472.7267821428,2010-12-11 15:12:11,360.1809343419972,2,41,0.5501165986061096,3.8012523651123047,36.514133075112525,36.44340329667865,146.46220816029756,132.0083429979594,9.713172767078504e-05,0.0947341993451118,0,0,0
12160,441502.74199203815,2010-12-11 15:12:41,390.19614423739074,2,41,0.5501165986061096,3.805461406707764,36.51872052283873,36.44340329667865,146.47965569045317,132.0083429979594,0.0001295089750783,0.0947341993451118,0,0,0
12161,441532.7569159719,2010-12-11 15:13:11,420.2110681862172,2,41,0.5501165986061096,3.8093466758728023,36.523307862008586,36.44340329667865,146.49712124126492,132.0083429979594,0.0001295089750783,0.0947341993451118,0,0,0
12162,441562.7720033926,2010-12-11 15:13:41,450.226155606837,2,41,0.5501165986061096,3.813231945037842,36.52789532851234,36.44340329667865,146.5146052203094,132.0083429979594,6.47544875391759e-05,0.0947341993451118,0,0,0
12163,441592.7871718198,2010-12-11 15:14:11,480.24132403403854,2,41,0.5501165986061096,3.816793441772461,36.53248281400748,36.44340329667865,146.5321070689789,132.0083429979594,6.47544875391759e-05,0.0947341993451118,0,0,0
12164,441622.8021233522,2010-12-11 15:14:41,510.2562755665059,2,41,0.5501165986061096,3.8206787109375,36.53707022585231,36.44340329667865,146.54962574915618,132.0083429979594,6.47544875391759e-05,0.0947341993451118,0,0,0
12165,441652.8172496045,2010-12-11 15:15:11,540.2714018187567,2,41,0.550297200679779,3.824402093887329,36.54165768619258,36.44340329667865,146.56716153232247,132.0083429979594,9.713172767078504e-05,0.0947341993451118,0,0,0
12166,441682.8348778479,2010-12-11 15:15:41,570.2890301272784,2,41,0.5501165986061096,3.828125476837158,36.54624544164184,36.44340329667865,146.58471521084326,132.0083429979594,9.713172767078504e-05,0.0947341993451118,0,0,0
12167,441712.8496152274,2010-12-11 15:16:11,600.3037675318967,2,41,0.550297200679779,3.831686973571777,36.55083278706803,36.44340329667865,146.60228419022198,132.0083429979594,6.47544875391759e-05,0.0947341993451118,0,0,0
12168,441742.8624875609,2010-12-11 15:16:41,630.3166397651078,2,41,0.550297200679779,3.8354101181030273,36.55541987367667,36.44340329667865,146.61986901619684,132.0083429979594,9.713172767078504e-05,0.0947341993451118,0,0,0
12169,441772.8775694828,2010-12-11 15:17:11,660.3317216970693,2,41,0.550297200679779,3.839133501052856,36.56000731215945,36.44340329667865,146.637472148352,132.0083429979594,9.713172767078504e-05,0.0947341993451118,0,0,0
12170,441802.8926413998,2010-12-11 15:17:41,690.3467935990716,2,41,0.550297200679779,3.8428568840026855,36.56459463412624,36.44340329667865,146.65509186503806,132.0083429979594,9.713172767078504e-05,0.0947341993451118,0,0,0
12171,441832.9078400622,2010-12-11 15:18:11,720.3619922665248,2,41,0.550297200679779,3.846580266952514,36.56918209499246,36.44340329667865,146.67272914327253,132.0083429979594,0.0001295089750783,0.0947341993451118,0,0,0
12172,441862.9229144654,2010-12-11 15:18:41,750.3770666797761,2,41,0.550297200679779,3.850303649902344,36.57376944616643,36.44340329667865,146.6903831269562,132.0083429979594,0.0001295089750783,0.0947341993451118,0,0,0
12173,441892.9378666496,2010-12-11 15:19:11,780.3920188538401,2,41,0.5501165986061096,3.853865146636963,36.57835688549687,36.44340329667865,146.70805437302838,132.0083429979594,9.713172767078504e-05,0.0947341993451118,0,0,0
12174,441922.9529795586,2010-12-11 15:19:41,810.4071317729118,2,41,0.5501165986061096,3.857588529586792,36.58294421103164,36.44340329667865,146.72574198630113,132.0083429979594,9.713172767078504e-05,0.0947341993451118,0,0,0
12175,441952.9680178169,2010-12-11 15:20:11,840.4221700311931,2,41,0.550297200679779,3.861311912536621,36.587531664907104,36.44340329667865,146.74344665583857,132.0083429979594,0.0001295089750783,0.0947341993451118,0,0,0
12176,441982.9831097287,2010-12-11 15:20:41,870.4372619429888,2,41,0.5501165986061096,3.86454963684082,36.5921191075709,36.44340329667865,146.7611674184061,132.0083429979594,9.713172767078504e-05,0.0947341993451118,0,0,0
12177,442012.9983848464,2010-12-11 15:21:11,900.4525371308603,2,41,0.5501165986061096,3.8679492473602295,36.59670652755434,36.44340329667865,146.7789037603228,132.0083429979594,9.713172767078504e-05,0.0947341993451118,0,0,0
12178,442043.01327378815,2010-12-11 15:21:41,930.4674260023984,2,41,0.550297200679779,3.8711869716644287,36.60129393992385,36.44340329667865,146.79665529882044,132.0083429979594,9.713172767078504e-05,0.0947341993451118,0,0,0
12179,442073.0284606011,2010-12-11 15:22:11,960.482612815352,2,41,0.550297200679779,3.874262809753418,36.60588141909994,36.44340329667865,146.8144217838203,132.0083429979594,6.47544875391759e-05,0.0947341993451118,0,0,0
12180,442103.04341272,2010-12-11 15:22:41,990.4975649192412,2,41,0.5501165986061096,3.8773386478424072,36.61046883328098,36.44340329667865,146.83220198865854,132.0083429979594,9.713172767078504e-05,0.0947341993451118,0,0,0
12181,442133.0586376279,2010-12-11 15:23:11,1020.5127898320052,2,41,0.550297200679779,3.8802525997161865,36.61505625927621,36.44340329667865,146.84999570015603,132.0083429979594,6.47544875391759e-05,0.0947341993451118,0,0,0
12182,442163.0736993144,2010-12-11 15:23:41,1050.5278515286116,2,41,0.550297200679779,3.883166551589966,36.619643671502864,36.44340329667865,146.86780213731748,132.0083429979594,0.0001295089750783,0.0947341993451118,0,0,0
12183,442193.088646902,2010-12-11 15:24:11,1080.5427991162624,2,41,0.5501165986061096,3.885432958602905,36.624231112188326,36.44340329667865,146.88562078464324,132.0083429979594,3.237724376958795e-05,0.0947341993451118,0,0,0
12184,442223.10373260325,2010-12-11 15:24:41,1110.5578848176035,2,41,0.5501165986061096,3.887861251831055,36.62881859677832,36.44340329667865,146.90345102223466,132.0083429979594,6.47544875391759e-05,0.0947341993451118,0,0,0
12185,442253.1190220818,2010-12-11 15:25:11,1140.5731743712236,2,41,0.5499359965324402,3.889965772628784,36.63340609591022,36.44340329667865,146.92129210388364,132.0083429979594,3.237724376958795e-05,0.0947341993451118,0,0,0
12186,442283.13584761263,2010-12-11 15:25:41,1170.5899999070764,2,41,0.550297200679779,3.8923940658569336,36.63799383476001,36.44340329667865,146.93914433366973,132.0083429979594,6.47544875391759e-05,0.0947341993451118,0,0,0
12187,442313.1489579483,2010-12-11 15:26:11,1200.6031101676092,2,41,0.5501165986061096,3.894336700439453,36.64258103644463,36.44340329667865,146.95700415882834,132.0083429979594,6.47544875391759e-05,0.0947341993451118,0,0,0
12188,442343.16418486607,2010-12-11 15:26:41,1230.6183370653123,2,41,0.5501165986061096,3.896441221237183,36.64716855837551,36.44340329667865,146.97487403910003,132.0083429979594,9.713172767078504e-05,0.0947341993451118,0,0,0
12189,442373.17914858885,2010-12-11 15:27:11,1260.633300883352,2,41,0.550297200679779,3.898221969604492,36.65175602245894,36.44340329667865,146.99275255121827,132.0083429979594,0.0,0.0947341993451118,0,0,0
12190,442403.19421143335,2010-12-11 15:27:41,1290.648363632578,2,41,0.5501165986061096,3.9000027179718018,36.65634343902837,36.44340329667865,147.01063942076755,132.0083429979594,6.47544875391759e-05,0.0947341993451118,0,0,0
12191,442433.2092662578,2010-12-11 15:28:11,1320.6634184570837,2,41,0.5501165986061096,3.9017834663391113,36.66093087219622,36.44340329667865,147.02853452412867,132.0083429979594,3.237724376958795e-05,0.0947341993451118,0,0,0
12192,442463.2243564504,2010-12-11 15:28:41,1350.6785086646385,2,41,0.550297200679779,3.903402328491211,36.66551836707631,36.44340329667865,147.04643796402817,132.0083429979594,3.237724376958795e-05,0.0947341993451118,0,0,0
12193,442493.23943027714,2010-12-11 15:29:11,1380.6935824914308,2,41,0.5501165986061096,3.905183076858521,36.670105785731415,36.44340329667865,147.06434894170616,132.0083429979594,3.237724376958795e-05,0.0947341993451118,0,0,0
12194,442523.25453557726,2010-12-11 15:29:41,1410.7086877915428,2,41,0.5501165986061096,3.90680193901062,36.6746932245874,36.44340329667865,147.082267595106,132.0083429979594,3.237724376958795e-05,0.0947341993451118,0,0,0
12195,442553.2696054544,2010-12-11 15:30:11,1440.7237576735183,2,41,0.550297200679779,3.9085826873779297,36.67928071319599,36.44340329667865,147.1001941488659,132.0083429979594,6.47544875391759e-05,0.0947341993451118,0,0,0
12196,442583.2846561284,2010-12-11 15:30:41,1470.7388083426836,2,41,0.5501165986061096,3.9103634357452393,36.68386811770115,36.44340329667865,147.11812797753498,132.0083429979594,6.47544875391759e-05,0.0947341993451118,0,0,0
12197,442613.2997616992,2010-12-11 15:31:11,1500.7539139134692,2,41,0.5501165986061096,3.911820411682129,36.6884556434241,36.44340329667865,147.13606976457655,132.0083429979594,3.237724376958795e-05,0.0947341993451118,0,0,0
12198,442643.3150992222,2010-12-11 15:31:41,1530.7692515316962,2,41,0.550297200679779,3.913439273834229,36.6930432563956,36.44340329667865,147.1540194561372,132.0083429979594,6.47544875391759e-05,0.0947341993451118,0,0,0
12199,442673.3301242024,2010-12-11 15:32:11,1560.7842765069229,2,41,0.5504778623580933,3.915219783782959,36.69763072618636,36.44340329667865,147.17197609379943,132.0083429979594,6.47544875391759e-05,0.0947341993451118,0,0,0
12200,442703.3449689242,2010-12-11 15:32:41,1590.7991211383712,2,41,0.550297200679779,3.9166767597198486,36.70221811801397,36.44340329667865,147.18993976601118,132.0083429979594,3.237724376958795e-05,0.0947341993451118,0,0,0
12201,442733.3600502646,2010-12-11 15:33:11,1620.814202478861,2,41,0.5501165986061096,3.918295621871948,36.70680550291111,36.44340329667865,147.20791094369412,132.0083429979594,3.237724376958795e-05,0.0947341993451118,0,0,0
12202,442763.3751544319,2010-12-11 15:33:41,1650.829306646154,2,41,0.5501165986061096,3.919914484024048,36.71139283653878,36.44340329667865,147.225889367673,132.0083429979594,3.237724376958795e-05,0.0947341993451118,0,0,0
12203,442793.3902059531,2010-12-11 15:34:11,1680.8443581674396,2,41,0.5501165986061096,3.9213714599609375,36.71598028403268,36.44340329667865,147.24387569340144,132.0083429979594,0.0,0.0947341993451118,0,0,0
12204,442823.4054072072,2010-12-11 15:34:41,1710.8595595015288,2,41,0.550297200679779,3.923152208328247,36.720567761651694,36.44340329667865,147.26186960381048,132.0083429979594,3.237724376958795e-05,0.0947341993451118,0,0,0
12205,442853.42036493,2010-12-11 15:35:11,1740.874517144201,2,41,0.5501165986061096,3.9247710704803462,36.72515519430924,36.44340329667865,147.27987082660178,132.0083429979594,3.237724376958795e-05,0.0947341993451118,0,0,0
12206,442883.4373240231,2010-12-11 15:35:41,1770.891476257456,2,41,0.550297200679779,3.926551818847656,36.72974291282953,36.44340329667865,147.29788058636666,132.0083429979594,6.47544875391759e-05,0.0947341993451118,0,0,0
12207,442913.450522423,2010-12-11 15:36:11,1800.904674612208,2,41,0.550297200679779,3.928170680999756,36.7343300985154,36.44340329667865,147.3158957461338,132.0083429979594,6.47544875391759e-05,0.0947341993451118,0,0,0
12208,442943.4656259688,2010-12-11 15:36:41,1830.9197782481792,2,41,0.550297200679779,3.9296276569366455,36.73891760205163,36.44340329667865,147.33391966979832,132.0083429979594,0.0,0.0947341993451118,0,0,0
12209,442973.48070158,2010-12-11 15:37:11,1860.9348537892367,2,41,0.550297200679779,3.931408405303955,36.74350505984758,36.44340329667865,147.35195089868938,132.0083429979594,6.47544875391759e-05,0.0947341993451118,0,0,0
12210,443003.495765442,2010-12-11 15:37:41,1890.9499176562445,2,41,0.550297200679779,3.933027267456055,36.74809257432575,36.44340329667865,147.3699899143905,132.0083429979594,3.237724376958795e-05,0.0947341993451118,0,0,0
12211,443033.5108255748,2010-12-11 15:38:11,1920.96497778896,2,41,0.550297200679779,3.9346461296081534,36.752679636822215,36.44340329667865,147.3880346392509,132.0083429979594,6.47544875391759e-05,0.0947341993451118,0,0,0
12212,443063.52590886,2010-12-11 15:38:42,1950.980061079301,2,41,0.5501165986061096,3.936264991760254,36.757266298065126,36.44340329667865,147.40608527146136,132.0083429979594,6.47544875391759e-05,0.0947341993451118,0,0,0
12213,443093.5412191703,2010-12-11 15:39:12,1980.995371459748,2,41,0.5501165986061096,3.938045740127564,36.76185296759918,36.44340329667865,147.42414345349036,132.0083429979594,3.237724376958795e-05,0.0947341993451118,0,0,0
12214,443123.556068724,2010-12-11 15:39:42,2011.0102209382576,2,41,0.5501165986061096,3.939502716064453,36.76643948613711,36.44340329667865,147.44220881232786,132.0083429979594,0.0,0.0947341993451118,0,0,0
12215,443153.5711339293,2010-12-11 15:40:12,2041.025286143596,2,41,0.550297200679779,3.9414453506469727,36.7710264662032,36.44340329667865,147.46028371932496,132.0083429979594,6.47544875391759e-05,0.0947341993451118,0,0,0
12216,443183.5863558948,2010-12-11 15:40:42,2071.0405081741874,2,41,0.5501165986061096,3.9429023265838623,36.77561382110799,36.44340329667865,147.47836766754511,132.0083429979594,3.237724376958795e-05,0.0947341993451118,0,0,0
12217,443213.6013077179,2010-12-11 15:41:12,2101.0554599171783,2,41,0.5501165986061096,3.944521188735962,36.78020117225391,36.44340329667865,147.49645930304632,132.0083429979594,0.0,0.0947341993451118,0,0,0
12218,443243.6165088365,2010-12-11 15:41:42,2131.0706610307184,2,41,0.550297200679779,3.9461400508880615,36.78478861660211,36.44340329667865,147.5145590170849,132.0083429979594,0.0,0.0947341993451118,0,0,0
12219,443273.6314606346,2010-12-11 15:42:12,2161.0856129190715,2,41,0.550297200679779,3.948082685470581,36.78937599375286,36.44340329667865,147.5326660571983,132.0083429979594,9.713172767078504e-05,0.0947341993451118,0,0,0
12220,443303.6466621141,2010-12-11 15:42:42,2191.1008143133104,2,41,0.5501165986061096,3.949539661407471,36.79396345624383,36.44340329667865,147.55078122290405,132.0083429979594,0.0,0.0947341993451118,0,0,0
12221,443333.661610975,2010-12-11 15:43:12,2221.115763189167,2,41,0.5501165986061096,3.95132040977478,36.798550842580205,36.44340329667865,147.56890395504374,132.0083429979594,3.237724376958795e-05,0.0947341993451118,0,0,0
12222,443363.67685445887,2010-12-11 15:43:42,2251.1310066581077,2,41,0.5501165986061096,3.95310115814209,36.80313830599298,36.44340329667865,147.58703477743916,132.0083429979594,6.47544875391759e-05,0.0947341993451118,0,0,0
12223,443393.6918134248,2010-12-11 15:44:12,2281.1459657042715,2,41,0.5501165986061096,3.9547200202941895,36.80772572232223,36.44340329667865,147.6051733082697,132.0083429979594,3.237724376958795e-05,0.0947341993451118,0,0,0
12224,443423.7068469513,2010-12-11 15:44:42,2311.160999165616,2,41,0.5501165986061096,3.956662654876709,36.81231312051603,36.44340329667865,147.62331972095245,132.0083429979594,9.713172767078504e-05,0.0947341993451118,0,0,0
12225,443453.7219312592,2010-12-11 15:45:12,2341.176083448427,2,41,0.550297200679779,3.9582815170288086,36.81690058049478,36.44340329667865,147.64147423672384,132.0083429979594,0.0,0.0947341993451118,0,0,0
12226,443483.738901024,2010-12-11 15:45:42,2371.1930533184504,2,41,0.550297200679779,3.960062265396118,36.82148832715884,36.44340329667865,147.65963790333365,132.0083429979594,3.237724376958795e-05,0.0947341993451118,0,0,0
12227,443513.75208953925,2010-12-11 15:46:12,2401.206241753517,2,41,0.5501165986061096,3.961843013763428,36.82607546118863,36.44340329667865,147.6778072474463,132.0083429979594,6.47544875391759e-05,0.0947341993451118,0,0,0
12228,443543.7671619826,2010-12-11 15:46:42,2431.221314171805,2,41,0.550297200679779,3.963623762130737,36.83066293971772,36.44340329667865,147.69598601078155,132.0083429979594,6.47544875391759e-05,0.0947341993451118,0,0,0
12229,443573.7822428419,2010-12-11 15:47:12,2461.2363950310964,2,41,0.5501165986061096,3.965242624282837,36.83525044149135,36.44340329667865,147.7141730383804,132.0083429979594,6.47544875391759e-05,0.0947341993451118,0,0,0
12230,443603.7975453427,2010-12-11 15:47:42,2491.25169762216,2,41,0.5501165986061096,3.966861486434937,36.8398378707956,36.44340329667865,147.73236796298906,132.0083429979594,-3.237724376958795e-05,0.0947341993451118,0,0,0
12231,443633.7993427166,2010-12-11 15:48:12,2521.253495021072,2,41,0.550297200679779,3.968966007232666,36.84442327642504,36.44340329667865,147.7505629775645,132.0083429979594,3.237724376958795e-05,0.0947341993451118,0,0,0
12232,443663.8142221697,2010-12-11 15:48:42,2551.268374474173,2,41,0.5501165986061096,3.970746755599976,36.84901067429097,36.44340329667865,147.768774244378,132.0083429979594,6.47544875391759e-05,0.0947341993451118,0,0,0
12233,443693.8269317181,2010-12-11 15:49:12,2581.281083922299,2,41,0.5501165986061096,3.972527503967285,36.85359778010492,36.44340329667865,147.7869927652158,132.0083429979594,3.237724376958795e-05,0.0947341993451118,0,0,0
12234,443723.8420124922,2010-12-11 15:49:42,2611.296164681341,2,41,0.5504778623580933,3.9744701385498047,36.85818523398512,36.44340329667865,147.8052210881857,132.0083429979594,6.47544875391759e-05,0.0947341993451118,0,0,0
12235,443753.8571183135,2010-12-11 15:50:12,2641.311270502751,2,41,0.5501165986061096,3.976250886917114,36.86277268149822,36.44340329667865,147.82345793527935,132.0083429979594,3.237724376958795e-05,0.0947341993451118,0,0,0
12236,443783.8721713737,2010-12-11 15:50:42,2671.3263235678783,2,41,0.550297200679779,3.977869749069214,36.86736017183829,36.44340329667865,147.84170339172982,132.0083429979594,0.0,0.0947341993451118,0,0,0
12237,443813.8874929069,2010-12-11 15:51:12,2701.341645096066,2,41,0.550297200679779,3.9802980422973633,36.871947579388,36.44340329667865,147.85995722904977,132.0083429979594,6.47544875391759e-05,0.0947341993451118,0,0,0
12238,443843.9023291825,2010-12-11 15:51:42,2731.356481396784,2,41,0.550297200679779,3.982240676879883,36.87653488493896,36.44340329667865,147.87821966760796,132.0083429979594,9.713172767078504e-05,0.0947341993451118,0,0,0
12239,443873.9175349727,2010-12-11 15:52:12,2761.371687186961,2,41,0.5501165986061096,3.984021425247192,36.881122253975626,36.44340329667865,147.89649122299096,132.0083429979594,6.47544875391759e-05,0.0947341993451118,0,0,0
12240,443903.9326024086,2010-12-11 15:52:42,2791.3867546228503,2,41,0.5501165986061096,3.985802173614502,36.885709620138535,36.44340329667865,147.91477174582198,132.0083429979594,0.0,0.0947341993451118,0,0,0
12241,443933.9475681213,2010-12-11 15:53:12,2821.4017203155545,2,41,0.550297200679779,3.987906694412232,36.89029697845955,36.44340329667865,147.9330613282926,132.0083429979594,3.237724376958795e-05,0.0947341993451118,0,0,0
12242,443963.962788999,2010-12-11 15:53:42,2851.416941213327,2,41,0.550297200679779,3.990173101425171,36.894884355209264,36.44340329667865,147.9513600447389,132.0083429979594,0.0001295089750783,0.0947341993451118,0,0,0
12243,443993.9778069869,2010-12-11 15:54:12,2881.431959276353,2,41,0.5501165986061096,3.991953849792481,36.899471631335565,36.44340329667865,147.9696676920395,132.0083429979594,3.237724376958795e-05,0.0947341993451118,0,0,0
12244,444023.99279725575,2010-12-11 15:54:42,2911.446949470027,2,41,0.5501165986061096,3.993896484375,36.904058967888126,36.44340329667865,147.98798499417168,132.0083429979594,0.0,0.0947341993451118,0,0,0
12245,444054.0078734584,2010-12-11 15:55:12,2941.4620256476696,2,41,0.5501165986061096,3.99616265296936,36.9086463052772,36.44340329667865,148.00631183281888,132.0083429979594,6.47544875391759e-05,0.0947341993451118,0,0,0
12246,444084.02311877697,2010-12-11 15:55:42,2971.4772710413995,2,41,0.5501165986061096,3.99826717376709,36.91323369695786,36.44340329667865,148.02464853994238,132.0083429979594,3.237724376958795e-05,0.0947341993451118,0,0,0
12247,444114.0399197016,2010-12-11 15:56:12,3001.494072006107,2,41,0.550297200679779,4.000209808349609,36.917821346371305,36.44340329667865,148.0429958510437,132.0083429979594,3.23295607813634e-05,0.0947341993451118,0,0,0
12248,444144.05314134434,2010-12-11 15:56:42,3031.5072936488104,2,41,0.5501165986061096,4.002476215362549,36.92240841907029,36.44340329667865,148.06135077020596,132.0083429979594,3.23295607813634e-05,0.0947341993451118,0,0,0
12249,444174.0682150608,2010-12-11 15:57:12,3061.522367285129,2,41,0.5501165986061096,4.004742622375488,36.926995773224135,36.44340329667865,148.07971681655704,132.0083429979594,9.70840483205393e-05,0.0947341993451118,0,0,0
12250,444204.083489552,2010-12-11 15:57:42,3091.5376417512043,2,41,0.5499359965324402,4.006847381591797,36.93158311316069,36.44340329667865,148.09809287191956,132.0083429979594,6.47544875391759e-05,0.0947341993451118,0,0,0
12251,444234.0983779624,2010-12-11 15:58:12,3121.5525301766315,2,41,0.5501165986061096,4.009113788604736,36.93617041591312,36.44340329667865,148.11647896880967,132.0083429979594,6.47544875391759e-05,0.0947341993451118,0,0,0
12252,444264.1134159901,2010-12-11 15:58:42,3151.5675681893026,2,41,0.550297200679779,4.011380195617676,36.94075772742048,36.44340329667865,148.1348753505798,132.0083429979594,6.47544875391759e-05,0.0947341993451118,0,0,0
12253,444294.12849607744,2010-12-11 15:59:12,3181.582648286698,2,41,0.5501165986061096,4.013646602630615,36.94534507954706,36.44340329667865,148.1532823198405,132.0083429979594,6.47544875391759e-05,0.0947341993451118,0,0,0
12254,444324.143578596,2010-12-11 15:59:42,3211.597730815144,2,41,0.5501165986061096,4.015913009643555,36.94993242485348,36.44340329667865,148.17169978410072,132.0083429979594,0.0,0.0947341993451118,0,0,0
12255,444354.1586902919,2010-12-11 16:00:12,3241.612842491122,2,41,0.5501165986061096,4.018341064453125,36.95451982800152,36.44340329667865,148.19012823676664,132.0083429979594,6.47544875391759e-05,0.0947341993451118,0,0,0
12256,444384.1739086684,2010-12-11 16:00:42,3271.6280609377955,2,41,0.550297200679779,4.0207695960998535,36.95910718766494,36.44340329667865,148.2085671286495,132.0083429979594,6.47544875391759e-05,0.0947341993451118,0,0,0
12257,444414.18880989566,2010-12-11 16:01:12,3301.642962109943,2,41,0.5501165986061096,4.023036003112793,36.96369451364587,36.44340329667865,148.22701690970447,132.0083429979594,6.47544875391759e-05,0.0947341993451118,0,0,0
12258,444444.2039012961,2010-12-11 16:01:42,3331.6580534854043,2,41,0.550297200679779,4.025626182556152,36.96828184142282,36.44340329667865,148.2454776653472,132.0083429979594,9.71794142969884e-05,0.0947341993451118,0,0,0
12259,444474.2189796944,2010-12-11 16:02:12,3361.6731319136466,2,41,0.5501165986061096,4.028054237365723,36.97286918523206,36.44340329667865,148.26394956466493,132.0083429979594,0.0001295089750783,0.0947341993451118,0,0,0
12260,444504.2340520525,2010-12-11 16:02:42,3391.688204241709,2,41,0.5501165986061096,4.030482769012451,36.977456506792166,36.44340329667865,148.282432531429,132.0083429979594,6.47544875391759e-05,0.0947341993451118,0,0,0
12261,444534.2491270472,2010-12-11 16:03:12,3421.7032792664822,2,41,0.5501165986061096,4.032749176025391,36.98204375319588,36.44340329667865,148.30092645132342,132.0083429979594,3.24249267578125e-05,0.0947341993451118,0,0,0
12262,444564.2642011497,2010-12-11 16:03:42,3451.7183533689604,2,41,0.5501165986061096,4.035177230834961,36.98663111959784,36.44340329667865,148.31943228169143,132.0083429979594,3.24249267578125e-05,0.0947341993451118,0,0,0
12263,444594.27949747513,2010-12-11 16:04:12,3481.733649664357,2,41,0.550297200679779,4.037929058074951,36.99121848656219,36.44340329667865,148.3379496762747,132.0083429979594,6.47544875391759e-05,0.0947341993451118,0,0,0
12264,444624.29434945487,2010-12-11 16:04:42,3511.748501669153,2,41,0.550297200679779,4.04035758972168,36.99580583362992,36.44340329667865,148.3564785951209,132.0083429979594,6.47544875391759e-05,0.0947341993451118,0,0,0
12265,444654.30942254985,2010-12-11 16:05:12,3541.7635747641248,2,41,0.5501165986061096,4.04278564453125,37.000393218650046,36.44340329667865,148.3750193412913,132.0083429979594,3.23295607813634e-05,0.0947341993451118,0,0,0
12266,444684.3246285656,2010-12-11 16:05:42,3571.778780764826,2,41,0.5504778623580933,4.045699596405029,37.004980566798274,36.44340329667865,148.39357172836245,132.0083429979594,9.70840483205393e-05,0.0947341993451118,0,0,0
12267,444714.34146956494,2010-12-11 16:06:12,3601.795621854384,2,41,0.550297200679779,4.048289775848389,37.0095681978956,36.44340329667865,148.41213722190187,132.0083429979594,0.0001295089750783,0.0947341993451118,0,0,0
12268,444744.3546638696,2010-12-11 16:06:42,3631.8088161740943,2,41,0.5504778623580933,4.051042079925537,37.0141552957957,36.44340329667865,148.43071260507935,132.0083429979594,9.71794142969884e-05,0.0947341993451118,0,0,0
12269,444774.3700226154,2010-12-11 16:07:12,3661.8241748848095,2,41,0.550297200679779,4.053470134735107,37.01874269920154,36.44340329667865,148.44930140575516,132.0083429979594,6.47544875391759e-05,0.0947341993451118,0,0,0
12270,444804.38485137234,2010-12-11 16:07:42,3691.83900359163,2,41,0.5501165986061096,4.056222438812256,37.02333001224533,36.44340329667865,148.4679022073744,132.0083429979594,9.71794142969884e-05,0.0947341993451118,0,0,0
12271,444834.40003793465,2010-12-11 16:08:12,3721.8541901339104,2,41,0.5501165986061096,4.058650493621826,37.02791745813924,36.44340329667865,148.4865159628249,132.0083429979594,0.0,0.0947341993451118,0,0,0
12272,444864.4150998267,2010-12-11 16:08:42,3751.869252015978,2,41,0.550297200679779,4.0617265701293945,37.03250485043614,36.44340329667865,148.50514181202763,132.0083429979594,9.71794142969884e-05,0.0947341993451118,0,0,0
12273,444894.43005750456,2010-12-11 16:09:12,3781.8842097188,2,41,0.550297200679779,4.064478397369385,37.03709211646701,36.44340329667865,148.52377964955497,132.0083429979594,0.0001295089750783,0.0947341993451118,0,0,0
12274,444924.4452541821,2010-12-11 16:09:42,3811.8994063912896,2,41,0.5501165986061096,4.067068576812744,37.04167943147044,36.44340329667865,148.54243045686704,132.0083429979594,6.47544875391759e-05,0.0947341993451118,0,0,0
12275,444954.4602177495,2010-12-11 16:10:12,3841.914369963717,2,41,0.5501165986061096,4.069982528686523,37.04626670435992,36.44340329667865,148.56109391398994,132.0083429979594,6.47544875391759e-05,0.0947341993451118,0,0,0
12276,444984.4752859172,2010-12-11 16:10:42,3871.9294381364393,2,41,0.5504778623580933,4.072896480560303,37.05085407476446,36.44340329667865,148.5797706784182,132.0083429979594,9.70840483205393e-05,0.0947341993451118,0,0,0
12277,445014.490397568,2010-12-11 16:11:13,3901.944549782343,2,41,0.550297200679779,4.075648784637451,37.05544138987972,36.44340329667865,148.59846027732283,132.0083429979594,6.47544875391759e-05,0.0947341993451118,0,0,0
12278,445044.5055733938,2010-12-11 16:11:43,3931.9597256781294,2,41,0.5499359965324402,4.078400611877441,37.0600287618108,36.44340329667865,148.61716326825103,132.0083429979594,3.23295607813634e-05,0.0947341993451118,0,0,0
12279,445074.52066332055,2010-12-11 16:12:13,3961.974815544837,2,41,0.5501165986061096,4.081314563751221,37.06461612502062,36.44340329667865,148.63587954923747,132.0083429979594,3.23295607813634e-05,0.0947341993451118,0,0,0
12280,445104.53560154,2010-12-11 16:12:43,3991.9897537591614,2,41,0.5501165986061096,4.084228515625,37.06920342709168,36.44340329667865,148.65460880548775,132.0083429979594,6.47544875391759e-05,0.0947341993451118,0,0,0
12281,445134.5506831511,2010-12-11 16:13:13,4022.004835355288,2,41,0.5501165986061096,4.087304592132568,37.07379081324732,36.44340329667865,148.67335196454425,132.0083429979594,9.71794142969884e-05,0.0947341993451118,0,0,0
12282,445164.56577237113,2010-12-11 16:13:43,4052.0199245854105,2,41,0.5501165986061096,4.090218544006348,37.07837814142281,36.44340329667865,148.6921085327452,132.0083429979594,6.47544875391759e-05,0.0947341993451118,0,0,0
12283,445194.58097462245,2010-12-11 16:14:13,4082.0351268417953,2,41,0.550297200679779,4.093294143676758,37.08296549979963,36.44340329667865,148.71087893414725,132.0083429979594,3.23295607813634e-05,0.0947341993451118,0,0,0
12284,445224.5959684903,2010-12-11 16:14:43,4112.050120699587,2,41,0.550297200679779,4.096208095550537,37.08755285639619,36.44340329667865,148.72966322815543,132.0083429979594,6.47544875391759e-05,0.0947341993451118,0,0,0
12285,445254.6111251784,2010-12-11 16:15:13,4142.065277377551,2,41,0.550297200679779,4.099445819854736,37.092140305747776,36.44340329667865,148.7484618705674,132.0083429979594,9.70840483205393e-05,0.0947341993451118,0,0,0
12286,445284.62608010427,2010-12-11 16:15:43,4172.080232293438,2,41,0.5501165986061096,4.102521896362305,37.09672774283252,36.44340329667865,148.76727453207218,132.0083429979594,9.71794142969884e-05,0.0947341993451118,0,0,0
12287,445314.64307419455,2010-12-11 16:16:13,4202.097226504032,2,41,0.5501165986061096,4.105759620666504,37.101315448372695,36.44340329667865,148.78610258998432,132.0083429979594,0.0001295089750783,0.0947341993451118,0,0,0
12288,445344.6562811006,2010-12-11 16:16:43,4232.110433410063,2,41,0.5501165986061096,4.108835220336914,37.10590251699122,36.44340329667865,148.80494236045368,132.0083429979594,9.70840483205393e-05,0.0947341993451118,0,0,0
12289,445374.67133675714,2010-12-11 16:17:13,4262.125489041576,2,41,0.5501165986061096,4.111749172210693,37.11048992474305,36.44340329667865,148.8237980193536,132.0083429979594,3.23295607813634e-05,0.0947341993451118,0,0,0
12290,445404.686398564,2010-12-11 16:17:43,4292.140550778283,2,41,0.550297200679779,4.115148544311523,37.115077317979306,36.44340329667865,148.84266810124063,132.0083429979594,9.70840483205393e-05,0.0947341993451118,0,0,0
12291,445434.7015189316,2010-12-11 16:18:13,4322.1556711408775,2,41,0.5501165986061096,4.118386268615723,37.11966471453904,36.44340329667865,148.86155286910434,132.0083429979594,9.70840483205393e-05,0.0947341993451118,0,0,0
12292,445464.7165527689,2010-12-11 16:18:43,4352.170704983169,2,41,0.5501165986061096,4.121623992919922,37.12425213496652,36.44340329667865,148.88045255670485,132.0083429979594,9.70840483205393e-05,0.0947341993451118,0,0,0
12293,445494.731640781,2010-12-11 16:19:13,4382.185792995261,2,41,0.5501165986061096,4.12470006942749,37.12883951146611,36.44340329667865,148.89936690783824,132.0083429979594,6.47544875391759e-05,0.0947341993451118,0,0,0
12294,445524.7468037195,2010-12-11 16:19:43,4412.200956008991,2,41,0.5501165986061096,4.12809944152832,37.13342692805179,36.44340329667865,148.9182963997092,132.0083429979594,9.70840483205393e-05,0.0947341993451118,0,0,0
12295,445554.76424594,2010-12-11 16:20:13,4442.218398219415,2,41,0.550297200679779,4.13133716583252,37.138014726945016,36.44340329667865,148.93724258201263,132.0083429979594,6.47544875391759e-05,0.0947341993451118,0,0,0
12296,445584.7790748674,2010-12-11 16:20:43,4472.233227171847,2,41,0.550297200679779,4.134737014770508,37.14260205247344,36.44340329667865,148.95620210858698,132.0083429979594,6.47544875391759e-05,0.0947341993451118,0,0,0
12297,445614.7919660177,2010-12-11 16:21:13,4502.246118231908,2,41,0.5501165986061096,4.138136386871338,37.14718913055208,36.44340329667865,148.97517608378007,132.0083429979594,9.70840483205393e-05,0.0947341993451118,0,0,0
12298,445644.80706574384,2010-12-11 16:21:43,4532.261217958149,2,41,0.550297200679779,4.141536235809326,37.15177655334695,36.44340329667865,148.99416697129823,132.0083429979594,9.71794142969884e-05,0.0947341993451118,0,0,0
12299,445674.82212899934,2010-12-11 16:22:13,4562.276281193585,2,41,0.550297200679779,4.144935607910156,37.15636396778576,36.44340329667865,149.01317339032772,132.0083429979594,9.70840483205393e-05,0.0947341993451118,0,0,0
12300,445704.83719274105,2010-12-11 16:22:43,4592.2913450255055,2,41,0.550297200679779,4.148497104644775,37.160951377646505,36.44340329667865,149.03219571786894,132.0083429979594,0.0001618385285837,0.0947341993451118,0,0,0
12301,445734.8523926266,2010-12-11 16:23:13,4622.306544815752,2,41,0.5501165986061096,4.151896953582764,37.16553877397673,36.44340329667865,149.05123374024217,132.0083429979594,0.0001295089750783,0.0947341993451118,0,0,0
12302,445764.8673569709,2010-12-11 16:23:43,4652.321509185164,2,41,0.550297200679779,4.155296325683594,37.17012585293684,36.44340329667865,149.0702862653613,132.0083429979594,9.70840483205393e-05,0.0947341993451118,0,0,0
12303,445794.8824389379,2010-12-11 16:24:13,4682.33659112715,2,41,0.5499359965324402,4.158696174621582,37.17471238508858,36.44340329667865,149.08935252680183,132.0083429979594,9.71794142969884e-05,0.0947341993451118,0,0,0
12304,445824.89753692487,2010-12-11 16:24:43,4712.351689114065,2,41,0.5501165986061096,4.162419319152832,37.17929915111409,36.44340329667865,149.1084359020295,132.0083429979594,0.0001618385285837,0.0947341993451118,0,0,0
12305,445854.91262963874,2010-12-11 16:25:13,4742.366781852918,2,41,0.550297200679779,4.16614294052124,37.18388657746435,36.44340329667865,149.12753835186697,132.0083429979594,0.0001619339018361,0.0947341993451118,0,0,0
12306,445884.9278094842,2010-12-11 16:25:43,4772.381961698534,2,41,0.5501165986061096,4.16938066482544,37.18847390213104,36.44340329667865,149.14665677517033,132.0083429979594,6.47544875391759e-05,0.0947341993451118,0,0,0
12307,445914.944638203,2010-12-11 16:26:13,4802.398790492494,2,41,0.550297200679779,4.1731038093566895,37.193061538798055,36.44340329667865,149.16579301435266,132.0083429979594,9.70840483205393e-05,0.0947341993451118,0,0,0
12308,445944.9578509435,2010-12-11 16:26:43,4832.412003157858,2,41,0.5501165986061096,4.176665306091309,37.19764862069268,36.44340329667865,149.1849434987423,132.0083429979594,9.70840483205393e-05,0.0947341993451118,0,0,0
12309,445974.9729208858,2010-12-11 16:27:13,4862.427073099984,2,41,0.550297200679779,4.180226802825928,37.2022359965955,36.44340329667865,149.20411186537666,132.0083429979594,9.70840483205393e-05,0.0947341993451118,0,0,0
12310,446004.9881435729,2010-12-11 16:27:43,4892.442295857384,2,41,0.550297200679779,4.183950424194336,37.20682338954666,36.44340329667865,149.22329705713705,132.0083429979594,9.71794142969884e-05,0.0947341993451118,0,0,0
12311,446035.00309403776,2010-12-11 16:28:13,4922.45724625202,2,41,0.550297200679779,4.187835693359375,37.211410744626846,36.44340329667865,149.2424989106856,132.0083429979594,0.0001295089750783,0.0947341993451118,0,0,0
12312,446065.0183139632,2010-12-11 16:28:43,4952.472466162335,2,41,0.550297200679779,4.191397190093994,37.21599814476462,36.44340329667865,149.26171801655818,132.0083429979594,0.0001295089750783,0.0947341993451118,0,0,0
12313,446095.03323419264,2010-12-11 16:29:13,4982.487386406943,2,41,0.550297200679779,4.195281982421875,37.22058554571463,36.44340329667865,149.28095435443888,132.0083429979594,9.70840483205393e-05,0.0947341993451118,0,0,0
12314,446125.0485508387,2010-12-11 16:29:43,5012.502703148219,2,41,0.5501165986061096,4.198843479156494,37.22517302286674,36.44340329667865,149.30020816959075,132.0083429979594,6.47544875391759e-05,0.0947341993451118,0,0,0
12315,446133.079552718,2010-12-11 16:29:51,5020.533704912224,2,41,0.550297200679779,4.200138568878174,37.22640042696924,36.44340329667865,149.3053625625446,132.0083429979594,0.0001295089750783,0.0947341993451118,0,0,0
12316,446163.0960227477,2010-12-11 16:30:21,30.015022489040035,3,41,0.0,4.111263751983643,37.22640042696924,36.44340329667865,149.3053625625446,132.0083429979594,-0.0004208564641885,0.0947341993451118,0,0,0
12317,446193.1112260016,2010-12-11 16:30:51,60.03022576796875,3,41,0.0,4.100093364715576,37.22640042696924,36.44340329667865,149.3053625625446,132.0083429979594,-0.0002266883820993,0.0947341993451118,0,0,0
12318,446223.1262070475,2010-12-11 16:31:21,90.04520681889163,3,41,0.0,4.093456268310547,37.22640042696924,36.44340329667865,149.3053625625446,132.0083429979594,-0.0001295089750783,0.0947341993451118,0,0,0
12319,446253.0944315015,2010-12-11 16:31:51,120.01343126780874,3,41,0.0,4.089085102081299,37.22640042696924,36.44340329667865,149.3053625625446,132.0083429979594,-9.71794142969884e-05,0.0947341993451118,0,0,0
12320,446253.0981779253,2010-12-11 16:31:51,2.766885288e-06,4,41,1.013379454612732,4.199814796447754,37.22640042774809,36.44340329667865,149.30536256581567,132.0083429979594,0.0,0.0947341993451118,0,0,0
12321,446253.75441685074,2010-12-11 16:31:52,0.656241707248422,4,41,0.9629894495010376,4.199814796447754,37.22657909602513,36.44340329667865,149.30611293119438,132.0083429979594,0.0,0.0947341993451118,0,0,0
12322,446255.5513648667,2010-12-11 16:31:54,2.453189713247967,4,41,0.9127800464630128,4.199653148651123,37.227046261056095,36.44340329667865,149.30807491461115,132.0083429979594,-3.23295607813634e-05,0.0947341993451118,0,0,0
12323,446258.3637212273,2010-12-11 16:31:57,5.265546179145797,4,41,0.8623900413513184,4.199814796447754,37.22773860522299,36.44340329667865,149.31098260258412,132.0083429979594,0.0,0.0947341993451118,0,0,0
12324,446262.2698766499,2010-12-11 16:32:01,9.171701511453502,4,41,0.8121806979179382,4.199976921081543,37.22864594133051,36.44340329667865,149.31479320807196,132.0083429979594,3.24249267578125e-05,0.0947341993451118,0,0,0
12325,446267.457253232,2010-12-11 16:32:06,14.3590780935636,4,41,0.7621518969535828,4.199976921081543,37.229778597927,36.44340329667865,149.319550122244,132.0083429979594,6.47544875391759e-05,0.0947341993451118,0,0,0
12326,446274.1446402073,2010-12-11 16:32:12,21.046465068844395,4,41,0.7121231555938721,4.199814796447754,37.231145867663216,36.44340329667865,149.3252923895689,132.0083429979594,-3.24249267578125e-05,0.0947341993451118,0,0,0
12327,446283.0350986211,2010-12-11 16:32:21,29.93692348767896,4,41,0.6620943546295166,4.199814796447754,37.23283983286012,36.44340329667865,149.33240671899674,132.0083429979594,-3.24249267578125e-05,0.0947341993451118,0,0,0
12328,446295.2537528422,2010-12-11 16:32:34,42.15557767868504,4,41,0.6118850111961365,4.199814796447754,37.23499731156656,36.44340329667865,149.34146770384902,132.0083429979594,0.0,0.0947341993451118,0,0,0
12329,446313.4408394226,2010-12-11 16:32:52,60.34266437943652,4,41,0.561856210231781,4.199814796447754,37.23795329266173,36.44340329667865,149.35388221157376,132.0083429979594,0.0,0.0947341993451118,0,0,0
12330,446343.6746262182,2010-12-11 16:33:22,90.57645107980244,4,41,0.5118274688720703,4.199653148651123,37.24244255701396,36.44340329667865,149.3727361979598,132.0083429979594,-3.23295607813634e-05,0.0947341993451118,0,0,0
12331,446400.0642268557,2010-12-11 16:34:18,146.9660517171577,4,41,0.4617986679077148,4.199653148651123,37.25002866349611,36.44340329667865,149.4045962455884,132.0083429979594,-3.23295607813634e-05,0.0947341993451118,0,0,0
12332,446492.0939504432,2010-12-11 16:35:50,238.99577530470057,4,41,0.4117698967456817,4.199814796447754,37.261161179038616,36.44340329667865,149.45135059623874,132.0083429979594,0.0,0.0947341993451118,0,0,0
12333,446612.796597904,2010-12-11 16:37:51,359.6984227705097,4,41,0.3617411255836487,4.199653148651123,37.27411031481209,36.44340329667865,149.5057343265489,132.0083429979594,-6.47544875391759e-05,0.0947341993451118,0,0,0
12334,446756.6358766268,2010-12-11 16:40:15,503.53770157854353,4,41,0.3117123544216156,4.199814796447754,37.28754532568816,36.44340329667865,149.5621586905903,132.0083429979594,0.0,0.0947341993451118,0,0,0
12335,446927.9921323936,2010-12-11 16:43:06,674.893957260182,4,41,0.2616836130619049,4.199653148651123,37.30116591460368,36.44340329667865,149.61936244072618,132.0083429979594,-3.23295607813634e-05,0.0947341993451118,0,0,0
12336,447140.1289035645,2010-12-11 16:46:38,887.0307284110845,4,41,0.2114742249250412,4.199814796447754,37.31506881157711,36.44340329667865,149.67775167722957,132.0083429979594,-3.24249267578125e-05,0.0947341993451118,0,0,0
12337,447419.8425460908,2010-12-11 16:51:18,1166.7443709322815,4,41,0.1614454537630081,4.199653148651123,37.3294863868815,36.44340329667865,149.73830248377496,132.0083429979594,0.0,0.0947341993451118,0,0,0
12338,447836.2256560903,2010-12-11 16:58:15,1583.1274810420548,4,41,0.111236073076725,4.199653148651123,37.34507200049755,36.44340329667865,149.8037588222051,132.0083429979594,-3.23295607813634e-05,0.0947341993451118,0,0,0
12339,448613.7271172224,2010-12-11 17:11:12,2360.6289420889675,4,41,0.0612073019146919,4.199653148651123,37.3630874405791,36.44340329667865,149.87941997189736,132.0083429979594,-3.23295607813634e-05,0.0947341993451118,0,0,0
12340,448902.7218610372,2010-12-11 17:16:01,2649.6236858837187,4,41,0.0498289167881011,4.199653148651123,37.36756141817723,36.44340329667865,149.8982097542654,132.0083429979594,0.0,0.0947341993451118,0,0,0
12341,448932.74195572914,2010-12-11 17:16:31,30.015070027337256,5,41,0.0,4.191558837890625,37.36756141817723,36.44340329667865,149.8982097542654,132.0083429979594,-3.24249267578125e-05,0.0947341993451118,0,0,0
12342,448962.74140527553,2010-12-11 17:17:01,60.01451958373337,5,41,0.0,4.1901021003723145,37.36756141817723,36.44340329667865,149.8982097542654,132.0083429979594,-6.47544875391759e-05,0.0947341993451118,0,0,0
12343,448962.91939896025,2010-12-11 17:17:02,0.18751094878409,6,41,-1.9243103452026844e-05,4.190263748168945,37.36756141817723,36.44340329768096,149.8982097542654,132.0083430021593,0.0,0.0970755815505981,0,0,0
12344,448967.747529327,2010-12-11 17:17:06,5.015641335554244,6,41,0.0007031940040178,4.1901021003723145,37.367562471937454,36.44340329784789,149.89821416988246,132.00834300285877,-6.47544875391759e-05,0.0970755815505981,0,0,0
12345,448997.75305949006,2010-12-11 17:17:36,30.015067039903144,7,41,-1.099568486213684,4.007171154022217,37.367562471937454,36.45257174979171,149.89821416988246,132.0452908007839,-0.001003646873869,0.0970755815505981,0,0,0
12346,449027.7681434572,2010-12-11 17:18:06,60.03015098687889,7,41,-1.0997490882873535,3.978679180145264,37.367562471937454,36.461740246416205,149.89821416988246,132.0818909256679,-0.0006151676061563,0.0970755815505981,0,0,0
12347,449057.783209996,2010-12-11 17:18:36,90.04521753054718,7,41,-1.0997490882873535,3.958929061889648,37.367562471937454,36.47090860613215,149.89821416988246,132.1182750225909,-0.0005180359003134,0.0970755815505981,0,0,0
12348,449087.7984403672,2010-12-11 17:19:07,120.06044789688184,7,41,-1.0997490882873535,3.943549871444702,37.367562471937454,36.48007700893647,149.89821416988246,132.1545011822865,-0.0004209041653666,0.0970755815505981,0,0,0
12349,449117.8135188857,2010-12-11 17:19:37,150.0755264855236,7,41,-1.099568486213684,3.930598974227905,37.367562471937454,36.489245325251645,149.89821416988246,132.1905975103849,-0.0003561496851034,0.0970755815505981,0,0,0
12350,449147.8284726186,2010-12-11 17:20:07,180.09048015330458,7,41,-1.0997490882873535,3.918457508087158,37.367562471937454,36.49841371844981,149.89821416988246,132.2265787558057,-0.0003237724304199,0.0970755815505981,0,0,0
12351,449177.8435175234,2010-12-11 17:20:37,210.1055250681504,7,41,-1.099929690361023,3.90728759765625,37.367562471937454,36.5075820859614,149.89821416988246,132.26245351514962,-0.0003237724304199,0.0970755815505981,0,0,0
12352,449207.8585935758,2010-12-11 17:21:07,240.12060111546813,7,41,-1.099929690361023,3.896441221237183,37.367562471937454,36.51675041186642,149.89821416988246,132.29822745197916,-0.0003237724304199,0.0970755815505981,0,0,0
12353,449237.87379333086,2010-12-11 17:21:37,270.13580087564054,7,41,-1.0997490882873535,3.886404275894165,37.367562471937454,36.52591877886876,149.89821416988246,132.3339063847759,-0.0002590179501567,0.0970755815505981,0,0,0
12354,449267.88877087313,2010-12-11 17:22:07,300.15077841783204,7,41,-1.099929690361023,3.876529216766357,37.367562471937454,36.53508713182582,149.89821416988246,132.36949338133775,-0.0002913951757363,0.0970755815505981,0,0,0
12355,449297.9038582637,2010-12-11 17:22:37,330.16586582341444,7,41,-1.0997490882873535,3.8669779300689697,37.367562471937454,36.54425553355894,149.89821416988246,132.40499112846655,-0.0002266406954731,0.0970755815505981,0,0,0
12356,449327.91890905314,2010-12-11 17:23:07,360.1809165978416,7,41,-1.099568486213684,3.857588529586792,37.367562471937454,36.55342394825164,149.89821416988246,132.44040217145283,-0.0002590179501567,0.0970755815505981,0,0,0
12357,449357.9341260662,2010-12-11 17:23:37,390.19613361595975,7,41,-1.099568486213684,3.848361015319824,37.367562471937454,36.56259241082317,149.89821416988246,132.4757284112648,-0.0002913951757363,0.0970755815505981,0,0,0
12358,449387.9490738945,2010-12-11 17:24:07,420.2110814391968,7,41,-1.0997490882873535,3.839457273483277,37.367562471937454,36.57176079482064,149.89821416988246,132.51097167624997,-0.0002266406954731,0.0970755815505981,0,0,0
12359,449417.9642921657,2010-12-11 17:24:37,450.2262997104333,7,41,-1.099568486213684,3.830877542495728,37.367562471937454,36.58092920926856,149.89821416988246,132.54613431619842,-0.0002266406954731,0.0970755815505981,0,0,0
12360,449447.9792244302,2010-12-11 17:25:07,480.2412319649281,7,41,-1.0997490882873535,3.82262134552002,37.367562471937454,36.59009740631582,149.89821416988246,132.58121725664407,-0.0001618862152099,0.0970755815505981,0,0,0
12361,449477.9944347767,2010-12-11 17:25:37,510.2564423214692,7,41,-1.0997490882873535,3.8138794898986816,37.367562471937454,36.59926577057973,149.89821416988246,132.61622363045743,-0.0002590179501567,0.0970755815505981,0,0,0
12362,449508.0112205888,2010-12-11 17:26:07,540.273228223695,7,41,-1.0997490882873535,3.805785179138184,37.367562471937454,36.60843455929303,149.89821416988246,132.65115520963093,-0.0002266406954731,0.0970755815505981,0,0,0
12363,449538.0244741559,2010-12-11 17:26:37,570.2864817056291,7,41,-1.0997490882873535,3.797852754592896,37.367562471937454,36.61760239160287,149.89821416988246,132.6860089916491,-0.0002266406954731,0.0970755815505981,0,0,0
12364,449568.0396074657,2010-12-11 17:27:07,600.3016150154423,7,41,-1.0997490882873535,3.7900822162628174,37.367562471937454,36.62677077491874,149.89821416988246,132.72079266220084,-0.0001942634553415,0.0970755815505981,0,0,0
12365,449598.0546386363,2010-12-11 17:27:37,630.3166461810736,7,41,-1.0997490882873535,3.782473564147949,37.367562471937454,36.63593914165248,149.89821416988246,132.75550590981086,-0.0001942634553415,0.0970755815505981,0,0,0
12366,449628.07226753136,2010-12-11 17:28:07,660.334275196354,7,41,-1.0997490882873535,3.774864912033081,37.367562471937454,36.64510832741101,149.89821416988246,132.79015343142714,-0.0001942634553415,0.0970755815505981,0,0,0
12367,449658.08698134223,2010-12-11 17:28:37,690.3489890072605,7,41,-1.0997490882873535,3.7679038047790527,37.367562471937454,36.65427659252351,149.89821416988246,132.82473047187867,-0.0001618862152099,0.0970755815505981,0,0,0
12368,449688.1000226712,2010-12-11 17:29:07,720.3620302861351,7,41,-1.099568486213684,3.760618925094605,37.367562471937454,36.66344435400681,149.89821416988246,132.85923990144408,-0.0001942634553415,0.0970755815505981,0,0,0
12369,449718.1149773214,2010-12-11 17:29:37,750.3769848661863,7,41,-1.099568486213684,3.753819704055786,37.367562471937454,36.67261270880288,149.89821416988246,132.89368733485674,-0.0001618862152099,0.0970755815505981,0,0,0
12370,449748.1300452837,2010-12-11 17:30:07,780.392052833397,7,41,-1.099568486213684,3.747020721435547,37.367562471937454,36.68178112947708,149.89821416988246,132.9280727924444,-0.0001942634553415,0.0970755815505981,0,0,0
12371,449778.14511262433,2010-12-11 17:30:37,810.4071201690358,7,41,-1.099568486213684,3.7403833866119385,37.367562471937454,36.69094960095812,149.89821416988246,132.96239722035267,-0.0001618862152099,0.0970755815505981,0,0,0
12372,449808.160256726,2010-12-11 17:31:07,840.422264265692,7,41,-1.099568486213684,3.73390793800354,37.367562471937454,36.70011795359473,149.89821416988246,132.9966607659522,-0.0001942634553415,0.0970755815505981,0,0,0
12373,449838.17524627806,2010-12-11 17:31:37,870.437253822782,7,41,-1.0993878841400146,3.727594375610352,37.367562471937454,36.709286335797046,149.89821416988246,133.030865608423,-0.0001618862152099,0.0970755815505981,0,0,0
12374,449868.1903440945,2010-12-11 17:32:07,900.4523516292467,7,41,-1.0997490882873535,3.721118927001953,37.367562471937454,36.71845471817599,149.89821416988246,133.06501332140616,-0.0002266406954731,0.0970755815505981,0,0,0
12375,449898.2054076208,2010-12-11 17:32:37,930.4674151654308,7,41,-1.099568486213684,3.715452909469605,37.367562471937454,36.727623144472766,149.89821416988246,133.09910458190345,-9.713172767078504e-05,0.0970755815505981,0,0,0
12376,449928.22045201424,2010-12-11 17:33:07,960.4824595589796,7,41,-1.099929690361023,3.709301233291626,37.367562471937454,36.736791544950975,149.89821416988246,133.13314036717568,-0.0001618862152099,0.0970755815505981,0,0,0
12377,449958.2357036836,2010-12-11 17:33:37,990.4977112333384,7,41,-1.099568486213684,3.7033114433288574,37.367562471937454,36.745959904461,149.89821416988246,133.16712159588224,-0.0001618862152099,0.0970755815505981,0,0,0
12378,449988.2506706043,2010-12-11 17:34:07,1020.5126781290364,7,41,-1.0997490882873535,3.697483539581299,37.367562471937454,36.75512824443988,149.89821416988246,133.20104919108735,-0.0001618862152099,0.0970755815505981,0,0,0
12379,450018.2657304814,2010-12-11 17:34:37,1050.5277380261653,7,41,-1.0997490882873535,3.69181752204895,37.367562471937454,36.764296606073074,149.89821416988246,133.23492371187064,-0.0001618862152099,0.0970755815505981,0,0,0
12380,450048.2808157768,2010-12-11 17:35:07,1080.542823321496,7,41,-1.0993878841400146,3.6861515045166016,37.367562471937454,36.77346497182779,149.89821416988246,133.26874567091477,-0.0001618862152099,0.0970755815505981,0,0,0
12381,450078.2960546292,2010-12-11 17:35:37,1110.5580621639233,7,41,-1.099568486213684,3.680809259414673,37.367562471937454,36.78263335675682,149.89821416988246,133.30251619041576,-9.713172767078504e-05,0.0970755815505981,0,0,0
12382,450108.3128485965,2010-12-11 17:36:07,1140.5748562214433,7,41,-1.0993878841400146,3.675143241882324,37.367562471937454,36.79180223227129,149.89821416988246,133.336237840022,-0.0001295089750783,0.0970755815505981,0,0,0
12383,450138.3260911362,2010-12-11 17:36:37,1170.5880986859609,7,41,-1.099568486213684,3.669801235198975,37.367562471937454,36.800970072999554,149.89821416988246,133.36990613610448,-9.713172767078504e-05,0.0970755815505981,0,0,0
12384,450168.34113918885,2010-12-11 17:37:07,1200.603146738615,7,41,-1.0997490882873535,3.664458990097046,37.367562471937454,36.810138379240016,149.89821416988246,133.40352742319075,-0.0001618862152099,0.0970755815505981,0,0,0
12385,450198.3564445318,2010-12-11 17:37:37,1230.6184521266382,7,41,-1.099568486213684,3.659278631210327,37.367562471937454,36.81930685824481,149.89821416988246,133.43710115292387,-0.0001618862152099,0.0970755815505981,0,0,0
12386,450228.3713101404,2010-12-11 17:38:07,1260.6333176851626,7,41,-1.0997490882873535,3.6542601585388175,37.367562471937454,36.82847513328304,149.89821416988246,133.47062714493725,-9.713172767078504e-05,0.0970755815505981,0,0,0
12387,450258.3863698772,2010-12-11 17:38:37,1290.6483773968298,7,41,-1.099568486213684,3.6490797996521,37.367562471937454,36.83764347987528,149.89821416988246,133.5041074043455,-0.0001618862152099,0.0970755815505981,0,0,0
12388,450288.4015858978,2010-12-11 17:39:07,1320.6635934976653,7,41,-1.0997490882873535,3.644223213195801,37.367562471937454,36.846811790112426,149.89821416988246,133.53754156396988,-0.0001295089750783,0.0970755815505981,0,0,0
12389,450318.41666083736,2010-12-11 17:39:37,1350.6786684723138,7,41,-1.0993878841400146,3.639528512954712,37.367562471937454,36.85598003733287,149.89821416988246,133.57093084443744,-0.0001295089750783,0.0970755815505981,0,0,0
12390,450348.4316490712,2010-12-11 17:40:07,1380.6936566158863,7,41,-1.099568486213684,3.634671926498413,37.367562471937454,36.86514830816843,149.89821416988246,133.6042761805449,-0.0001295089750783,0.0970755815505981,0,0,0
12391,450378.4466921965,2010-12-11 17:40:37,1410.7086997412791,7,41,-1.099568486213684,3.630139112472534,37.367562471937454,36.87431656935028,149.89821416988246,133.63757847269304,-9.713172767078504e-05,0.0970755815505981,0,0,0
12392,450408.4618533957,2010-12-11 17:41:07,1440.7238610156817,7,41,-1.099568486213684,3.625444412231445,37.367562471937454,36.88348493458586,149.89821416988246,133.67083860253214,-0.0001295089750783,0.0970755815505981,0,0,0
12393,450438.4768589277,2010-12-11 17:41:37,1470.7388664773491,7,41,-1.099568486213684,3.621073484420776,37.367562471937454,36.89265324090275,149.89821416988246,133.7040571524366,-6.47544875391759e-05,0.0970755815505981,0,0,0
12394,450468.49196630286,2010-12-11 17:42:07,1500.7539738476132,7,41,-1.099929690361023,3.6165406703948975,37.367562471937454,36.90182154377192,149.89821416988246,133.7372350823758,-0.0001618862152099,0.0970755815505981,0,0,0
12395,450498.5071626947,2010-12-11 17:42:37,1530.7691702293785,7,41,-1.099568486213684,3.612493515014648,37.367562471937454,36.91098985971944,149.89821416988246,133.77037348218076,-6.47544875391759e-05,0.0970755815505981,0,0,0
12396,450528.5220978113,2010-12-11 17:43:07,1560.784105361033,7,41,-1.0997490882873535,3.60812258720398,37.367562471937454,36.92015814667868,149.89821416988246,133.8034733372014,-0.0001295089750783,0.0970755815505981,0,0,0
12397,450558.5372211413,2010-12-11 17:43:37,1590.7992286859992,7,41,-1.099568486213684,3.604237318038941,37.367562471937454,36.92932645266469,149.89821416988246,133.83653559879906,-6.47544875391759e-05,0.0970755815505981,0,0,0
12398,450588.5526304579,2010-12-11 17:44:07,1620.8146380728197,7,41,-1.0997490882873535,3.6001901626586914,37.367562471937454,36.93849483387115,149.89821416988246,133.8695616796179,-9.713172767078504e-05,0.0970755815505981,0,0,0
12399,450618.5673433266,2010-12-11 17:44:37,1650.8293508762188,7,41,-1.0997490882873535,3.5963048934936523,37.367562471937454,36.947663123850425,149.89821416988246,133.9025514522104,-0.0001295089750783,0.0970755815505981,0,0,0
12400,450648.5825446605,2010-12-11 17:45:07,1680.8445522052957,7,41,-1.099568486213684,3.5924196243286133,37.367562471937454,36.95683148388978,149.89821416988246,133.9355065233193,-0.0001618862152099,0.0970755815505981,0,0,0
12401,450678.59749788727,2010-12-11 17:45:37,1710.8595054319787,7,41,-1.0997490882873535,3.588858366012573,37.367562471937454,36.9659997923039,149.89821416988246,133.96842752207132,-0.0001295089750783,0.0970755815505981,0,0,0
12402,450708.61456789647,2010-12-11 17:46:07,1740.8765755213938,7,41,-1.0997490882873535,3.585134983062744,37.367562471937454,36.97516873601189,149.89821416988246,134.0013177042344,-9.713172767078504e-05,0.0970755815505981,0,0,0
12403,450738.6275999574,2010-12-11 17:46:37,1770.8896075021305,7,41,-1.0997490882873535,3.581735372543335,37.367562471937454,36.98433639764835,149.89821416988246,134.03417093628173,-0.0001295089750783,0.0970755815505981,0,0,0
12404,450768.6427749058,2010-12-11 17:47:07,1800.9047824455472,7,41,-1.099568486213684,3.5786595344543457,37.367562471937454,36.99350470126016,149.89821416988246,134.06699467229893,-3.237724376958795e-05,0.0970755815505981,0,0,0
12405,450798.65781954,2010-12-11 17:47:37,1830.919827134832,7,41,-1.0993878841400146,3.5750980377197266,37.367562471937454,37.00267300397813,149.89821416988246,134.09978734278548,-0.0001295089750783,0.0970755815505981,0,0,0
12406,450828.6728959181,2010-12-11 17:48:07,1860.934903462848,7,41,-1.0997490882873535,3.571860313415528,37.367562471937454,37.01184135116696,149.89821416988246,134.13254990662804,-6.47544875391759e-05,0.0970755815505981,0,0,0
12407,450858.6879557401,2010-12-11 17:48:37,1890.9499632847896,7,41,-1.099568486213684,3.568460702896118,37.367562471937454,37.02100969350024,149.89821416988246,134.1652824737662,-9.713172767078504e-05,0.0970755815505981,0,0,0
12408,450888.7030587495,2010-12-11 17:49:07,1920.965066334301,7,41,-1.099568486213684,3.565384864807129,37.367562471937454,37.03017803201602,149.89821416988246,134.19798526058696,-6.47544875391759e-05,0.0970755815505981,0,0,0
12409,450918.7182443594,2010-12-11 17:49:37,1950.9802519041616,7,41,-1.099568486213684,3.56230902671814,37.367562471937454,37.039346302306505,149.89821416988246,134.2306587058017,-9.713172767078504e-05,0.0970755815505981,0,0,0
12410,450948.73321278894,2010-12-11 17:50:07,1980.9952203186392,7,41,-1.099568486213684,3.5592331886291504,37.367562471937454,37.048514548891454,149.89821416988246,134.2633033718905,-6.47544875391759e-05,0.0970755815505981,0,0,0
12411,450978.7482948462,2010-12-11 17:50:37,2011.010302395962,7,41,-1.0997490882873535,3.5556716918945312,37.367562471937454,37.05768277699164,149.89821416988246,134.29591860398094,-9.713172767078504e-05,0.0970755815505981,0,0,0
12412,451008.7634925413,2010-12-11 17:51:08,2041.0255000609209,7,41,-1.099568486213684,3.552595853805542,37.367562471937454,37.06685107547235,149.89821416988246,134.3285044565816,-6.47544875391759e-05,0.0970755815505981,0,0,0
12413,451038.7785666237,2010-12-11 17:51:38,2071.040574238586,7,41,-1.099568486213684,3.5493581295013428,37.367562471937454,37.07601932985784,149.89821416988246,134.36106066435454,-9.713172767078504e-05,0.0970755815505981,0,0,0
12414,451068.7935338552,2010-12-11 17:52:08,2101.055541399945,7,41,-1.099568486213684,3.546120405197144,37.367562471937454,37.08518753840832,149.89821416988246,134.3935866070538,-9.713172767078504e-05,0.0970755815505981,0,0,0
12415,451098.8086124389,2010-12-11 17:52:38,2131.0706199885867,7,41,-1.099568486213684,3.5427207946777344,37.367562471937454,37.09435578419889,149.89821416988246,134.4260824917695,-9.713172767078504e-05,0.0970755815505981,0,0,0
12416,451128.8236831128,2010-12-11 17:53:08,2161.085690647496,7,41,-1.099568486213684,3.539483070373535,37.367562471937454,37.10352404005279,149.89821416988246,134.45854804094932,-6.47544875391759e-05,0.0970755815505981,0,0,0
12417,451158.8387680723,2010-12-11 17:53:38,2191.100775622029,7,41,-1.0997490882873535,3.535921573638916,37.367562471937454,37.1126923674134,149.89821416988246,134.49098274685326,-0.0001295089750783,0.0970755815505981,0,0,0
12418,451188.853869979,2010-12-11 17:54:08,2221.1158775387216,7,41,-1.0997490882873535,3.532360076904297,37.367562471937454,37.12186069279908,149.89821416988246,134.5233857613403,-0.0001295089750783,0.0970755815505981,0,0,0
12419,451218.8689204176,2010-12-11 17:54:38,2251.130927967288,7,41,-1.0997490882873535,3.5287985801696777,37.367562471937454,37.13102901758542,149.89821416988246,134.55575625452917,-0.0001295089750783,0.0970755815505981,0,0,0
12420,451248.8840063795,2010-12-11 17:55:08,2281.1460139242654,7,41,-1.099568486213684,3.5252370834350586,37.367562471937454,37.14019737393438,149.89821416988246,134.5880936630993,-9.713172767078504e-05,0.0970755815505981,0,0,0
12421,451278.89908381534,2010-12-11 17:55:38,2311.1610913650507,7,41,-1.099568486213684,3.5213518142700195,37.367562471937454,37.14936566119325,149.89821416988246,134.62039663405872,-9.713172767078504e-05,0.0970755815505981,0,0,0
12422,451308.9160136407,2010-12-11 17:56:08,2341.178021245561,7,41,-1.099568486213684,3.5176284313201904,37.367562471937454,37.1585344689364,149.89821416988246,134.65266645875425,-9.713172767078504e-05,0.0970755815505981,0,0,0
12423,451338.9294198327,2010-12-11 17:56:38,2371.191427382371,7,41,-1.0997490882873535,3.5134193897247314,37.367562471937454,37.16770225307235,149.89821416988246,134.68489612155025,-9.713172767078504e-05,0.0970755815505981,0,0,0
12424,451368.9443263982,2010-12-11 17:57:08,2401.20633394794,7,41,-1.099568486213684,3.509210586547852,37.367562471937454,37.176870501131006,149.89821416988246,134.71708954318393,-0.0001295089750783,0.0970755815505981,0,0,0
12425,451398.959435583,2010-12-11 17:57:38,2431.2214431277066,7,41,-1.0997490882873535,3.5050015449523926,37.367562471937454,37.18603886483843,149.89821416988246,134.74924372346177,-6.47544875391759e-05,0.0970755815505981,0,0,0
12426,451428.9744935554,2010-12-11 17:58:08,2461.2365011050574,7,41,-1.099929690361023,3.5001449584960938,37.367562471937454,37.19520709404805,149.89821416988246,134.78135524821283,-0.0001295089750783,0.0970755815505981,0,0,0
12427,451458.9895679887,2010-12-11 17:58:38,2491.251575533346,7,41,-1.099568486213684,3.494964599609375,37.367562471937454,37.20437542083766,149.89821416988246,134.81342213062604,-0.0001295089750783,0.0970755815505981,0,0,0
12428,451489.0047695232,2010-12-11 17:59:08,2521.2667770679345,7,41,-1.099568486213684,3.4896223545074463,37.367562471937454,37.21354379223104,149.89821416988246,134.8454404754676,-0.0001295089750783,0.0970755815505981,0,0,0
12429,451519.0198531143,2010-12-11 17:59:38,2551.2818606590245,7,41,-1.0997490882873535,3.483308792114258,37.367562471937454,37.22271216364433,149.89821416988246,134.87740517836826,-0.0001618862152099,0.0970755815505981,0,0,0
12430,451549.03737823607,2010-12-11 18:00:08,2581.299385855957,7,41,-1.099568486213684,3.476347684860229,37.367562471937454,37.23188122528753,149.89821416988246,134.90931200023635,-0.0002266406954731,0.0970755815505981,0,0,0
12431,451579.0499067589,2010-12-11 18:00:38,2611.311914303671,7,41,-1.099568486213684,3.468577146530152,37.367562471937454,37.24104876794014,149.89821416988246,134.94114611214022,-0.0001942634553415,0.0970755815505981,0,0,0
12432,451609.051551112,2010-12-11 18:01:08,2641.3135587469587,7,41,-1.0997490882873535,3.4595115184783936,37.367562471937454,37.25021301344587,149.89821416988246,134.97289169246483,-0.0002266406954731,0.0970755815505981,0,0,0
12433,451639.0644342925,2010-12-11 18:01:38,2671.3264418422,7,41,-1.099568486213684,3.448827028274536,37.367562471937454,37.25938068475951,149.89821416988246,135.00455885636038,-0.0002590179501567,0.0970755815505981,0,0,0
12434,451669.0795187908,2010-12-11 18:02:08,2701.3415263405477,7,41,-1.099929690361023,3.4357142448425293,37.367562471937454,37.2685490140136,149.89821416988246,135.0361205494513,-0.0003885269106831,0.0970755815505981,0,0,0
12435,451699.0946750928,2010-12-11 18:02:38,2731.356682642576,7,41,-1.099568486213684,3.419849634170532,37.367562471937454,37.27771775555164,149.89821416988246,135.06755222148888,-0.0005180359003134,0.0970755815505981,0,0,0
12436,451729.10962909146,2010-12-11 18:03:08,2761.37163664118,7,41,-1.099568486213684,3.399937629699707,37.367562471937454,37.28688677056091,149.89821416988246,135.09882045812228,-0.0005504131549969,0.0970755815505981,0,0,0
12437,451759.12486454047,2010-12-11 18:03:38,2791.38687208515,7,41,-1.099568486213684,3.3737120628356934,37.367562471937454,37.29605568531351,149.89821416988246,135.1298785909904,-0.0007446765666827,0.0970755815505981,0,0,0
12438,451789.1397984992,2010-12-11 18:04:08,2821.4018060488984,7,41,-1.0997490882873535,3.338906764984131,37.367562471937454,37.305224753683405,149.89821416988246,135.16066038527876,-0.0010360718006268,0.0970755815505981,0,0,0
12439,451819.1548970575,2010-12-11 18:04:38,2851.4169046022216,7,41,-1.099568486213684,3.291959762573242,37.367562471937454,37.31439372716584,149.89821416988246,135.1910702175121,-0.0014245987404137,0.0970755815505981,0,0,0
12440,451849.169974759,2010-12-11 18:05:08,2881.431982378843,7,41,-1.099568486213684,3.227367401123047,37.367562471937454,37.32356272512247,149.89821416988246,135.22097328442672,-0.0019426345825195,0.0970755815505981,0,0,0
12441,451879.18505833,2010-12-11 18:05:38,2911.447065874696,7,41,-1.099568486213684,3.1349306106567383,37.367562471937454,37.33273154685487,149.89821416988246,135.25016667719132,-0.0028815746773034,0.0970755815505981,0,0,0
12442,451909.2001326881,2010-12-11 18:06:08,2941.4621402328103,7,41,-1.0997490882873535,2.9902048110961914,37.367562471937454,37.34189984109533,149.89821416988246,135.2783058252304,-0.0048889638856053,0.0970755815505981,0,0,0
12443,451932.60594832007,2010-12-11 18:06:31,2964.867955869799,7,41,-1.099568486213684,2.790113925933838,37.367562471937454,37.34904922733026,149.89821416988246,135.29902881240227,-0.0082238195464015,0.0970755815505981,0,0,0
12444,451941.0300545945,2010-12-11 18:06:40,2973.292062229471,7,41,-1.0997490882873535,2.699781894683838,37.367562471937454,37.35162233931432,149.89821416988246,135.30609263415374,-0.0085799219086766,0.0970755815505981,0,0,0
12445,452001.0398414212,2010-12-11 18:07:40,60.01440736949255,8,41,0.0,3.3900625705718994,37.367562471937454,37.35162233931432,149.89821416988246,135.30609263415374,0.0013274669181555,0.0970755815505981,0,0,0
12446,452001.24170247006,2010-12-11 18:07:40,0.187404939985271,9,41,-1.9243103452026844e-05,3.3902244567871094,37.367562471937454,37.351622340316055,149.89821416988246,135.30609263754985,0.0,0.0955438911914825,0,0,0
12447,452006.0698977384,2010-12-11 18:07:45,5.015600283397531,9,41,0.0007031940040178,3.3984806537628174,37.36756354355137,37.35162234048318,149.89821780815709,135.30609263811647,0.0011332035064697,0.0955438911914825,0,0,0
