Data_Point,Test_Time(s),Date_Time,Step_Time(s),Step_Index,Cycle_Index,Current(A),Voltage(V),Charge_Capacity(Ah),Discharge_Capacity(Ah),Charge_Energy(Wh),Discharge_Energy(Wh),dV/dt(V/s),Internal_Resistance(Ohm),Is_FC_Data,AC_Impedance(Ohm),ACI_Phase_Angle(Deg)
3576,165612.10366001335,2011-02-02 08:51:50,30.01510516248188,1,29,0.0,3.7802071571350098,10.631703602997003,10.938829782123277,43.87914884293657,37.0994061314783,0.0003885269106831,0.122962400317192,0,0,0
3577,165642.1187461885,2011-02-02 08:52:20,60.030191337641504,1,29,0.0,3.793158054351807,10.631703602997003,10.938829782123277,43.87914884293657,37.0994061314783,0.0003237724304199,0.122962400317192,0,0,0
3578,165672.13412717343,2011-02-02 08:52:50,90.04557235263272,1,29,0.0,3.803194999694824,10.631703602997003,10.938829782123277,43.87914884293657,37.0994061314783,0.0002590179501567,0.122962400317192,0,0,0
3579,165702.10226252768,2011-02-02 08:53:20,120.01370767181282,1,29,0.0,3.811127424240112,10.631703602997003,10.938829782123277,43.87914884293657,37.0994061314783,0.0001942634553415,0.122962400317192,0,0,0
3580,165732.1100337659,2011-02-02 08:53:50,30.01511442556833,2,29,0.5499359965324402,3.934969902038574,10.636289095963225,10.938829782123277,43.89711003593757,37.0994061314783,0.0007122993702068,0.122962400317192,0,0,0
3581,165762.1251587428,2011-02-02 08:54:20,60.03023940243376,2,29,0.5501165986061096,3.956662654876709,10.640874656786412,10.938829782123277,43.915207204297296,37.0994061314783,0.0004856586456298,0.122962400317192,0,0,0
3582,165792.1402678551,2011-02-02 08:54:50,90.04534851475987,2,29,0.5499359965324402,3.972203731536865,10.645460159463177,10.938829782123277,43.93338719842003,37.0994061314783,0.0003885269106831,0.122962400317192,0,0,0
3583,165822.1553830476,2011-02-02 08:55:20,120.0604637072396,2,29,0.550297200679779,3.985478401184082,10.650045621000787,10.938829782123277,43.95163263065313,37.0994061314783,0.0003561496851034,0.122962400317192,0,0,0
3584,165852.17049791425,2011-02-02 08:55:50,150.07557857390728,2,29,0.5501165986061096,3.99713397026062,10.654630982664266,10.938829782123277,43.96993483803876,37.0994061314783,0.0002913951757363,0.122962400317192,0,0,0
3585,165882.1856451566,2011-02-02 08:56:20,180.09072584132764,2,29,0.5499359965324402,4.007818698883057,10.659216346911409,10.938829782123277,43.98828826184119,37.0994061314783,0.0002590179501567,0.122962400317192,0,0,0
3586,165912.200735031,2011-02-02 08:56:50,210.1058156906444,2,29,0.5501165986061096,4.017693519592285,10.663801778201924,10.938829782123277,44.00668902442709,37.0994061314783,0.0002265930233988,0.122962400317192,0,0,0
3587,165942.21584627865,2011-02-02 08:57:20,240.1209269382924,2,29,0.5499359965324402,4.026759147644043,10.66838720950722,10.938829782123277,44.02513313035783,37.0994061314783,0.0002265930233988,0.122962400317192,0,0,0
3588,165972.23096739588,2011-02-02 08:57:50,270.1360480555384,2,29,0.5501165986061096,4.035338878631592,10.672972630721764,10.938829782123277,44.043617487285445,37.0994061314783,0.0002265930233988,0.122962400317192,0,0,0
3589,166002.2463164763,2011-02-02 08:58:20,300.1513971860638,2,29,0.5501165986061096,4.04310941696167,10.677558076498778,10.938829782123277,44.06213944199301,37.0994061314783,0.0001942634553415,0.122962400317192,0,0,0
3590,166032.26120432717,2011-02-02 08:58:50,330.16628498681325,2,29,0.5499359965324402,4.050556182861328,10.682143478839553,10.938829782123277,44.08069631370508,37.0994061314783,0.0001618385285837,0.122962400317192,0,0,0
3591,166062.2763450232,2011-02-02 08:59:20,360.1814258031556,2,29,0.5501165986061096,4.057517528533936,10.686728973145009,10.938829782123277,44.09928633147877,37.0994061314783,0.0001619339018361,0.122962400317192,0,0,0
3592,166092.29146510284,2011-02-02 08:59:50,390.1965457625158,2,29,0.5497553944587708,4.063992977142334,10.691314428256556,10.938829782123277,44.11790684153386,37.0994061314783,0.0001619339018361,0.122962400317192,0,0,0
3593,166122.3086439837,2011-02-02 09:00:20,420.2137246684043,2,29,0.5499359965324402,4.070306301116943,10.69590010062895,10.938829782123277,44.13655730173334,37.0994061314783,0.0001942634553415,0.122962400317192,0,0,0
3594,166152.32180712104,2011-02-02 09:00:50,450.2268877806996,2,29,0.5499359965324402,4.076134204864502,10.7004852365363,10.938829782123277,44.15523327910687,37.0994061314783,0.0001618385285837,0.122962400317192,0,0,0
3595,166182.33690942137,2011-02-02 09:01:20,480.2419901061106,2,29,0.5499359965324402,4.08180046081543,10.705070606379715,10.938829782123277,44.17393684843514,37.0994061314783,0.0001619339018361,0.122962400317192,0,0,0
3596,166212.35190362734,2011-02-02 09:01:50,510.2569842869922,2,29,0.5499359965324402,4.087304592132568,10.709655918200117,10.938829782123277,44.19266580174055,37.0994061314783,0.0001619339018361,0.122962400317192,0,0,0
3597,166242.36725857234,2011-02-02 09:02:20,540.272339242034,2,29,0.5499359965324402,4.092484951019287,10.714241323977332,10.938829782123277,44.21141983208262,37.0994061314783,0.0001295089750783,0.122962400317192,0,0,0
3598,166272.38215975143,2011-02-02 09:02:50,570.2872404111015,2,29,0.5501165986061096,4.097826957702637,10.718826657089036,10.938829782123277,44.23019736631384,37.0994061314783,0.0001618385285837,0.122962400317192,0,0,0
3599,166302.39726725977,2011-02-02 09:03:20,600.30234791943,2,29,0.5499359965324402,4.102845668792725,10.72341215385957,10.938829782123277,44.248998948321336,37.0994061314783,0.0001942634553415,0.122962400317192,0,0,0
3600,166332.4123648233,2011-02-02 09:03:50,630.3174454879854,2,29,0.5499359965324402,4.107702255249023,10.727997541671549,10.938829782123277,44.26782293282088,37.0994061314783,0.0001295089750783,0.122962400317192,0,0,0
3601,166362.4299064833,2011-02-02 09:04:20,660.3349871780437,2,29,0.5501165986061096,4.112396717071533,10.732583323279789,10.938829782123277,44.28667077251285,37.0994061314783,0.0001295089750783,0.122962400317192,0,0,0
3602,166392.44274332243,2011-02-02 09:04:50,690.3478239921034,2,29,0.5499359965324402,4.117091178894043,10.737168411578605,10.938829782123277,44.305537506895874,37.0994061314783,0.0001295089750783,0.122962400317192,0,0,0
3603,166422.45771442077,2011-02-02 09:05:20,720.3627950804313,2,29,0.5499359965324402,4.121786117553711,10.741753782283071,10.938829782123277,44.32442686940434,37.0994061314783,9.71794142969884e-05,0.122962400317192,0,0,0
3604,166452.47283346285,2011-02-02 09:05:50,750.3779141225053,2,29,0.5501165986061096,4.12664270401001,10.74633917910104,10.938829782123277,44.34333751641218,37.0994061314783,0.0001619339018361,0.122962400317192,0,0,0
3605,166482.48797956738,2011-02-02 09:06:20,780.3930602270274,2,29,0.5499359965324402,4.130851745605469,10.750924582037763,10.938829782123277,44.36226913130014,37.0994061314783,0.0001295089750783,0.122962400317192,0,0,0
3606,166512.50309366712,2011-02-02 09:06:50,810.4081743267836,2,29,0.5497553944587708,4.135222434997559,10.755510014781295,10.938829782123277,44.38122166093584,37.0994061314783,9.70840483205393e-05,0.122962400317192,0,0,0
3607,166542.5181804087,2011-02-02 09:07:20,840.4232610633424,2,29,0.5499359965324402,4.139917373657227,10.760095391390232,10.938829782123277,44.40019438316621,37.0994061314783,0.0001295089750783,0.122962400317192,0,0,0
3608,166572.53330482918,2011-02-02 09:07:50,870.4383854888338,2,29,0.5501165986061096,4.144611835479736,10.764680863784504,10.938829782123277,44.41918795721709,37.0994061314783,0.0002265930233988,0.122962400317192,0,0,0
3609,166602.5484268236,2011-02-02 09:08:20,900.4535074782534,2,29,0.5501165986061096,4.148983001708984,10.769266369077302,10.938829782123277,44.43820260985651,37.0994061314783,0.0001619339018361,0.122962400317192,0,0,0
3610,166632.56355299344,2011-02-02 09:08:50,930.4686336581173,2,29,0.5499359965324402,4.153192043304443,10.773851832293786,10.938829782123277,44.457237423347806,37.0994061314783,9.71794142969884e-05,0.122962400317192,0,0,0
3611,166662.5786552186,2011-02-02 09:09:20,960.483735878266,2,29,0.5501165986061096,4.157724857330322,10.77843720867912,10.938829782123277,44.47629211733825,37.0994061314783,6.47544875391759e-05,0.122962400317192,0,0,0
3612,166692.59376855145,2011-02-02 09:09:50,990.4988492161232,2,29,0.5501165986061096,4.162257671356201,10.78302270056974,10.938829782123277,44.49536767659952,37.0994061314783,0.0001295089750783,0.122962400317192,0,0,0
3613,166722.60890199945,2011-02-02 09:10:20,1020.5139826590888,2,29,0.5499359965324402,4.166628360748291,10.787608080681698,10.938829782123277,44.51446313094121,37.0994061314783,9.70840483205393e-05,0.122962400317192,0,0,0
3614,166752.6104164146,2011-02-02 09:10:50,1050.515497109334,2,29,0.5499359965324402,4.17116117477417,10.792191432217196,10.938829782123277,44.53357057202011,37.0994061314783,0.0001295089750783,0.122962400317192,0,0,0
3615,166782.62350744224,2011-02-02 09:11:20,1080.528588101885,2,29,0.5499359965324402,4.175532341003418,10.796776550958052,10.938829782123277,44.55270580110243,37.0994061314783,0.0001295089750783,0.122962400317192,0,0,0
3616,166812.63862485022,2011-02-02 09:11:50,1110.5437055048735,2,29,0.5501165986061096,4.179903030395508,10.8013619751275,10.938829782123277,44.57186276988852,37.0994061314783,9.70840483205393e-05,0.122962400317192,0,0,0
3617,166842.65375044363,2011-02-02 09:12:20,1140.5588311032882,2,29,0.5499359965324402,4.184435844421387,10.80594726899128,10.938829782123277,44.59103950917875,37.0994061314783,9.70840483205393e-05,0.122962400317192,0,0,0
3618,166872.6688736561,2011-02-02 09:12:50,1170.5739543207685,2,29,0.5499359965324402,4.188807010650635,10.810532587288748,10.938829782123277,44.61023663152033,37.0994061314783,0.0001295089750783,0.122962400317192,0,0,0
3619,166902.68397000662,2011-02-02 09:13:20,1200.589050666276,2,29,0.5499359965324402,4.1935014724731445,10.815117891566157,10.938829782123277,44.62945425089663,37.0994061314783,0.0001618385285837,0.122962400317192,0,0,0
3620,166932.69934850535,2011-02-02 09:13:50,1230.6044291750209,2,29,0.550297200679779,4.198034286499023,10.81970327113508,10.938829782123277,44.64869286572911,37.0994061314783,0.0001295089750783,0.122962400317192,0,0,0
3621,166946.2301165476,2011-02-02 09:14:04,1244.1351972323328,2,29,0.5499359965324402,4.200138568878174,10.821770368568515,10.938829782123277,44.65737239077203,37.0994061314783,0.0001942634553415,0.122962400317192,0,0,0
3622,166976.24331795445,2011-02-02 09:14:34,30.01499013579999,3,29,0.0,4.090542316436768,10.821770368568515,10.938829782123277,44.65737239077203,37.0994061314783,-0.0004532813909463,0.122962400317192,0,0,0
3623,167006.26089761916,2011-02-02 09:15:04,60.03256984561522,3,29,0.0,4.078562736511231,10.821770368568515,10.938829782123277,44.65737239077203,37.0994061314783,-0.0002590179501567,0.122962400317192,0,0,0
3624,167036.27370813265,2011-02-02 09:15:34,90.04538030900089,3,29,0.0,4.070953845977783,10.821770368568515,10.938829782123277,44.65737239077203,37.0994061314783,-0.0001942634553415,0.122962400317192,0,0,0
3625,167066.241796565,2011-02-02 09:16:04,120.01346873129955,3,29,0.0,4.065611839294434,10.821770368568515,10.938829782123277,44.65737239077203,37.0994061314783,-0.0001295089750783,0.122962400317192,0,0,0
3626,167066.24205219018,2011-02-02 09:16:04,2.611508683e-06,4,29,0.9658791422843932,4.199814796447754,10.821770369269183,10.938829782123277,44.6573723937147,37.0994061314783,0.0,0.122962400317192,0,0,0
3627,167066.57018083276,2011-02-02 09:16:05,0.328131223973596,4,29,0.9154891967773438,4.199814796447754,10.821854936939188,10.938829782123277,44.6577275597036,37.0994061314783,0.0,0.122962400317192,0,0,0
3628,167068.42965127522,2011-02-02 09:16:06,2.187601661448533,4,29,0.8650991916656494,4.199814796447754,10.822313233307003,10.938829782123277,44.65965228905405,37.0994061314783,0.0,0.122962400317192,0,0,0
3629,167071.72634894517,2011-02-02 09:16:10,5.484299331410592,4,29,0.8147091865539551,4.199814796447754,10.823080903881532,10.938829782123277,44.66287632233534,37.0994061314783,0.0,0.122962400317192,0,0,0
3630,167076.52571400965,2011-02-02 09:16:15,10.283664456028871,4,29,0.7646804451942444,4.199814796447754,10.824132064824028,10.938829782123277,44.6672909518699,37.0994061314783,3.23295607813634e-05,0.122962400317192,0,0,0
3631,167083.22613817835,2011-02-02 09:16:21,16.98408856457633,4,29,0.7144710421562195,4.199814796447754,10.825506504561432,10.938829782123277,44.673063300967016,37.0994061314783,0.0,0.122962400317192,0,0,0
3632,167092.33737745008,2011-02-02 09:16:30,26.095327876399644,4,29,0.6644423007965088,4.199653148651123,10.827248505671172,10.938829782123277,44.6803792971396,37.0994061314783,-3.23295607813634e-05,0.122962400317192,0,0,0
3633,167105.30389661054,2011-02-02 09:16:43,39.06184700175823,4,29,0.6144134998321533,4.199976921081543,10.82954647019384,10.938829782123277,44.690030241690806,37.0994061314783,3.24249267578125e-05,0.122962400317192,0,0,0
3634,167125.1004300882,2011-02-02 09:17:03,58.858380484438136,4,29,0.5643847584724426,4.199814796447754,10.832777254868931,10.938829782123277,44.703598791667794,37.0994061314783,0.0,0.122962400317192,0,0,0
3635,167158.64687329665,2011-02-02 09:17:37,92.40482369289614,4,29,0.5143559575080872,4.199653148651123,10.8377819703913,10.938829782123277,44.72461748317575,37.0994061314783,-3.23295607813634e-05,0.122962400317192,0,0,0
3636,167220.38016452323,2011-02-02 09:18:38,154.13811491949167,4,29,0.4641465842723846,4.199653148651123,10.8461360390371,10.938829782123277,44.75970272394907,37.0994061314783,-3.23295607813634e-05,0.122962400317192,0,0,0
3637,167319.89403962967,2011-02-02 09:20:18,253.65199002089824,4,29,0.4141178429126739,4.199814796447754,10.858242874081927,10.938829782123277,44.81054875796534,37.0994061314783,3.23295607813634e-05,0.122962400317192,0,0,0
3638,167451.82932748247,2011-02-02 09:22:30,385.5872778737006,4,29,0.3640890717506408,4.199653148651123,10.872477772307631,10.938829782123277,44.870332286012655,37.0994061314783,-3.23295607813634e-05,0.122962400317192,0,0,0
3639,167615.42042509845,2011-02-02 09:25:13,549.1783754946945,4,29,0.3140603005886078,4.199653148651123,10.887857721150947,10.938829782123277,44.93492476683605,37.0994061314783,-3.23295607813634e-05,0.122962400317192,0,0,0
3640,167818.02623138294,2011-02-02 09:28:36,751.784181804266,4,29,0.2640315294265747,4.199653148651123,10.904089813985474,10.938829782123277,45.00309621226529,37.0994061314783,-3.23295607813634e-05,0.122962400317192,0,0,0
3641,168072.1625511827,2011-02-02 09:32:50,1005.9205015739228,4,29,0.213822141289711,4.199653148651123,10.92091049565106,10.938829782123277,45.07373933547069,37.0994061314783,0.0,0.122962400317192,0,0,0
3642,168407.84437045804,2011-02-02 09:38:26,1341.6023208542829,4,29,0.1637933701276779,4.199653148651123,10.938447362311797,10.938829782123277,45.14739029984662,37.0994061314783,-3.23295607813634e-05,0.122962400317192,0,0,0
3643,168883.02395753813,2011-02-02 09:46:21,1816.7819079394028,4,29,0.1137645989656448,4.199653148651123,10.956600454867708,10.938829782123277,45.223629231019686,37.0994061314783,-3.23295607813634e-05,0.122962400317192,0,0,0
3644,169710.4183910393,2011-02-02 10:00:08,2644.1763414606407,4,29,0.0637358352541923,4.199653148651123,10.976415846188203,10.938829782123277,45.30684943124236,37.0994061314783,-3.23295607813634e-05,0.122962400317192,0,0,0
3645,170111.06558572955,2011-02-02 10:06:49,3044.8235361258057,4,29,0.0498289167881011,4.199653148651123,10.982743382035832,10.938829782123277,45.3334236215014,37.0994061314783,-6.47544875391759e-05,0.122962400317192,0,0,0
3646,170141.08551552997,2011-02-02 10:07:19,30.01508599470989,5,29,0.0,4.188807010650635,10.982743382035832,10.938829782123277,45.3334236215014,37.0994061314783,-6.47544875391759e-05,0.122962400317192,0,0,0
3647,170171.08500877276,2011-02-02 10:07:49,60.01457923748419,5,29,0.0,4.187188148498535,10.982743382035832,10.938829782123277,45.3334236215014,37.0994061314783,-3.23295607813634e-05,0.122962400317192,0,0,0
3648,170171.27830217566,2011-02-02 10:07:50,0.187432770134798,6,29,-1.9243103452026844e-05,4.187188148498535,10.982743382035832,10.93882978312516,45.3334236215014,37.09940613567338,0.0,0.1208627671003341,0,0,0
3649,170176.10645362973,2011-02-02 10:07:54,5.015584254218205,6,29,0.0003419754502829,4.187188148498535,10.982744064152293,10.938829783210291,45.33342647778935,37.09940613602983,-6.47544875391759e-05,0.1208627671003341,0,0,0
3650,170184.2527653819,2011-02-02 10:08:03,8.14048713871495,7,29,-1.099568486213684,3.9870972633361816,10.982744064152293,10.941316249681115,45.33342647778935,37.10935252387863,-0.0023311139084398,0.1208627671003341,0,0,0
3651,170214.26786632888,2011-02-02 10:08:33,38.15558808569049,7,29,-1.099568486213684,3.9168386459350586,10.982744064152293,10.950484156778163,45.33342647778935,37.14557920082377,-0.0018455028766766,0.1208627671003341,0,0,0
3652,170244.28298251383,2011-02-02 10:09:03,68.17070429570622,7,29,-1.099568486213684,3.844313859939575,10.982744064152293,10.95965198417473,45.33342647778935,37.18116211926334,-0.0020073889754712,0.1208627671003341,0,0,0
3653,170274.2981066787,2011-02-02 10:09:33,98.18582843548536,7,29,-1.0997490882873535,3.7685513496398926,10.982744064152293,10.968819846391868,45.33342647778935,37.21605379397253,-0.0019102573860436,0.1208627671003341,0,0,0
3654,170304.31320917452,2011-02-02 10:10:03,128.20093093132115,7,29,-1.099568486213684,3.705254077911377,10.982744064152293,10.97798776709008,45.33342647778935,37.25030188717484,-0.0014893531333655,0.1208627671003341,0,0,0
3655,170334.32833099854,2011-02-02 10:10:33,158.21605275532866,7,29,-1.099568486213684,3.655879020690918,10.982744064152293,10.987155618083348,45.33342647778935,37.28403497371487,-0.0011979580158367,0.1208627671003341,0,0,0
3656,170364.3434656846,2011-02-02 10:11:03,188.2311874413924,7,29,-1.099568486213684,3.617511987686157,10.982744064152293,10.996323479606309,45.33342647778935,37.317369343654576,-0.0009065627818927,0.1208627671003341,0,0,0
3657,170394.35860225034,2011-02-02 10:11:33,218.2463240322033,7,29,-1.099568486213684,3.585944414138794,10.982744064152293,11.005491431897672,45.33342647778935,37.35038553795349,-0.0007770538213662,0.1208627671003341,0,0,0
3658,170424.373855928,2011-02-02 10:12:03,248.26157768476816,7,29,-1.099568486213684,3.5593950748443604,10.982744064152293,11.01465942918737,45.33342647778935,37.383135728360855,-0.0006475448608398,0.1208627671003341,0,0,0
3659,170454.38882960274,2011-02-02 10:12:33,278.2765513595422,7,29,-1.099568486213684,3.535921573638916,10.982744064152293,11.02382733877389,45.33342647778935,37.415657495952935,-0.0005827903514727,0.1208627671003341,0,0,0
3660,170484.40395760213,2011-02-02 10:13:03,308.2916793589408,7,29,-1.099568486213684,3.514876365661621,10.982744064152293,11.032995337574167,45.33342647778935,37.44797625194792,-0.0005180359003134,0.1208627671003341,0,0,0
3661,170514.41907294,2011-02-02 10:13:33,338.3067946917703,7,29,-1.099568486213684,3.4959359169006348,10.982744064152293,11.04216327532238,45.33342647778935,37.48011218646349,-0.0004532813909463,0.1208627671003341,0,0,0
3662,170544.43420194188,2011-02-02 10:14:03,368.32192369867977,7,29,-1.099568486213684,3.478452205657959,10.982744064152293,11.051331220100977,45.33342647778935,37.51208149517242,-0.0003885269106831,0.1208627671003341,0,0,0
3663,170574.4493236957,2011-02-02 10:14:33,398.3370454525124,7,29,-1.0997490882873535,3.462263584136963,10.982744064152293,11.060499215838856,45.33342647778935,37.5438964883644,-0.0004209041653666,0.1208627671003341,0,0,0
3664,170604.46442610634,2011-02-02 10:15:03,428.3521478881983,7,29,-1.099568486213684,3.4472081661224365,10.982744064152293,11.069667199094608,45.33342647778935,37.5755687303199,-0.0003885269106831,0.1208627671003341,0,0,0
3665,170634.47952975,2011-02-02 10:15:33,458.3672515268824,7,29,-1.099568486213684,3.43263840675354,10.982744064152293,11.07883511382005,45.33342647778935,37.60710564668376,-0.0003885269106831,0.1208627671003341,0,0,0
3666,170664.4967214478,2011-02-02 10:16:03,488.3844432396897,7,29,-1.0993878841400146,3.4187164306640625,10.982744064152293,11.088003744425164,45.33342647778935,37.638513868638974,-0.0003237724304199,0.1208627671003341,0,0,0
3667,170694.5097794331,2011-02-02 10:16:33,518.3975011898887,7,29,-1.099568486213684,3.4054417610168457,10.982744064152293,11.097171045962012,45.33342647778935,37.669792825437405,-0.0003237724304199,0.1208627671003341,0,0,0
3668,170724.5248900341,2011-02-02 10:17:03,548.412611790925,7,29,-1.099568486213684,3.392328977584839,10.982744064152293,11.106338981465584,45.33342647778935,37.70095251891356,-0.0003237724304199,0.1208627671003341,0,0,0
3669,170754.54002932165,2011-02-02 10:17:33,578.427751078457,7,29,-1.0997490882873535,3.379054307937622,10.982744064152293,11.115507008084244,45.33342647778935,37.731992391021386,-0.0003237724304199,0.1208627671003341,0,0,0
3670,170784.55513584253,2011-02-02 10:18:03,608.4428575993244,7,29,-1.099568486213684,3.3659415245056152,10.982744064152293,11.124674925720877,45.33342647778935,37.76291172587362,-0.0003561496851034,0.1208627671003341,0,0,0
3671,170814.57024563153,2011-02-02 10:18:33,638.4579673883371,7,29,-1.0997490882873535,3.352181196212769,10.982744064152293,11.13384295091571,45.33342647778935,37.7937088226627,-0.0003561496851034,0.1208627671003341,0,0,0
3672,170844.58548621656,2011-02-02 10:19:03,668.473207998396,7,29,-1.099568486213684,3.338097333908081,10.982744064152293,11.143010927371137,45.33342647778935,37.82437746799907,-0.0003561496851034,0.1208627671003341,0,0,0
3673,170874.60047844757,2011-02-02 10:19:33,698.4882002594928,7,29,-1.099568486213684,3.3228800296783447,10.982744064152293,11.152178819128665,45.33342647778935,37.854911476958144,-0.0004209041653666,0.1208627671003341,0,0,0
3674,170904.6158094479,2011-02-02 10:20:03,728.5035312046949,7,29,-1.0997490882873535,3.3068532943725586,10.982744064152293,11.161346817663365,45.33342647778935,37.88530294200912,-0.0004532813909463,0.1208627671003341,0,0,0
3675,170934.63074013052,2011-02-02 10:20:33,758.5184618873191,7,29,-1.0993878841400146,3.2895314693450928,10.982744064152293,11.17051460989569,45.33342647778935,37.91554133881488,-0.0004856586456298,0.1208627671003341,0,0,0
3676,170964.64600407874,2011-02-02 10:21:03,788.5337258455689,7,29,-1.0997490882873535,3.2709145545959477,10.982744064152293,11.1796826290289,45.33342647778935,37.94561488352885,-0.0004856586456298,0.1208627671003341,0,0,0
3677,170994.66124163117,2011-02-02 10:21:33,818.5489633980073,7,29,-1.099568486213684,3.250840902328491,10.982744064152293,11.188850673225904,45.33342647778935,37.975511241706656,-0.0005504131549969,0.1208627671003341,0,0,0
3678,171024.67625771667,2011-02-02 10:22:03,848.563979483482,7,29,-1.0993878841400146,3.2297956943511963,10.982744064152293,11.198018654967658,45.33342647778935,38.005219021411065,-0.0005180359003134,0.1208627671003341,0,0,0
3679,171054.69136006213,2011-02-02 10:22:33,878.5790818289429,7,29,-1.099568486213684,3.206807851791382,10.982744064152293,11.207186598460485,45.33342647778935,38.03472430278156,-0.0005827903514727,0.1208627671003341,0,0,0
3680,171084.7065250086,2011-02-02 10:23:03,908.5942468055,7,29,-1.0993878841400146,3.180744409561157,10.982744064152293,11.216354656774904,45.33342647778935,38.06400601637739,-0.0007446765666827,0.1208627671003341,0,0,0
3681,171114.72146913473,2011-02-02 10:23:33,938.6091909216046,7,29,-1.0993878841400146,3.152252435684204,10.982744064152293,11.225522579348482,45.33342647778935,38.09303812522792,-0.0007770538213662,0.1208627671003341,0,0,0
3682,171144.73680210498,2011-02-02 10:24:03,968.624523866791,7,29,-1.099568486213684,3.119713306427002,10.982744064152293,11.234690628385293,45.33342647778935,38.1217909263427,-0.0009065627818927,0.1208627671003341,0,0,0
3683,171174.75170231162,2011-02-02 10:24:33,998.6394240734602,7,29,-1.0997490882873535,3.08231782913208,10.982744064152293,11.24385858478674,45.33342647778935,38.15022533051667,-0.0010684489971026,0.1208627671003341,0,0,0
3684,171204.76694504198,2011-02-02 10:25:03,1028.6546667937782,7,29,-1.0997490882873535,3.0392560958862305,10.982744064152293,11.253026638207158,45.33342647778935,38.17829245302925,-0.0012303352123126,0.1208627671003341,0,0,0
3685,171234.78204424962,2011-02-02 10:25:33,1058.6697660164564,7,29,-1.099568486213684,2.987776517868042,10.982744064152293,11.262194718981588,45.33342647778935,38.20592855099814,-0.0014893531333655,0.1208627671003341,0,0,0
3686,171264.79957664653,2011-02-02 10:26:03,1088.6872984283907,7,29,-1.099568486213684,2.9235079288482666,10.982744064152293,11.271363475530736,45.33342647778935,38.23303842123049,-0.0018778800731524,0.1208627671003341,0,0,0
3687,171294.81230575216,2011-02-02 10:26:33,1118.7000275189705,7,29,-1.099568486213684,2.842888832092285,10.982744064152293,11.280530801923693,45.33342647778935,38.25948224900842,-0.0022987842094153,0.1208627671003341,0,0,0
3688,171324.82727614875,2011-02-02 10:27:03,1148.7149979055491,7,29,-1.0993878841400146,2.7420339584350586,10.982744064152293,11.289698800774218,45.33342647778935,38.28509707423051,-0.0028491974808275,0.1208627671003341,0,0,0
3689,171336.1734053388,2011-02-02 10:27:15,1160.061127130695,7,29,-1.0997490882873535,2.699781894683838,10.982744064152293,11.2931644489374,45.33342647778935,38.29452685708281,-0.0029786587692797,0.1208627671003341,0,0,0
3690,171396.1953183369,2011-02-02 10:28:15,60.01460992396434,8,29,0.0,3.754629135131836,10.982744064152293,11.2931644489374,45.33342647778935,38.29452685708281,0.0007122516399249,0.1208627671003341,0,0,0
3691,171396.37804156457,2011-02-02 10:28:15,0.187462484191369,9,29,-1.9243103452026844e-05,3.754952907562256,10.982744064152293,11.293164449939445,45.33342647778935,38.29452686084544,0.0,0.122962400317192,0,0,0
3692,171401.19063937914,2011-02-02 10:28:20,5.000060419044387,9,29,0.0005225847125984,3.759161949157715,10.982744652539512,11.29316445002324,45.3334286886285,38.29452686116009,0.0006151676061563,0.122962400317192,0,0,0
