Data_Point,Test_Time(s),Date_Time,Step_Time(s),Step_Index,Cycle_Index,Current(A),Voltage(V),Charge_Capacity(Ah),Discharge_Capacity(Ah),Charge_Energy(Wh),Discharge_Energy(Wh),dV/dt(V/s),Internal_Resistance(Ohm),Is_FC_Data,AC_Impedance(Ohm),ACI_Phase_Angle(Deg)
4608,215111.1253704528,2011-02-02 22:36:59,30.01525655479811,1,38,0.0,3.7865207195281982,13.713346720300189,14.003334347083326,56.6289992448474,47.43593242297841,0.0003885269106831,0.1224850863218307,0,0,0
4609,215141.14049032697,2011-02-02 22:37:29,60.03037641390851,1,38,0.0,3.799957275390625,13.713346720300189,14.003334347083326,56.6289992448474,47.43593242297841,0.0003561496851034,0.1224850863218307,0,0,0
4610,215171.15804096937,2011-02-02 22:37:59,90.0479270713162,1,38,0.0,3.8099942207336426,13.713346720300189,14.003334347083326,56.6289992448474,47.43593242297841,0.0002590179501567,0.1224850863218307,0,0,0
4611,215201.1238281713,2011-02-02 22:38:29,120.0137142482032,1,38,0.0,3.818250417709351,13.713346720300189,14.003334347083326,56.6289992448474,47.43593242297841,0.0001942634553415,0.1224850863218307,0,0,0
4612,215231.13695915585,2011-02-02 22:38:59,30.015137061985257,2,38,0.5501165986061096,3.9429023265838623,13.717932038789163,14.003334347083326,56.64699350063246,47.43593242297841,0.0007770538213662,0.1224850863218307,0,0,0
4613,215261.1541589689,2011-02-02 22:39:29,60.03233691508066,2,38,0.5499359965324402,3.964595079421997,13.722517677029122,14.003334347083326,56.66512728009008,47.43593242297841,0.0004856586456298,0.1224850863218307,0,0,0
4614,215291.1671725735,2011-02-02 22:39:59,90.04535047965699,2,38,0.5497553944587708,3.981107473373413,13.727102707033568,14.003334347083326,56.6833444941593,47.43593242297841,0.0004209041653666,0.1224850863218307,0,0,0
4615,215321.182282528,2011-02-02 22:40:29,120.06046043408186,2,38,0.5499359965324402,3.99502944946289,13.731687877503571,14.003334347083326,56.70163067313884,47.43593242297841,0.0003561019839253,0.1224850863218307,0,0,0
4616,215351.19740744968,2011-02-02 22:40:59,150.07558535580986,2,38,0.5499359965324402,4.007009029388428,13.73627313370719,14.003334347083326,56.71997689063668,47.43593242297841,0.0002590179501567,0.1224850863218307,0,0,0
4617,215381.2125079054,2011-02-02 22:41:29,180.09068581156112,2,38,0.5501165986061096,4.018503189086914,13.740858312134248,14.003334347083326,56.73837664673395,47.43593242297841,0.0003237724304199,0.1224850863218307,0,0,0
4618,215411.2277591119,2011-02-02 22:41:59,210.1059370280545,2,38,0.5499359965324402,4.028540134429932,13.74544349805943,14.003334347083326,56.7568254553384,47.43593242297841,0.0002590179501567,0.1224850863218307,0,0,0
4619,215441.24274643068,2011-02-02 22:42:30,240.12092433179612,2,38,0.5499359965324402,4.037929058074951,13.750028692610838,14.003334347083326,56.7753193719315,47.43593242297841,0.0002265930233988,0.1224850863218307,0,0,0
4620,215471.26025823125,2011-02-02 22:43:00,270.1384361724606,2,38,0.5497553944587708,4.046670913696289,13.75461424787718,14.003334347083326,56.79385630368882,47.43593242297841,0.0001942634553415,0.1224850863218307,0,0,0
4621,215501.2731027144,2011-02-02 22:43:30,300.1512806255591,2,38,0.5499359965324402,4.054765224456787,13.759199034175143,14.003334347083326,56.81242864343668,47.43593242297841,0.0001942634553415,0.1224850863218307,0,0,0
4622,215531.28806851452,2011-02-02 22:44:00,330.1662464206946,2,38,0.5499359965324402,4.062535762786865,13.763784194016786,14.003334347083326,56.831038295772345,47.43593242297841,0.0002265930233988,0.1224850863218307,0,0,0
4623,215561.30318492508,2011-02-02 22:44:30,360.18136283622255,2,38,0.5499359965324402,4.069334983825684,13.768369293931457,14.003334347083326,56.84968092119123,47.43593242297841,0.0001618385285837,0.1224850863218307,0,0,0
4624,215591.3183575908,2011-02-02 22:45:00,390.19653550194334,2,38,0.5499359965324402,4.075972557067871,13.772954555500132,14.003334347083326,56.86835561182934,47.43593242297841,0.0001619339018361,0.1224850863218307,0,0,0
4625,215621.3334596656,2011-02-02 22:45:30,420.2116375717172,2,38,0.5497553944587708,4.0822858810424805,13.777539723543727,14.003334347083326,56.88705973051268,47.43593242297841,0.0001618385285837,0.1224850863218307,0,0,0
4626,215651.3485686025,2011-02-02 22:46:00,450.2267465086061,2,38,0.5501165986061096,4.088599681854248,13.782124813829942,14.003334347083326,56.90579181272691,47.43593242297841,0.0001619339018361,0.1224850863218307,0,0,0
4627,215681.3637072685,2011-02-02 22:46:30,480.2418851695765,2,38,0.5499359965324402,4.094103813171387,13.78670989468341,14.003334347083326,56.92455074010596,47.43593242297841,0.0001295089750783,0.1224850863218307,0,0,0
4628,215711.3788121703,2011-02-02 22:47:00,510.2569900764212,2,38,0.5497553944587708,4.099607944488525,13.791295007536696,14.003334347083326,56.94333570009329,47.43593242297841,9.71794142969884e-05,0.1224850863218307,0,0,0
4629,215741.3940399935,2011-02-02 22:47:30,540.2722179096363,2,38,0.5501165986061096,4.105273723602295,13.795880260246346,14.003334347083326,56.96214636612182,47.43593242297841,0.0001618385285837,0.1224850863218307,0,0,0
4630,215771.40905914665,2011-02-02 22:48:00,570.2872370577439,2,38,0.5499359965324402,4.110454082489014,13.800465465799098,14.003334347083326,56.98098116050927,47.43593242297841,0.0001295089750783,0.1224850863218307,0,0,0
4631,215801.4241450712,2011-02-02 22:48:30,600.3023229772664,2,38,0.5497553944587708,4.115472316741943,13.805050726038068,14.003334347083326,56.999839804935576,47.43593242297841,0.0001618385285837,0.1224850863218307,0,0,0
4632,215831.4392733312,2011-02-02 22:49:00,630.3174512473395,2,38,0.5501165986061096,4.120491027832031,13.809635890142696,14.003334347083326,57.01872119526045,47.43593242297841,0.0001619339018361,0.1224850863218307,0,0,0
4633,215861.4563216115,2011-02-02 22:49:30,660.3344995226564,2,38,0.5501165986061096,4.12534761428833,13.814221385728407,14.003334347083326,57.0376266172253,47.43593242297841,0.0001295089750783,0.1224850863218307,0,0,0
4634,215891.46951614213,2011-02-02 22:50:00,690.3476940532559,2,38,0.5495747923851013,4.129880428314209,13.818806233823915,14.003334347083326,57.05655160188456,47.43593242297841,9.71794142969884e-05,0.1224850863218307,0,0,0
4635,215921.48461555023,2011-02-02 22:50:30,720.3627934764336,2,38,0.5499359965324402,4.134898662567139,13.823391457158564,14.003334347083326,57.07550014665272,47.43593242297841,9.70840483205393e-05,0.1224850863218307,0,0,0
4636,215951.49992392425,2011-02-02 22:51:00,750.378101830331,2,38,0.5497553944587708,4.139593601226807,13.827976727250624,14.003334347083326,57.09447068130799,47.43593242297841,0.0001295089750783,0.1224850863218307,0,0,0
4637,215981.5148515041,2011-02-02 22:51:30,780.3930294152349,2,38,0.5499359965324402,4.144288063049316,13.83256201252596,14.003334347083326,57.113462917906986,47.43593242297841,0.0001295089750783,0.1224850863218307,0,0,0
4638,216011.52994356395,2011-02-02 22:52:00,810.408121475061,2,38,0.5499359965324402,4.149144649505615,13.837147166109553,14.003334347083326,57.13247633172671,47.43593242297841,0.0001618385285837,0.1224850863218307,0,0,0
4639,216041.5451926501,2011-02-02 22:52:30,840.4233705562323,2,38,0.5499359965324402,4.153677463531494,13.84173240556446,14.003334347083326,57.15151141565672,47.43593242297841,0.0001295089750783,0.1224850863218307,0,0,0
4640,216071.56022553745,2011-02-02 22:53:00,870.4384034836824,2,38,0.5501165986061096,4.158372402191162,13.846317560099967,14.003334347083326,57.17056708078038,47.43593242297841,0.0001295089750783,0.1224850863218307,0,0,0
4641,216101.5753133116,2011-02-02 22:53:30,900.4534912227398,2,38,0.5497553944587708,4.162743091583252,13.850902776941732,14.003334347083326,57.1896439736024,47.43593242297841,0.0001295089750783,0.1224850863218307,0,0,0
4642,216131.5904085694,2011-02-02 22:54:00,930.468586480536,2,38,0.5499359965324402,4.167275905609131,13.855487919014672,14.003334347083326,57.208741521060574,47.43593242297841,9.70840483205393e-05,0.1224850863218307,0,0,0
4643,216161.6055249649,2011-02-02 22:54:30,960.4837028710016,2,38,0.5499359965324402,4.171970844268799,13.86007303322863,14.003334347083326,57.227859989450415,47.43593242297841,0.0001295089750783,0.1224850863218307,0,0,0
4644,216191.6207813944,2011-02-02 22:55:00,990.4989593255498,2,38,0.5497553944587708,4.176503658294678,13.864658247578712,14.003334347083326,57.246999879087234,47.43593242297841,9.71794142969884e-05,0.1224850863218307,0,0,0
4645,216221.63576351016,2011-02-02 22:55:30,1020.5139414162992,2,38,0.5499359965324402,4.181198120117188,13.869243386885564,14.003334347083326,57.266160474867,47.43593242297841,0.0001295089750783,0.1224850863218307,0,0,0
4646,216251.65089450704,2011-02-02 22:56:00,1050.5290724131685,2,38,0.5501165986061096,4.185893058776856,13.87382859444362,14.003334347083326,57.28534236324244,47.43593242297841,0.0001619339018361,0.1224850863218307,0,0,0
4647,216281.6659895443,2011-02-02 22:56:30,1080.544167450415,2,38,0.5499359965324402,4.190263748168945,13.878413719491268,14.003334347083326,57.30454503169737,47.43593242297841,6.47544875391759e-05,0.1224850863218307,0,0,0
4648,216311.6812934822,2011-02-02 22:57:00,1110.5594714183812,2,38,0.5497553944587708,4.194796562194824,13.882998880504037,14.003334347083326,57.32376886566488,47.43593242297841,9.70840483205393e-05,0.1224850863218307,0,0,0
4649,216341.69621595435,2011-02-02 22:57:30,1140.57439386548,2,38,0.5499359965324402,4.199653148651123,13.887583991511583,14.003334347083326,57.34301348706874,47.43593242297841,0.0001942634553415,0.1224850863218307,0,0,0
4650,216344.07119690263,2011-02-02 22:57:32,1142.9493748137668,2,38,0.5499359965324402,4.200138568878174,13.887946806830133,14.003334347083326,57.344537204572845,47.43593242297841,0.0001942634553415,0.1224850863218307,0,0,0
4651,216374.08829759585,2011-02-02 22:58:02,30.01522803872729,3,38,0.0,4.091027736663818,13.887946806830133,14.003334347083326,57.344537204572845,47.43593242297841,-0.0004209518374409,0.1224850863218307,0,0,0
4652,216404.10329371155,2011-02-02 22:58:33,60.03022412936858,3,38,0.0,4.079048156738281,13.887946806830133,14.003334347083326,57.344537204572845,47.43593242297841,-0.0002590179501567,0.1224850863218307,0,0,0
4653,216434.1208571408,2011-02-02 22:59:03,90.04778758367009,3,38,0.0,4.071601390838623,13.887946806830133,14.003334347083326,57.344537204572845,47.43593242297841,-0.0001619339018361,0.1224850863218307,0,0,0
4654,216464.086652473,2011-02-02 22:59:32,120.0135828908202,3,38,0.0,4.066421031951904,13.887946806830133,14.003334347083326,57.344537204572845,47.43593242297841,-9.71794142969884e-05,0.1224850863218307,0,0,0
4655,216464.09058269984,2011-02-02 22:59:33,2.646596132e-06,4,38,0.941316306591034,4.199814796447754,13.887946807522155,14.003334347083326,57.34453720747921,47.43593242297841,0.0,0.1224850863218307,0,0,0
4656,216464.88748828377,2011-02-02 22:59:33,0.796908235525464,4,38,0.8907456994056702,4.199814796447754,13.888147772725247,14.003334347083326,57.34538120622004,47.43593242297841,0.0,0.1224850863218307,0,0,0
4657,216467.2936665303,2011-02-02 22:59:36,3.20308646202844,4,38,0.8401750922203064,4.199653148651123,13.888724751293609,14.003334347083326,57.34780435208124,47.43593242297841,-3.23295607813634e-05,0.1224850863218307,0,0,0
4658,216471.16859270865,2011-02-02 22:59:40,7.078012640349796,4,38,0.7899657487869263,4.199653148651123,13.889600433738872,14.003334347083326,57.351481970607466,47.43593242297841,-3.23295607813634e-05,0.1224850863218307,0,0,0
4659,216476.6684962606,2011-02-02 22:59:45,12.577916187266728,4,38,0.7399369478225708,4.199814796447754,13.890767230386045,14.003334347083326,57.35638222107411,47.43593242297841,0.0,0.1224850863218307,0,0,0
4660,216484.27971028283,2011-02-02 22:59:53,20.18913021453469,4,38,0.6899082064628601,4.199814796447754,13.892276274590706,14.003334347083326,57.36271982066887,47.43593242297841,0.0,0.1224850863218307,0,0,0
4661,216494.9045305792,2011-02-02 23:00:03,30.813950505876186,4,38,0.6398794054985046,4.199814796447754,13.89423433957062,14.003334347083326,57.37094320719324,47.43593242297841,3.23295607813634e-05,0.1224850863218307,0,0,0
4662,216510.19942226537,2011-02-02 23:00:19,46.10884221714118,4,38,0.5896700620651245,4.199653148651123,13.896839607861484,14.003334347083326,57.38188469159072,47.43593242297841,0.0,0.1224850863218307,0,0,0
4663,216535.16765309413,2011-02-02 23:00:44,71.07707302584903,4,38,0.539641261100769,4.199653148651123,13.900742264219714,14.003334347083326,57.39827494702626,47.43593242297841,-3.23295607813634e-05,0.1224850863218307,0,0,0
4664,216579.2917744412,2011-02-02 23:01:28,115.2011943728986,4,38,0.4896125197410583,4.199814796447754,13.907019978891896,14.003334347083326,57.424639837370094,47.43593242297841,3.23295607813634e-05,0.1224850863218307,0,0,0
4665,216656.4779465667,2011-02-02 23:02:45,192.38736649842684,4,38,0.4395837485790252,4.199653148651123,13.916944936570834,14.003334347083326,57.46632220520134,47.43593242297841,-3.23295607813634e-05,0.1224850863218307,0,0,0
4666,216768.92914752488,2011-02-02 23:04:38,304.83856745157163,4,38,0.3895549774169922,4.199653148651123,13.929868349800572,14.003334347083326,57.52059741155325,47.43593242297841,0.0,0.1224850863218307,0,0,0
4667,216911.3642157611,2011-02-02 23:07:00,447.2736356877911,4,38,0.3395262062549591,4.199814796447754,13.944268879960624,14.003334347083326,57.581076229886754,47.43593242297841,3.23295607813634e-05,0.1224850863218307,0,0,0
4668,217088.31434164097,2011-02-02 23:09:57,624.2237615676763,4,38,0.289497435092926,4.199814796447754,13.959702609486412,14.003334347083326,57.645894217106445,47.43593242297841,0.0,0.1224850863218307,0,0,0
4669,217309.2167496016,2011-02-02 23:13:38,845.1261695533483,4,38,0.2394686639308929,4.199653148651123,13.975891925397296,14.003334347083326,57.71388547910883,47.43593242297841,0.0,0.1224850863218307,0,0,0
4670,217593.41511043743,2011-02-02 23:18:22,1129.324530359126,4,38,0.1894398927688598,4.199653148651123,13.992759604020264,14.003334347083326,57.78472565897185,47.43593242297841,-9.70840483205393e-05,0.1224850863218307,0,0,0
4671,217978.5023124984,2011-02-02 23:24:47,1514.411732425044,4,38,0.1394111216068267,4.199814796447754,14.010234306960124,14.003334347083326,57.85811524354243,47.43593242297841,3.23295607813634e-05,0.1224850863218307,0,0,0
4672,218571.27346276093,2011-02-02 23:34:40,2107.182882692634,4,38,0.0893823504447937,4.199814796447754,14.0287771786992,14.003334347083326,57.93599086137211,47.43593242297841,-3.24249267578125e-05,0.1224850863218307,0,0,0
4673,219457.0084247801,2011-02-02 23:49:26,2992.9178447168324,4,38,0.0498289167881011,4.199653148651123,14.045369308185164,14.003334347083326,58.00567390834949,47.43593242297841,0.0,0.1224850863218307,0,0,0
4674,219487.03159959835,2011-02-02 23:49:56,30.015204956198527,5,38,0.0,4.188807010650635,14.045369308185164,14.003334347083326,58.00567390834949,47.43593242297841,-3.23295607813634e-05,0.1224850863218307,0,0,0
4675,219517.031082756,2011-02-02 23:50:26,60.0146880887751,5,38,0.0,4.187188148498535,14.045369308185164,14.003334347083326,58.00567390834949,47.43593242297841,-3.23295607813634e-05,0.1224850863218307,0,0,0
4676,219517.2118948604,2011-02-02 23:50:26,0.187413878049909,6,38,-1.9243103452026844e-05,4.186864376068115,14.045369308185164,14.003334348085112,58.00567390834949,47.43593242717274,0.0,0.1222637891769409,0,0,0
4677,219522.03993011985,2011-02-02 23:50:31,5.015449137465684,6,38,0.0007031940040178,4.187026023864746,14.045370045599949,14.003334348335516,58.00567699605349,47.43593242822128,-3.24249267578125e-05,0.1222637891769409,0,0,0
4678,219529.17404212916,2011-02-02 23:50:38,7.140625651238472,7,38,-1.099568486213684,3.986935377120972,14.045370045599949,14.00551530634689,58.00567699605349,47.444654545008966,-0.0025253773201256,0.1222637891769409,0,0,0
4679,219559.19095852572,2011-02-02 23:51:08,37.15754205288565,7,38,-1.099568486213684,3.914086580276489,14.045370045599949,14.01468333696972,58.00567699605349,47.48086868478693,-0.0019102573860436,0.1222637891769409,0,0,0
4680,219589.2042697522,2011-02-02 23:51:38,67.17085327431445,7,38,-1.0993878841400146,3.836219549179077,14.045370045599949,14.023850302672834,58.00567699605349,47.51640109579375,-0.0022016526199877,0.1222637891769409,0,0,0
4681,219619.2192549106,2011-02-02 23:52:08,97.1858384427342,7,38,-1.099568486213684,3.753334045410156,14.045370045599949,14.033017804329711,58.00567699605349,47.5511848140555,-0.0021045207977294,0.1222637891769409,0,0,0
4682,219649.2343572711,2011-02-02 23:52:38,127.2009407881952,7,38,-1.099568486213684,3.683885097503662,14.045370045599949,14.042185311040043,58.00567699605349,47.58526276337367,-0.0016512393485754,0.1222637891769409,0,0,0
4683,219679.24945290983,2011-02-02 23:53:08,157.21603643195348,7,38,-1.099568486213684,3.630786657333374,14.045370045599949,14.051352849508069,58.00567699605349,47.61878093007682,-0.0012950897216796,0.1222637891769409,0,0,0
4684,219709.26459005705,2011-02-02 23:53:38,187.23117357413864,7,38,-1.099568486213684,3.589667797088623,14.045370045599949,14.060520298418808,58.00567699605349,47.65187053093644,-0.0009712696191854,0.1222637891769409,0,0,0
4685,219739.27969559547,2011-02-02 23:54:08,217.2462791175699,7,38,-1.099568486213684,3.556804895401001,14.045370045599949,14.06968778220366,58.00567699605349,47.68462331477596,-0.0008094310760498,0.1222637891769409,0,0,0
4686,219769.2973724173,2011-02-02 23:54:38,247.26395608478057,7,38,-1.099568486213684,3.5287985801696777,14.045370045599949,14.078856088629236,58.00567699605349,47.7171018257041,-0.0007122993702068,0.1222637891769409,0,0,0
4687,219799.3100611724,2011-02-02 23:55:08,277.2766447044943,7,38,-1.0993878841400146,3.5048396587371826,14.045370045599949,14.088022878041697,58.00567699605349,47.74933781555508,-0.0005827903514727,0.1222637891769409,0,0,0
4688,219829.3250315489,2011-02-02 23:55:38,307.2916150710232,7,38,-1.099568486213684,3.483308792114258,14.045370045599949,14.097190445085504,58.00567699605349,47.78136772372077,-0.0005504131549969,0.1222637891769409,0,0,0
4689,219859.34028329173,2011-02-02 23:56:08,337.3068668088158,7,38,-1.099568486213684,3.4638824462890625,14.045370045599949,14.106357994996094,58.00567699605349,47.81321042228464,-0.0005180359003134,0.1222637891769409,0,0,0
4690,219889.35529628448,2011-02-02 23:56:38,367.3218798416824,7,38,-1.0992072820663452,3.4465606212615967,14.045370045599949,14.115525433848788,58.00567699605349,47.84488334176904,-0.0003561496851034,0.1222637891769409,0,0,0
4691,219919.3704083943,2011-02-02 23:57:08,397.3369919163917,7,38,-1.0997490882873535,3.42956280708313,14.045370045599949,14.124692993707708,58.00567699605349,47.8764002276336,-0.0004208564641885,0.1222637891769409,0,0,0
4692,219949.3855007699,2011-02-02 23:57:38,427.3520842920048,7,38,-1.099568486213684,3.4140217304229736,14.045370045599949,14.133860452026676,58.00567699605349,47.90776936955307,-0.0004209041653666,0.1222637891769409,0,0,0
4693,219979.40061531577,2011-02-02 23:58:08,457.3671988378728,7,38,-1.0993878841400146,3.399290084838867,14.045370045599949,14.1430279958282,58.00567699605349,47.93899908580086,-0.0003561496851034,0.1222637891769409,0,0,0
4694,220009.41573553576,2011-02-02 23:58:38,487.38231905287023,7,38,-1.099568486213684,3.384396553039551,14.045370045599949,14.152195523543597,58.00567699605349,47.97009299238646,-0.0003561496851034,0.1222637891769409,0,0,0
4695,220039.43109152332,2011-02-02 23:59:08,517.3976750505105,7,38,-1.099568486213684,3.3696649074554443,14.045370045599949,14.1613631812841,58.00567699605349,48.00105231978191,-0.0003885269106831,0.1222637891769409,0,0,0
4696,220069.44599384032,2011-02-02 23:59:38,547.4125773624263,7,38,-1.099568486213684,3.355418920516968,14.045370045599949,14.170530677383114,58.00567699605349,48.03187904153748,-0.0003885269106831,0.1222637891769409,0,0,0
4697,220099.46108382492,2011-02-03 00:00:08,577.4276673470804,7,38,-1.099568486213684,3.3405256271362305,14.045370045599949,14.179698269479704,58.00567699605349,48.0625718859078,-0.0004209041653666,0.1222637891769409,0,0,0
4698,220129.4762344207,2011-02-03 00:00:38,607.4428179478084,7,38,-1.099568486213684,3.325146436691284,14.045370045599949,14.18886582236216,58.00567699605349,48.093126876691805,-0.0004532813909463,0.1222637891769409,0,0,0
4699,220159.4932912824,2011-02-03 00:01:08,637.4598748245628,7,38,-1.099568486213684,3.308957815170288,14.045370045599949,14.198033927328002,58.00567699605349,48.123539715185984,-0.0004209041653666,0.1222637891769409,0,0,0
4700,220189.50654834887,2011-02-03 00:01:38,667.4731318809957,7,38,-1.099568486213684,3.291959762573242,14.045370045599949,14.2072008577309,58.00567699605349,48.15379635234919,-0.0004532813909463,0.1222637891769409,0,0,0
4701,220219.52154513623,2011-02-03 00:02:09,697.4881286583485,7,38,-1.0993878841400146,3.2736666202545166,14.045370045599949,14.216368326873416,58.00567699605349,48.18389319722956,-0.0005180359003134,0.1222637891769409,0,0,0
4702,220249.53921100585,2011-02-03 00:02:39,727.5057945529629,7,38,-1.0997490882873535,3.2535929679870605,14.045370045599949,14.225536581837384,58.00567699605349,48.21381689579805,-0.0005504131549969,0.1222637891769409,0,0,0
4703,220279.5520158001,2011-02-03 00:03:09,757.5185993321818,7,38,-1.0993878841400146,3.231900215148926,14.045370045599949,14.234703327648642,58.00567699605349,48.243545240911295,-0.0006151676061563,0.1222637891769409,0,0,0
4704,220309.5668742276,2011-02-03 00:03:39,787.5334577597241,7,38,-1.099568486213684,3.2087504863739014,14.045370045599949,14.243870744043967,58.00567699605349,48.27306977667997,-0.0006799221155233,0.1222637891769409,0,0,0
4705,220339.5821533737,2011-02-03 00:04:09,817.5487368958019,7,38,-1.099568486213684,3.1833345890045166,14.045370045599949,14.253038288002555,58.00567699605349,48.30237158092464,-0.0007122993702068,0.1222637891769409,0,0,0
4706,220369.59712780532,2011-02-03 00:04:39,847.5637113324747,7,38,-1.099568486213684,3.154195070266724,14.045370045599949,14.262205779640862,58.00567699605349,48.33142335366048,-0.0008418083307333,0.1222637891769409,0,0,0
4707,220399.61222349424,2011-02-03 00:05:09,877.5788070163329,7,38,-1.0997490882873535,3.122141599655152,14.045370045599949,14.271373293841355,58.00567699605349,48.36019647242806,-0.0009065627818927,0.1222637891769409,0,0,0
4708,220429.6273376441,2011-02-03 00:05:39,907.5939211662144,7,38,-1.0993878841400146,3.0857174396514893,14.045370045599949,14.280540879705326,58.00567699605349,48.38865536419329,-0.0010360718006268,0.1222637891769409,0,0,0
4709,220459.64244969373,2011-02-03 00:06:09,937.6090332158608,7,38,-1.0993878841400146,3.0436270236968994,14.045370045599949,14.289708430544554,58.00567699605349,48.416755577327486,-0.0011655807029455,0.1222637891769409,0,0,0
4710,220489.6575811217,2011-02-03 00:06:39,967.624164668867,7,38,-1.099568486213684,2.9944138526916504,14.045370045599949,14.29887597686688,58.00567699605349,48.444438491261394,-0.0013922214275225,0.1222637891769409,0,0,0
4711,220519.6728052156,2011-02-03 00:07:09,997.6393887377,7,38,-1.099568486213684,2.934354305267334,14.045370045599949,14.308043451450525,58.00567699605349,48.47162403801834,-0.0017483711708337,0.1222637891769409,0,0,0
4712,220549.68783773703,2011-02-03 00:07:39,1027.6544212591382,7,38,-1.0997490882873535,2.860048770904541,14.045370045599949,14.31721094436098,58.00567699605349,48.49819790967774,-0.0022016048897057,0.1222637891769409,0,0,0
4713,220579.70291455387,2011-02-03 00:08:09,1057.669498075974,7,38,-1.0993878841400146,2.765507459640503,14.045370045599949,14.326378421534322,58.00567699605349,48.524002693674525,-0.002816820051521,0.1222637891769409,0,0,0
4714,220597.780983018,2011-02-03 00:08:27,1075.747566570144,7,38,-1.099568486213684,2.699943780899048,14.045370045599949,14.331900039674789,58.00567699605349,48.53909202859157,-0.0028815269470214,0.1222637891769409,0,0,0
4715,220657.7915062296,2011-02-03 00:09:27,60.01461078611308,8,38,0.0,3.765313625335693,14.045370045599949,14.331900039674789,58.00567699605349,48.53909202859157,0.0006799221155233,0.1222637891769409,0,0,0
4716,220657.97800820332,2011-02-03 00:09:27,0.189318956090564,9,38,-1.9243103452026844e-05,3.765313625335693,14.045370045599949,14.331900040686756,58.00567699605349,48.539092032401946,0.0,0.1216739267110824,0,0,0
4717,220662.8040326763,2011-02-03 00:09:32,5.01534338890774,9,38,0.0008838032954372,3.769846439361572,14.04537077238112,14.33190004084338,58.0056797345583,48.539092032992,0.0006475448608398,0.1216739267110824,0,0,0
