Data_Point,Test_Time(s),Date_Time,Step_Time(s),Step_Index,Cycle_Index,Current(A),Voltage(V),Charge_Capacity(Ah),Discharge_Capacity(Ah),Charge_Energy(Wh),Discharge_Energy(Wh),dV/dt(V/s),Internal_Resistance(Ohm),Is_FC_Data,AC_Impedance(Ohm),ACI_Phase_Angle(Deg)
1912,89440.34073073277,2011-02-01 11:42:01,30.015157813704924,1,15,0.0,3.760295152664185,5.677775236852831,6.033488793662777,23.42523888877503,20.51957925338852,0.0003561496851034,0.1200516074895858,0,0,0
1913,89470.35593831551,2011-02-01 11:42:31,60.0303654064746,1,15,0.0,3.7729222774505615,5.677775236852831,6.033488793662777,23.42523888877503,20.51957925338852,0.0002913951757363,0.1200516074895858,0,0,0
1914,89500.37362605457,2011-02-01 11:43:02,90.0480531756069,1,15,0.0,3.782473564147949,5.677775236852831,6.033488793662777,23.42523888877503,20.51957925338852,0.0001942634553415,0.1200516074895858,0,0,0
1915,89530.33916225594,2011-02-01 11:43:31,120.0135893368858,1,15,0.0,3.789920330047608,5.677775236852831,6.033488793662777,23.42523888877503,20.51957925338852,0.0001295089750783,0.1200516074895858,0,0,0
1916,89560.35413813984,2011-02-01 11:44:02,30.015075132638263,2,15,0.5501165986061096,3.911658525466919,5.682361295202605,6.033488793662777,23.44309742220361,20.51957925338852,0.0007446765666827,0.1200516074895858,0,0,0
1917,89590.36923653046,2011-02-01 11:44:32,60.03017354830501,2,15,0.5499359965324402,3.932217836380005,5.686947405839302,6.033488793662777,23.46108737744541,20.51957925338852,0.0004856586456298,0.1200516074895858,0,0,0
1918,89620.38438062997,2011-02-01 11:45:02,90.04531762276751,2,15,0.5497553944587708,3.9466257095336914,5.691533502162685,6.033488793662777,23.47915587226573,20.51957925338852,0.0003237724304199,0.1200516074895858,0,0,0
1919,89650.39949120594,2011-02-01 11:45:32,120.06042819874148,2,15,0.5501165986061096,3.9590909481048575,5.696119557495097,6.033488793662777,23.49728488218733,20.51957925338852,0.0003561496851034,0.1200516074895858,0,0,0
1920,89680.41459108025,2011-02-01 11:46:02,150.0755280730436,2,15,0.5499359965324402,3.969613552093506,5.700705641823016,6.033488793662777,23.5154661742593,20.51957925338852,0.0002590179501567,0.1200516074895858,0,0,0
1921,89710.42970331034,2011-02-01 11:46:32,180.09064030314013,2,15,0.5501165986061096,3.9794886112213135,5.705291660235966,6.033488793662777,23.53369423845293,20.51957925338852,0.0002266406954731,0.1200516074895858,0,0,0
1922,89740.44497238635,2011-02-01 11:47:02,210.10590938415743,2,15,0.5499359965324402,3.9885542392730713,5.709877638422817,6.033488793662777,23.551965593272023,20.51957925338852,0.0002266406954731,0.1200516074895858,0,0,0
1923,89770.45995447208,2011-02-01 11:47:32,240.1208914648817,2,15,0.5501165986061096,3.99713397026062,5.714463553604684,6.033488793662777,23.57027688733258,20.51957925338852,0.0002266406954731,0.1200516074895858,0,0,0
1924,89800.47506392024,2011-02-01 11:48:02,270.1360009130448,2,15,0.5501165986061096,4.005066394805908,5.71904949085977,6.033488793662777,23.588625559119265,20.51957925338852,0.0002265930233988,0.1200516074895858,0,0,0
1925,89830.49018315782,2011-02-01 11:48:32,300.1511201506062,2,15,0.5501165986061096,4.012351512908936,5.723635500054864,6.033488793662777,23.60700926136576,20.51957925338852,0.0001942634553415,0.1200516074895858,0,0,0
1926,89860.5053007613,2011-02-01 11:49:02,330.1662377540948,2,15,0.5499359965324402,4.019150733947754,5.728221449915449,6.033488793662777,23.62542535489084,20.51957925338852,0.0001619339018361,0.1200516074895858,0,0,0
1927,89890.52042845494,2011-02-01 11:49:32,360.1813654477313,2,15,0.5501165986061096,4.025787830352783,5.732807385066633,6.033488793662777,23.64387199116605,20.51957925338852,0.0002265930233988,0.1200516074895858,0,0,0
1928,89920.52101004019,2011-02-01 11:50:02,390.1819470881273,2,15,0.5499359965324402,4.031777858734131,5.737391110830851,6.033488793662777,23.66233878104141,20.51957925338852,0.0001295089750783,0.1200516074895858,0,0,0
1929,89950.53518003193,2011-02-01 11:50:32,420.19611704980105,2,15,0.5499359965324402,4.037605285644531,5.741976962010642,6.033488793662777,23.680841681807745,20.51957925338852,0.0001295089750783,0.1200516074895858,0,0,0
1930,89980.55009771216,2011-02-01 11:51:02,450.2110347099695,2,15,0.5499359965324402,4.04310941696167,5.746562744471698,6.033488793662777,23.69937044957295,20.51957925338852,0.0001295089750783,0.1200516074895858,0,0,0
1931,90010.56535462284,2011-02-01 11:51:32,480.22629164571697,2,15,0.5497553944587708,4.048613548278809,5.751148028169127,6.033488793662777,23.71792206604375,20.51957925338852,0.0001618385285837,0.1200516074895858,0,0,0
1932,90040.58245026623,2011-02-01 11:52:02,510.2433872941023,2,15,0.550297200679779,4.053793907165527,5.755733662368826,6.033488793662777,23.73649915936957,20.51957925338852,0.0001618385285837,0.1200516074895858,0,0,0
1933,90070.59548523414,2011-02-01 11:52:32,540.2564222319473,2,15,0.5497553944587708,4.058650493621826,5.76031862472929,6.033488793662777,23.755096785478692,20.51957925338852,0.0001295089750783,0.1200516074895858,0,0,0
1934,90100.61068386458,2011-02-01 11:53:02,570.27162090248,2,15,0.5497553944587708,4.063183307647705,5.76490387917696,6.033488793662777,23.7737177111446,20.51957925338852,9.70840483205393e-05,0.1200516074895858,0,0,0
1935,90130.62571177453,2011-02-01 11:53:32,600.2866487673124,2,15,0.5499359965324402,4.068039894104004,5.76948912470141,6.033488793662777,23.79236012112921,20.51957925338852,9.70840483205393e-05,0.1200516074895858,0,0,0
1936,90160.64109144616,2011-02-01 11:54:02,630.3020284339431,2,15,0.5499359965324402,4.072572708129883,5.774074339122826,6.033488793662777,23.811023545184145,20.51957925338852,9.70840483205393e-05,0.1200516074895858,0,0,0
1937,90190.656083597,2011-02-01 11:54:32,660.3170205897776,2,15,0.5501165986061096,4.077105522155762,5.7786604330848,6.033488793662777,23.829711486003653,20.51957925338852,0.0001295089750783,0.1200516074895858,0,0,0
1938,90220.67110012357,2011-02-01 11:55:02,690.3320371564515,2,15,0.5501165986061096,4.08147668838501,5.783246533304937,6.033488793662777,23.84841989221308,20.51957925338852,6.47544875391759e-05,0.1200516074895858,0,0,0
1939,90250.68631050328,2011-02-01 11:55:32,720.3472475010796,2,15,0.5499359965324402,4.0858473777771,5.787832667727689,6.033488793662777,23.86714849324793,20.51957925338852,9.70840483205393e-05,0.1200516074895858,0,0,0
1940,90280.70132365142,2011-02-01 11:56:02,750.362260644221,2,15,0.550297200679779,4.090218544006348,5.792418236200054,6.033488793662777,23.88589444616514,20.51957925338852,9.71794142969884e-05,0.1200516074895858,0,0,0
1941,90310.71643634768,2011-02-01 11:56:32,780.3773733404794,2,15,0.5499359965324402,4.094265460968018,5.797003460238756,6.033488793662777,23.904658389011384,20.51957925338852,9.70840483205393e-05,0.1200516074895858,0,0,0
1942,90340.73164330889,2011-02-01 11:57:02,810.3925803367622,2,15,0.5499359965324402,4.0987982749938965,5.801588709856863,6.033488793662777,23.923441755769677,20.51957925338852,0.0001295089750783,0.1200516074895858,0,0,0
1943,90370.74665176534,2011-02-01 11:57:32,840.4075887481107,2,15,0.5499359965324402,4.102521896362305,5.806173856881372,6.033488793662777,23.94224379875194,20.51957925338852,9.71794142969884e-05,0.1200516074895858,0,0,0
1944,90400.76197030462,2011-02-01 11:58:02,870.4229073074432,2,15,0.5499359965324402,4.1068925857543945,5.810759054504143,6.033488793662777,23.96106500337151,20.51957925338852,9.70840483205393e-05,0.1200516074895858,0,0,0
1945,90430.7770507906,2011-02-01 11:58:32,900.4379878134736,2,15,0.5497553944587708,4.110939979553223,5.815344300622577,6.033488793662777,23.97990517907705,20.51957925338852,9.71794142969884e-05,0.1200516074895858,0,0,0
1946,90460.79204687622,2011-02-01 11:59:02,930.4529838790525,2,15,0.5499359965324402,4.114986896514893,5.819929943605034,6.033488793662777,23.99876569514724,20.51957925338852,9.70840483205393e-05,0.1200516074895858,0,0,0
1947,90490.80717743702,2011-02-01 11:59:32,960.4681144298096,2,15,0.5501165986061096,4.1190338134765625,5.824515825182488,6.033488793662777,24.017645776417584,20.51957925338852,0.0001295089750783,0.1200516074895858,0,0,0
1948,90520.82475381352,2011-02-01 12:00:02,990.48569083138,2,15,0.5501165986061096,4.123081207275391,5.829102120875118,6.033488793662777,24.0365462082724,20.51957925338852,0.0001295089750783,0.1200516074895858,0,0,0
1949,90550.83740950115,2011-02-01 12:00:32,1020.4983465140042,2,15,0.5499359965324402,4.1271281242370605,5.833687656686949,6.033488793662777,24.055462111200796,20.51957925338852,9.70840483205393e-05,0.1200516074895858,0,0,0
1950,90580.85253028758,2011-02-01 12:01:02,1050.5134672803758,2,15,0.5501165986061096,4.13133716583252,5.838273613924584,6.033488793662777,24.074398406946937,20.51957925338852,0.0001295089750783,0.1200516074895858,0,0,0
1951,90610.86766843728,2011-02-01 12:01:32,1080.528605440097,2,15,0.5499359965324402,4.135222434997559,5.842859695350181,6.033488793662777,24.093353821047582,20.51957925338852,9.70840483205393e-05,0.1200516074895858,0,0,0
1952,90640.88476322852,2011-02-01 12:02:02,1110.5457002564085,2,15,0.5499359965324402,4.139269828796387,5.847445962463111,6.033488793662777,24.11232850553085,20.51957925338852,9.71794142969884e-05,0.1200516074895858,0,0,0
1953,90670.8978834389,2011-02-01 12:02:32,1140.5588204316914,2,15,0.5499359965324402,4.143316745758057,5.852031688116547,6.033488793662777,24.13131962605542,20.51957925338852,9.70840483205393e-05,0.1200516074895858,0,0,0
1954,90700.91311223952,2011-02-01 12:03:02,1170.5740493425922,2,15,0.5499359965324402,4.147525787353516,5.856617623835454,6.033488793662777,24.150330367714616,20.51957925338852,9.70840483205393e-05,0.1200516074895858,0,0,0
1955,90730.92814006924,2011-02-01 12:03:32,1200.589077087125,2,15,0.5501165986061096,4.151734828948975,5.861203523538131,6.033488793662777,24.169359732950625,20.51957925338852,9.70840483205393e-05,0.1200516074895858,0,0,0
1956,90760.943270204,2011-02-01 12:04:02,1230.6042072218452,2,15,0.5499359965324402,4.155620098114014,5.865789464770831,6.033488793662777,24.188407970090875,20.51957925338852,9.70840483205393e-05,0.1200516074895858,0,0,0
1957,90790.95838117597,2011-02-01 12:04:32,1260.6193181687438,2,15,0.5499359965324402,4.159829139709473,5.87037540713034,6.033488793662777,24.20747509944435,20.51957925338852,0.0001295089750783,0.1200516074895858,0,0,0
1958,90820.9734659476,2011-02-01 12:05:02,1290.6344029303802,2,15,0.5501165986061096,4.164038181304932,5.87496137855903,6.033488793662777,24.226561297946105,20.51957925338852,0.0001295089750783,0.1200516074895858,0,0,0
1959,90850.98858802224,2011-02-01 12:05:32,1320.6495250150374,2,15,0.5499359965324402,4.16808557510376,5.879547296854915,6.033488793662777,24.24566609751522,20.51957925338852,0.0001295089750783,0.1200516074895858,0,0,0
1960,90881.00376368544,2011-02-01 12:06:02,1350.6647007032911,2,15,0.5499359965324402,4.172294616699219,5.884133292716304,6.033488793662777,24.264790204419924,20.51957925338852,0.0001295089750783,0.1200516074895858,0,0,0
1961,90911.01882666278,2011-02-01 12:06:32,1380.6797636555723,2,15,0.5499359965324402,4.176341533660889,5.888719241183283,6.033488793662777,24.283933294615565,20.51957925338852,9.70840483205393e-05,0.1200516074895858,0,0,0
1962,90941.03390855726,2011-02-01 12:07:02,1410.6948455450506,2,15,0.5499359965324402,4.180550575256348,5.893305012796791,6.033488793662777,24.30309498268454,20.51957925338852,9.70840483205393e-05,0.1200516074895858,0,0,0
1963,90971.04901993024,2011-02-01 12:07:32,1440.7099569430736,2,15,0.5497553944587708,4.184759616851807,5.897890176661186,6.033488793662777,24.322273406316185,20.51957925338852,9.70840483205393e-05,0.1200516074895858,0,0,0
1964,91001.06418957342,2011-02-01 12:08:02,1470.7251266012986,2,15,0.5499359965324402,4.188968658447266,5.902475491918588,6.033488793662777,24.34147177474684,20.51957925338852,9.70840483205393e-05,0.1200516074895858,0,0,0
1965,91031.07926739276,2011-02-01 12:08:32,1500.7402043855457,2,15,0.5499359965324402,4.193177700042725,5.907060652015269,6.033488793662777,24.360688967966304,20.51957925338852,6.47544875391759e-05,0.1200516074895858,0,0,0
1966,91061.09450490007,2011-02-01 12:09:02,1530.7554419129217,2,15,0.5495747923851013,4.1972246170043945,5.911645883136704,6.033488793662777,24.379925916942373,20.51957925338852,3.23295607813634e-05,0.1200516074895858,0,0,0
1967,91077.51597565296,2011-02-01 12:09:19,1547.176912645748,2,15,0.5501165986061096,4.200138568878174,5.914154491308483,6.033488793662777,24.39045885103584,20.51957925338852,0.0001618385285837,0.1200516074895858,0,0,0
1968,91107.53365174272,2011-02-01 12:09:49,30.015065924689225,3,15,0.0,4.090542316436768,5.914154491308483,6.033488793662777,24.39045885103584,20.51957925338852,-0.0004532813909463,0.1200516074895858,0,0,0
1969,91137.54877642384,2011-02-01 12:10:19,60.03019061083006,3,15,0.0,4.0780768394470215,5.914154491308483,6.033488793662777,24.39045885103584,20.51957925338852,-0.0003237724304199,0.1200516074895858,0,0,0
1970,91167.56392473388,2011-02-01 12:10:49,90.0453389108239,3,15,0.0,4.070306301116943,5.914154491308483,6.033488793662777,24.39045885103584,20.51957925338852,-0.0001619339018361,0.1200516074895858,0,0,0
1971,91197.5321316515,2011-02-01 12:11:19,120.01354583346186,3,15,0.0,4.064640522003174,5.914154491308483,6.033488793662777,24.39045885103584,20.51957925338852,-0.0001618385285837,0.1200516074895858,0,0,0
1972,91197.54215068616,2011-02-01 12:11:19,0.013189712822727,4,15,0.9570293426513672,4.199653148651123,5.914158030443069,6.033488793662777,24.390473714745763,20.51957925338852,-6.47544875391759e-05,0.1200516074895858,0,0,0
1973,91198.54214261372,2011-02-01 12:11:20,1.013181660446035,4,15,0.9060974717140198,4.199653148651123,5.914414903747151,6.033488793662777,24.39155252543025,20.51957925338852,-6.47544875391759e-05,0.1200516074895858,0,0,0
1974,91200.99520636338,2011-02-01 12:11:23,3.466245395061538,4,15,0.8557075262069702,4.199814796447754,5.915013782405211,6.033488793662777,24.39406767668148,20.51957925338852,-3.24249267578125e-05,0.1200516074895858,0,0,0
1975,91204.83913533212,2011-02-01 12:11:26,7.310174413923933,4,15,0.8053175210952759,4.199814796447754,5.915899165647799,6.033488793662777,24.397786104752864,20.51957925338852,0.0,0.1200516074895858,0,0,0
1976,91210.21382714288,2011-02-01 12:11:32,12.684866214642648,4,15,0.7552887797355652,4.199653148651123,5.917062486714392,6.033488793662777,24.402671814542675,20.51957925338852,-3.23295607813634e-05,0.1200516074895858,0,0,0
1977,91217.54181457232,2011-02-01 12:11:39,20.012853603982236,4,15,0.7052599787712097,4.199814796447754,5.918546617315015,6.033488793662777,24.40890486359991,20.51957925338852,3.23295607813634e-05,0.1200516074895858,0,0,0
1978,91227.49465864716,2011-02-01 12:11:49,29.965697678830317,4,15,0.655231237411499,4.199814796447754,5.92042376285002,6.033488793662777,24.41678851089041,20.51957925338852,0.0,0.1200516074895858,0,0,0
1979,91241.84057745597,2011-02-01 12:12:03,44.31161660291803,4,15,0.6052024364471436,4.199653148651123,5.922928775936916,6.033488793662777,24.42730910151729,20.51957925338852,-3.23295607813634e-05,0.1200516074895858,0,0,0
1980,91264.04098890716,2011-02-01 12:12:26,66.51202793385052,4,15,0.5551736950874329,4.199653148651123,5.9264948118651,6.033488793662777,24.442285791834404,20.51957925338852,-3.23295607813634e-05,0.1200516074895858,0,0,0
1981,91303.82175201912,2011-02-01 12:13:05,106.2927910457602,4,15,0.5051448941230774,4.199491024017334,5.932327164809767,6.033488793662777,24.46678063673671,20.51957925338852,-3.24249267578125e-05,0.1200516074895858,0,0,0
1982,91377.03913619887,2011-02-01 12:14:19,179.51017523057465,4,15,0.4551161229610443,4.199653148651123,5.942050339067913,6.033488793662777,24.507616208727164,20.51957925338852,-3.23295607813634e-05,0.1200516074895858,0,0,0
1983,91488.7247338781,2011-02-01 12:16:10,291.1957729198156,4,15,0.4050873517990112,4.199653148651123,5.955361550025653,6.033488793662777,24.56352013521496,20.51957925338852,0.0,0.1200516074895858,0,0,0
1984,91633.61301104582,2011-02-01 12:18:35,436.08405010256325,4,15,0.3550585806369781,4.199653148651123,5.970641505698995,6.033488793662777,24.627693074053788,20.51957925338852,0.0,0.1200516074895858,0,0,0
1985,91809.56304701391,2011-02-01 12:21:31,612.0340860456059,4,15,0.3048492074012756,4.199814796447754,5.98675265636748,6.033488793662777,24.695356990186585,20.51957925338852,0.0,0.1200516074895858,0,0,0
1986,92029.59058603196,2011-02-01 12:25:11,832.06162506362,4,15,0.2548204362392425,4.199814796447754,6.003833737294529,6.033488793662777,24.767094319964983,20.51957925338852,0.0,0.1200516074895858,0,0,0
1987,92304.75785643164,2011-02-01 12:29:46,1107.2288954933836,4,15,0.2047916799783706,4.199976921081543,6.021350429213435,6.033488793662777,24.840661178841103,20.51957925338852,0.0,0.1200516074895858,0,0,0
1988,92667.32995124756,2011-02-01 12:35:49,1469.8009902792344,4,15,0.1547629088163375,4.199814796447754,6.039358032486959,6.033488793662777,24.91628965846695,20.51957925338852,0.0,0.1200516074895858,0,0,0
1989,93188.039787142,2011-02-01 12:44:30,1990.5108261736943,4,15,0.1047341376543045,4.199653148651123,6.057932813191042,6.033488793662777,24.994300248802,20.51957925338852,0.0,0.1200516074895858,0,0,0
1990,94132.52377944627,2011-02-01 13:00:14,2934.9948184829886,4,15,0.0547053664922714,4.199814796447754,6.078098057039682,6.033488793662777,25.07899043827028,20.51957925338852,0.0,0.1200516074895858,0,0,0
1991,94282.00563619772,2011-02-01 13:02:44,3084.476675229418,4,15,0.0498289167881011,4.199653148651123,6.080282013982051,6.033488793662777,25.08816265043586,20.51957925338852,0.0,0.1200516074895858,0,0,0
1992,94312.02293847738,2011-02-01 13:03:14,30.01523206375891,5,15,0.0,4.189130783081055,6.080282013982051,6.033488793662777,25.08816265043586,20.51957925338852,-6.47544875391759e-05,0.1200516074895858,0,0,0
1993,94342.02228029276,2011-02-01 13:03:44,60.01457388414202,5,15,0.0,4.187511920928955,6.080282013982051,6.033488793662777,25.08816265043586,20.51957925338852,-6.47544875391759e-05,0.1200516074895858,0,0,0
1994,94342.21282178751,2011-02-01 13:03:44,0.187428504503532,6,15,-1.9243103452026844e-05,4.187511920928955,6.080282013982051,6.033488794664639,25.08816265043586,20.519579257583832,0.0,0.1206444054841995,0,0,0
1995,94347.04126478315,2011-02-01 13:03:49,5.01587156528579,6,15,0.0003419754502829,4.187511920928955,6.080282657909885,6.033488794845203,25.08816534696412,20.519579258339945,-3.23295607813634e-05,0.1206444054841995,0,0,0
1996,94356.60639592222,2011-02-01 13:03:59,9.562319537539713,7,15,-1.099568486213684,3.9874210357666016,6.080282657909885,6.036409563029922,25.08816534696412,20.531267224299967,-0.0021368502639234,0.1206444054841995,0,0,0
1997,94386.62150476388,2011-02-01 13:04:29,39.57742835914125,7,15,-1.0993878841400146,3.921695232391357,6.080282657909885,6.045577424619148,25.08816534696412,20.567518262550813,-0.0017159938579425,0.1206444054841995,0,0,0
1998,94416.63665814654,2011-02-01 13:04:59,69.59258174681514,7,15,-1.0993878841400146,3.856779098510742,6.080282657909885,6.054745405014116,25.08816534696412,20.603176942838303,-0.0017159938579425,0.1206444054841995,0,0,0
1999,94446.65189700724,2011-02-01 13:05:29,99.60782063257658,7,15,-1.0993878841400146,3.791377305984497,6.080282657909885,6.063913351503865,25.08816534696412,20.638232994764124,-0.0016512393485754,0.1206444054841995,0,0,0
2000,94476.66684621102,2011-02-01 13:05:59,129.62276980628644,7,15,-1.099568486213684,3.73552680015564,6.080282657909885,6.0730812498143,25.08816534696412,20.67272485411649,-0.0012950897216796,0.1206444054841995,0,0,0
2001,94506.68197016034,2011-02-01 13:06:29,159.63789375559085,7,15,-1.0997490882873535,3.69165563583374,6.080282657909885,6.082249163404944,25.08816534696412,20.70676291185664,-0.0010360718006268,0.1206444054841995,0,0,0
2002,94536.69728715078,2011-02-01 13:06:59,189.65321074601312,7,15,-1.099568486213684,3.656688451766968,6.080282657909885,6.091416523308256,25.08816534696412,20.74044052460107,-0.0008741855854168,0.1206444054841995,0,0,0
2003,94566.7122641438,2011-02-01 13:07:29,219.66818773905737,7,15,-1.099568486213684,3.6277108192443848,6.080282657909885,6.100583694128329,25.08816534696412,20.773825817520933,-0.0007122993702068,0.1206444054841995,0,0,0
2004,94596.72751774624,2011-02-01 13:07:59,249.68344136655972,7,15,-1.099568486213684,3.602618455886841,6.080282657909885,6.109751130256347,25.08816534696412,20.806965242336737,-0.0006151676061563,0.1206444054841995,0,0,0
2005,94626.74249897484,2011-02-01 13:08:29,279.6984225801228,7,15,-1.099568486213684,3.5804402828216557,6.080282657909885,6.118919074549173,25.08816534696412,20.8398902602716,-0.0005504131549969,0.1206444054841995,0,0,0
2006,94656.75772909376,2011-02-01 13:08:59,309.713652714072,7,15,-1.0997490882873535,3.56020450592041,6.080282657909885,6.128087139795927,25.08816534696412,20.87262219091932,-0.0005827903514727,0.1206444054841995,0,0,0
2007,94686.77477304327,2011-02-01 13:09:29,339.7306966736328,7,15,-1.099568486213684,3.541911363601685,6.080282657909885,6.137255673517467,25.08816534696412,20.9051792195473,-0.0004532813909463,0.1206444054841995,0,0,0
2008,94716.78785199585,2011-02-01 13:09:59,369.7437755910885,7,15,-1.0993878841400146,3.5247514247894287,6.080282657909885,6.146422842982686,25.08816534696412,20.93756817967104,-0.0004209041653666,0.1206444054841995,0,0,0
2009,94746.80296677227,2011-02-01 13:10:29,399.75889036753136,7,15,-1.099568486213684,3.508563041687012,6.080282657909885,6.155590161884895,25.08816534696412,20.96980583617148,-0.0004209041653666,0.1206444054841995,0,0,0
2010,94776.81821176324,2011-02-01 13:10:59,429.7741353585089,7,15,-1.099568486213684,3.4936695098876958,6.080282657909885,6.164757520007843,25.08816534696412,21.001902213838413,-0.0004209041653666,0.1206444054841995,0,0,0
2011,94806.83325538736,2011-02-01 13:11:29,459.7891789776058,7,15,-1.099568486213684,3.4795854091644287,6.080282657909885,6.173924749417106,25.08816534696412,21.033864818157312,-0.0003885269106831,0.1206444054841995,0,0,0
2012,94836.84847526072,2011-02-01 13:11:59,489.80439885599486,7,15,-1.0993878841400146,3.466148853302002,6.080282657909885,6.183091987875591,25.08816534696412,21.06570056142592,-0.0003885269106831,0.1206444054841995,0,0,0
2013,94866.86343840428,2011-02-01 13:12:29,519.8193619995219,7,15,-1.0993878841400146,3.453521728515625,6.080282657909885,6.192259202207161,25.08816534696412,21.097416436378367,-0.0002590179501567,0.1206444054841995,0,0,0
2014,94896.8785292661,2011-02-01 13:12:59,549.8344528814121,7,15,-1.0993878841400146,3.441218376159668,6.080282657909885,6.201426405707227,25.08816534696412,21.12901820843381,-0.0002913951757363,0.1206444054841995,0,0,0
2015,94926.89364939088,2011-02-01 13:13:29,579.8495730412722,7,15,-1.0993878841400146,3.42956280708313,6.080282657909885,6.210593579846572,25.08816534696412,21.16050959139039,-0.0002913951757363,0.1206444054841995,0,0,0
2016,94956.9087771146,2011-02-01 13:13:59,609.8647007349085,7,15,-1.099568486213684,3.4175832271575928,6.080282657909885,6.219760781491678,25.08816534696412,21.19189335447232,-0.0002913951757363,0.1206444054841995,0,0,0
2017,94986.92388271316,2011-02-01 13:14:29,639.8798063384897,7,15,-1.099568486213684,3.4057655334472656,6.080282657909885,6.228927941340732,25.08816534696412,21.22316924444077,-0.0003237724304199,0.1206444054841995,0,0,0
2018,95016.93899442196,2011-02-01 13:14:59,669.8949180172121,7,15,-1.099568486213684,3.3945953845977783,6.080282657909885,6.238095123339634,25.08816534696412,21.25433894112794,-0.0002913951757363,0.1206444054841995,0,0,0
2019,95046.95434260007,2011-02-01 13:15:29,699.9102662454887,7,15,-1.099568486213684,3.382777690887451,6.080282657909885,6.247262358537149,25.08816534696412,21.28540395739572,-0.0003237724304199,0.1206444054841995,0,0,0
2020,95076.96923670157,2011-02-01 13:15:59,729.9251602968168,7,15,-1.099568486213684,3.370959997177124,6.080282657909885,6.256429512622278,25.08816534696412,21.31636079712332,-0.0003561496851034,0.1206444054841995,0,0,0
2021,95106.98435912204,2011-02-01 13:16:29,759.9402827173109,7,15,-1.0993878841400146,3.358656644821167,6.080282657909885,6.265596770550638,25.08816534696412,21.34720781963941,-0.0003561496851034,0.1206444054841995,0,0,0
2022,95136.99962501512,2011-02-01 13:16:59,789.9555486153954,7,15,-1.0993878841400146,3.346029758453369,6.080282657909885,6.274764065107905,25.08816534696412,21.377940198992857,-0.0003237724304199,0.1206444054841995,0,0,0
2023,95167.01460662468,2011-02-01 13:17:29,819.9705302500076,7,15,-1.0993878841400146,3.3325932025909424,6.080282657909885,6.283931277070242,25.08816534696412,21.40855228322974,-0.0003561496851034,0.1206444054841995,0,0,0
2024,95197.02970712552,2011-02-01 13:17:59,849.9856307207963,7,15,-1.099568486213684,3.318185329437256,6.080282657909885,6.29309846587892,25.08816534696412,21.43903760559003,-0.0003885269106831,0.1206444054841995,0,0,0
2025,95227.0449514649,2011-02-01 13:18:29,880.00087506015,7,15,-1.099568486213684,3.3029680252075195,6.080282657909885,6.302265649362579,25.08816534696412,21.4693875902674,-0.0004532813909463,0.1206444054841995,0,0,0
2026,95257.0599810039,2011-02-01 13:18:59,910.0159046593049,7,15,-1.0997490882873535,3.2862937450408936,6.080282657909885,6.311432754172576,25.08816534696412,21.49959175254383,-0.0004856586456298,0.1206444054841995,0,0,0
2027,95287.07746454404,2011-02-01 13:19:29,940.0333881793856,7,15,-1.099568486213684,3.268648386001587,6.080282657909885,6.32060059915626,25.08816534696412,21.529641217554037,-0.0004856109735555,0.1206444054841995,0,0,0
2028,95317.090583797,2011-02-01 13:19:59,970.0465074423948,7,15,-1.099568486213684,3.2498695850372314,6.080282657909885,6.329767152926175,25.08816534696412,21.55951841639456,-0.0005180359003134,0.1206444054841995,0,0,0
2029,95347.10532016534,2011-02-01 13:20:29,1000.0612437956908,7,15,-1.0993878841400146,3.2293100357055664,6.080282657909885,6.338934160110224,25.08816534696412,21.589217074139977,-0.0005180359003134,0.1206444054841995,0,0,0
2030,95377.12054211387,2011-02-01 13:20:59,1030.0764657141644,7,15,-1.099568486213684,3.206969738006592,6.080282657909885,6.348101399546933,25.08816534696412,21.618720578761337,-0.0006151676061563,0.1206444054841995,0,0,0
2031,95407.13793582511,2011-02-01 13:21:29,1060.093859455489,7,15,-1.0993878841400146,3.182363271713257,6.080282657909885,6.357269273817839,25.08816534696412,21.648010112583545,-0.0006799221155233,0.1206444054841995,0,0,0
2032,95437.15066756232,2011-02-01 13:21:59,1090.1065911575772,7,15,-1.0993878841400146,3.154680728912353,6.080282657909885,6.366435762591408,25.08816534696412,21.6770561191045,-0.0007770538213662,0.1206444054841995,0,0,0
2033,95467.1657927096,2011-02-01 13:22:29,1120.1217163048675,7,15,-1.099568486213684,3.123274803161621,6.080282657909885,6.375602892415933,25.08816534696412,21.70583378980005,-0.0008418083307333,0.1206444054841995,0,0,0
2034,95497.18088279454,2011-02-01 13:22:59,1150.136806394784,7,15,-1.0993878841400146,3.086688756942749,6.080282657909885,6.384770109296789,25.08816534696412,21.73430262631892,-0.0010360718006268,0.1206444054841995,0,0,0
2035,95527.19601499938,2011-02-01 13:23:29,1180.1519385946513,7,15,-1.0993878841400146,3.045245885848999,6.080282657909885,6.393937302838867,25.08816534696412,21.76241395472487,-0.0011655807029455,0.1206444054841995,0,0,0
2036,95557.21112883848,2011-02-01 13:23:59,1210.167052433758,7,15,-1.099568486213684,2.9948995113372803,6.080282657909885,6.403104481668261,25.08816534696412,21.790108476897885,-0.0014893531333655,0.1206444054841995,0,0,0
2037,95587.2262612539,2011-02-01 13:24:29,1240.1821848491627,7,15,-1.099568486213684,2.9320878982543945,6.080282657909885,6.412271653421118,25.08816534696412,21.81728715701221,-0.0018455028766766,0.1206444054841995,0,0,0
2038,95617.22676203778,2011-02-01 13:24:59,1270.1826856631144,7,15,-1.0992072820663452,2.851954460144043,6.080282657909885,6.421434368647037,25.08816534696412,21.84380080196266,-0.0023635388351976,0.1206444054841995,0,0,0
2039,95647.24086447616,2011-02-01 13:25:29,1300.1967880714242,7,15,-1.099568486213684,2.7507758140563965,6.080282657909885,6.430601329469283,25.08816534696412,21.86949492864838,-0.0029139518737792,0.1206444054841995,0,0,0
2040,95661.0689863908,2011-02-01 13:25:43,1314.0249099910543,7,15,-1.0993878841400146,2.699943780899048,6.080282657909885,6.434824735040104,25.08816534696412,21.881006248161576,-0.0029786587692797,0.1206444054841995,0,0,0
2041,95721.0853011984,2011-02-01 13:26:43,60.014595573197816,8,15,0.0,3.736983776092529,6.080282657909885,6.434824735040104,25.08816534696412,21.881006248161576,0.0007770538213662,0.1206444054841995,0,0,0
2042,95721.2781505628,2011-02-01 13:26:44,0.189870726271631,9,15,-1.9243103452026844e-05,3.7368218898773193,6.080282657909885,6.434824736055021,25.08816534696412,21.88100625195414,0.0,0.1199430525302887,0,0,0
2043,95726.10380672775,2011-02-01 13:26:48,5.015526760927235,9,15,0.0008838032954372,3.741678476333618,6.080283564732897,6.434824736209332,25.088168738198995,21.88100625253077,0.0006475448608398,0.1199430525302887,0,0,0
