Data_Point,Test_Time(s),Date_Time,Step_Time(s),Step_Index,Cycle_Index,Current(A),Voltage(V),Charge_Capacity(Ah),Discharge_Capacity(Ah),Charge_Energy(Wh),Discharge_Energy(Wh),dV/dt(V/s),Internal_Resistance(Ohm),Is_FC_Data,AC_Impedance(Ohm),ACI_Phase_Angle(Deg)
839,38147.48483918944,2011-01-31 21:26:59,30.01507219531756,1,7,0.0,3.7525248527526855,2.391689099532165,2.774893008664792,9.85189347292685,9.480399335639072,0.0003885269106831,0.1197265535593032,0,0,0
840,38177.49995315886,2011-01-31 21:27:29,60.030186174774045,1,7,0.0,3.764827966690064,2.391689099532165,2.774893008664792,9.85189347292685,9.480399335639072,0.0002913951757363,0.1197265535593032,0,0,0
841,38207.51506800047,2011-01-31 21:27:59,90.04530101637928,1,7,0.0,3.7740554809570312,2.391689099532165,2.774893008664792,9.85189347292685,9.480399335639072,0.0002266406954731,0.1197265535593032,0,0,0
842,38237.48337062663,2011-01-31 21:28:29,120.01360364253986,1,7,0.0,3.7811784744262695,2.391689099532165,2.774893008664792,9.85189347292685,9.480399335639072,9.713172767078504e-05,0.1197265535593032,0,0,0
843,38267.49862838339,2011-01-31 21:28:59,30.01527540678306,2,7,0.5499359965324402,3.902431011199951,2.396275009674834,2.774893008664792,9.869710066475305,9.480399335639072,0.0006799221155233,0.1197265535593032,0,0,0
844,38297.51563375176,2011-01-31 21:29:29,60.03228082027515,2,7,0.5497553944587708,3.922666549682617,2.400861254836322,2.774893008664792,9.887657711599475,9.480399335639072,0.0004856586456298,0.1197265535593032,0,0,0
845,38327.52882031752,2011-01-31 21:29:59,90.0454673409112,2,7,0.5497553944587708,3.937074422836304,2.405446876003338,2.774893008664792,9.905680250262469,9.480399335639072,0.0003237724304199,0.1197265535593032,0,0,0
846,38357.54396139952,2011-01-31 21:30:29,120.06060843795304,2,7,0.5499359965324402,3.948568344116211,2.41003280653961,2.774893008664792,9.923762825189437,9.480399335639072,0.0002590179501567,0.1197265535593032,0,0,0
847,38387.559047449366,2011-01-31 21:30:59,150.07569447777536,2,7,0.5497553944587708,3.958605289459229,2.414618765713084,2.774893008664792,9.94189511176882,9.480399335639072,0.0001618862152099,0.1197265535593032,0,0,0
848,38417.5742632125,2011-01-31 21:31:29,180.09091023589562,2,7,0.5501165986061096,3.9679946899414062,2.419204729071785,2.774893008664792,9.960071931243476,9.480399335639072,0.0002266406954731,0.1197265535593032,0,0,0
849,38447.58915254708,2011-01-31 21:31:59,210.10579957548043,2,7,0.5501165986061096,3.976574659347534,2.423790667705704,2.774893008664792,9.978289400694305,9.480399335639072,0.0001942634553415,0.1197265535593032,0,0,0
850,38477.60436899692,2011-01-31 21:32:29,240.12101616066195,2,7,0.5501165986061096,3.984668970108032,2.428376547236125,2.774893008664792,9.996544332010169,9.480399335639072,0.0002266406954731,0.1197265535593032,0,0,0
851,38507.61938193956,2011-01-31 21:32:59,270.13602896796635,2,7,0.5497553944587708,3.991953849792481,2.432962365236515,2.774893008664792,10.014834220076528,9.480399335639072,0.0001942634553415,0.1197265535593032,0,0,0
852,38537.63694995022,2011-01-31 21:33:30,300.1535970086986,2,7,0.5499359965324402,3.9985909461975098,2.437547872745614,2.774893008664792,10.03315544634375,9.480399335639072,9.713172767078504e-05,0.1197265535593032,0,0,0
853,38567.64957717692,2011-01-31 21:34:00,330.1662242303896,2,7,0.5501165986061096,4.005390167236328,2.442132617177253,2.774893008664792,10.05150434607795,9.480399335639072,0.0001618385285837,0.1197265535593032,0,0,0
854,38597.664841516125,2011-01-31 21:34:30,360.1814885695888,2,7,0.5499359965324402,4.011541843414307,2.446717885038559,2.774893008664792,10.069884343921071,9.480399335639072,0.0001618385285837,0.1197265535593032,0,0,0
855,38627.67987312027,2011-01-31 21:35:00,390.1965201536907,2,7,0.5499359965324402,4.017369747161865,2.451303000996357,2.774893008664792,10.088291292962776,9.480399335639072,0.0001618385285837,0.1197265535593032,0,0,0
856,38657.694959526,2011-01-31 21:35:30,420.211606559425,2,7,0.5499359965324402,4.023036003112793,2.455888102042043,2.774893008664792,10.10672434164263,9.480399335639072,9.71794142969884e-05,0.1197265535593032,0,0,0
857,38687.71007048794,2011-01-31 21:36:00,450.2267175414109,2,7,0.5497553944587708,4.028216361999512,2.460473174751496,2.774893008664792,10.125182274517169,9.480399335639072,9.71794142969884e-05,0.1197265535593032,0,0,0
858,38717.725164552765,2011-01-31 21:36:30,480.24181158117153,2,7,0.550297200679779,4.033396720886231,2.465058906757519,2.774893008664792,10.143666862845032,9.480399335639072,9.71794142969884e-05,0.1197265535593032,0,0,0
859,38747.740286958215,2011-01-31 21:37:00,510.2569339816157,2,7,0.5501165986061096,4.03841495513916,2.469644885629607,2.774893008664792,10.16217562105686,9.480399335639072,0.0001295089750783,0.1197265535593032,0,0,0
860,38777.75541533858,2011-01-31 21:37:30,540.2720623619637,2,7,0.5501165986061096,4.04310941696167,2.474230856789063,2.774893008664792,10.180706531554735,9.480399335639072,9.70840483205393e-05,0.1197265535593032,0,0,0
861,38807.77051744845,2011-01-31 21:38:00,570.2871644718375,2,7,0.5499359965324402,4.047804355621338,2.47881682424729,2.774893008664792,10.199258876948829,9.480399335639072,6.47544875391759e-05,0.1197265535593032,0,0,0
862,38837.78562799434,2011-01-31 21:38:30,600.3022750277614,2,7,0.5499359965324402,4.052175045013428,2.483402300549923,2.774893008664792,10.217829984859296,9.480399335639072,0.0001295089750783,0.1197265535593032,0,0,0
863,38867.80081097076,2011-01-31 21:39:00,630.3174581345045,2,7,0.5499359965324402,4.056546211242676,2.487987403276451,2.774893008664792,10.2364198183571,9.480399335639072,9.71794142969884e-05,0.1197265535593032,0,0,0
864,38897.8181198155,2011-01-31 21:39:30,660.3347670895155,2,7,0.5497553944587708,4.060593128204346,2.492572796249727,2.774893008664792,10.255030743189192,9.480399335639072,3.23295607813634e-05,0.1197265535593032,0,0,0
865,38927.83097889504,2011-01-31 21:40:00,690.3476259284679,2,7,0.5501165986061096,4.065125942230225,2.497157534505353,2.774893008664792,10.27365812226318,9.480399335639072,0.0001295089750783,0.1197265535593032,0,0,0
866,38957.84622620179,2011-01-31 21:40:30,720.362873235217,2,7,0.5501165986061096,4.069173336029053,2.501743135262889,2.774893008664792,10.292308310162378,9.480399335639072,9.71794142969884e-05,0.1197265535593032,0,0,0
867,38987.861334211375,2011-01-31 21:41:00,750.3779812397822,2,7,0.5501165986061096,4.073220252990723,2.50632897084017,2.774893008664792,10.310978404736709,9.480399335639072,0.0001295089750783,0.1197265535593032,0,0,0
868,39017.87635110887,2011-01-31 21:41:30,780.3929981372805,2,7,0.5499359965324402,4.077105522155762,2.510914829940348,2.774893008664792,10.329667180762662,9.480399335639072,6.47544875391759e-05,0.1197265535593032,0,0,0
869,39047.891441284,2011-01-31 21:42:00,810.4080883073968,2,7,0.5501165986061096,4.081314563751221,2.515500722126056,2.774893008664792,10.34837451174946,9.480399335639072,0.0001295089750783,0.1197265535593032,0,0,0
870,39077.90656030603,2011-01-31 21:42:30,840.4232073244086,2,7,0.5499359965324402,4.08519983291626,2.520086656954435,2.774893008664792,10.367100281575963,9.480399335639072,9.70840483205393e-05,0.1197265535593032,0,0,0
871,39107.92168783425,2011-01-31 21:43:00,870.4383348626577,2,7,0.5499359965324402,4.089247226715088,2.524672577067563,2.774893008664792,10.385844043409437,9.480399335639072,0.0001295089750783,0.1197265535593032,0,0,0
872,39137.93679550799,2011-01-31 21:43:30,900.4534425363984,2,7,0.5499359965324402,4.092970371246338,2.529258508440607,2.774893008664792,10.404605693858487,9.480399335639072,9.70840483205393e-05,0.1197265535593032,0,0,0
873,39167.951898284526,2011-01-31 21:44:00,930.4685453079212,2,7,0.5499359965324402,4.096855640411377,2.533844443076266,2.774893008664792,10.423385150624895,9.480399335639072,9.70840483205393e-05,0.1197265535593032,0,0,0
874,39197.967013000816,2011-01-31 21:44:30,960.4836600292268,2,7,0.5499359965324402,4.100740909576416,2.538430285158037,2.774893008664792,10.44218204291051,9.480399335639072,6.47544875391759e-05,0.1197265535593032,0,0,0
875,39227.98214894502,2011-01-31 21:45:00,990.4987959634012,2,7,0.5499359965324402,4.104626178741455,2.543016205292054,2.774893008664792,10.460996973040505,9.480399335639072,9.70840483205393e-05,0.1197265535593032,0,0,0
876,39257.99730141541,2011-01-31 21:45:30,1020.5139484638638,2,7,0.5501165986061096,4.108511447906494,2.547602111308247,2.774893008664792,10.479829643039611,9.480399335639072,9.70840483205393e-05,0.1197265535593032,0,0,0
877,39288.012368157135,2011-01-31 21:46:00,1050.5290151855393,2,7,0.5499359965324402,4.112396717071533,2.552187982387765,2.774893008664792,10.498679936800386,9.480399335639072,6.47544875391759e-05,0.1197265535593032,0,0,0
878,39318.02749083827,2011-01-31 21:46:30,1080.5441378616706,2,7,0.5501165986061096,4.116119861602783,2.556773787597297,2.774893008664792,10.51754753559913,9.480399335639072,6.47544875391759e-05,0.1197265535593032,0,0,0
879,39348.04272387446,2011-01-31 21:47:00,1110.5593709028656,2,7,0.5499359965324402,4.120005130767822,2.561359704210082,2.774893008664792,10.53643325402809,9.480399335639072,9.70840483205393e-05,0.1197265535593032,0,0,0
880,39378.057961060986,2011-01-31 21:47:30,1140.574608119467,2,7,0.5499359965324402,4.12405252456665,2.565945611761845,2.774893008664792,10.55533667271002,9.480399335639072,9.71794142969884e-05,0.1197265535593032,0,0,0
881,39408.07295580828,2011-01-31 21:48:00,1170.5896028366851,2,7,0.5501165986061096,4.1279377937316895,2.570531417785643,2.774893008664792,10.574257253716093,9.480399335639072,0.0001619339018361,0.1197265535593032,0,0,0
882,39438.08787634562,2011-01-31 21:48:30,1200.6045233740244,2,7,0.5499359965324402,4.13166093826294,2.57511723504242,2.774893008664792,10.593195490536155,9.480399335639072,9.70840483205393e-05,0.1197265535593032,0,0,0
883,39468.10303961291,2011-01-31 21:49:00,1230.6196866413216,2,7,0.5499359965324402,4.1355462074279785,2.579703294772632,2.774893008664792,10.612152671093432,9.480399335639072,9.70840483205393e-05,0.1197265535593032,0,0,0
884,39498.12018462933,2011-01-31 21:49:30,1260.636831687822,2,7,0.5501165986061096,4.139593601226807,2.584289572725558,2.774893008664792,10.631128666623788,9.480399335639072,0.0001295089750783,0.1197265535593032,0,0,0
885,39528.13329913049,2011-01-31 21:50:00,1290.6499461889632,2,7,0.5501165986061096,4.143316745758057,2.588875327895904,2.774893008664792,10.650120536480076,9.480399335639072,9.70840483205393e-05,0.1197265535593032,0,0,0
886,39558.14846841778,2011-01-31 21:50:30,1320.665115476264,2,7,0.5501165986061096,4.147525787353516,2.593461345448679,2.774893008664792,10.669131784602936,9.480399335639072,9.70840483205393e-05,0.1197265535593032,0,0,0
887,39588.16363032168,2011-01-31 21:51:00,1350.680277350088,2,7,0.5501165986061096,4.151573181152344,2.598047330818794,2.774893008664792,10.688161074906413,9.480399335639072,0.0001295089750783,0.1197265535593032,0,0,0
888,39618.1789358736,2011-01-31 21:51:30,1380.695582922052,2,7,0.5501165986061096,4.155296325683594,2.60263329457969,2.774893008664792,10.707208432200243,9.480399335639072,9.70840483205393e-05,0.1197265535593032,0,0,0
889,39648.19376353947,2011-01-31 21:52:00,1410.7104105628644,2,7,0.5501165986061096,4.159505367279053,2.607219180160697,2.774893008664792,10.726273711308597,9.480399335639072,0.0001295089750783,0.1197265535593032,0,0,0
890,39678.20885177477,2011-01-31 21:52:30,1440.7254988031711,2,7,0.5501165986061096,4.163390636444092,2.611805094991945,2.774893008664792,10.745357423157586,9.480399335639072,0.0001618385285837,0.1197265535593032,0,0,0
891,39708.22396342341,2011-01-31 21:53:00,1470.7406104518184,2,7,0.5499359965324402,4.16743803024292,2.616391119283678,2.774893008664792,10.764459962035051,9.480399335639072,0.0001295089750783,0.1197265535593032,0,0,0
892,39738.241526035614,2011-01-31 21:53:30,1500.7581730991085,2,7,0.5499359965324402,4.171323299407959,2.620977421369796,2.774893008664792,10.783582317371096,9.480399335639072,9.71794142969884e-05,0.1197265535593032,0,0,0
893,39768.25420931702,2011-01-31 21:54:00,1530.7708563404176,2,7,0.5501165986061096,4.175532341003418,2.62556303013914,2.774893008664792,10.802720494376508,9.480399335639072,0.0001295089750783,0.1197265535593032,0,0,0
894,39798.26930965749,2011-01-31 21:54:30,1560.7859566858942,2,7,0.5501165986061096,4.179741382598877,2.630148981401853,2.774893008664792,10.82187882581581,9.480399335639072,0.0001295089750783,0.1197265535593032,0,0,0
895,39828.2844294364,2011-01-31 21:55:00,1590.8010764648045,2,7,0.5501165986061096,4.183788299560547,2.634735005400268,2.774893008664792,10.841056191771973,9.480399335639072,0.0001295089750783,0.1197265535593032,0,0,0
896,39858.29956183175,2011-01-31 21:55:30,1620.8162088601591,2,7,0.5501165986061096,4.187835693359375,2.639320972901195,2.774893008664792,10.860252232343198,9.480399335639072,6.47544875391759e-05,0.1197265535593032,0,0,0
897,39888.31478161991,2011-01-31 21:56:00,1650.8314286483237,2,7,0.5501165986061096,4.192044734954834,2.64390698087184,2.774893008664792,10.87946752777035,9.480399335639072,9.71794142969884e-05,0.1197265535593032,0,0,0
898,39918.32975386613,2011-01-31 21:56:30,1680.8464008945373,2,7,0.5501165986061096,4.196253299713135,2.648492971690928,2.774893008664792,10.898701862445778,9.480399335639072,0.0001295089750783,0.1197265535593032,0,0,0
899,39944.238027636144,2011-01-31 21:56:56,1706.7546747146737,2,7,0.5501165986061096,4.200138568878174,2.652451453871959,2.774893008664792,10.91531970441825,9.480399335639072,0.0001618385285837,0.1197265535593032,0,0,0
900,39974.25257577716,2011-01-31 21:57:26,30.015277366667696,3,7,0.0,4.089085102081299,2.652451453871959,2.774893008664792,10.91531970441825,9.480399335639072,-0.0004532813909463,0.1197265535593032,0,0,0
901,40004.26959655394,2011-01-31 21:57:56,60.032298203599744,3,7,0.0,4.076134204864502,2.652451453871959,2.774893008664792,10.91531970441825,9.480399335639072,-0.0002914428769145,0.1197265535593032,0,0,0
902,40034.28281249289,2011-01-31 21:58:26,90.04551408741787,3,7,0.0,4.068039894104004,2.652451453871959,2.774893008664792,10.91531970441825,9.480399335639072,-0.0001942634553415,0.1197265535593032,0,0,0
903,40064.25095020804,2011-01-31 21:58:56,120.01365180256948,3,7,0.0,4.062211990356445,2.652451453871959,2.774893008664792,10.91531970441825,9.480399335639072,-0.0001619339018361,0.1197265535593032,0,0,0
904,40064.26625036908,2011-01-31 21:58:56,0.015503870415497,4,7,0.9660598039627076,4.199814796447754,2.652455664512432,2.774893008664792,10.915337387987028,9.480399335639072,3.23295607813634e-05,0.1197265535593032,0,0,0
905,40065.15687633804,2011-01-31 21:58:57,0.906129844381381,4,7,0.91512793302536,4.199653148651123,2.652686531492563,2.774893008664792,10.916306969266536,9.480399335639072,0.0,0.1197265535593032,0,0,0
906,40067.56307202305,2011-01-31 21:59:00,3.312325524383849,4,7,0.8647379875183105,4.199814796447754,2.653280005564266,2.774893008664792,10.918799412917831,9.480399335639072,3.23295607813634e-05,0.1197265535593032,0,0,0
907,40071.32862660871,2011-01-31 21:59:03,7.077880110043493,4,7,0.8145285844802856,4.199814796447754,2.654156665803882,2.774893008664792,10.922481173959,9.480399335639072,0.0,0.1197265535593032,0,0,0
908,40076.57853827896,2011-01-31 21:59:09,12.327791780283167,4,7,0.7643192410469055,4.199653148651123,2.65530599969724,2.774893008664792,10.927308112871325,9.480399335639072,-3.23295607813634e-05,0.1197265535593032,0,0,0
909,40083.68779132501,2011-01-31 21:59:16,19.437044826336408,4,7,0.7141098380088806,4.199814796447754,2.656763641494405,2.774893008664792,10.93342989351647,9.480399335639072,0.0,0.1197265535593032,0,0,0
910,40093.359524454885,2011-01-31 21:59:26,29.10877795621395,4,7,0.6640810966491699,4.199653148651123,2.658611690663121,2.774893008664792,10.941191314518662,9.480399335639072,-3.23295607813634e-05,0.1197265535593032,0,0,0
911,40106.95305481016,2011-01-31 21:59:39,42.702308311484,4,7,0.6140522956848145,4.199653148651123,2.661019236328134,2.774893008664792,10.951302473951682,9.480399335639072,0.0,0.1197265535593032,0,0,0
912,40127.92154624766,2011-01-31 22:00:00,63.670799748989786,4,7,0.5640235543251038,4.199653148651123,2.664439255008774,2.774893008664792,10.965665830490002,9.480399335639072,-3.23295607813634e-05,0.1197265535593032,0,0,0
913,40164.57717444177,2011-01-31 22:00:37,100.32642794310436,4,7,0.5139947533607483,4.199814796447754,2.669902827328177,2.774893008664792,10.988611659477442,9.480399335639072,3.23295607813634e-05,0.1197265535593032,0,0,0
914,40233.91985303303,2011-01-31 22:01:46,169.66910658448748,4,7,0.4639659821987152,4.199653148651123,2.67927740068515,2.774893008664792,11.027982834738737,9.480399335639072,0.0,0.1197265535593032,0,0,0
915,40344.902402544896,2011-01-31 22:03:37,280.65165605123536,4,7,0.4139372110366821,4.199653148651123,2.692774921427463,2.774893008664792,11.08466953016216,9.480399335639072,0.0,0.1197265535593032,0,0,0
916,40488.46431073299,2011-01-31 22:06:01,424.21356436965976,4,7,0.363908439874649,4.199814796447754,2.708260004959282,2.774893008664792,11.149703589846332,9.480399335639072,0.0,0.1197265535593032,0,0,0
917,40664.36562339763,2011-01-31 22:08:57,600.1148777661248,4,7,0.3138796687126159,4.199653148651123,2.724788785326486,2.774893008664792,11.219120836985978,9.480399335639072,0.0,0.1197265535593032,0,0,0
918,40881.27007985296,2011-01-31 22:12:33,817.0193333893704,4,7,0.2638508975505829,4.199653148651123,2.74215341134902,2.774893008664792,11.292048264577296,9.480399335639072,-3.23295607813634e-05,0.1197265535593032,0,0,0
919,41153.62282683928,2011-01-31 22:17:06,1089.3720803757055,4,7,0.213822141289711,4.199653148651123,2.760166695967925,2.774893008664792,11.367700254275544,9.480399335639072,0.0,0.1197265535593032,0,0,0
920,41504.97617255553,2011-01-31 22:22:57,1440.725426056865,4,7,0.1637933701276779,4.199653148651123,2.77851174100263,2.774893008664792,11.444745317803196,9.480399335639072,-3.23295607813634e-05,0.1197265535593032,0,0,0
921,42001.10836531094,2011-01-31 22:31:13,1936.8576188122704,4,7,0.1137645989656448,4.199653148651123,2.797473725036141,2.774893008664792,11.524381432134494,9.480399335639072,-3.23295607813634e-05,0.1197265535593032,0,0,0
922,42826.45370191717,2011-01-31 22:44:59,2762.2029554235173,4,7,0.0635552257299423,4.199653148651123,2.817280059487319,2.774893008664792,11.60756404373304,9.480399335639072,-3.23295607813634e-05,0.1197265535593032,0,0,0
923,43204.13490097482,2011-01-31 22:51:16,3139.8841545012183,4,7,0.0498289167881011,4.199491024017334,2.823246822943091,2.774893008664792,11.632623209604125,9.480399335639072,-6.47544875391759e-05,0.1197265535593032,0,0,0
924,43234.15238462754,2011-01-31 22:51:46,30.015236976001727,5,7,0.0,4.188968658447266,2.823246826251811,2.774893008664792,11.632623223499063,9.480399335639072,-6.47544875391759e-05,0.1197265535593032,0,0,0
925,43264.151873855306,2011-01-31 22:52:16,60.01472620376939,5,7,0.0,4.187511920928955,2.823246826251811,2.774893008664792,11.632623223499063,9.480399335639072,-3.23295607813634e-05,0.1197265535593032,0,0,0
926,43264.33868461564,2011-01-31 22:52:17,0.187446614639563,6,7,-1.9243103452026844e-05,4.187511920928955,2.823246826251811,2.774893009666752,11.632623223499063,9.48039933983479,0.0,0.1214540973305702,0,0,0
927,43269.166733328566,2011-01-31 22:52:22,5.015495357660631,6,7,0.0008838032954372,4.187511920928955,2.823247711397254,2.774893009750631,11.632626930085372,9.480399340186036,0.0,0.1214540973305702,0,0,0
928,43278.213142563705,2011-01-31 22:52:31,9.046864464897128,7,7,-1.099568486213684,3.9874210357666016,2.823247711397254,2.77765609521724,11.632626930085372,9.491454288070464,-0.0021692276932299,0.1214540973305702,0,0,0
929,43308.228239966855,2011-01-31 22:53:01,39.06196186804034,7,7,-1.0993878841400146,3.923152208328247,2.823247711397254,2.786823271418386,11.632626930085372,9.527707720070472,-0.0016512393485754,0.1214540973305702,0,0,0
930,43338.24323271416,2011-01-31 22:53:31,69.07695462036152,7,7,-1.099568486213684,3.860016822814941,2.823247711397254,2.795990412124748,11.632626930085372,9.563384858358948,-0.0017159938579425,0.1214540973305702,0,0,0
931,43368.25847571518,2011-01-31 22:54:01,99.09219761636696,7,7,-1.099568486213684,3.797528982162476,2.823247711397254,2.80515765423053,11.632626930085372,9.598480404568084,-0.0015864849556237,0.1214540973305702,0,0,0
932,43398.27346846749,2011-01-31 22:54:31,129.1071903737006,7,7,-1.099568486213684,3.7442686557769775,2.823247711397254,2.814324839471716,11.632626930085372,9.633040766403292,-0.0012950897216796,0.1214540973305702,0,0,0
933,43428.28857983545,2011-01-31 22:55:01,159.1223017366359,7,7,-1.099568486213684,3.701854467391968,2.823247711397254,2.823492046183676,11.632626930085372,9.667163902282326,-0.0010360718006268,0.1214540973305702,0,0,0
934,43458.30371139372,2011-01-31 22:55:31,189.1374332949042,7,7,-1.0993878841400146,3.668020486831665,2.823247711397254,2.832659261449884,11.632626930085372,9.700939255294928,-0.0007770538213662,0.1214540973305702,0,0,0
935,43488.31881430559,2011-01-31 22:56:01,219.15253621680188,7,7,-1.0993878841400146,3.639690399169922,2.823247711397254,2.84182649725758,11.632626930085372,9.734430634083669,-0.0007122993702068,0.1214540973305702,0,0,0
936,43518.33400290603,2011-01-31 22:56:31,249.1677248372868,7,7,-1.099568486213684,3.615083694458008,2.823247711397254,2.85099367699649,11.632626930085372,9.767681525687344,-0.0006799221155233,0.1214540973305702,0,0,0
937,43548.34916340141,2011-01-31 22:57:01,279.1828852925753,7,7,-1.0993878841400146,3.593552827835083,2.823247711397254,2.860160816981788,11.632626930085372,9.800721160130504,-0.0005180359003134,0.1214540973305702,0,0,0
938,43578.36415334674,2011-01-31 22:57:31,309.1978752479256,7,7,-1.0993878841400146,3.573641061782837,2.823247711397254,2.8693279556164,11.632626930085372,9.83357010522298,-0.0004856586456298,0.1214540973305702,0,0,0
939,43608.37927137629,2011-01-31 22:58:01,339.2129933025386,7,7,-1.0993878841400146,3.5553479194641118,2.823247711397254,2.878495417095228,11.632626930085372,9.866246362500789,-0.0004856586456298,0.1214540973305702,0,0,0
940,43638.39663668676,2011-01-31 22:58:31,369.2303586330547,7,7,-1.099568486213684,3.5385117530822754,2.823247711397254,2.887664030459602,11.632626930085372,9.898766099882993,-0.0004532813909463,0.1214540973305702,0,0,0
941,43668.40953189635,2011-01-31 22:59:01,399.243253802554,7,7,-1.0993878841400146,3.522808790206909,2.823247711397254,2.896831048530987,11.632626930085372,9.93113006653031,-0.0003885269106831,0.1214540973305702,0,0,0
942,43698.42463930944,2011-01-31 22:59:31,429.25836121063264,7,7,-1.099568486213684,3.507915496826172,2.823247711397254,2.905998302180636,11.632626930085372,9.963354204506308,-0.0003237724304199,0.1214540973305702,0,0,0
943,43728.43975779012,2011-01-31 23:00:01,459.2734797013326,7,7,-1.099568486213684,3.4938313961029053,2.823247711397254,2.915165501033209,11.632626930085372,9.995446046392033,-0.0003885269106831,0.1214540973305702,0,0,0
944,43758.45486146389,2011-01-31 23:00:31,489.2885834202166,7,7,-1.099568486213684,3.4803948402404785,2.823247711397254,2.924332773728959,11.632626930085372,10.027413659412847,-0.0003885269106831,0.1214540973305702,0,0,0
945,43788.47006067076,2011-01-31 23:01:01,519.3037825719485,7,7,-1.0993878841400146,3.4677677154541016,2.823247711397254,2.933500033789185,11.632626930085372,10.059262088372224,-0.0003561496851034,0.1214540973305702,0,0,0
946,43818.48520177783,2011-01-31 23:01:31,549.3189237040779,7,7,-1.099568486213684,3.4556262493133545,2.823247711397254,2.942667231849295,11.632626930085372,10.090995868412374,-0.0003237724304199,0.1214540973305702,0,0,0
947,43848.50044951064,2011-01-31 23:02:01,579.3341715521763,7,7,-1.099568486213684,3.4439704418182373,2.823247711397254,2.951834510339552,11.632626930085372,10.122620885999911,-0.0003237724304199,0.1214540973305702,0,0,0
948,43878.51560278804,2011-01-31 23:02:31,609.3493247092754,7,7,-1.0993878841400146,3.43263840675354,2.823247711397254,2.961001746826025,11.632626930085372,10.1541409227864,-0.0003237724304199,0.1214540973305702,0,0,0
949,43908.53042725594,2011-01-31 23:03:01,639.3641491821925,7,7,-1.0997490882873535,3.421792268753052,2.823247711397254,2.97016897769937,11.632626930085372,10.18555953967478,-0.0003237724304199,0.1214540973305702,0,0,0
950,43938.54554318525,2011-01-31 23:03:31,669.3792650864461,7,7,-1.099568486213684,3.4112696647644043,2.823247711397254,2.97933623151048,11.632626930085372,10.216880613326827,-0.0002913951757363,0.1214540973305702,0,0,0
951,43968.5606523477,2011-01-31 23:04:01,699.3943742739597,7,7,-1.0997490882873535,3.400423288345337,2.823247711397254,2.988503488142,11.632626930085372,10.248103241945616,-0.0002913951757363,0.1214540973305702,0,0,0
952,43998.57825767637,2011-01-31 23:04:31,729.4119796477374,7,7,-1.099568486213684,3.389576911926269,2.823247711397254,2.997671496432886,11.632626930085372,10.279228809154231,-0.0002913951757363,0.1214540973305702,0,0,0
953,44028.59103039568,2011-01-31 23:05:01,759.4247523871032,7,7,-1.099568486213684,3.3784067630767822,2.823247711397254,3.006838043590925,11.632626930085372,10.310248107656095,-0.0003237724304199,0.1214540973305702,0,0,0
954,44058.60600020082,2011-01-31 23:05:31,789.4397221020082,7,7,-1.099568486213684,3.366912841796875,2.823247711397254,3.016005307610759,11.632626930085372,10.341166047786606,-0.0003237724304199,0.1214540973305702,0,0,0
955,44088.62114782413,2011-01-31 23:06:01,819.4548697453654,7,7,-1.099568486213684,3.354933261871338,2.823247711397254,3.025172659945393,11.632626930085372,10.371977589278234,-0.0003561496851034,0.1214540973305702,0,0,0
956,44118.6362927056,2011-01-31 23:06:31,849.4700146318517,7,7,-1.099568486213684,3.34263014793396,2.823247711397254,3.034339893340025,11.632626930085372,10.402677865434384,-0.0003561496851034,0.1214540973305702,0,0,0
957,44148.65147464944,2011-01-31 23:07:01,879.4851965506339,7,7,-1.0997490882873535,3.329679250717163,2.823247711397254,3.04350723670493,11.632626930085372,10.433263262666042,-0.0003885269106831,0.1214540973305702,0,0,0
958,44178.66646975262,2011-01-31 23:07:31,909.500191653814,7,7,-1.0993878841400146,3.3162426948547363,2.823247711397254,3.052674520670657,11.632626930085372,10.463727825185392,-0.0003885269106831,0.1214540973305702,0,0,0
959,44208.68158304036,2011-01-31 23:08:01,939.5153049415468,7,7,-1.0993878841400146,3.30151104927063,2.823247711397254,3.061841732318269,11.632626930085372,10.494061372986431,-0.0004209041653666,0.1214540973305702,0,0,0
960,44238.6986890646,2011-01-31 23:08:31,969.5324111161664,7,7,-1.0993878841400146,3.2859699726104736,2.823247711397254,3.071009629846685,11.632626930085372,10.524258559576564,-0.0004209041653666,0.1214540973305702,0,0,0
961,44268.71183091892,2011-01-31 23:09:01,999.5455528301304,7,7,-1.0993878841400146,3.268810272216797,2.823247711397254,3.080176324027903,11.632626930085372,10.554302175361713,-0.0004208564641885,0.1214540973305702,0,0,0
962,44298.72691715422,2011-01-31 23:09:31,1029.5606390754651,7,7,-1.0997490882873535,3.250840902328491,2.823247711397254,3.089344266231336,11.632626930085372,10.58418983436631,-0.0005180359003134,0.1214540973305702,0,0,0
963,44328.742006191525,2011-01-31 23:10:01,1059.5757280977205,7,7,-1.099568486213684,3.231414556503296,2.823247711397254,3.098512215766093,11.632626930085372,10.613905770737594,-0.0005180359003134,0.1214540973305702,0,0,0
964,44358.7571473838,2011-01-31 23:10:31,1089.5908693100496,7,7,-1.099568486213684,3.209398031234741,2.823247711397254,3.107680094754393,11.632626930085372,10.643431769358193,-0.0005827903514727,0.1214540973305702,0,0,0
965,44388.77224837087,2011-01-31 23:11:01,1119.605970272063,7,7,-1.099568486213684,3.185439109802246,2.823247711397254,3.116848021861034,11.632626930085372,10.672747509274547,-0.0006799221155233,0.1214540973305702,0,0,0
966,44418.78736504705,2011-01-31 23:11:31,1149.621086973303,7,7,-1.0993878841400146,3.1592135429382324,2.823247711397254,3.126016020559939,11.632626930085372,10.701833124795614,-0.0007122993702068,0.1214540973305702,0,0,0
967,44448.80260433882,2011-01-31 23:12:01,1179.6363262400137,7,7,-1.099568486213684,3.129912137985229,2.823247711397254,3.135183995424072,11.632626930085372,10.730664611989427,-0.0008094310760498,0.1214540973305702,0,0,0
968,44478.81760908604,2011-01-31 23:12:31,1209.6513309972547,7,7,-1.099568486213684,3.096887588500977,2.823247711397254,3.144351356888153,11.632626930085372,10.759208987674873,-0.0009065627818927,0.1214540973305702,0,0,0
969,44508.83272745143,2011-01-31 23:13:01,1239.6664493776798,7,7,-1.099568486213684,3.0593299865722656,2.823247711397254,3.153518621217474,11.632626930085372,10.78743060445796,-0.0011008263099938,0.1214540973305702,0,0,0
970,44538.84795088869,2011-01-31 23:13:31,1269.6816727948888,7,7,-1.099568486213684,3.0151352882385254,2.823247711397254,3.162685913543876,11.632626930085372,10.815279578228177,-0.0012627125252038,0.1214540973305702,0,0,0
971,44568.862859912326,2011-01-31 23:14:01,1299.6965818385825,7,7,-1.099568486213684,2.9599320888519287,2.823247711397254,3.171853146087907,11.632626930085372,10.842678090842949,-0.0016512393485754,0.1214540973305702,0,0,0
972,44598.87842053997,2011-01-31 23:14:31,1329.712142461211,7,7,-1.0997490882873535,2.892425775527954,2.823247711397254,3.181021263516625,11.632626930085372,10.8695180684714,-0.0020073889754712,0.1214540973305702,0,0,0
973,44628.89317738936,2011-01-31 23:15:01,1359.7268993256268,7,7,-1.099568486213684,2.807111978530884,2.823247711397254,3.190189197151388,11.632626930085372,10.895659793454255,-0.0025254250504076,0.1214540973305702,0,0,0
974,44658.9084087614,2011-01-31 23:15:31,1389.7421306776118,7,7,-1.099568486213684,2.7018864154815674,2.823247711397254,3.199357269508122,11.632626930085372,10.92092670516152,-0.0029786587692797,0.1214540973305702,0,0,0
975,44659.51767973713,2011-01-31 23:15:32,1390.3514016483389,7,7,-1.099568486213684,2.699781894683838,2.823247711397254,3.199543363275502,11.632626930085372,10.92142932533278,-0.0029786587692797,0.1214540973305702,0,0,0
976,44719.534088224624,2011-01-31 23:16:32,60.01667145693884,8,7,0.0,3.7318034172058105,2.823247711397254,3.199543363275502,11.632626930085372,10.92142932533278,0.0007446765666827,0.1214540973305702,0,0,0
977,44719.72042594375,2011-01-31 23:16:33,0.18761795667664,9,7,-1.9243103452026844e-05,3.7318034172058105,2.823247711397254,3.199543364278378,11.632626930085372,10.921429329075313,0.0,0.1207534819841384,0,0,0
978,44724.54832666284,2011-01-31 23:16:37,5.01551867577655,9,7,0.0005225847125984,3.736660003662109,2.823248573073999,3.199543364361545,11.632630148102487,10.921429329385674,0.0006799221155233,0.1207534819841384,0,0,0
