Data_Point,Test_Time(s),Date_Time,Step_Time(s),Step_Index,Cycle_Index,Current(A),Voltage(V),Charge_Capacity(Ah),Discharge_Capacity(Ah),Charge_Energy(Wh),Discharge_Energy(Wh),dV/dt(V/s),Internal_Resistance(Ohm),Is_FC_Data,AC_Impedance(Ohm),ACI_Phase_Angle(Deg)
2044,95756.13760263892,2011-02-01 13:27:18,30.01523702111416,1,16,0.0,3.760295152664185,6.080283564732897,6.434824736209332,25.088168738198995,21.88100625253077,0.0003561496851034,0.1199430525302887,0,0,0
2045,95786.15509752731,2011-02-01 13:27:49,60.03273203484068,1,16,0.0,3.773084163665772,6.080283564732897,6.434824736209332,25.088168738198995,21.88100625253077,0.0002913951757363,0.1199430525302887,0,0,0
2046,95816.1677202478,2011-02-01 13:28:19,90.04535463000092,1,16,0.0,3.782635450363159,6.080283564732897,6.434824736209332,25.088168738198995,21.88100625253077,0.0001942634553415,0.1199430525302887,0,0,0
2047,95846.1359809244,2011-02-01 13:28:48,120.01361530661032,1,16,0.0,3.790405988693237,6.080283564732897,6.434824736209332,25.088168738198995,21.88100625253077,0.0001942634553415,0.1199430525302887,0,0,0
2048,95876.14847381128,2011-02-01 13:29:19,30.01524061507141,2,16,0.5501165986061096,3.912144184112549,6.084869816751045,6.434824736209332,25.10602997785531,21.88100625253077,0.0007446765666827,0.1199430525302887,0,0,0
2049,95906.16345470406,2011-02-01 13:29:49,60.03022150783491,2,16,0.5501165986061096,3.9327034950256343,6.089456047768753,6.434824736209332,25.12402276952287,21.88100625253077,0.0004209041653666,0.1199430525302887,0,0,0
2050,95936.17858887384,2011-02-01 13:30:19,90.0453556776119,2,16,0.5499359965324402,3.9472732543945312,6.0940423532468,6.434824736209332,25.14209457610133,21.88100625253077,0.0003237724304199,0.1199430525302887,0,0,0
2051,95966.19370150492,2011-02-01 13:30:49,120.06046830870784,2,16,0.5501165986061096,3.959576606750488,6.098628614289227,6.434824736209332,25.16022710381848,21.88100625253077,0.0003237724304199,0.1199430525302887,0,0,0
2052,95996.2088174543,2011-02-01 13:31:19,150.07558425807397,2,16,0.5501165986061096,3.9705848693847656,6.103214928693147,6.434824736209332,25.178412326887457,21.88100625253077,0.0002913951757363,0.1199430525302887,0,0,0
2053,96026.22394502762,2011-02-01 13:31:49,180.09071185146055,2,16,0.5501165986061096,3.9802980422973633,6.107801194924306,6.434824736209332,25.196644636850287,21.88100625253077,0.0002266406954731,0.1199430525302887,0,0,0
2054,96056.23904652098,2011-02-01 13:32:19,210.10581332474783,2,16,0.5501165986061096,3.989363670349121,6.112387395312029,6.434824736209332,25.21492012363113,21.88100625253077,0.0002266406954731,0.1199430525302887,0,0,0
2055,96086.25624200316,2011-02-01 13:32:49,240.12300884203708,2,16,0.5499359965324402,3.99761962890625,6.116973860396015,6.434824736209332,25.233236690321004,21.88100625253077,0.0001942634553415,0.1199430525302887,0,0,0
2056,96116.26942252384,2011-02-01 13:33:19,270.13618933765696,2,16,0.5499359965324402,4.005713939666748,6.12155974428515,6.434824736209332,25.2515881754414,21.88100625253077,0.0002265930233988,0.1199430525302887,0,0,0
2057,96146.2844088251,2011-02-01 13:33:49,300.151175628875,2,16,0.5501165986061096,4.013160705566406,6.126145901008466,6.434824736209332,25.26997563712635,21.88100625253077,0.0001942634553415,0.1199430525302887,0,0,0
2058,96176.30018677436,2011-02-01 13:34:19,330.1669537134859,2,16,0.550297200679779,4.019959926605225,6.130732113199266,6.434824736209332,25.28839596715602,21.88100625253077,0.0001618385285837,0.1199430525302887,0,0,0
2059,96206.3146872899,2011-02-01 13:34:49,360.1814541237392,2,16,0.550297200679779,4.026597499847412,6.135318127887883,6.434824736209332,25.306846356229656,21.88100625253077,0.0001942634553415,0.1199430525302887,0,0,0
2060,96236.32980283324,2011-02-01 13:35:19,390.1965696670934,2,16,0.5501165986061096,4.032749176025391,6.139904350043435,6.434824736209332,25.325326606396683,21.88100625253077,0.0001942634553415,0.1199430525302887,0,0,0
2061,96266.34488391572,2011-02-01 13:35:49,420.2116507194854,2,16,0.5501165986061096,4.03841495513916,6.144490575798604,6.434824736209332,25.34383452289945,21.88100625253077,0.0001295089750783,0.1199430525302887,0,0,0
2062,96296.35999192028,2011-02-01 13:36:19,450.22675872405074,2,16,0.5501165986061096,4.043919086456299,6.149076771517443,6.434824736209332,25.362368559957257,21.88100625253077,0.0001295089750783,0.1199430525302887,0,0,0
2063,96326.37511994976,2011-02-01 13:36:49,480.2418867835991,2,16,0.5501165986061096,4.0494232177734375,6.153662939831588,6.434824736209332,25.38092750296928,21.88100625253077,0.0001619339018361,0.1199430525302887,0,0,0
2064,96356.39023655576,2011-02-01 13:37:19,510.2570033595268,2,16,0.550297200679779,4.054603576660156,6.158249092365435,6.434824736209332,25.399510484868728,21.88100625253077,0.0001295089750783,0.1199430525302887,0,0,0
2065,96386.40534774828,2011-02-01 13:37:49,540.2721145620624,2,16,0.5501165986061096,4.059460163116455,6.162834839608181,6.434824736209332,25.41811500217464,21.88100625253077,9.71794142969884e-05,0.1199430525302887,0,0,0
2066,96416.4205871804,2011-02-01 13:38:19,570.2873539941854,2,16,0.5499359965324402,4.064316749572754,6.167420291440315,6.434824736209332,25.436740508617596,21.88100625253077,9.71794142969884e-05,0.1199430525302887,0,0,0
2067,96446.4358680558,2011-02-01 13:38:49,600.3026349147106,2,16,0.5501165986061096,4.068849563598633,6.172006382295418,6.434824736209332,25.455390513684826,21.88100625253077,9.71794142969884e-05,0.1199430525302887,0,0,0
2068,96476.4507323179,2011-02-01 13:39:19,630.3174991216571,2,16,0.5499359965324402,4.073544025421143,6.176592554379782,6.434824736209332,25.47406218147319,21.88100625253077,0.0001295089750783,0.1199430525302887,0,0,0
2069,96506.46596702824,2011-02-01 13:39:49,660.3327338320121,2,16,0.5499359965324402,4.0780768394470215,6.181178727180686,6.434824736209332,25.49275466764272,21.88100625253077,0.0001295089750783,0.1199430525302887,0,0,0
2070,96536.48095179567,2011-02-01 13:40:19,690.3477185994324,2,16,0.5499359965324402,4.0824480056762695,6.185764927260928,6.434824736209332,25.51146758037966,21.88100625253077,0.0001295089750783,0.1199430525302887,0,0,0
2071,96566.49625375864,2011-02-01 13:40:49,720.3630206025016,2,16,0.5499359965324402,4.086818695068359,6.190351134724404,6.434824736209332,25.53020061642824,21.88100625253077,0.0001295089750783,0.1199430525302887,0,0,0
2072,96596.51119672188,2011-02-01 13:41:19,750.3779635256332,2,16,0.5501165986061096,4.091189861297607,6.194937319691134,6.434824736209332,25.548953349771235,21.88100625253077,0.0001295089750783,0.1199430525302887,0,0,0
2073,96626.5264545398,2011-02-01 13:41:49,780.3932213435794,2,16,0.5499359965324402,4.095398902893066,6.199523552831365,6.434824736209332,25.567725718162368,21.88100625253077,0.0001295089750783,0.1199430525302887,0,0,0
2074,96656.54165866895,2011-02-01 13:42:19,810.4084254927666,2,16,0.5501165986061096,4.099607944488525,6.204109705775382,6.434824736209332,25.58651705915531,21.88100625253077,0.0001295089750783,0.1199430525302887,0,0,0
2075,96686.55894127328,2011-02-01 13:42:49,840.4257081171535,2,16,0.5501165986061096,4.103816986083984,6.208696272329526,6.434824736209332,25.60532916659435,21.88100625253077,0.0001619339018361,0.1199430525302887,0,0,0
2076,96716.5717016318,2011-02-01 13:43:19,870.4384684756624,2,16,0.5501165986061096,4.107702255249023,6.213282113653242,6.434824736209332,25.624157261518377,21.88100625253077,0.0001295089750783,0.1199430525302887,0,0,0
2077,96746.58678359646,2011-02-01 13:43:49,900.4535504002282,2,16,0.5499359965324402,4.111911296844482,6.217868295099045,6.434824736209332,25.64300556394576,21.88100625253077,0.0001295089750783,0.1199430525302887,0,0,0
2078,96776.60189996687,2011-02-01 13:44:19,930.4686667706438,2,16,0.5501165986061096,4.115958213806152,6.222454440132554,6.434824736209332,25.66187235049106,21.88100625253077,0.0001295089750783,0.1199430525302887,0,0,0
2079,96806.6194293262,2011-02-01 13:44:49,960.486196180095,2,16,0.5501165986061096,4.120167255401611,6.227041014900284,6.434824736209332,25.680759699336782,21.88100625253077,0.0001295089750783,0.1199430525302887,0,0,0
2080,96836.63215518874,2011-02-01 13:45:19,990.4989219925044,2,16,0.5501165986061096,4.12405252456665,6.231626856419506,6.434824736209332,25.699662694484097,21.88100625253077,9.71794142969884e-05,0.1199430525302887,0,0,0
2081,96866.64727580977,2011-02-01 13:45:49,1020.514042618526,2,16,0.5501165986061096,4.12809944152832,6.236213114407979,6.434824736209332,25.71858616722875,21.88100625253077,9.70840483205393e-05,0.1199430525302887,0,0,0
2082,96896.66237643592,2011-02-01 13:46:19,1050.529143264752,2,16,0.5499359965324402,4.132308483123779,6.240799286937377,6.434824736209332,25.737528013320272,21.88100625253077,9.70840483205393e-05,0.1199430525302887,0,0,0
2083,96926.67750033508,2011-02-01 13:46:49,1080.5442671789692,2,16,0.550297200679779,4.136355876922607,6.24538549994042,6.434824736209332,25.756488696874747,21.88100625253077,0.0001295089750783,0.1199430525302887,0,0,0
2084,96956.6927554864,2011-02-01 13:47:19,1110.5595222901693,2,16,0.5499359965324402,4.140402793884277,6.249971749760355,6.434824736209332,25.775468304048847,21.88100625253077,0.0001295089750783,0.1199430525302887,0,0,0
2085,96986.70775805318,2011-02-01 13:47:49,1140.5745249171007,2,16,0.5499359965324402,4.1444501876831055,6.254557726722346,6.434824736209332,25.794465438768697,21.88100625253077,0.0001295089750783,0.1199430525302887,0,0,0
2086,97016.72280310084,2011-02-01 13:48:19,1170.5895699046084,2,16,0.5501165986061096,4.1486592292785645,6.259143095588497,6.434824736209332,25.81347912578996,21.88100625253077,6.47544875391759e-05,0.1199430525302887,0,0,0
2087,97046.73794608758,2011-02-01 13:48:49,1200.60471293146,2,16,0.5499359965324402,4.152706146240234,6.263728614593526,6.434824736209332,25.83251225622481,21.88100625253077,9.70840483205393e-05,0.1199430525302887,0,0,0
2088,97076.7530784228,2011-02-01 13:49:19,1230.6198452265646,2,16,0.5501165986061096,4.156753540039063,6.268314054996441,6.434824736209332,25.85156388034716,21.88100625253077,6.47544875391759e-05,0.1199430525302887,0,0,0
2089,97106.7681792244,2011-02-01 13:49:49,1260.634946028178,2,16,0.5501165986061096,4.161124229431152,6.272899438025378,6.434824736209332,25.87063415210877,21.88100625253077,9.70840483205393e-05,0.1199430525302887,0,0,0
2090,97136.78342428558,2011-02-01 13:50:19,1290.6501910893303,2,16,0.5499359965324402,4.165009498596191,6.277484889634779,6.434824736209332,25.88972359692828,21.88100625253077,0.0001295089750783,0.1199430525302887,0,0,0
2091,97166.7984217797,2011-02-01 13:50:49,1320.6651885834694,2,16,0.550297200679779,4.16921854019165,6.282070455754438,6.434824736209332,25.90883253936549,21.88100625253077,9.70840483205393e-05,0.1199430525302887,0,0,0
2092,97196.8135043208,2011-02-01 13:51:19,1350.680271124572,2,16,0.5501165986061096,4.173589706420898,6.286656616722598,6.434824736209332,25.92796322471552,21.88100625253077,9.71794142969884e-05,0.1199430525302887,0,0,0
2093,97226.82861825515,2011-02-01 13:51:49,1380.695385058916,2,16,0.5501165986061096,4.177798748016357,6.291242811157179,6.434824736209332,25.94711328860176,21.88100625253077,0.0001295089750783,0.1199430525302887,0,0,0
2094,97256.84386431378,2011-02-01 13:52:19,1410.7106311376049,2,16,0.5497553944587708,4.181845664978027,6.295828796807222,6.434824736209332,25.96628173927044,21.88100625253077,0.0001295089750783,0.1199430525302887,0,0,0
2095,97286.86089615314,2011-02-01 13:52:49,1440.7276629919954,2,16,0.5499359965324402,4.186054706573486,6.300414528154956,6.434824736209332,25.985468356152538,21.88100625253077,0.0001295089750783,0.1199430525302887,0,0,0
2096,97316.87398920582,2011-02-01 13:53:19,1470.7407560146055,2,16,0.5501165986061096,4.190263748168945,6.304999567390947,6.434824736209332,26.004671478779237,21.88100625253077,6.47544875391759e-05,0.1199430525302887,0,0,0
2097,97346.88936277226,2011-02-01 13:53:49,1500.7561295960702,2,16,0.5501165986061096,4.194634914398193,6.309585061799202,6.434824736209332,26.023896005607146,21.88100625253077,0.0001295089750783,0.1199430525302887,0,0,0
2098,97376.90420906454,2011-02-01 13:54:19,1530.770975868318,2,16,0.5501165986061096,4.199005603790283,6.314170701546582,6.434824736209332,26.04314062261105,21.88100625253077,0.0001295089750783,0.1199430525302887,0,0,0
2099,97384.13846641478,2011-02-01 13:54:27,1538.0052332135476,2,16,0.550297200679779,4.200138568878174,6.315276094951119,6.434824736209332,26.04778261775672,21.88100625253077,0.0001618385285837,0.1199430525302887,0,0,0
2100,97414.1534304543,2011-02-01 13:54:57,30.0151123303464,3,16,0.0,4.090542316436768,6.315276094951119,6.434824736209332,26.04778261775672,21.88100625253077,-0.0004532813909463,0.1199430525302887,0,0,0
2101,97444.16855534595,2011-02-01 13:55:27,60.03023722199944,3,16,0.0,4.077915191650391,6.315276094951119,6.434824736209332,26.04778261775672,21.88100625253077,-0.0003237724304199,0.1199430525302887,0,0,0
2102,97474.18368048823,2011-02-01 13:55:57,90.04536236427712,3,16,0.0,4.070306301116943,6.315276094951119,6.434824736209332,26.04778261775672,21.88100625253077,-0.0001295089750783,0.1199430525302887,0,0,0
2103,97504.15191424274,2011-02-01 13:56:27,120.01359611878836,3,16,0.0,4.064640522003174,6.315276094951119,6.434824736209332,26.04778261775672,21.88100625253077,-0.0001295089750783,0.1199430525302887,0,0,0
2104,97504.15379785496,2011-02-01 13:56:27,2.541333786e-06,4,16,0.9758126735687256,4.199976921081543,6.315276095639971,6.434824736209332,26.04778262064988,21.88100625253077,0.0,0.1199430525302887,0,0,0
2105,97504.59106523482,2011-02-01 13:56:27,0.437269931213177,4,16,0.9254226684570312,4.199653148651123,6.315390113042818,6.434824736209332,26.0482614753293,21.88100625253077,-6.47544875391759e-05,0.1199430525302887,0,0,0
2106,97506.5128962641,2011-02-01 13:56:29,2.359100930395756,4,16,0.8753939270973206,4.199814796447754,6.315869276631634,6.434824736209332,26.050273866115816,21.88100625253077,-3.24249267578125e-05,0.1199430525302887,0,0,0
2107,97509.76284460534,2011-02-01 13:56:33,5.609049271646257,4,16,0.8253651261329651,4.199814796447754,6.31663558161732,6.434824736209332,26.05349220517137,21.88100625253077,0.0,0.1199430525302887,0,0,0
2108,97514.51276475788,2011-02-01 13:56:37,10.358969429192758,4,16,0.7749751806259155,4.199814796447754,6.31768988084171,6.434824736209332,26.057920073428647,21.88100625253077,0.0,0.1199430525302887,0,0,0
2109,97520.99709917442,2011-02-01 13:56:44,16.843303875813568,4,16,0.7247657775878906,4.199653148651123,6.319038818295611,6.434824736209332,26.06358537346681,21.88100625253077,-6.47544875391759e-05,0.1199430525302887,0,0,0
2110,97529.87187338244,2011-02-01 13:56:53,25.71807805877726,4,16,0.6747370362281799,4.199814796447754,6.320761034401667,6.434824736209332,26.07081838054769,21.88100625253077,3.23295607813634e-05,0.1199430525302887,0,0,0
2111,97542.1531598572,2011-02-01 13:57:05,37.99936455859218,4,16,0.6247082352638245,4.199814796447754,6.322972759950643,6.434824736209332,26.08010725170021,21.88100625253077,0.0,0.1199430525302887,0,0,0
2112,97560.68387616905,2011-02-01 13:57:23,56.53008084032512,4,16,0.5746794939041138,4.199814796447754,6.326050600335861,6.434824736209332,26.09303365122823,21.88100625253077,-3.24249267578125e-05,0.1199430525302887,0,0,0
2113,97592.04284174512,2011-02-01 13:57:55,87.8890464214658,4,16,0.5246506929397583,4.199814796447754,6.330818584505883,6.434824736209332,26.11305834486805,21.88100625253077,0.0,0.1199430525302887,0,0,0
2114,97650.41671274284,2011-02-01 13:58:53,146.2629174091582,4,16,0.4746219217777252,4.199653148651123,6.338878959374137,6.434824736209332,26.146910594535942,21.88100625253077,0.0,0.1199430525302887,0,0,0
2115,97748.00881625316,2011-02-01 14:00:31,243.85502092445788,4,16,0.4245931804180145,4.199976921081543,6.351028274113827,6.434824736209332,26.19793566345968,21.88100625253077,3.24249267578125e-05,0.1199430525302887,0,0,0
2116,97880.03784188432,2011-02-01 14:02:43,375.8840465556464,4,16,0.3745644092559814,4.199653148651123,6.365659344798983,6.434824736209332,26.259383617335324,21.88100625253077,-3.23295607813634e-05,0.1199430525302887,0,0,0
2117,98044.7851680476,2011-02-01 14:05:28,540.6313727189303,4,16,0.3243550062179565,4.199814796447754,6.381631920668541,6.434824736209332,26.326465852773985,21.88100625253077,0.0,0.1199430525302887,0,0,0
2118,98247.2193085231,2011-02-01 14:08:50,743.065513194423,4,16,0.2743262350559234,4.199814796447754,6.398436233096029,6.434824736209332,26.39704123728684,21.88100625253077,-3.24249267578125e-05,0.1199430525302887,0,0,0
2119,98498.54306419764,2011-02-01 14:13:01,994.3892689190752,4,16,0.2241168767213821,4.199814796447754,6.415798635374485,6.434824736209332,26.46996030295304,21.88100625253077,-3.24249267578125e-05,0.1199430525302887,0,0,0
2120,98825.14690546856,2011-02-01 14:18:28,1320.993110139887,4,16,0.174088105559349,4.199814796447754,6.433787079698588,6.434824736209332,26.54550858299618,21.88100625253077,0.0,0.1199430525302887,0,0,0
2121,99269.92074419316,2011-02-01 14:25:53,1765.7669488644776,4,16,0.1240593269467353,4.199653148651123,6.452049613765788,6.434824736209332,26.622207873816528,21.88100625253077,-3.23295607813634e-05,0.1199430525302887,0,0,0
2122,99985.73664502909,2011-02-01 14:37:49,2481.5828496903823,4,16,0.0738499537110328,4.199653148651123,6.471326278645501,6.434824736209332,26.70316606454661,21.88100625253077,-6.47544875391759e-05,0.1199430525302887,0,0,0
2123,100585.96086765623,2011-02-01 14:47:49,3081.8070723325827,4,16,0.0498289167881011,4.199653148651123,6.481568185094885,6.434824736209332,26.74618029252743,21.88100625253077,-3.23295607813634e-05,0.1199430525302887,0,0,0
2124,100615.97549662132,2011-02-01 14:48:19,30.015364147953363,5,16,0.0,4.189130783081055,6.481568185094885,6.434824736209332,26.74618029252743,21.88100625253077,-9.70840483205393e-05,0.1199430525302887,0,0,0
2125,100645.97499292671,2011-02-01 14:48:49,60.0148605084981,5,16,0.0,4.187511920928955,6.481568185094885,6.434824736209332,26.74618029252743,21.88100625253077,-3.23295607813634e-05,0.1199430525302887,0,0,0
2126,100646.17826537788,2011-02-01 14:48:49,0.203243049214967,6,16,-1.9243103452026844e-05,4.187511920928955,6.481568185094885,6.434824737295728,26.74618029252743,21.88100625708007,0.0,0.1199430525302887,0,0,0
2127,100650.99053819245,2011-02-01 14:48:54,5.01551578858077,6,16,0.0005225847125984,4.187349796295166,6.481569113934723,6.434824737378703,26.74618418216331,21.88100625742753,-6.47544875391759e-05,0.1199430525302887,0,0,0
2128,100660.83450427934,2011-02-01 14:49:04,9.843598050140352,7,16,-1.0993878841400146,3.987259149551392,6.481569113934723,6.437831187396154,26.74618418216331,21.893037255335635,-0.0021044730674475,0.1199430525302887,0,0,0
2129,100690.84959392814,2011-02-01 14:49:34,39.85868769895741,7,16,-1.099568486213684,3.9213714599609375,6.481569113934723,6.446998436601427,26.74618418216331,21.929283800453405,-0.0017159938579425,0.1199430525302887,0,0,0
2130,100720.86495800591,2011-02-01 14:50:04,69.87405175668589,7,16,-1.0997490882873535,3.8561315536499023,6.481569113934723,6.456165697409611,26.74618418216331,21.964936288642445,-0.0018131255637854,0.1199430525302887,0,0,0
2131,100750.87984952594,2011-02-01 14:50:34,99.88894327169253,7,16,-1.099568486213684,3.7905678749084473,6.481569113934723,6.465332840658492,26.74618418216331,21.999984216700017,-0.0016836166614666,0.1199430525302887,0,0,0
2132,100780.8973705445,2011-02-01 14:51:04,129.906464320306,7,16,-1.099929690361023,3.73471736907959,6.481569113934723,6.474500809064989,26.74618418216331,22.03447072948787,-0.0013922214275225,0.1199430525302887,0,0,0
2133,100810.9100829184,2011-02-01 14:51:34,159.91917666414756,7,16,-1.0993878841400146,3.69133186340332,6.481569113934723,6.483667312218009,26.74618418216331,22.06849843533864,-0.0010036944877356,0.1199430525302887,0,0,0
2134,100840.925195755,2011-02-01 14:52:04,189.93428949574323,7,16,-1.099568486213684,3.656364679336548,6.481569113934723,6.492834512955202,26.74618418216331,22.102169713500704,-0.0007770538213662,0.1199430525302887,0,0,0
2135,100870.94030734852,2011-02-01 14:52:34,219.9494010942657,7,16,-1.0993878841400146,3.626901388168335,6.481569113934723,6.502001765051502,26.74618418216331,22.13554885167202,-0.0007122993702068,0.1199430525302887,0,0,0
2136,100900.95784707367,2011-02-01 14:53:04,249.96694086453937,7,16,-1.0993878841400146,3.601809024810791,6.481569113934723,6.511169708693162,26.74618418216331,22.168682333268805,-0.0005827903514727,0.1199430525302887,0,0,0
2137,100930.970572445,2011-02-01 14:53:34,279.97966623083687,7,16,-1.099568486213684,3.579307079315185,6.481569113934723,6.520336333702131,26.74618418216331,22.20159327134901,-0.0005180359003134,0.1199430525302887,0,0,0
2138,100960.9856885297,2011-02-01 14:54:04,309.99478227042783,7,16,-1.099568486213684,3.5592331886291504,6.481569113934723,6.529503584799997,26.74618418216331,22.234312382297944,-0.0005180359003134,0.1199430525302887,0,0,0
2139,100991.00077850433,2011-02-01 14:54:34,340.0098722500694,7,16,-1.099568486213684,3.540616273880005,6.481569113934723,6.538670884398424,26.74618418216331,22.266854619760032,-0.0005180359003134,0.1199430525302887,0,0,0
2140,101021.01592196726,2011-02-01 14:55:04,370.02501573807024,7,16,-1.0993878841400146,3.523294448852539,6.481569113934723,6.547838183788104,26.74618418216331,22.299232265476995,-0.0004532813909463,0.1199430525302887,0,0,0
2141,101051.03104474363,2011-02-01 14:55:34,400.04013850943886,7,16,-1.0993878841400146,3.507106065750122,6.481569113934723,6.557005435831805,26.74618418216331,22.33145683325819,-0.0004856586456298,0.1199430525302887,0,0,0
2142,101081.04615452264,2011-02-01 14:56:04,430.0552482683765,7,16,-1.0993878841400146,3.492374420166016,6.481569113934723,6.566172710501515,26.74618418216331,22.36353906705473,-0.0003561496851034,0.1199430525302887,0,0,0
2143,101111.06137161909,2011-02-01 14:56:34,460.0704653698448,7,16,-1.099568486213684,3.478128433227539,6.481569113934723,6.575340109449978,26.74618418216331,22.395488740176404,-0.0003561496851034,0.1199430525302887,0,0,0
2144,101141.07638546398,2011-02-01 14:57:04,490.0854792548351,7,16,-1.099568486213684,3.4646918773651123,6.481569113934723,6.584507365613654,26.74618418216331,22.4273121297862,-0.0003561496851034,0.1199430525302887,0,0,0
2145,101171.0915258342,2011-02-01 14:57:34,520.100619610028,7,16,-1.099568486213684,3.452064752578736,6.481569113934723,6.593674685101592,26.74618418216331,22.45901717925815,-0.0003561496851034,0.1199430525302887,0,0,0
2146,101201.10663779864,2011-02-01 14:58:04,550.1157315443875,7,16,-1.099568486213684,3.4399232864379883,6.481569113934723,6.602842040194336,26.74618418216331,22.490607912815744,-0.0002913951757363,0.1199430525302887,0,0,0
2147,101231.12171686107,2011-02-01 14:58:34,580.13081062687,7,16,-1.0993878841400146,3.4279439449310303,6.481569113934723,6.612009299156731,26.74618418216331,22.522087838100013,-0.0003237724304199,0.1199430525302887,0,0,0
2148,101261.13686401822,2011-02-01 14:59:04,610.1459577940406,7,16,-1.0993878841400146,3.416126251220703,6.481569113934723,6.621176634707336,26.74618418216331,22.553458586249445,-0.0003237724304199,0.1199430525302887,0,0,0
2149,101291.15208553568,2011-02-01 14:59:34,640.1611792914648,7,16,-1.099568486213684,3.404632329940796,6.481569113934723,6.63034399612618,26.74618418216331,22.584723715893347,-0.0003237724304199,0.1199430525302887,0,0,0
2150,101321.1670666039,2011-02-01 15:00:04,670.1761603496407,7,16,-1.099568486213684,3.3929765224456787,6.481569113934723,6.639511227069427,26.74618418216331,22.61588071102416,-0.0002913951757363,0.1199430525302887,0,0,0
2151,101351.18229962004,2011-02-01 15:00:34,700.1913933908356,7,16,-1.099568486213684,3.3809969425201416,6.481569113934723,6.648678219420871,26.74618418216331,22.64692881228636,-0.0003237724304199,0.1199430525302887,0,0,0
2152,101381.19946590446,2011-02-01 15:01:04,730.20855970033,7,16,-1.0993878841400146,3.3688554763793945,6.481569113934723,6.657845836326993,26.74618418216331,22.67786916711785,-0.0003237724304199,0.1199430525302887,0,0,0
2153,101411.21246491776,2011-02-01 15:01:34,760.2215586635152,7,16,-1.0993878841400146,3.356066465377808,6.481569113934723,6.667012513095894,26.74618418216331,22.708692752034057,-0.0003885269106831,0.1199430525302887,0,0,0
2154,101441.2276828864,2011-02-01 15:02:04,790.2367766371572,7,16,-1.099568486213684,3.34295392036438,6.481569113934723,6.676179913139971,26.74618418216331,22.739399679354616,-0.0003561496851034,0.1199430525302887,0,0,0
2155,101471.24281332688,2011-02-01 15:02:34,820.2519070926771,7,16,-1.0993878841400146,3.329193592071533,6.481569113934723,6.685347286079337,26.74618418216331,22.769983262483763,-0.0003885269106831,0.1199430525302887,0,0,0
2156,101501.25807207717,2011-02-01 15:03:04,850.2671658730219,7,16,-1.0993878841400146,3.3146238327026367,6.481569113934723,6.694514645585457,26.74618418216331,22.800437210780405,-0.0003885269106831,0.1199430525302887,0,0,0
2157,101531.27293562746,2011-02-01 15:03:34,880.2820293631821,7,16,-1.0993878841400146,3.2987589836120605,6.481569113934723,6.703681755851506,26.74618418216331,22.83075095965649,-0.0004209041653666,0.1199430525302887,0,0,0
2158,101561.28803654436,2011-02-01 15:04:04,910.2971302850952,7,16,-1.099568486213684,3.2815990447998047,6.481569113934723,6.712849006148959,26.74618418216331,22.860913648923265,-0.0004856586456298,0.1199430525302887,0,0,0
2159,101591.30318078924,2011-02-01 15:04:34,940.3122745349948,7,16,-1.0993878841400146,3.263791799545288,6.481569113934723,6.722016295876442,26.74618418216331,22.89091692421654,-0.0004856586456298,0.1199430525302887,0,0,0
2160,101621.3208044085,2011-02-01 15:05:05,970.3298981492336,7,16,-1.0993878841400146,3.244041681289673,6.481569113934723,6.731184341152582,26.74618418216331,22.92075053839373,-0.0005504131549969,0.1199430525302887,0,0,0
2161,101651.33339807155,2011-02-01 15:05:35,1000.342491812286,7,16,-1.0993878841400146,3.223158359527588,6.481569113934723,6.740351227996405,26.74618418216331,22.95039269070501,-0.0005180359003134,0.1199430525302887,0,0,0
2162,101681.34864054626,2011-02-01 15:06:05,1030.3577343421296,7,16,-1.099568486213684,3.199846744537353,6.481569113934723,6.749519289704087,26.74618418216331,22.979835887301977,-0.0005827903514727,0.1199430525302887,0,0,0
2163,101711.36365331848,2011-02-01 15:06:35,1060.3727470642216,7,16,-1.099568486213684,3.173945188522339,6.481569113934723,6.758686946145345,26.74618418216331,23.00905413658579,-0.0007446765666827,0.1199430525302887,0,0,0
2164,101741.37877826026,2011-02-01 15:07:05,1090.3878720059995,7,16,-1.0993878841400146,3.145129442214966,6.481569113934723,6.767854325434565,26.74618418216331,23.03802398154915,-0.0008094310760498,0.1199430525302887,0,0,0
2165,101771.39388687134,2011-02-01 15:07:35,1120.4029806170763,7,16,-1.0993878841400146,3.112590312957764,6.481569113934723,6.777021680035735,26.74618418216331,23.066710441745048,-0.0009065627818927,0.1199430525302887,0,0,0
2166,101801.40915183208,2011-02-01 15:08:05,1150.4182456078995,7,16,-1.0993878841400146,3.074709177017212,6.481569113934723,6.786189079123543,26.74618418216331,23.09507436313209,-0.0010684489971026,0.1199430525302887,0,0,0
2167,101831.42411366734,2011-02-01 15:08:35,1180.4332074130912,7,16,-1.0993878841400146,3.0301904678344727,6.481569113934723,6.795356384988755,26.74618418216331,23.12306356763482,-0.0012627125252038,0.1199430525302887,0,0,0
2168,101861.43938016694,2011-02-01 15:09:05,1210.448473912675,7,16,-1.099568486213684,2.974987506866455,6.481569113934723,6.804523842720985,26.74618418216331,23.150596417984136,-0.0016188621520996,0.1199430525302887,0,0,0
2169,101891.45435353594,2011-02-01 15:09:35,1240.4634472716616,7,16,-1.099568486213684,2.905376672744751,6.481569113934723,6.81369113369163,26.74618418216331,23.1775629954916,-0.0020721436012536,0.1199430525302887,0,0,0
2170,101921.46947741508,2011-02-01 15:10:05,1270.478571180866,7,16,-1.099929690361023,2.8173108100891118,6.481569113934723,6.822858483448036,26.74618418216331,23.20381240251104,-0.0026549338363111,0.1199430525302887,0,0,0
2171,101951.48467646656,2011-02-01 15:10:35,1300.4937702624231,7,16,-1.0993878841400146,2.7088472843170166,6.481569113934723,6.8320258661591,26.74618418216331,23.22915567737052,-0.0030434608925133,0.1199430525302887,0,0,0
2172,101953.84406035717,2011-02-01 15:10:37,1302.8531541580555,7,16,-1.0993878841400146,2.699943780899048,6.481569113934723,6.832746465451663,26.74618418216331,23.231104456364378,-0.0030757903587073,0.1199430525302887,0,0,0
2173,102013.85743544908,2011-02-01 15:11:37,60.01460869089114,8,16,0.0,3.738116979598999,6.481569113934723,6.832746465451663,26.74618418216331,23.231104456364378,0.0007770538213662,0.1199430525302887,0,0,0
2174,102014.0449588966,2011-02-01 15:11:37,0.187624417779697,9,16,-1.9243103452026844e-05,3.738278865814209,6.481569113934723,6.832746466454573,26.74618418216331,23.23110446011353,0.0,0.1206444054841995,0,0,0
2175,102018.87288673832,2011-02-01 15:11:42,5.015552254464974,9,16,0.0005225847125984,3.742811679840088,6.481569984337584,6.832746466551849,26.74618743825995,23.231104460477177,0.0006475448608398,0.1206444054841995,0,0,0
