Data_Point,Test_Time(s),Date_Time,Step_Time(s),Step_Index,Cycle_Index,Current(A),Voltage(V),Charge_Capacity(Ah),Discharge_Capacity(Ah),Charge_Energy(Wh),Discharge_Energy(Wh),dV/dt(V/s),Internal_Resistance(Ohm),Is_FC_Data,AC_Impedance(Ohm),ACI_Phase_Angle(Deg)
2685,126724.79999093409,2011-02-01 22:03:33,30.01497345422437,1,21,0.0,3.771789073944092,8.040093159766599,8.368126147596643,33.18979163552276,28.43064877794445,0.0004209041653666,0.1222637891769409,0,0,0
2686,126754.81538905672,2011-02-01 22:04:03,60.03037166707794,1,21,0.0,3.784578084945679,8.040093159766599,8.368126147596643,33.18979163552276,28.43064877794445,0.0002913951757363,0.1222637891769409,0,0,0
2687,126784.83023092798,2011-02-01 22:04:33,90.04521344813227,1,21,0.0,3.794291257858277,8.040093159766599,8.368126147596643,33.18979163552276,28.43064877794445,0.0002266406954731,0.1222637891769409,0,0,0
2688,126814.79846626145,2011-02-01 22:05:03,120.0134487765662,1,21,0.0,3.801738023757935,8.040093159766599,8.368126147596643,33.18979163552276,28.43064877794445,0.0001295089750783,0.1222637891769409,0,0,0
2689,126844.8111506328,2011-02-01 22:05:33,30.01509964372745,2,21,0.5501165986061096,3.925094842910767,8.04467926668375,8.368126147596643,33.20771103753617,28.43064877794445,0.0007122993702068,0.1222637891769409,0,0,0
2690,126874.82638734314,2011-02-01 22:06:03,60.0303363290046,2,21,0.5501165986061096,3.946301937103272,8.04926541209175,8.368126147596643,33.22576434987417,28.43064877794445,0.0004856586456298,0.1222637891769409,0,0,0
2691,126904.84139195502,2011-02-01 22:06:33,90.04534095090841,2,21,0.550297200679779,3.961357355117798,8.053851532868945,8.368126147596643,33.24389810451254,28.43064877794445,0.0003885269106831,0.1222637891769409,0,0,0
2692,126934.85667895067,2011-02-01 22:07:03,120.06062795659952,2,21,0.5499359965324402,3.973822593688965,8.058437628711388,8.368126147596643,33.26209465644974,28.43064877794445,0.0002913951757363,0.1222637891769409,0,0,0
2693,126964.8716213074,2011-02-01 22:07:33,150.0755702882569,2,21,0.5499359965324402,3.985154628753662,8.063023682184598,8.368126147596643,33.280345422840206,28.43064877794445,0.0002590179501567,0.1222637891769409,0,0,0
2694,126994.8868824386,2011-02-01 22:08:03,180.09083144953576,2,21,0.550297200679779,3.995515108108521,8.067609623778097,8.368126147596643,33.29864497834966,28.43064877794445,0.0002913951757363,0.1222637891769409,0,0,0
2695,127024.90184435908,2011-02-01 22:08:33,210.105793354977,2,21,0.5499359965324402,4.004742622375488,8.072195076558195,8.368126147596643,33.316987560593915,28.43064877794445,0.0002265930233988,0.1222637891769409,0,0,0
2696,127054.91697365172,2011-02-01 22:09:03,240.12092263757364,2,21,0.5499359965324402,4.013646602630615,8.076780257181264,8.368126147596643,33.335370590644864,28.43064877794445,0.0002266883820993,0.1222637891769409,0,0,0
2697,127084.9320972802,2011-02-01 22:09:33,270.1360462660785,2,21,0.5499359965324402,4.021740913391113,8.081365849357232,8.368126147596643,33.35379395243591,28.43064877794445,0.0002590179501567,0.1222637891769409,0,0,0
2698,127114.94722059292,2011-02-01 22:10:03,300.1511696038588,2,21,0.550297200679779,4.029349327087402,8.085951759039244,8.368126147596643,33.37225465883412,28.43064877794445,0.0001942634553415,0.1222637891769409,0,0,0
2699,127144.96233585056,2011-02-01 22:10:33,330.1662848364385,2,21,0.5499359965324402,4.036310195922852,8.090537753298662,8.368126147596643,33.39074941473994,28.43064877794445,0.0001942634553415,0.1222637891769409,0,0,0
2700,127174.97758483147,2011-02-01 22:11:03,360.1815338123477,2,21,0.5499359965324402,4.04310941696167,8.09512375051089,8.368126147596643,33.40927597339503,28.43064877794445,0.0001618385285837,0.1222637891769409,0,0,0
2701,127204.99258298728,2011-02-01 22:11:33,390.19653203831086,2,21,0.5499359965324402,4.049584865570068,8.099709753365365,8.368126147596643,33.42783252304531,28.43064877794445,0.0001942634553415,0.1222637891769409,0,0,0
2702,127235.00778779812,2011-02-01 22:12:03,420.2117368140597,2,21,0.5499359965324402,4.055412769317627,8.104295657875769,8.368126147596643,33.44641693676615,28.43064877794445,0.0001295089750783,0.1222637891769409,0,0,0
2703,127265.02279171828,2011-02-01 22:12:33,450.2267407041395,2,21,0.5501165986061096,4.061079025268555,8.10888167076545,8.368126147596643,33.46502872934334,28.43064877794445,0.0001295089750783,0.1222637891769409,0,0,0
2704,127295.03816936488,2011-02-01 22:13:03,480.24211837579816,2,21,0.5499359965324402,4.066744804382324,8.113467704448295,8.368126147596643,33.48366628162924,28.43064877794445,0.0001942634553415,0.1222637891769409,0,0,0
2705,127325.03972865688,2011-02-01 22:13:33,510.24367767281535,2,21,0.5499359965324402,4.071925163269043,8.118051626379094,8.368126147596643,33.50232023001049,28.43064877794445,9.70840483205393e-05,0.1222637891769409,0,0,0
2706,127355.05257351598,2011-02-01 22:14:03,540.2565225018508,2,21,0.5501165986061096,4.077105522155762,8.122637253052886,8.368126147596643,33.52100519487393,28.43064877794445,0.0001295089750783,0.1222637891769409,0,0,0
2707,127385.06779438684,2011-02-01 22:14:33,570.2717434027885,2,21,0.5499359965324402,4.0822858810424805,8.12722324766429,8.368126147596643,33.5397149244121,28.43064877794445,0.0001618385285837,0.1222637891769409,0,0,0
2708,127415.08278600634,2011-02-01 22:15:03,600.2867349871989,2,21,0.5501165986061096,4.086980819702148,8.131809157077752,8.368126147596643,33.558446932528994,28.43064877794445,9.71794142969884e-05,0.1222637891769409,0,0,0
2709,127445.1003770895,2011-02-01 22:15:34,630.3043261054473,2,21,0.5499359965324402,4.091837406158447,8.136395476551622,8.368126147596643,33.57720273443284,28.43064877794445,9.71794142969884e-05,0.1222637891769409,0,0,0
2710,127475.11303461171,2011-02-01 22:16:04,660.3169836276566,2,21,0.5499359965324402,4.096531867980957,8.140981067451015,8.368126147596643,33.595977212449256,28.43064877794445,9.70840483205393e-05,0.1222637891769409,0,0,0
2711,127505.12834001826,2011-02-01 22:16:34,690.3322890091459,2,21,0.5501165986061096,4.101226806640625,8.145567089067216,8.368126147596643,33.61477471863534,28.43064877794445,0.0001295089750783,0.1222637891769409,0,0,0
2712,127535.1432387312,2011-02-01 22:17:04,720.3471877271045,2,21,0.5501165986061096,4.105759620666504,8.150153036885984,8.368126147596643,33.633592772534776,28.43064877794445,9.71794142969884e-05,0.1222637891769409,0,0,0
2713,127565.1586471094,2011-02-01 22:17:34,750.3625962406305,2,21,0.5499359965324402,4.110130310058594,8.154738718430197,8.368126147596643,33.652430302599875,28.43064877794445,9.70840483205393e-05,0.1222637891769409,0,0,0
2714,127595.1734291265,2011-02-01 22:18:04,780.3773781223973,2,21,0.5497553944587708,4.114501476287842,8.1593238594013,8.368126147596643,33.67128585779122,28.43064877794445,0.0001295089750783,0.1222637891769409,0,0,0
2715,127625.18856872982,2011-02-01 22:18:34,810.3925177407539,2,21,0.5499359965324402,4.118872165679932,8.163909191088573,8.368126147596643,33.69016226304246,28.43064877794445,0.0001295089750783,0.1222637891769409,0,0,0
2716,127655.20367916544,2011-02-01 22:19:04,840.4076281763781,2,21,0.5499359965324402,4.1232428550720215,8.168494411638834,8.368126147596643,33.70905810393038,28.43064877794445,0.0001295089750783,0.1222637891769409,0,0,0
2717,127685.21881375628,2011-02-01 22:19:34,870.4227627972793,2,21,0.5499359965324402,4.1274518966674805,8.173079687712649,8.368126147596643,33.72797395162011,28.43064877794445,0.0001295089750783,0.1222637891769409,0,0,0
2718,127715.23392398136,2011-02-01 22:20:04,900.4378729872914,2,21,0.5499359965324402,4.1318230628967285,8.177664924259329,8.368126147596643,33.746909330878914,28.43064877794445,0.0001295089750783,0.1222637891769409,0,0,0
2719,127745.24903580546,2011-02-01 22:20:34,930.4529848063636,2,21,0.5501165986061096,4.136193752288818,8.182250475848244,8.368126147596643,33.76586575888886,28.43064877794445,0.0001295089750783,0.1222637891769409,0,0,0
2720,127775.26419749382,2011-02-01 22:21:04,960.4681465047504,2,21,0.5499359965324402,4.140402793884277,8.186836585825898,8.368126147596643,33.78484427706657,28.43064877794445,0.0001618385285837,0.1222637891769409,0,0,0
2721,127805.2792991676,2011-02-01 22:21:34,990.4832482035996,2,21,0.5497553944587708,4.144611835479736,8.191422362191357,8.368126147596643,33.803840959930305,28.43064877794445,9.70840483205393e-05,0.1222637891769409,0,0,0
2722,127835.29438461094,2011-02-01 22:22:04,1020.4983335968104,2,21,0.5499359965324402,4.148983001708984,8.196007554298752,8.368126147596643,33.82285517787287,28.43064877794445,9.71794142969884e-05,0.1222637891769409,0,0,0
2723,127865.30949835984,2011-02-01 22:22:34,1050.5134473456924,2,21,0.5497553944587708,4.153192043304443,8.200592757703017,8.368126147596643,33.84188910067869,28.43064877794445,9.71794142969884e-05,0.1222637891769409,0,0,0
2724,127895.32473904509,2011-02-01 22:23:04,1080.528688056001,2,21,0.5501165986061096,4.157724857330322,8.205177963274634,8.368126147596643,33.86094252024579,28.43064877794445,0.0001619339018361,0.1222637891769409,0,0,0
2725,127925.34177021775,2011-02-01 22:23:34,1110.5457192437304,2,21,0.5501165986061096,4.161933898925781,8.209763780543625,8.368126147596643,33.880018188398346,28.43064877794445,9.71794142969884e-05,0.1222637891769409,0,0,0
2726,127955.3549792846,2011-02-01 22:24:04,1140.5589282804838,2,21,0.5499359965324402,4.165980815887451,8.214349506450747,8.368126147596643,33.89911317615617,28.43064877794445,9.70840483205393e-05,0.1222637891769409,0,0,0
2727,127985.36996724998,2011-02-01 22:24:34,1170.5739162609118,2,21,0.5501165986061096,4.170351982116699,8.218935485708,8.368126147596643,33.91822892304766,28.43064877794445,9.71794142969884e-05,0.1222637891769409,0,0,0
2728,128015.38518924364,2011-02-01 22:25:04,1200.5891382545728,2,21,0.5499359965324402,4.174722671508789,8.223521439923028,8.368126147596643,33.937364255744654,28.43064877794445,9.70840483205393e-05,0.1222637891769409,0,0,0
2729,128045.4001829734,2011-02-01 22:25:34,1230.6041319843305,2,21,0.5501165986061096,4.179093837738037,8.22810741180111,8.368126147596643,33.95651942790981,28.43064877794445,0.0001295089750783,0.1222637891769409,0,0,0
2730,128075.415289384,2011-02-01 22:26:04,1260.6192383949228,2,21,0.5499359965324402,4.183302879333496,8.232693377374208,8.368126147596643,33.97569433138642,28.43064877794445,9.71794142969884e-05,0.1222637891769409,0,0,0
2731,128105.43042025052,2011-02-01 22:26:34,1290.6343692464295,2,21,0.5499359965324402,4.187673568725586,8.23727937973496,8.368126147596643,33.994889315292106,28.43064877794445,6.47544875391759e-05,0.1222637891769409,0,0,0
2732,128135.44578878442,2011-02-01 22:27:04,1320.6497378254264,2,21,0.5499359965324402,4.192044734954834,8.24186544921991,8.368126147596643,34.01410466403123,28.43064877794445,9.71794142969884e-05,0.1222637891769409,0,0,0
2733,128165.46066404392,2011-02-01 22:27:34,1350.6646130849192,2,21,0.5501165986061096,4.196415424346924,8.24645139456078,8.368126147596643,34.03333947765546,28.43064877794445,9.71794142969884e-05,0.1222637891769409,0,0,0
2734,128189.13221501248,2011-02-01 22:27:58,1374.3361640284247,2,21,0.5501165986061096,4.200138568878174,8.250068218460477,8.368126147596643,34.04852370485527,28.43064877794445,0.0001618385285837,0.1222637891769409,0,0,0
2735,128219.14467225409,2011-02-01 22:28:28,30.015116626052624,3,21,0.0,4.090056419372559,8.250068218460477,8.368126147596643,34.04852370485527,28.43064877794445,-0.0004857063177041,0.1222637891769409,0,0,0
2736,128249.15976786778,2011-02-01 22:28:58,60.03021228484839,3,21,0.0,4.077915191650391,8.250068218460477,8.368126147596643,34.04852370485527,28.43064877794445,-0.0002590179501567,0.1222637891769409,0,0,0
2737,128279.17490163152,2011-02-01 22:29:28,90.04534603858848,3,21,0.0,4.069982528686523,8.250068218460477,8.368126147596643,34.04852370485527,28.43064877794445,-0.0001619339018361,0.1222637891769409,0,0,0
2738,128309.14314791228,2011-02-01 22:29:58,120.01359228924396,3,21,0.0,4.064640522003174,8.250068218460477,8.368126147596643,34.04852370485527,28.43064877794445,-0.0001618385285837,0.1222637891769409,0,0,0
2739,128339.15733881912,2011-02-01 22:30:28,30.01526659482094,5,21,0.0,4.060755252838135,8.250068218460596,8.368126147596643,34.048523704855754,28.43064877794445,-3.23295607813634e-05,0.1222637891769409,0,0,0
2740,128369.1567059426,2011-02-01 22:30:58,60.01463373330454,5,21,0.0,4.057679176330566,8.250068218460596,8.368126147596643,34.048523704855754,28.43064877794445,-3.24249267578125e-05,0.1222637891769409,0,0,0
2741,128369.35976264444,2011-02-01 22:30:58,0.202588412659243,6,21,-1.9243103452026844e-05,4.057679176330566,8.250068218460596,8.368126148599009,34.048523704855754,28.43064878201173,0.0,0.1208627671003341,0,0,0
2742,128374.17284258062,2011-02-01 22:31:03,5.015668343795305,6,21,0.0008838032954372,4.0573554039001465,8.250069131571767,8.368126148599009,34.04852740987699,28.43064878201173,-9.71794142969884e-05,0.1208627671003341,0,0,0
2743,128385.73558037636,2011-02-01 22:31:15,11.56230238517536,7,21,-1.099568486213684,3.857264757156372,8.250069131630534,8.371657466007477,34.048527410115426,28.44432794105653,-0.0020721436012536,0.1208627671003341,0,0,0
2744,128415.75070316778,2011-02-01 22:31:45,41.57742520666893,7,21,-1.099568486213684,3.786682605743408,8.250069131630534,8.380824545738902,34.048527410115426,28.4793655125364,-0.0019102573860436,0.1208627671003341,0,0,0
2745,128445.76582505697,2011-02-01 22:32:15,71.59254706576391,7,21,-1.0993878841400146,3.712215185165405,8.250069131630534,8.389991635429682,34.048527410115426,28.513739587437303,-0.0020073889754712,0.1208627671003341,0,0,0
2746,128475.78092745754,2011-02-01 22:32:45,101.60764946636232,7,21,-1.099568486213684,3.6445469856262207,8.250069131630534,8.399158691333866,34.048527410115426,28.54744877392546,-0.0016512393485754,0.1208627671003341,0,0,0
2747,128505.79604147708,2011-02-01 22:33:15,131.62276351098123,7,21,-1.0993878841400146,3.5917723178863525,8.250069131630534,8.408325762961052,34.048527410115426,28.58060519861893,-0.0011979102855548,0.1208627671003341,0,0,0
2748,128535.81116668956,2011-02-01 22:33:45,161.63788869837134,7,21,-1.099568486213684,3.5513007640838623,8.250069131630534,8.41749284608133,34.048527410115426,28.61333716260399,-0.0009713172912597,0.1208627671003341,0,0,0
2749,128565.82629569646,2011-02-01 22:34:15,191.65301772533084,7,21,-1.0993878841400146,3.5194091796875,8.250069131630534,8.426659965278152,34.048527410115426,28.645740465390706,-0.0007446765666827,0.1208627671003341,0,0,0
2750,128595.84146272314,2011-02-01 22:34:45,221.6681847670348,7,21,-1.099568486213684,3.4933457374572754,8.250069131630534,8.435827072582978,34.048527410115426,28.6778798572504,-0.0006151676061563,0.1208627671003341,0,0,0
2751,128625.8565141166,2011-02-01 22:35:15,251.68323614547023,7,21,-1.0993878841400146,3.4711673259735107,8.250069131630534,8.444994121049671,34.048527410115426,28.709798851830765,-0.0005504131549969,0.1208627671003341,0,0,0
2752,128655.87186216944,2011-02-01 22:35:45,281.6985842033221,7,21,-1.0992072820663452,3.4522266387939453,8.250069131630534,8.454161201322954,34.048527410115426,28.74153004282179,-0.0004532813909463,0.1208627671003341,0,0,0
2753,128685.88688781876,2011-02-01 22:36:15,311.71360981754526,7,21,-1.099568486213684,3.4352285861968994,8.250069131630534,8.46332822725096,34.048527410115426,28.77309690589449,-0.0004209041653666,0.1208627671003341,0,0,0
2754,128715.90187941318,2011-02-01 22:36:45,341.7286014320306,7,21,-1.099568486213684,3.419849634170532,8.250069131630534,8.472495310375812,34.048527410115426,28.804516408264806,-0.0003885269106831,0.1208627671003341,0,0,0
2755,128745.9171033116,2011-02-01 22:37:15,371.74382535048886,7,21,-1.099568486213684,3.4054417610168457,8.250069131630534,8.481662472726693,34.048527410115426,28.83580106994881,-0.0004209041653666,0.1208627671003341,0,0,0
2756,128775.93418216312,2011-02-01 22:37:45,401.7609042270736,7,21,-1.099568486213684,3.391843318939209,8.250069131630534,8.490830139070262,34.048527410115426,28.86695905972439,-0.0003561496851034,0.1208627671003341,0,0,0
2757,128805.94721468494,2011-02-01 22:38:15,431.7739367037848,7,21,-1.0993878841400146,3.3780829906463623,8.250069131630534,8.499996567456243,34.048527410115426,28.897986844820757,-0.0003561496851034,0.1208627671003341,0,0,0
2758,128835.962463315,2011-02-01 22:38:45,461.78918537894447,7,21,-1.099568486213684,3.364322662353516,8.250069131630534,8.509163707828598,34.048527410115426,28.928891471864368,-0.0003885269106831,0.1208627671003341,0,0,0
2759,128865.97743918524,2011-02-01 22:39:15,491.8041611940529,7,21,-1.0997490882873535,3.3495912551879883,8.250069131630534,8.518330776664676,34.048527410115426,28.95966624179179,-0.0004208564641885,0.1208627671003341,0,0,0
2760,128895.99285099198,2011-02-01 22:39:45,521.819573035874,7,21,-1.099568486213684,3.334697723388672,8.250069131630534,8.527497983011925,34.048527410115426,28.99030537471873,-0.0003561496851034,0.1208627671003341,0,0,0
2761,128926.00780417568,2011-02-01 22:40:15,551.8345261844905,7,21,-1.099568486213684,3.317699670791626,8.250069131630534,8.536665064089258,34.048527410115426,29.02079732824232,-0.0004532813909463,0.1208627671003341,0,0,0
2762,128956.02278723384,2011-02-01 22:40:45,581.8495092426509,7,21,-1.0993878841400146,3.2992446422576904,8.250069131630534,8.545832018048584,34.048527410115426,29.051126745089373,-0.0005180359003134,0.1208627671003341,0,0,0
2763,128986.03792213544,2011-02-01 22:41:15,611.8646441693143,7,21,-1.099568486213684,3.2781994342803955,8.250069131630534,8.554999032105115,34.048527410115426,29.081275097602692,-0.0005504131549969,0.1208627671003341,0,0,0
2764,129016.05543285832,2011-02-01 22:41:45,641.8821548921928,7,21,-1.0993878841400146,3.2544023990631104,8.250069131630534,8.564166833829278,34.048527410115426,29.11122312024818,-0.0006475448608398,0.1208627671003341,0,0,0
2765,129046.06829314088,2011-02-01 22:42:15,671.8950151496808,7,21,-1.0993878841400146,3.226881742477417,8.250069131630534,8.573333246075876,34.048527410115426,29.140930937780382,-0.0007770538213662,0.1208627671003341,0,0,0
2766,129076.08328019398,2011-02-01 22:42:45,701.9100022228477,7,21,-1.099568486213684,3.1946663856506348,8.250069131630534,8.582500319255619,34.048527410115426,29.17036866310196,-0.0009065627818927,0.1208627671003341,0,0,0
2767,129106.09837748684,2011-02-01 22:43:15,731.9250995207286,7,21,-1.0993878841400146,3.1558139324188232,8.250069131630534,8.591667440022597,34.048527410115426,29.199482706796264,-0.0011008263099938,0.1208627671003341,0,0,0
2768,129136.113499366,2011-02-01 22:43:45,761.9402214098985,7,21,-1.0993878841400146,3.107410192489624,8.250069131630534,8.600834508015984,34.048527410115426,29.228199008535142,-0.0014245510101318,0.1208627671003341,0,0,0
2769,129166.12860363124,2011-02-01 22:44:15,791.9553256651192,7,21,-1.0993878841400146,3.044760227203369,8.250069131630534,8.610001652065302,34.048527410115426,29.25640961524513,-0.0018455028766766,0.1208627671003341,0,0,0
2770,129196.14375548008,2011-02-01 22:44:45,821.9704775139579,7,21,-1.099568486213684,2.9597702026367188,8.250069131630534,8.619168737571448,34.048527410115426,29.283952811956578,-0.0025901794433593,0.1208627671003341,0,0,0
2771,129226.15884594596,2011-02-01 22:45:15,851.9855679747988,7,21,-1.099568486213684,2.8370609283447266,8.250069131630534,8.628335779654904,34.048527410115426,29.310560153510785,-0.0038528919685631,0.1208627671003341,0,0,0
2772,129249.84596645358,2011-02-01 22:45:39,875.672688467411,7,21,-1.099568486213684,2.699943780899048,8.250069131630534,8.635570197181707,34.048527410115426,29.330610604832543,-0.0051803113892674,0.1208627671003341,0,0,0
2773,129309.86041529462,2011-02-01 22:46:39,60.01468130687251,8,21,0.0,3.738926410675049,8.250069131630534,8.635570197181707,34.048527410115426,29.330610604832543,0.0008741855854168,0.1208627671003341,0,0,0
2774,129310.04873653308,2011-02-01 22:46:39,0.187636247262408,9,21,-1.9243103452026844e-05,3.738926410675049,8.250069131630534,8.63557019818468,34.048527410115426,29.330610608582585,0.0,0.1248056143522262,0,0,0
2775,129314.87666588854,2011-02-01 22:46:44,5.015565577670501,9,21,0.0007031940040178,3.7439448833465576,8.250070055868981,8.635570198351362,34.0485308684914,29.330610609205795,0.0007122993702068,0.1248056143522262,0,0,0
