Data_Point,Test_Time(s),Date_Time,Step_Time(s),Step_Index,Cycle_Index,Current(A),Voltage(V),Charge_Capacity(Ah),Discharge_Capacity(Ah),Charge_Energy(Wh),Discharge_Energy(Wh),dV/dt(V/s),Internal_Resistance(Ohm),Is_FC_Data,AC_Impedance(Ohm),ACI_Phase_Angle(Deg)
1117,51288.26914566321,2011-02-01 01:06:02,30.01509334302415,1,9,0.0,3.757057428359986,3.247249159522486,3.617798508990748,13.382855922785009,12.33965102554068,0.0004209041653666,0.1191326305270195,0,0,0
1118,51318.2836331262,2011-02-01 01:06:32,60.02958081603381,1,9,0.0,3.7693607807159424,3.247249159522486,3.617798508990748,13.382855922785009,12.33965102554068,0.0002913951757363,0.1191326305270195,0,0,0
1119,51348.28377276499,2011-02-01 01:07:02,90.02972045983837,1,9,0.0,3.77858829498291,3.247249159522486,3.617798508990748,13.382855922785009,12.33965102554068,0.0002266406954731,0.1191326305270195,0,0,0
1120,51378.26763314085,2011-02-01 01:07:32,120.01358082066072,1,9,0.0,3.786035060882568,3.247249159522486,3.617798508990748,13.382855922785009,12.33965102554068,0.0001942634553415,0.1191326305270195,0,0,0
1121,51408.28331524154,2011-02-01 01:08:02,30.01511023011197,2,9,0.5499359965324402,3.90777325630188,3.251835141265222,3.617798508990748,13.400696395676365,12.33965102554068,0.0006475448608398,0.1191326305270195,0,0,0
1122,51438.29844738125,2011-02-01 01:08:32,60.03024237985441,2,9,0.5499359965324402,3.928008794784546,3.256421071264655,3.617798508990748,13.41866743135874,12.33965102554068,0.0004209041653666,0.1191326305270195,0,0,0
1123,51468.31630396613,2011-02-01 01:09:03,90.04809897475246,2,9,0.5501165986061096,3.942740440368652,3.261007499203982,3.617798508990748,13.436718415884862,12.33965102554068,0.0003237724304199,0.1191326305270195,0,0,0
1124,51498.32869070345,2011-02-01 01:09:33,120.06048569203246,2,9,0.5501165986061096,3.95455813407898,3.265593036218104,3.617798508990748,13.454825369870791,12.33965102554068,0.0002913951757363,0.1191326305270195,0,0,0
1125,51528.34391350413,2011-02-01 01:10:03,150.0757085127549,2,9,0.5501165986061096,3.964918851852417,3.270178998009934,3.617798508990748,13.472984570627451,12.33965102554068,0.0002913951757363,0.1191326305270195,0,0,0
1126,51558.35903045098,2011-02-01 01:10:33,180.09082543955705,2,9,0.5501165986061096,3.9743082523345943,3.2747649228854,3.617798508990748,13.491189131520963,12.33965102554068,0.0002266406954731,0.1191326305270195,0,0,0
1127,51588.374028702005,2011-02-01 01:11:03,210.10582368055768,2,9,0.5501165986061096,3.9830501079559326,3.279350812358205,3.617798508990748,13.509435243495147,12.33965102554068,0.0002266406954731,0.1191326305270195,0,0,0
1128,51618.38908509293,2011-02-01 01:11:33,240.12088007148583,2,9,0.5501165986061096,3.991144418716431,3.283936976621116,3.617798508990748,13.527721194272608,12.33965102554068,0.0001942634553415,0.1191326305270195,0,0,0
1129,51648.40436555732,2011-02-01 01:12:03,270.136160565949,2,9,0.5501165986061096,3.9985909461975098,3.288523733377984,3.617798508990748,13.546045510867984,12.33965102554068,0.0001618862152099,0.1191326305270195,0,0,0
1130,51678.41933091637,2011-02-01 01:12:33,300.1511259199852,2,9,0.550297200679779,4.005876064300537,3.29311033880835,3.617798508990748,13.564402810141704,12.33965102554068,0.0001942634553415,0.1191326305270195,0,0,0
1131,51708.43446995829,2011-02-01 01:13:03,330.1662649368426,2,9,0.5499359965324402,4.012513160705566,3.297697085057433,3.617798508990748,13.582792244456517,12.33965102554068,0.0001618385285837,0.1191326305270195,0,0,0
1132,51738.44958298537,2011-02-01 01:13:33,360.18137798898795,2,9,0.5499359965324402,4.018826961517334,3.302283828679061,3.617798508990748,13.601211428132268,12.33965102554068,0.0001619339018361,0.1191326305270195,0,0,0
1133,51768.46468140605,2011-02-01 01:14:03,390.1964764146797,2,9,0.5499359965324402,4.024654865264893,3.306870561384934,3.617798508990748,13.61965867518038,12.33965102554068,0.0001295089750783,0.1191326305270195,0,0,0
1134,51798.47992856744,2011-02-01 01:14:33,420.211723571054,2,9,0.5499359965324402,4.030320644378662,3.311457179613786,3.617798508990748,13.638132304455018,12.33965102554068,9.70840483205393e-05,0.1191326305270195,0,0,0
1135,51828.49491750525,2011-02-01 01:15:03,450.2267124838058,2,9,0.5499359965324402,4.035986423492432,3.316043204190275,3.617798508990748,13.656629022129884,12.33965102554068,0.0001295089750783,0.1191326305270195,0,0,0
1136,51858.510037364365,2011-02-01 01:15:33,480.24183234291615,2,9,0.5499359965324402,4.04116678237915,3.32062923305536,3.617798508990748,13.675150175286545,12.33965102554068,0.0001295089750783,0.1191326305270195,0,0,0
1137,51888.52514478247,2011-02-01 01:16:03,510.2569397610197,2,9,0.5501165986061096,4.046347141265869,3.325215278414357,3.617798508990748,13.693694860295112,12.33965102554068,0.0001618385285837,0.1191326305270195,0,0,0
1138,51918.540251127895,2011-02-01 01:16:33,540.2720461064499,2,9,0.5499359965324402,4.051042079925537,3.329801293888802,3.617798508990748,13.712262079585118,12.33965102554068,0.0001295089750783,0.1191326305270195,0,0,0
1139,51948.55538130773,2011-02-01 01:17:03,570.2871762862827,2,9,0.550297200679779,4.055898666381836,3.334387309164779,3.617798508990748,13.730851213826782,12.33965102554068,0.0001295089750783,0.1191326305270195,0,0,0
1140,51978.570487527846,2011-02-01 01:17:33,600.3022825064006,2,9,0.5501165986061096,4.060269355773926,3.338973320244929,3.617798508990748,13.749461728508802,12.33965102554068,6.47544875391759e-05,0.1191326305270195,0,0,0
1141,52008.585721872296,2011-02-01 01:18:03,630.3175168508437,2,9,0.5501165986061096,4.064802169799805,3.343559333104992,3.617798508990748,13.768092716554449,12.33965102554068,0.0001295089750783,0.1191326305270195,0,0,0
1142,52038.60083709986,2011-02-01 01:18:33,660.3326320784108,2,9,0.5501165986061096,4.069173336029053,3.348145325554117,3.617798508990748,13.786743954028724,12.33965102554068,9.71794142969884e-05,0.1191326305270195,0,0,0
1143,52068.61787199182,2011-02-01 01:19:03,690.3496670054598,2,9,0.5499359965324402,4.073544025421143,3.352731052650092,3.617798508990748,13.805413954476265,12.33965102554068,0.0001295089750783,0.1191326305270195,0,0,0
1144,52098.63107306874,2011-02-01 01:19:33,720.3628680723496,2,9,0.5499359965324402,4.077753067016602,3.357315957938513,3.617798508990748,13.824100070638544,12.33965102554068,0.0001295089750783,0.1191326305270195,0,0,0
1145,52128.64607947508,2011-02-01 01:20:03,750.3778744586509,2,9,0.5499359965324402,4.08180046081543,3.361901810802467,3.617798508990748,13.842809375202345,12.33965102554068,9.71794142969884e-05,0.1191326305270195,0,0,0
1146,52158.66119878784,2011-02-01 01:20:33,780.3929937914495,2,9,0.5499359965324402,4.086009502410889,3.366487849296801,3.617798508990748,13.861538428124016,12.33965102554068,9.71794142969884e-05,0.1191326305270195,0,0,0
1147,52188.676327955145,2011-02-01 01:21:03,810.4081229336963,2,9,0.5499359965324402,4.090056419372559,3.371073877399252,3.617798508990748,13.880286179023662,12.33965102554068,0.0001295089750783,0.1191326305270195,0,0,0
1148,52218.69142901741,2011-02-01 01:21:33,840.423223995959,2,9,0.5501165986061096,4.094265460968018,3.375659942806614,3.617798508990748,13.899052729850537,12.33965102554068,0.0001295089750783,0.1191326305270195,0,0,0
1149,52248.70653740794,2011-02-01 01:22:03,870.4383323864862,2,9,0.5501165986061096,4.098150730133057,3.380245961585951,3.617798508990748,13.917837569024254,12.33965102554068,0.0001295089750783,0.1191326305270195,0,0,0
1150,52278.72167364286,2011-02-01 01:22:33,900.4534686414603,2,9,0.5501165986061096,4.102035999298096,3.384832053927277,3.617798508990748,13.936641131066922,12.33965102554068,6.47544875391759e-05,0.1191326305270195,0,0,0
1151,52308.73703979581,2011-02-01 01:23:03,930.4688348244856,2,9,0.5501165986061096,4.106083393096924,3.389418093800497,3.617798508990748,13.955462644223788,12.33965102554068,9.71794142969884e-05,0.1191326305270195,0,0,0
1152,52338.75190454911,2011-02-01 01:23:33,960.4836995276692,2,9,0.5499359965324402,4.109968662261963,3.394004088805807,3.617798508990748,13.97430213346543,12.33965102554068,9.71794142969884e-05,0.1191326305270195,0,0,0
1153,52368.767037561,2011-02-01 01:24:03,990.4988325696352,2,9,0.5499359965324402,4.113853931427002,3.398590124980308,3.617798508990748,13.993159972854803,12.33965102554068,9.71794142969884e-05,0.1191326305270195,0,0,0
1154,52398.78212339532,2011-02-01 01:24:33,1020.5139183738704,2,9,0.5499359965324402,4.117900848388672,3.403176157972152,3.617798508990748,14.012035994219664,12.33965102554068,9.71794142969884e-05,0.1191326305270195,0,0,0
1155,52428.79726344475,2011-02-01 01:25:03,1050.5290584233012,2,9,0.550297200679779,4.122109889984131,3.407762196588637,3.617798508990748,14.030930309919333,12.33965102554068,0.0001619339018361,0.1191326305270195,0,0,0
1156,52458.812355905575,2011-02-01 01:25:33,1080.5441508841266,2,9,0.5501165986061096,4.12599515914917,3.412348276981695,3.617798508990748,14.049842938213157,12.33965102554068,0.0001295089750783,0.1191326305270195,0,0,0
1157,52488.82762156807,2011-02-01 01:26:03,1110.5594165516363,2,9,0.550297200679779,4.13004207611084,3.416934329100971,3.617798508990748,14.068773596835848,12.33965102554068,0.0001295089750783,0.1191326305270195,0,0,0
1158,52518.84260516258,2011-02-01 01:26:33,1140.5744001812209,2,9,0.5501165986061096,4.133765697479248,3.421520363299706,3.617798508990748,14.087722255461864,12.33965102554068,9.71794142969884e-05,0.1191326305270195,0,0,0
1159,52548.85802662336,2011-02-01 01:27:03,1170.589821606928,2,9,0.5499359965324402,4.137812614440918,3.426106437880718,3.617798508990748,14.106689351709202,12.33965102554068,0.0001295089750783,0.1191326305270195,0,0,0
1160,52578.8728655072,2011-02-01 01:27:33,1200.604660485749,2,9,0.5501165986061096,4.141860008239746,3.430692460648244,3.617798508990748,14.125674600170145,12.33965102554068,9.71794142969884e-05,0.1191326305270195,0,0,0
1161,52608.88793721631,2011-02-01 01:28:03,1230.61973220488,2,9,0.5499359965324402,4.145906925201416,3.435278517630075,3.617798508990748,14.144678515286875,12.33965102554068,6.47544875391759e-05,0.1191326305270195,0,0,0
1162,52638.903041311125,2011-02-01 01:28:33,1260.6348362896758,2,9,0.5501165986061096,4.149954319000244,3.439864465044354,3.617798508990748,14.163700597344636,12.33965102554068,9.71794142969884e-05,0.1191326305270195,0,0,0
1163,52668.92072273444,2011-02-01 01:29:03,1290.6525177581048,2,9,0.550297200679779,4.154001235961914,3.444450780540034,3.617798508990748,14.182742616292424,12.33965102554068,0.0001295089750783,0.1191326305270195,0,0,0
1164,52698.93324398703,2011-02-01 01:29:33,1320.6650389756005,2,9,0.5499359965324402,4.157886505126953,3.449036124869711,3.617798508990748,14.201799035217537,12.33965102554068,9.70840483205393e-05,0.1191326305270195,0,0,0
1165,52728.948342708456,2011-02-01 01:30:03,1350.6801377070549,2,9,0.5499359965324402,4.161771774291992,3.453621372622206,3.617798508990748,14.220873621040722,12.33965102554068,6.47544875391759e-05,0.1191326305270195,0,0,0
1166,52758.96347554492,2011-02-01 01:30:33,1380.6952705435085,2,9,0.5499359965324402,4.16614294052124,3.458206714604098,3.617798508990748,14.23996739646634,12.33965102554068,9.71794142969884e-05,0.1191326305270195,0,0,0
1167,52788.9786295441,2011-02-01 01:31:03,1410.7104245226565,2,9,0.5499359965324402,4.170351982116699,3.462791935405885,3.617798508990748,14.2590794213455,12.33965102554068,9.71794142969884e-05,0.1191326305270195,0,0,0
1168,52818.993736325625,2011-02-01 01:31:33,1440.7255313041735,2,9,0.5499359965324402,4.174398899078369,3.467377139767689,3.617798508990748,14.2782103488114,12.33965102554068,0.0001295089750783,0.1191326305270195,0,0,0
1169,52849.00884933766,2011-02-01 01:32:03,1470.7406443162188,2,9,0.5501165986061096,4.178607940673828,3.471962373603652,3.617798508990748,14.29736027140712,12.33965102554068,0.0001295089750783,0.1191326305270195,0,0,0
1170,52879.02404913602,2011-02-01 01:32:33,1500.7558441145625,2,9,0.5501165986061096,4.182655334472656,3.476547741236731,3.617798508990748,14.316529830258547,12.33965102554068,0.0001295089750783,0.1191326305270195,0,0,0
1171,52909.039095652326,2011-02-01 01:33:03,1530.7708906358926,2,9,0.5499359965324402,4.186864376068115,3.481133839582189,3.617798508990748,14.335721627388835,12.33965102554068,0.0001295089750783,0.1191326305270195,0,0,0
1172,52939.054264719074,2011-02-01 01:33:33,1560.7860597026431,2,9,0.5499359965324402,4.190911293029785,3.485719898795904,3.617798508990748,14.354932326608576,12.33965102554068,9.70840483205393e-05,0.1191326305270195,0,0,0
1173,52969.06930872915,2011-02-01 01:34:03,1590.8011037077024,2,9,0.5499359965324402,4.195281982421875,3.490305934043805,3.617798508990748,14.37416220754412,12.33965102554068,0.0001618385285837,0.1191326305270195,0,0,0
1174,52999.08452970528,2011-02-01 01:34:33,1620.81632470889,2,9,0.5499359965324402,4.199491024017334,3.49489132486206,3.617798508990748,14.393408561479111,12.33965102554068,0.0001295089750783,0.1191326305270195,0,0,0
1175,53002.78750309434,2011-02-01 01:34:37,1624.5192980779018,2,9,0.5501165986061096,4.200138568878174,3.495457004407727,3.617798508990748,14.395784253057467,12.33965102554068,0.0001618385285837,0.1191326305270195,0,0,0
1176,53032.80342527385,2011-02-01 01:35:07,30.015099463277707,3,9,0.0,4.089247226715088,3.495457004407727,3.617798508990748,14.395784253057467,12.33965102554068,-0.0004532813909463,0.1191326305270195,0,0,0
1177,53062.82101190091,2011-02-01 01:35:37,60.03268612542029,3,9,0.0,4.076457977294922,3.495457004407727,3.617798508990748,14.395784253057467,12.33965102554068,-0.0002914428769145,0.1191326305270195,0,0,0
1178,53092.833852634736,2011-02-01 01:36:07,90.04552683418675,3,9,0.0,4.068363666534424,3.495457004407727,3.617798508990748,14.395784253057467,12.33965102554068,-0.0001619339018361,0.1191326305270195,0,0,0
1179,53122.80201498629,2011-02-01 01:36:37,120.01368917571486,3,9,0.0,4.062697887420654,3.495457004407727,3.617798508990748,14.395784253057467,12.33965102554068,-0.0001295089750783,0.1191326305270195,0,0,0
1180,53122.81683411072,2011-02-01 01:36:37,0.015972398130726,4,9,0.959557831287384,4.199653148651123,3.495461305030801,3.617798508990748,14.395802314529332,12.33965102554068,-3.23295607813634e-05,0.1191326305270195,0,0,0
1181,53123.78535189504,2011-02-01 01:36:38,0.984490142354792,4,9,0.9089872241020204,4.199653148651123,3.495710737086654,3.617798508990748,14.396849875472972,12.33965102554068,-3.23295607813634e-05,0.1191326305270195,0,0,0
1182,53126.23830151024,2011-02-01 01:36:41,3.437439782612048,4,9,0.8585972785949707,4.199653148651123,3.496311434218215,3.617798508990748,14.399372649223954,12.33965102554068,-3.23295607813634e-05,0.1191326305270195,0,0,0
1183,53130.082034114566,2011-02-01 01:36:45,7.281172401986489,4,9,0.8082072734832764,4.199814796447754,3.497199710985999,3.617798508990748,14.403103219207052,12.33965102554068,-3.24249267578125e-05,0.1191326305270195,0,0,0
1184,53135.45711407771,2011-02-01 01:36:50,12.656252350087913,4,9,0.7579978704452515,4.199814796447754,3.498367086587857,3.617798508990748,14.40800594094038,12.33965102554068,3.23295607813634e-05,0.1191326305270195,0,0,0
1185,53142.72244887752,2011-02-01 01:36:57,19.9215871248342,4,9,0.7079691290855408,4.199814796447754,3.499843989629652,3.617798508990748,14.41420862086987,12.33965102554068,3.23295607813634e-05,0.1191326305270195,0,0,0
1186,53152.6465685423,2011-02-01 01:37:07,29.845706809664087,4,9,0.6579403281211853,4.199814796447754,3.501723197028711,3.617798508990748,14.42210092316253,12.33965102554068,0.0,0.1191326305270195,0,0,0
1187,53166.78451605765,2011-02-01 01:37:21,43.98365429994757,4,9,0.6079115867614746,4.199653148651123,3.504202796177025,3.617798508990748,14.432514719028552,12.33965102554068,0.0,0.1191326305270195,0,0,0
1188,53188.67473861771,2011-02-01 01:37:43,65.87387686503286,4,9,0.5578827857971191,4.199814796447754,3.507735931837487,3.617798508990748,14.447353186763737,12.33965102554068,0.0,0.1191326305270195,0,0,0
1189,53227.75220069705,2011-02-01 01:38:22,104.95133895940651,4,9,0.507673442363739,4.199814796447754,3.513493728188287,3.617798508990748,14.47153476103173,12.33965102554068,0.0,0.1191326305270195,0,0,0
1190,53301.18848096325,2011-02-01 01:39:36,178.38761920555848,4,9,0.4576446712017059,4.199653148651123,3.52329552524303,3.617798508990748,14.512700340676275,12.33965102554068,3.24249267578125e-05,0.1191326305270195,0,0,0
1191,53414.62407793417,2011-02-01 01:41:29,291.8232161864956,4,9,0.4076159000396728,4.199653148651123,3.536892881960439,3.617798508990748,14.569806555046656,12.33965102554068,-3.23295607813634e-05,0.1191326305270195,0,0,0
1192,53560.62152634289,2011-02-01 01:43:55,437.8206646102594,4,9,0.3575871288776397,4.199653148651123,3.552385265643444,3.617798508990748,14.634871434535446,12.33965102554068,-3.23295607813634e-05,0.1191326305270195,0,0,0
1193,53739.886216965286,2011-02-01 01:46:54,617.0853552476943,4,9,0.3075583577156067,4.199653148651123,3.568915718495764,3.617798508990748,14.704296128451086,12.33965102554068,0.0,0.1191326305270195,0,0,0
1194,53961.22436849796,2011-02-01 01:50:36,838.4235069557974,4,9,0.2575295865535736,4.199491024017334,3.586254631654934,3.617798508990748,14.777116162690085,12.33965102554068,-6.47544875391759e-05,0.1191326305270195,0,0,0
1195,54239.71950579592,2011-02-01 01:55:14,1116.9186440582682,4,9,0.2075008153915405,4.199491024017334,3.60419795480404,3.617798508990748,14.85247446248143,12.33965102554068,-6.47544875391759e-05,0.1191326305270195,0,0,0
1196,54606.29125910146,2011-02-01 02:01:21,1483.4903973437645,4,9,0.1574720442295074,4.199653148651123,3.622699938048216,3.617798508990748,14.930179072682424,12.33965102554068,-3.23295607813634e-05,0.1191326305270195,0,0,0
1197,55124.01700660448,2011-02-01 02:09:59,2001.216144886872,4,9,0.1074432730674743,4.199653148651123,3.641564944544662,3.617798508990748,15.009408203885457,12.33965102554068,-3.23295607813634e-05,0.1191326305270195,0,0,0
1198,56030.78477422184,2011-02-01 02:25:05,2907.9839125894537,4,9,0.0574145056307315,4.199653148651123,3.661696369657536,3.617798508990748,15.0939558740003,12.33965102554068,-6.47544875391759e-05,0.1191326305270195,0,0,0
1199,56259.48192954626,2011-02-01 02:28:54,3136.6810678186403,4,9,0.0498289167881011,4.199653148651123,3.665130260186819,3.617798508990748,15.108377506900691,12.33965102554068,-6.47544875391759e-05,0.1191326305270195,0,0,0
1200,56289.496277961065,2011-02-01 02:29:24,30.01284784154354,5,9,0.0,4.188968658447266,3.665130260186819,3.617798508990748,15.108377506900691,12.33965102554068,-6.47544875391759e-05,0.1191326305270195,0,0,0
1201,56319.49562038295,2011-02-01 02:29:54,60.0121902433758,5,9,0.0,4.187349796295166,3.665130260186819,3.617798508990748,15.108377506900691,12.33965102554068,-6.47544875391759e-05,0.1191326305270195,0,0,0
1202,56319.681669360274,2011-02-01 02:29:54,0.187429973163885,6,9,-1.9243103452026844e-05,4.187511920928955,3.665130260186819,3.617798509992619,15.108377506900691,12.339651029736023,0.0,0.1198347061872482,0,0,0
1203,56324.50996247234,2011-02-01 02:29:59,5.015723110290262,6,9,0.0007031940040178,4.187511920928955,3.66513118133879,3.617798510077305,15.108381364244394,12.339651030090648,0.0,0.1198347061872482,0,0,0
1204,56333.27199703242,2011-02-01 02:30:08,8.7635846995589,7,9,-1.099568486213684,3.9874210357666016,3.66513118133879,3.620475059015,15.108381364244394,12.350359005329016,-0.0022339820861816,0.1198347061872482,0,0,0
1205,56363.28697113325,2011-02-01 02:30:38,38.77855876530738,7,9,-1.0997490882873535,3.921857118606568,3.66513118133879,3.629642192420936,15.108381364244394,12.38660623218453,-0.0017159938579425,0.1198347061872482,0,0,0
1206,56393.30220937741,2011-02-01 02:31:08,68.79379703453222,7,9,-1.099568486213684,3.856779098510742,3.66513118133879,3.638809302101966,15.108381364244394,12.422263062166982,-0.0017807483673095,0.1198347061872482,0,0,0
1207,56423.31722114212,2011-02-01 02:31:38,98.80880878420062,7,9,-1.099568486213684,3.792348623275757,3.66513118133879,3.647976346800351,15.108381364244394,12.457319644138297,-0.0016512393485754,0.1198347061872482,0,0,0
1208,56453.33246334114,2011-02-01 02:32:08,128.82405098823222,7,9,-1.099568486213684,3.737469434738159,3.66513118133879,3.657143479198927,15.108381364244394,12.491824050037383,-0.0012950897216796,0.1198347061872482,0,0,0
1209,56483.3474349608,2011-02-01 02:32:38,158.83902260287175,7,9,-1.099568486213684,3.6940839290618896,3.66513118133879,3.666310526854352,15.108381364244394,12.525879046584574,-0.0010360718006268,0.1198347061872482,0,0,0
1210,56513.36254233379,2011-02-01 02:33:08,188.8541299808754,7,9,-1.0993878841400146,3.659278631210327,3.66513118133879,3.675477614625626,15.108381364244394,12.559579029711186,-0.0008741855854168,0.1198347061872482,0,0,0
1211,56543.37768139074,2011-02-01 02:33:38,218.8692690628952,7,9,-1.0993878841400146,3.630624771118164,3.66513118133879,3.684644701506502,15.108381364244394,12.59298986854064,-0.0007122993702068,0.1198347061872482,0,0,0
1212,56573.39291570512,2011-02-01 02:34:08,248.88450336723835,7,9,-1.0993878841400146,3.60569429397583,3.66513118133879,3.69381185205651,15.108381364244394,12.62615569224034,-0.0006151676061563,0.1198347061872482,0,0,0
1213,56603.40791489848,2011-02-01 02:34:38,278.8995025505876,7,9,-1.099568486213684,3.5836780071258545,3.66513118133879,3.702978891648735,15.108381364244394,12.65910632894651,-0.0005827903514727,0.1198347061872482,0,0,0
1214,56633.42312121808,2011-02-01 02:35:08,308.9147088802091,7,9,-1.099568486213684,3.56360411643982,3.66513118133879,3.712146077664964,15.108381364244394,12.691865456757766,-0.0005180359003134,0.1198347061872482,0,0,0
1215,56663.4381737945,2011-02-01 02:35:38,338.9297614816928,7,9,-1.0993878841400146,3.5456347465515137,3.66513118133879,3.721313151048296,15.108381364244394,12.724449792031804,-0.0004209041653666,0.1198347061872482,0,0,0
1216,56693.45324533319,2011-02-01 02:36:08,368.9448329953114,7,9,-1.0993878841400146,3.528474807739258,3.66513118133879,3.730480308672268,15.108381364244394,12.756872650785736,-0.0004209041653666,0.1198347061872482,0,0,0
1217,56723.46837208447,2011-02-01 02:36:38,398.9599597265493,7,9,-1.099568486213684,3.5126099586486816,3.66513118133879,3.739647488363244,15.108381364244394,12.789145002317143,-0.0004209041653666,0.1198347061872482,0,0,0
1218,56753.4834684801,2011-02-01 02:37:08,428.9750561422314,7,9,-1.099568486213684,3.4978785514831543,3.66513118133879,3.748814620015246,15.108381364244394,12.821277396088917,-0.0003561496851034,0.1198347061872482,0,0,0
1219,56783.4986026198,2011-02-01 02:37:38,458.9901902618834,7,9,-1.0993878841400146,3.4836325645446777,3.66513118133879,3.757981867368426,15.108381364244394,12.853277443819014,-0.0003561496851034,0.1198347061872482,0,0,0
1220,56813.513701601885,2011-02-01 02:38:08,489.0052892389494,7,9,-1.0993878841400146,3.470196008682251,3.66513118133879,3.767148954328311,15.108381364244394,12.885149486632333,-0.0003561496851034,0.1198347061872482,0,0,0
1221,56843.52893406163,2011-02-01 02:38:38,519.0205217037077,7,9,-1.099568486213684,3.457406997680664,3.66513118133879,3.7763161232309,15.108381364244394,12.916902512223029,-0.0003561496851034,0.1198347061872482,0,0,0
1222,56873.5439411948,2011-02-01 02:39:08,549.0355288569203,7,9,-1.099568486213684,3.445103645324707,3.66513118133879,3.78548327895539,15.108381364244394,12.94854004953207,-0.0003237724304199,0.1198347061872482,0,0,0
1223,56903.56133090607,2011-02-01 02:39:38,579.0529186032883,7,9,-1.099568486213684,3.43312406539917,3.66513118133879,3.794651102663313,15.108381364244394,12.980068743745212,-0.0003237724304199,0.1198347061872482,0,0,0
1224,56933.57431682675,2011-02-01 02:40:08,609.0659044638174,7,9,-1.099568486213684,3.4219541549682617,3.66513118133879,3.803817659229505,15.108381364244394,13.011486535014072,-0.0002590179501567,0.1198347061872482,0,0,0
1225,56963.58926849167,2011-02-01 02:40:38,639.0808561337487,7,9,-1.0993878841400146,3.4104602336883545,3.66513118133879,3.812984826645408,15.108381364244394,13.042802456639471,-0.0002913951757363,0.1198347061872482,0,0,0
1226,56993.60451955779,2011-02-01 02:41:08,669.0961072098924,7,9,-1.099568486213684,3.3989663124084477,3.66513118133879,3.822152019493088,15.108381364244394,13.074014743176274,-0.0003561496851034,0.1198347061872482,0,0,0
1227,57023.621989047904,2011-02-01 02:41:39,699.113576740106,7,9,-1.0993878841400146,3.38828182220459,3.66513118133879,3.831319864145524,15.108381364244394,13.105128175586549,-0.0002913951757363,0.1198347061872482,0,0,0
1228,57053.63474584253,2011-02-01 02:42:09,729.1263334846077,7,9,-1.0993878841400146,3.3767879009246826,3.66513118133879,3.840486264564786,15.108381364244394,13.136134224109608,-0.0003237724304199,0.1198347061872482,0,0,0
1229,57083.64989147087,2011-02-01 02:42:39,759.1414791680805,7,9,-1.0993878841400146,3.3652939796447754,3.66513118133879,3.849653426767903,15.108381364244394,13.16703709482691,-0.0002913951757363,0.1198347061872482,0,0,0
1230,57113.66486698522,2011-02-01 02:43:09,789.156454627302,7,9,-1.0993878841400146,3.3531525135040283,3.66513118133879,3.85882051724403,15.108381364244394,13.197831259448034,-0.0003237724304199,0.1198347061872482,0,0,0
1231,57143.6799792454,2011-02-01 02:43:39,819.171566882461,7,9,-1.0993878841400146,3.3405256271362305,3.66513118133879,3.867987608312736,15.108381364244394,13.228512738433402,-0.0003561496851034,0.1198347061872482,0,0,0
1232,57173.695077189885,2011-02-01 02:44:09,849.1866648520158,7,9,-1.099568486213684,3.3272509574890137,3.66513118133879,3.877154778824623,15.108381364244394,13.259075892938032,-0.0003561496851034,0.1198347061872482,0,0,0
1233,57203.71019242747,2011-02-01 02:44:39,879.2017800695579,7,9,-1.0997490882873535,3.312843084335327,3.66513118133879,3.886321968447956,15.108381364244394,13.289512804684223,-0.0003885269106831,0.1198347061872482,0,0,0
1234,57233.7253051087,2011-02-01 02:45:09,909.2168927758412,7,9,-1.099568486213684,3.2979495525360107,3.66513118133879,3.895489036813801,15.108381364244394,13.319815331895208,-0.0004209041653666,0.1198347061872482,0,0,0
1235,57263.74043183493,2011-02-01 02:45:39,939.2320195321416,7,9,-1.0993878841400146,3.2819228172302246,3.66513118133879,3.904656180870176,15.108381364244394,13.349975078967423,-0.0004532813909463,0.1198347061872482,0,0,0
1236,57293.755683903546,2011-02-01 02:46:09,969.2472715556462,7,9,-1.099568486213684,3.264115571975708,3.66513118133879,3.913823373503353,15.108381364244394,13.379980628111117,-0.0005180359003134,0.1198347061872482,0,0,0
1237,57323.77068203427,2011-02-01 02:46:39,999.2622697014097,7,9,-1.099568486213684,3.2453367710113525,3.66513118133879,3.922990498337769,15.108381364244394,13.40981875908029,-0.0004856586456298,0.1198347061872482,0,0,0
1238,57353.78577715673,2011-02-01 02:47:09,1029.2773648238688,7,9,-1.0993878841400146,3.2251009941101074,3.66513118133879,3.932157645058161,15.108381364244394,13.439477460536276,-0.0005180359003134,0.1198347061872482,0,0,0
1239,57383.80089709603,2011-02-01 02:47:39,1059.2924847381166,7,9,-1.0993878841400146,3.2029225826263428,3.66513118133879,3.941324759702516,15.108381364244394,13.46894225422638,-0.0005827903514727,0.1198347061872482,0,0,0
1240,57413.81621040729,2011-02-01 02:48:09,1089.3077981546317,7,9,-1.0993878841400146,3.178154230117798,3.66513118133879,3.950491990309807,15.108381364244394,13.498191339406064,-0.0006475448608398,0.1198347061872482,0,0,0
1241,57443.831111947286,2011-02-01 02:48:39,1119.3226995893613,7,9,-1.0993878841400146,3.1511192321777344,3.66513118133879,3.959659122248397,15.108381364244394,13.527203705720442,-0.0007122993702068,0.1198347061872482,0,0,0
1242,57473.84620413744,2011-02-01 02:49:09,1149.337791779512,7,9,-1.0993878841400146,3.120360851287842,3.66513118133879,3.968826261973033,15.108381364244394,13.555951757490549,-0.0008741855854168,0.1198347061872482,0,0,0
1243,57503.86332488338,2011-02-01 02:49:39,1179.3549125605357,7,9,-1.0993878841400146,3.0855555534362797,3.66513118133879,3.977993787140672,15.108381364244394,13.584400037348788,-0.0009389400365762,0.1198347061872482,0,0,0
1244,57533.876468066,2011-02-01 02:50:09,1209.3680557180974,7,9,-1.099568486213684,3.0465409755706787,3.66513118133879,3.987160029532324,15.108381364244394,13.612509090234893,-0.0011008263099938,0.1198347061872482,0,0,0
1245,57563.89162061659,2011-02-01 02:50:39,1239.38320825866,7,9,-1.0997490882873535,2.999270439147949,3.66513118133879,3.996327702701602,15.108381364244394,13.640227998389529,-0.0013598442310467,0.1198347061872482,0,0,0
1246,57593.90673671131,2011-02-01 02:51:09,1269.3983243533885,7,9,-1.0997490882873535,2.9411535263061523,3.66513118133879,4.005495644571639,15.108381364244394,13.667469039641087,-0.0017159462440758,0.1198347061872482,0,0,0
1247,57623.92189131201,2011-02-01 02:51:39,1299.4134789540856,7,9,-1.099568486213684,2.868628740310669,3.66513118133879,4.014663057090627,15.108381364244394,13.694111668979456,-0.0021368502639234,0.1198347061872482,0,0,0
1248,57653.93701468989,2011-02-01 02:52:09,1329.4286023419909,7,9,-1.099568486213684,2.77764892578125,3.66513118133879,4.023830290227717,15.108381364244394,13.720008204711968,-0.0026872635353356,0.1198347061872482,0,0,0
1249,57675.93663900279,2011-02-01 02:52:31,1351.4282266699313,7,9,-1.099568486213684,2.699943780899048,3.66513118133879,4.030549409922235,15.108381364244394,13.738414404785289,-0.0029462813399732,0.1198347061872482,0,0,0
1250,57735.95114209856,2011-02-01 02:53:31,60.01245207093062,8,9,0.0,3.73585057258606,3.66513118133879,4.030549409922235,15.108381364244394,13.738414404785289,0.0007770538213662,0.1198347061872482,0,0,0
1251,57736.13783473261,2011-02-01 02:53:31,0.187539080091921,9,9,-1.9243103452026844e-05,3.7356886863708496,3.66513118133879,4.030549410924689,15.108381364244394,13.738414408530142,0.0,0.1198347061872482,0,0,0
1252,57740.96586403718,2011-02-01 02:53:36,5.015568414741356,9,9,0.0005225847125984,3.7403833866119385,3.66513206440183,4.030549411091245,15.108384665522337,13.738414409152346,0.0006799221155233,0.1198347061872482,0,0,0
