Data_Point,Test_Time(s),Date_Time,Step_Time(s),Step_Index,Cycle_Index,Current(A),Voltage(V),Charge_Capacity(Ah),Discharge_Capacity(Ah),Charge_Energy(Wh),Discharge_Energy(Wh),dV/dt(V/s),Internal_Resistance(Ohm),Is_FC_Data,AC_Impedance(Ohm),ACI_Phase_Angle(Deg)
85,3693.9890994660514,2011-01-31 11:52:40,30.01304084757395,1,2,0.0,3.730022668838501,0.06116946387707,0.500405708768566,0.256891317711539,1.72137069326343,0.0004856586456298,0.1152889803051948,0,0,0
86,3724.004206047068,2011-01-31 11:53:10,60.02814743861624,1,2,0.0,3.7439448833465576,0.06116946387707,0.500405708768566,0.256891317711539,1.72137069326343,0.0003237724304199,0.1152889803051948,0,0,0
87,3754.01934702381,2011-01-31 11:53:40,90.04328843039575,1,2,0.0,3.753819704055786,0.06116946387707,0.500405708768566,0.256891317711539,1.72137069326343,0.0002589702489785,0.1152889803051948,0,0,0
88,3783.9875976403473,2011-01-31 11:54:10,120.0115390268824,1,2,0.0,3.7611045837402335,0.06116946387707,0.500405708768566,0.256891317711539,1.72137069326343,0.0001618862152099,0.1152889803051948,0,0,0
89,3814.0032716057895,2011-01-31 11:54:40,30.01523787825041,2,2,0.5501165986061096,3.878148078918457,0.065754865252594,0.500405708768566,0.274599138187871,1.72137069326343,0.0006799221155233,0.1152889803051948,0,0,0
90,3844.018273631222,2011-01-31 11:55:10,60.03023989867053,2,2,0.5499359965324402,3.8970887660980233,0.070340249428631,0.500405708768566,0.292428648955916,1.72137069326343,0.0004209041653666,0.1152889803051948,0,0,0
91,3874.033508762627,2011-01-31 11:55:40,90.0454750651624,2,2,0.5499359965324402,3.910525321960449,0.074925663838328,0.500405708768566,0.31033003919498,1.72137069326343,0.0003561496851034,0.1152889803051948,0,0,0
92,3904.048518818073,2011-01-31 11:56:10,120.06048509053332,2,2,0.5499359965324402,3.9207239151000977,0.079511042159366,0.500405708768566,0.328285076989573,1.72137069326343,0.0002590179501567,0.1152889803051948,0,0,0
93,3934.063627323887,2011-01-31 11:56:40,150.0755935963478,2,2,0.5501165986061096,3.929789543151856,0.084096389144415,0.500405708768566,0.346284393057013,1.72137069326343,0.0002266406954731,0.1152889803051948,0,0,0
94,3964.079132378022,2011-01-31 11:57:10,180.09109866552024,2,2,0.5499359965324402,3.937721967697144,0.088681801211092,0.500405708768566,0.364322795987577,1.72137069326343,0.0001942634553415,0.1152889803051948,0,0,0
95,3994.093867678695,2011-01-31 11:57:40,210.1058339461427,2,2,0.5499359965324402,3.9451687335968018,0.093267033007269,0.500405708768566,0.382395886510017,1.72137069326343,0.0001618862152099,0.1152889803051948,0,0,0
96,4024.109135847438,2011-01-31 11:58:10,240.12110211488636,2,2,0.5499359965324402,3.95212984085083,0.097852351566995,0.500405708768566,0.40050217042385,1.72137069326343,0.0001618862152099,0.1152889803051948,0,0,0
97,4054.124097737842,2011-01-31 11:58:40,270.13606403536505,2,2,0.5499359965324402,3.9587671756744394,0.10243765539694,0.500405708768566,0.418639109595451,1.72137069326343,0.0001618862152099,0.1152889803051948,0,0,0
98,4084.141297074651,2011-01-31 11:59:10,300.1532633521237,2,2,0.5499359965324402,3.964756965637207,0.107023258576654,0.500405708768566,0.436806248915779,1.72137069326343,0.0001295089750783,0.1152889803051948,0,0,0
99,4114.154369235266,2011-01-31 11:59:40,330.1663355327894,2,2,0.5501165986061096,3.970746755599976,0.1116082660587,0.500405708768566,0.454998344232294,1.72137069326343,0.0001942634553415,0.1152889803051948,0,0,0
100,4144.169614867843,2011-01-31 12:00:10,360.181581165366,2,2,0.5501165986061096,3.976250886917114,0.116193642794443,0.500405708768566,0.473217797369379,1.72137069326343,0.0002266406954731,0.1152889803051948,0,0,0
101,4174.184733704405,2011-01-31 12:00:40,390.196699971853,2,2,0.5501165986061096,3.981269359588623,0.120778965804944,0.500405708768566,0.491461382643967,1.72137069326343,0.0001295089750783,0.1152889803051948,0,0,0
102,4204.200011923197,2011-01-31 12:01:10,420.21197819565685,2,2,0.5499359965324402,3.986125946044922,0.125364236527633,0.500405708768566,0.5097281274971,1.72137069326343,9.713172767078504e-05,0.1152889803051948,0,0,0
103,4234.214830546534,2011-01-31 12:01:40,450.226796818995,2,2,0.5497553944587708,3.9909825325012207,0.129949405659236,0.500405708768566,0.528016611197965,1.72137069326343,9.713172767078504e-05,0.1152889803051948,0,0,0
104,4264.229944425741,2011-01-31 12:02:10,480.2419106982017,2,2,0.5499359965324402,3.995515108108521,0.134534600423908,0.500405708768566,0.546326608707121,1.72137069326343,9.713172767078504e-05,0.1152889803051948,0,0,0
105,4294.245067868784,2011-01-31 12:02:40,510.25703413121926,2,2,0.5499359965324402,3.9998860359191895,0.139119880147259,0.500405708768566,0.564657189569365,1.72137069326343,0.0001295089750783,0.1152889803051948,0,0,0
106,4324.2626656736975,2011-01-31 12:03:10,540.2746319762331,2,2,0.5499359965324402,4.003933429718018,0.143705450603193,0.500405708768566,0.583008465191162,1.72137069326343,9.71794142969884e-05,0.1152889803051948,0,0,0
107,4354.275350749579,2011-01-31 12:03:40,570.2873170521145,2,2,0.5499359965324402,4.008142471313477,0.148290355186835,0.500405708768566,0.601376060782757,1.72137069326343,0.0001295089750783,0.1152889803051948,0,0,0
108,4384.290435731766,2011-01-31 12:04:10,600.3024020042259,2,2,0.550297200679779,4.012027740478516,0.15287562608215,0.500405708768566,0.619763534669901,1.72137069326343,9.71794142969884e-05,0.1152889803051948,0,0,0
109,4414.305558979321,2011-01-31 12:04:40,630.3175252467688,2,2,0.5501165986061096,4.0160746574401855,0.157460877562393,0.500405708768566,0.638168960608173,1.72137069326343,0.0001295089750783,0.1152889803051948,0,0,0
110,4444.3206614350565,2011-01-31 12:05:10,660.3326276974923,2,2,0.5499359965324402,4.019798278808594,0.162046149865641,0.500405708768566,0.656592092573277,1.72137069326343,9.71794142969884e-05,0.1152889803051948,0,0,0
111,4474.335759048725,2011-01-31 12:05:40,690.3477253211851,2,2,0.5499359965324402,4.023683547973633,0.166631379568509,0.500405708768566,0.675032381112214,1.72137069326343,9.71794142969884e-05,0.1152889803051948,0,0,0
112,4504.350881273732,2011-01-31 12:06:10,720.362847546192,2,2,0.5501165986061096,4.027245044708252,0.171216669279561,0.500405708768566,0.693489965759732,1.72137069326343,9.71794142969884e-05,0.1152889803051948,0,0,0
113,4534.366019734202,2011-01-31 12:06:40,750.3779860016502,2,2,0.5501165986061096,4.030806541442871,0.175801924000437,0.500405708768566,0.711964193669622,1.72137069326343,6.47544875391759e-05,0.1152889803051948,0,0,0
114,4564.381134600871,2011-01-31 12:07:10,780.3931008683181,2,2,0.5501165986061096,4.034529685974121,0.180387267862754,0.500405708768566,0.730455372131722,1.72137069326343,9.70840483205393e-05,0.1152889803051948,0,0,0
115,4594.396372569345,2011-01-31 12:07:40,810.4083388367931,2,2,0.5497553944587708,4.037929058074951,0.184972527668748,0.500405708768566,0.748962585199169,1.72137069326343,9.70840483205393e-05,0.1152889803051948,0,0,0
116,4624.411355572368,2011-01-31 12:08:10,840.4233218398161,2,2,0.5499359965324402,4.04149055480957,0.189557011754246,0.500405708768566,0.767482813873644,1.72137069326343,6.47544875391759e-05,0.1152889803051948,0,0,0
117,4654.4266320819,2011-01-31 12:08:40,870.4385983643849,2,2,0.5501165986061096,4.0450520515441895,0.194141585678547,0.500405708768566,0.786019552250145,1.72137069326343,0.0001295089750783,0.1152889803051948,0,0,0
118,4684.443713133906,2011-01-31 12:09:10,900.4556794464668,2,2,0.5499359965324402,4.048451900482178,0.198727242970743,0.500405708768566,0.804576789818303,1.72137069326343,9.71794142969884e-05,0.1152889803051948,0,0,0
119,4714.456874832678,2011-01-31 12:09:40,930.4688411001264,2,2,0.5499359965324402,4.052013397216797,0.203312251266852,0.500405708768566,0.823147273775939,1.72137069326343,9.71794142969884e-05,0.1152889803051948,0,0,0
120,4744.471893344199,2011-01-31 12:10:10,960.48385963671,2,2,0.5499359965324402,4.055412769317627,0.207897508985014,0.500405708768566,0.841734548008878,1.72137069326343,6.47544875391759e-05,0.1152889803051948,0,0,0
121,4774.4869856346,2011-01-31 12:10:40,990.4989519070608,2,2,0.5499359965324402,4.058812618255615,0.212482918133775,0.500405708768566,0.860338245886037,1.72137069326343,6.47544875391759e-05,0.1152889803051948,0,0,0
122,4804.502133834344,2011-01-31 12:11:10,1020.5141001118172,2,2,0.5497553944587708,4.062374114990234,0.217068354345419,0.500405708768566,0.878957528303762,1.72137069326343,9.71794142969884e-05,0.1152889803051948,0,0,0
123,4834.517219748855,2011-01-31 12:11:40,1050.529186016302,2,2,0.5501165986061096,4.065611839294434,0.221653630341566,0.500405708768566,0.897591625676251,1.72137069326343,9.71794142969884e-05,0.1152889803051948,0,0,0
124,4864.532468509226,2011-01-31 12:12:10,1080.5444347816867,2,2,0.5499359965324402,4.069011211395264,0.226238928267414,0.500405708768566,0.916241332358274,1.72137069326343,0.0001295089750783,0.1152889803051948,0,0,0
125,4894.547489537018,2011-01-31 12:12:40,1110.5594558044666,2,2,0.5499359965324402,4.072248935699463,0.230824202074816,0.500405708768566,0.934906443037293,1.72137069326343,6.47544875391759e-05,0.1152889803051948,0,0,0
126,4924.562822948367,2011-01-31 12:13:10,1140.57478924589,2,2,0.5499359965324402,4.075810432434082,0.235409543382067,0.500405708768566,0.9535874185558,1.72137069326343,9.70840483205393e-05,0.1152889803051948,0,0,0
127,4954.577726794105,2011-01-31 12:13:40,1170.5896930916283,2,2,0.5499359965324402,4.079048156738281,0.239994807976544,0.500405708768566,0.972283667684769,1.72137069326343,6.47544875391759e-05,0.1152889803051948,0,0,0
128,4984.592825179697,2011-01-31 12:14:10,1200.6047914521578,2,2,0.5499359965324402,4.0826096534729,0.24458010481573,0.500405708768566,0.99099570364291,1.72137069326343,9.70840483205393e-05,0.1152889803051948,0,0,0
129,5014.607937525081,2011-01-31 12:14:40,1230.6199037975416,2,2,0.5499359965324402,4.086009502410889,0.249165383404408,0.500405708768566,1.009723390125799,1.72137069326343,6.47544875391759e-05,0.1152889803051948,0,0,0
130,5044.625771247976,2011-01-31 12:15:11,1260.637737555523,2,2,0.5501165986061096,4.089408874511719,0.253751039169258,0.500405708768566,1.028468220389071,1.72137069326343,9.70840483205393e-05,0.1152889803051948,0,0,0
131,5074.638374519976,2011-01-31 12:15:41,1290.6503407924365,2,2,0.5499359965324402,4.092808723449707,0.258335990823787,0.500405708768566,1.047225825411384,1.72137069326343,9.71794142969884e-05,0.1152889803051948,0,0,0
132,5104.653429823194,2011-01-31 12:16:11,1320.6653961357538,2,2,0.5499359965324402,4.096208095550537,0.262921291168161,0.500405708768566,1.066000625675792,1.72137069326343,6.47544875391759e-05,0.1152889803051948,0,0,0
133,5134.668430881216,2011-01-31 12:16:41,1350.680397148663,2,2,0.5497553944587708,4.099607944488525,0.267506607365477,0.500405708768566,1.084791371444892,1.72137069326343,9.71794142969884e-05,0.1152889803051948,0,0,0
134,5164.683591847777,2011-01-31 12:17:11,1380.6955581453003,2,2,0.5499359965324402,4.103331089019775,0.272091924204748,0.500405708768566,1.103597980323833,1.72137069326343,9.70840483205393e-05,0.1152889803051948,0,0,0
135,5194.698806377837,2011-01-31 12:17:41,1410.7107726502977,2,2,0.5499359965324402,4.106730937957764,0.276677238002075,0.500405708768566,1.122420602283042,1.72137069326343,9.71794142969884e-05,0.1152889803051948,0,0,0
136,5224.713771350924,2011-01-31 12:18:11,1440.7257376283967,2,2,0.5499359965324402,4.110292434692383,0.281262535594539,0.500405708768566,1.141259182715199,1.72137069326343,9.71794142969884e-05,0.1152889803051948,0,0,0
137,5254.72889107971,2011-01-31 12:18:41,1470.74085735217,2,2,0.5499359965324402,4.113853931427002,0.285847822598732,0.500405708768566,1.160113851843443,1.72137069326343,9.71794142969884e-05,0.1152889803051948,0,0,0
138,5284.746016181502,2011-01-31 12:19:11,1500.757982484037,2,2,0.5501165986061096,4.117414951324463,0.290433401467802,0.500405708768566,1.178986000743604,1.72137069326343,9.70840483205393e-05,0.1152889803051948,0,0,0
139,5314.759136221447,2011-01-31 12:19:41,1530.7711024888954,2,2,0.5501165986061096,4.120976448059082,0.29501831919325,0.500405708768566,1.19787178615415,1.72137069326343,9.70840483205393e-05,0.1152889803051948,0,0,0
140,5344.774250241004,2011-01-31 12:20:11,1560.7862165084518,2,2,0.5501165986061096,4.124537944793701,0.299603685935581,0.500405708768566,1.216775878305786,1.72137069326343,9.70840483205393e-05,0.1152889803051948,0,0,0
141,5374.789420956865,2011-01-31 12:20:41,1590.8013872443628,2,2,0.5497553944587708,4.1279377937316895,0.304189043479802,0.500405708768566,1.235696350249958,1.72137069326343,9.71794142969884e-05,0.1152889803051948,0,0,0
142,5404.804506109476,2011-01-31 12:21:11,1620.8164724120115,2,2,0.5499359965324402,4.13166093826294,0.308774347033733,0.500405708768566,1.254633243375058,1.72137069326343,0.0001295089750783,0.1152889803051948,0,0,0
143,5434.81960936721,2011-01-31 12:21:41,1650.8315756396712,2,2,0.5499359965324402,4.135384559631348,0.313359709039508,0.500405708768566,1.273587085373446,1.72137069326343,9.71794142969884e-05,0.1152889803051948,0,0,0
144,5464.83472522134,2011-01-31 12:22:11,1680.8466914887874,2,2,0.5499359965324402,4.139107704162598,0.31794508426088,0.500405708768566,1.29255779015972,1.72137069326343,9.70840483205393e-05,0.1152889803051948,0,0,0
145,5494.849848579171,2011-01-31 12:22:41,1710.8618148516302,2,2,0.5499359965324402,4.142831325531006,0.322530400961354,0.500405708768566,1.311545201477443,1.72137069326343,9.71794142969884e-05,0.1152889803051948,0,0,0
146,5524.86498422262,2011-01-31 12:23:11,1740.8769504900674,2,2,0.5497553944587708,4.146554470062256,0.327115751779416,0.500405708768566,1.330549976754547,1.72137069326343,0.0001295089750783,0.1152889803051948,0,0,0
147,5554.880111465131,2011-01-31 12:23:41,1770.892077777692,2,2,0.5499359965324402,4.150601863861084,0.331701101099675,0.500405708768566,1.349572056167649,1.72137069326343,0.0001619339018361,0.1152889803051948,0,0,0
148,5584.895216672726,2011-01-31 12:24:11,1800.9071829702489,2,2,0.550297200679779,4.154325008392334,0.336286438688996,0.500405708768566,1.368611315996006,1.72137069326343,0.0001295089750783,0.1152889803051948,0,0,0
149,5614.910324381554,2011-01-31 12:24:41,1830.9222906490024,2,2,0.5499359965324402,4.158048629760742,0.340871797656234,0.500405708768566,1.387668153748755,1.72137069326343,0.0001295089750783,0.1152889803051948,0,0,0
150,5644.925451684216,2011-01-31 12:25:11,1860.937417961689,2,2,0.5499359965324402,4.161771774291992,0.345457106057299,0.500405708768566,1.406742294269288,1.72137069326343,9.70840483205393e-05,0.1152889803051948,0,0,0
151,5674.940503127814,2011-01-31 12:25:41,1890.9524694002744,2,2,0.5497553944587708,4.1654953956604,0.350042337098239,0.500405708768566,1.425833715250193,1.72137069326343,6.47544875391759e-05,0.1152889803051948,0,0,0
152,5704.955641688535,2011-01-31 12:26:11,1920.9676079559829,2,2,0.5497553944587708,4.16938066482544,0.354626816157863,0.500405708768566,1.444939669014543,1.72137069326343,6.47544875391759e-05,0.1152889803051948,0,0,0
153,5734.970738810978,2011-01-31 12:26:41,1950.9827050834388,2,2,0.5501165986061096,4.173589706420898,0.359211491165622,0.500405708768566,1.464064342992787,1.72137069326343,0.0001619339018361,0.1152889803051948,0,0,0
154,5764.985912338848,2011-01-31 12:27:11,1980.9978786313584,2,2,0.5497553944587708,4.177312850952148,0.363796135186453,0.500405708768566,1.483206865908925,1.72137069326343,9.70840483205393e-05,0.1152889803051948,0,0,0
155,5795.001107706148,2011-01-31 12:27:41,2011.013074003671,2,2,0.5501165986061096,4.181360244750977,0.368380761887176,0.500405708768566,1.502367439947273,1.72137069326343,0.0001295089750783,0.1152889803051948,0,0,0
156,5825.016135134893,2011-01-31 12:28:11,2041.028101432416,2,2,0.5497553944587708,4.185245513916016,0.372965405429682,0.500405708768566,1.521546359736581,1.72137069326343,6.47544875391759e-05,0.1152889803051948,0,0,0
157,5855.031274828437,2011-01-31 12:28:41,2071.043241135985,2,2,0.5501165986061096,4.189454555511475,0.377549945761614,0.500405708768566,1.540743262160006,1.72137069326343,0.0001295089750783,0.1152889803051948,0,0,0
158,5885.048734068004,2011-01-31 12:29:11,2101.060700395601,2,2,0.5499359965324402,4.1935014724731445,0.382135717980816,0.500405708768566,1.559964008088118,1.72137069326343,0.0001295089750783,0.1152889803051948,0,0,0
159,5915.061579608813,2011-01-31 12:29:41,2131.0735460065853,2,2,0.5501165986061096,4.197548389434815,0.386720789530077,0.500405708768566,1.579200405707091,1.72137069326343,0.0001295089750783,0.1152889803051948,0,0,0
160,5933.358099125146,2011-01-31 12:29:59,2149.3700654226686,2,2,0.5499359965324402,4.200138568878174,0.389515968937177,0.500405708768566,1.590936636958767,1.72137069326343,0.0001295089750783,0.1152889803051948,0,0,0
161,5963.375486899886,2011-01-31 12:30:29,30.01712750277615,3,2,0.0,4.090056419372559,0.389515968937177,0.500405708768566,1.590936636958767,1.72137069326343,-0.0004857063177041,0.1152889803051948,0,0,0
162,5993.388552103161,2011-01-31 12:30:59,60.03019269602702,3,2,0.0,4.077105522155762,0.389515968937177,0.500405708768566,1.590936636958767,1.72137069326343,-0.0002590179501567,0.1152889803051948,0,0,0
163,6023.403786011517,2011-01-31 12:31:29,90.04542661942071,3,2,0.0,4.068687438964844,0.389515968937177,0.500405708768566,1.590936636958767,1.72137069326343,-0.0002266883820993,0.1152889803051948,0,0,0
164,6053.373980848651,2011-01-31 12:31:59,120.01562147660322,3,2,0.0,4.063021659851074,0.389515968937177,0.500405708768566,1.590936636958767,1.72137069326343,-0.0001295089750783,0.1152889803051948,0,0,0
165,6053.374233944157,2011-01-31 12:32:00,2.621533669e-06,4,2,0.9922481179237366,4.199814796447754,0.389515969659736,0.500405708768566,1.59093663999338,1.72137069326343,0.0,0.1152889803051948,0,0,0
166,6053.749219478489,2011-01-31 12:32:00,0.374988170902866,4,2,0.941316306591034,4.199491024017334,0.389615321894301,0.500405708768566,1.591353892299391,1.72137069326343,-6.47544875391759e-05,0.1152889803051948,0,0,0
167,6055.592942578754,2011-01-31 12:32:02,2.218711271168142,4,2,0.891106903553009,4.199653148651123,0.39008307101892,0.500405708768566,1.593318286835391,1.72137069326343,-3.23295607813634e-05,0.1152889803051948,0,0,0
168,6058.796018198761,2011-01-31 12:32:05,5.421786886162436,4,2,0.8410781621932983,4.199653148651123,0.390852453130937,0.500405708768566,1.596549453462492,1.72137069326343,0.0,0.1152889803051948,0,0,0
169,6063.3740683433525,2011-01-31 12:32:10,9.999837035766062,4,2,0.7910493612289429,4.199653148651123,0.391888699598837,0.500405708768566,1.60090139283154,1.72137069326343,0.0,0.1152889803051948,0,0,0
170,6069.577105966737,2011-01-31 12:32:16,16.202874674187978,4,2,0.7406594157218933,4.199653148651123,0.393206458759409,0.500405708768566,1.606435605619649,1.72137069326343,-3.23295607813634e-05,0.1152889803051948,0,0,0
171,6077.811327680855,2011-01-31 12:32:24,24.43709638329375,4,2,0.6906306147575378,4.199653148651123,0.394841066952081,0.500405708768566,1.613300506578929,1.72137069326343,0.0,0.1152889803051948,0,0,0
172,6089.201773927655,2011-01-31 12:32:35,35.82754261505599,4,2,0.6404212713241577,4.199653148651123,0.396942799661647,0.500405708768566,1.622127227444909,1.72137069326343,0.0,0.1152889803051948,0,0,0
173,6105.513991212272,2011-01-31 12:32:52,52.13975992974799,4,2,0.5902118682861328,4.199653148651123,0.399724079347222,0.500405708768566,1.6338078258886,1.72137069326343,0.0,0.1152889803051948,0,0,0
174,6132.107299213367,2011-01-31 12:33:18,78.73306790076808,4,2,0.5401831269264221,4.199814796447754,0.403884155568262,0.500405708768566,1.651279032776572,1.72137069326343,3.23295607813634e-05,0.1152889803051948,0,0,0
175,6180.809739043791,2011-01-31 12:34:07,127.43550775625404,4,2,0.4899737238883972,4.199653148651123,0.410819318048318,0.500405708768566,1.680404766795938,1.72137069326343,-3.23295607813634e-05,0.1152889803051948,0,0,0
176,6269.714328380676,2011-01-31 12:35:36,216.3400970981523,4,2,0.4399449527263641,4.199653148651123,0.422256666057628,0.500405708768566,1.728437869606674,1.72137069326343,0.0,0.1152889803051948,0,0,0
177,6396.977807593869,2011-01-31 12:37:43,343.60357628127025,4,2,0.389916181564331,4.199653148651123,0.436901607986379,0.500405708768566,1.789942492652673,1.72137069326343,0.0,0.1152889803051948,0,0,0
178,6553.912649457437,2011-01-31 12:40:20,500.5384181548629,4,2,0.3397068083286285,4.199814796447754,0.45278752157546,0.500405708768566,1.856659130178072,1.72137069326343,3.23295607813634e-05,0.1152889803051948,0,0,0
179,6745.300055612007,2011-01-31 12:43:31,691.9258243044203,4,2,0.2896780371665954,4.199653148651123,0.469489844968521,0.500405708768566,1.926804382197447,1.72137069326343,-3.23295607813634e-05,0.1152889803051948,0,0,0
180,6979.796104909487,2011-01-31 12:47:26,926.4218736019,4,2,0.2396492660045623,4.199491024017334,0.486690531187513,0.500405708768566,1.999042758343395,1.72137069326343,-3.24249267578125e-05,0.1152889803051948,0,0,0
181,7277.509897519915,2011-01-31 12:52:24,1224.1356662323792,4,2,0.1896204948425293,4.199491024017334,0.504387894689582,0.500405708768566,2.073366965812789,1.72137069326343,-6.47544875391759e-05,0.1152889803051948,0,0,0
182,7676.471936197851,2011-01-31 12:59:03,1623.09770490029,4,2,0.1395917236804962,4.199653148651123,0.522532892654259,0.500405708768566,2.149571129711856,1.72137069326343,0.0,0.1152889803051948,0,0,0
183,8263.47985201188,2011-01-31 13:08:50,2210.105620744393,4,2,0.0895629599690437,4.199814796447754,0.540969729158185,0.500405708768566,2.227000988673623,1.72137069326343,3.23295607813634e-05,0.1152889803051948,0,0,0
184,9070.807967780023,2011-01-31 13:22:17,3017.433736517552,4,2,0.0498289167881011,4.199491024017334,0.556210157858253,0.500405708768566,2.29100674389971,1.72137069326343,-6.47544875391759e-05,0.1152889803051948,0,0,0
185,9100.823443460393,2011-01-31 13:22:47,30.015249401971065,5,2,0.0,4.1892924308776855,0.556210157858253,0.500405708768566,2.29100674389971,1.72137069326343,-6.47544875391759e-05,0.1152889803051948,0,0,0
186,9130.822936322218,2011-01-31 13:23:17,60.01474225878342,5,2,0.0,4.187673568725586,0.556210157858253,0.500405708768566,2.29100674389971,1.72137069326343,-3.24249267578125e-05,0.1152889803051948,0,0,0
187,9131.013174803851,2011-01-31 13:23:18,0.18998611886548,6,2,-1.9243103452026844e-05,4.187835693359375,0.556210157858253,0.5004057097841,2.29100674389971,1.721370697516319,0.0,0.1174056306481361,0,0,0
188,9135.83864131616,2011-01-31 13:23:22,5.015452606110615,6,2,0.0007031940040178,4.187511920928955,0.556210930439825,0.500405709938068,2.29100997934545,1.721370698161112,-9.70840483205393e-05,0.1174056306481361,0,0,0
189,9147.338925166858,2011-01-31 13:23:34,11.49980886709954,7,2,-1.099568486213684,3.9874210357666016,0.556210930439825,0.503918223583165,2.29100997934545,1.735429141383924,-0.0018778324592858,0.1174056306481361,0,0,0
190,9177.35386266146,2011-01-31 13:24:04,41.51474633162651,7,2,-1.0997490882873535,3.9301133155822754,0.556210930439825,0.51308596052821,2.29100997934545,1.771715276463077,-0.0014893531333655,0.1174056306481361,0,0,0
191,9207.369390457274,2011-01-31 13:24:34,71.53027415751565,7,2,-1.0993878841400146,3.8758816719055176,0.556210930439825,0.522253872246527,2.29100997934545,1.807499979258656,-0.0015217304462566,0.1174056306481361,0,0,0
192,9237.38426763154,2011-01-31 13:25:04,101.5451513017058,7,2,-1.0997490882873535,3.8232688903808594,0.556210930439825,0.531421556127119,2.29100997934545,1.842786548105232,-0.0013274669181555,0.1174056306481361,0,0,0
193,9267.399211832855,2011-01-31 13:25:34,131.56009550302292,7,2,-1.0993878841400146,3.77858829498291,0.556210930439825,0.540589035872118,2.29100997934545,1.877624555386089,-0.0011008263099938,0.1174056306481361,0,0,0
194,9297.414326088,2011-01-31 13:26:04,161.57520975816652,7,2,-1.0993878841400146,3.742164134979248,0.556210930439825,0.549755976510269,2.29100997934545,1.912090532454829,-0.0009389400365762,0.1174056306481361,0,0,0
195,9327.429462107386,2011-01-31 13:26:34,191.5903458326907,7,2,-1.0993878841400146,3.7123770713806152,0.556210930439825,0.5589230227682,2.29100997934545,1.946254883262138,-0.0007446765666827,0.1174056306481361,0,0,0
196,9357.444584367482,2011-01-31 13:27:04,221.60546803764768,7,2,-1.0993878841400146,3.6867990493774414,0.556210930439825,0.568090009439122,2.29100997934545,1.980166376559491,-0.0006799221155233,0.1174056306481361,0,0,0
197,9387.459841533804,2011-01-31 13:27:34,251.62072523404487,7,2,-1.0993878841400146,3.664458990097046,0.556210930439825,0.577256970285319,2.29100997934545,2.013858913869166,-0.0005827903514727,0.1174056306481361,0,0,0
198,9417.474848346166,2011-01-31 13:28:04,281.635732036383,7,2,-1.099568486213684,3.644061326980591,0.556210930439825,0.586423827043172,2.29100997934545,2.047356121514613,-0.0005180359003134,0.1174056306481361,0,0,0
199,9447.492436040882,2011-01-31 13:28:34,311.6533198614239,7,2,-1.099568486213684,3.6256062984466553,0.556210930439825,0.595591509353615,2.29100997934545,2.080678658386714,-0.0004856586456298,0.1174056306481361,0,0,0
200,9477.50520457978,2011-01-31 13:29:04,341.666088259971,7,2,-1.099568486213684,3.6082844734191895,0.556210930439825,0.604758340798147,2.29100997934545,2.113833868279928,-0.0004209041653666,0.1174056306481361,0,0,0
201,9507.520189733164,2011-01-31 13:29:34,371.6810734033283,7,2,-1.099568486213684,3.5919342041015625,0.556210930439825,0.613925868540435,2.29100997934545,2.146837038793758,-0.0004208564641885,0.1174056306481361,0,0,0
202,9537.53544140078,2011-01-31 13:30:04,401.6963250709461,7,2,-1.099568486213684,3.5763931274414062,0.556210930439825,0.623093524569924,2.29100997934545,2.179695411932342,-0.0004532813909463,0.1174056306481361,0,0,0
203,9567.552868420044,2011-01-31 13:30:34,431.71375214534686,7,2,-1.0997490882873535,3.56198525428772,0.556210930439825,0.63226234984402,2.29100997934545,2.21242036007596,-0.0002913951757363,0.1174056306481361,0,0,0
204,9597.565507360943,2011-01-31 13:31:04,461.7263910561708,7,2,-1.099568486213684,3.548063039779663,0.556210930439825,0.641429909287396,2.29100997934545,2.245010525781264,-0.0003237724304199,0.1174056306481361,0,0,0
205,9627.580665731031,2011-01-31 13:31:34,491.741549411225,7,2,-1.0993878841400146,3.5347883701324463,0.556210930439825,0.650598097155509,2.29100997934545,2.277477567353645,-0.0003237724304199,0.1174056306481361,0,0,0
206,9657.595908757115,2011-01-31 13:32:04,521.7567924322927,7,2,-1.099568486213684,3.5218374729156494,0.556210930439825,0.659766449044974,2.29100997934545,2.309826004967213,-0.0003561496851034,0.1174056306481361,0,0,0
207,9687.610901790134,2011-01-31 13:32:34,551.7717854653135,7,2,-1.0997490882873535,3.509696245193481,0.556210930439825,0.668934766934399,2.29100997934545,2.342059967029979,-0.0003237724304199,0.1174056306481361,0,0,0
208,9717.62600524837,2011-01-31 13:33:04,581.7868889435979,7,2,-1.099568486213684,3.4980404376983643,0.556210930439825,0.678103130150983,2.29100997934545,2.374183895837656,-0.0002913951757363,0.1174056306481361,0,0,0
209,9747.641132340506,2011-01-31 13:33:34,611.8020160106728,7,2,-1.099568486213684,3.486708402633667,0.556210930439825,0.687271115743873,2.29100997934545,2.40620125910003,-0.0002913951757363,0.1174056306481361,0,0,0
210,9777.65625281114,2011-01-31 13:34:04,641.8171364863197,7,2,-1.0993878841400146,3.4757001399993896,0.556210930439825,0.696438647751278,2.29100997934545,2.438114773584513,-0.0002913951757363,0.1174056306481361,0,0,0
211,9807.67137257,2011-01-31 13:34:34,671.8322562401678,7,2,-1.0997490882873535,3.465015649795532,0.556210930439825,0.70560619513646,2.29100997934545,2.469929691214404,-0.0002913951757363,0.1174056306481361,0,0,0
212,9837.68649811829,2011-01-31 13:35:04,701.8473818085074,7,2,-1.0993878841400146,3.454978704452514,0.556210930439825,0.714773801735644,2.29100997934545,2.501649318641983,-0.0002266406954731,0.1174056306481361,0,0,0
213,9867.701756277089,2011-01-31 13:35:34,731.8626399572781,7,2,-1.0993878841400146,3.444779872894287,0.556210930439825,0.723941394765366,2.29100997934545,2.533275297016855,-0.0002266406954731,0.1174056306481361,0,0,0
214,9897.716719385528,2011-01-31 13:36:04,761.8776030556926,7,2,-1.0993878841400146,3.4349048137664795,0.556210930439825,0.733108890760456,2.29100997934545,2.564809045052481,-0.0002913951757363,0.1174056306481361,0,0,0
215,9927.731798638431,2011-01-31 13:36:34,791.8926823386748,7,2,-1.0997490882873535,3.425029993057251,0.556210930439825,0.742276461562366,2.29100997934545,2.596253792691526,-0.0003237724304199,0.1174056306481361,0,0,0
216,9957.746998070868,2011-01-31 13:37:04,821.9078817610814,7,2,-1.099568486213684,3.415640592575073,0.556210930439825,0.751443864575653,2.29100997934545,2.627609305972206,-0.0002590179501567,0.1174056306481361,0,0,0
217,9987.762050762572,2011-01-31 13:37:34,851.9229344628151,7,2,-1.099929690361023,3.405603647232056,0.556210930439825,0.760611900480541,2.29100997934545,2.658877772414516,-0.0002590179501567,0.1174056306481361,0,0,0
218,10017.777145223385,2011-01-31 13:38:04,881.93802889355,7,2,-1.099568486213684,3.395890474319458,0.556210930439825,0.769780187236141,2.29100997934545,2.690056607262924,-0.0002590179501567,0.1174056306481361,0,0,0
219,10047.794369442208,2011-01-31 13:38:34,911.9552531424472,7,2,-1.0997490882873535,3.3856916427612305,0.556210930439825,0.778949149180949,2.29100997934545,2.721146764727609,-0.0002590179501567,0.1174056306481361,0,0,0
220,10077.80740003422,2011-01-31 13:39:04,941.9682837244364,7,2,-1.099568486213684,3.375492811203003,0.556210930439825,0.788116912934153,2.29100997934545,2.752139476525116,-0.0002913951757363,0.1174056306481361,0,0,0
221,10107.822641401166,2011-01-31 13:39:34,971.9835250713317,7,2,-1.099568486213684,3.3644845485687256,0.556210930439825,0.797284732511527,2.29100997934545,2.783035082719277,-0.0002913951757363,0.1174056306481361,0,0,0
222,10137.837763490836,2011-01-31 13:40:04,1001.9986471710262,7,2,-1.099568486213684,3.3531525135040283,0.556210930439825,0.806452324720045,2.29100997934545,2.813827633838236,-0.0003237724304199,0.1174056306481361,0,0,0
223,10167.8530167825,2011-01-31 13:40:34,1032.013900507804,7,2,-1.0993878841400146,3.3411731719970703,0.556210930439825,0.815619895347742,2.29100997934545,2.844512470437589,-0.0002590179501567,0.1174056306481361,0,0,0
224,10197.867894011904,2011-01-31 13:41:04,1062.0287776920943,7,2,-1.0993878841400146,3.3283841609954834,0.556210930439825,0.824787334237528,2.29100997934545,2.875083474019546,-0.0003561496851034,0.1174056306481361,0,0,0
225,10227.882997129287,2011-01-31 13:41:34,1092.043880799454,7,2,-1.0993878841400146,3.3147857189178467,0.556210930439825,0.833954884242237,2.29100997934545,2.905535811882586,-0.0003885269106831,0.1174056306481361,0,0,0
226,10257.89814476262,2011-01-31 13:42:04,1122.0590284377988,7,2,-1.099568486213684,3.30037784576416,0.556210930439825,0.84312240063047,2.29100997934545,2.935859724493052,-0.0003885269106831,0.1174056306481361,0,0,0
227,10287.91578569502,2011-01-31 13:42:35,1152.0766694002746,7,2,-1.099568486213684,3.285160541534424,0.556210930439825,0.852290744011141,2.29100997934545,2.966050218866783,-0.0004209041653666,0.1174056306481361,0,0,0
228,10317.928357423409,2011-01-31 13:43:05,1182.0892410935717,7,2,-1.099568486213684,3.268324613571167,0.556210930439825,0.861457518598805,2.29100997934545,2.996088480428128,-0.0004856109735555,0.1174056306481361,0,0,0
229,10347.943608644911,2011-01-31 13:43:35,1212.10449232009,7,2,-1.0997490882873535,3.2505171298980717,0.556210930439825,0.870625165274081,2.29100997934545,3.025971412516478,-0.0005180359003134,0.1174056306481361,0,0,0
230,10377.958596660428,2011-01-31 13:44:05,1242.1194803305932,7,2,-1.099568486213684,3.230928897857666,0.556210930439825,0.879792704103905,2.29100997934545,3.055681754194226,-0.0005180359003134,0.1174056306481361,0,0,0
231,10407.973728659794,2011-01-31 13:44:35,1272.1346123299609,7,2,-1.099568486213684,3.209398031234741,0.556210930439825,0.888960277403138,2.29100997934545,3.085202605715124,-0.0005504131549969,0.1174056306481361,0,0,0
232,10437.988830158143,2011-01-31 13:45:05,1302.1497138283105,7,2,-1.099568486213684,3.185439109802246,0.556210930439825,0.898127836609196,2.29100997934545,3.114516572077341,-0.0006799221155233,0.1174056306481361,0,0,0
233,10468.004033986532,2011-01-31 13:45:35,1332.1649176566982,7,2,-1.099568486213684,3.1585659980773926,0.556210930439825,0.907295515392157,2.29100997934545,3.143599246107642,-0.0007770538213662,0.1174056306481361,0,0,0
234,10498.019092993982,2011-01-31 13:46:05,1362.1799767042476,7,2,-1.099568486213684,3.12813138961792,0.556210930439825,0.916463112782947,2.29100997934545,3.172418864323427,-0.0008741855854168,0.1174056306481361,0,0,0
235,10528.034210166395,2011-01-31 13:46:35,1392.1950938365617,7,2,-1.0997490882873535,3.093002319335937,0.556210930439825,0.925630757914902,2.29100997934545,3.200940807471916,-0.0010360718006268,0.1174056306481361,0,0,0
236,10558.04931360458,2011-01-31 13:47:05,1422.2101972747464,7,2,-1.099568486213684,3.051397562026977,0.556210930439825,0.934798405739192,2.29100997934545,3.22911085458589,-0.0012303352123126,0.1174056306481361,0,0,0
237,10588.064426656723,2011-01-31 13:47:35,1452.2253103268918,7,2,-1.0997490882873535,3.0015368461608887,0.556210930439825,0.943966134081232,2.29100997934545,3.256865959227093,-0.0014893531333655,0.1174056306481361,0,0,0
238,10618.079575628391,2011-01-31 13:48:05,1482.2404592985597,7,2,-1.0993878841400146,2.9396965503692627,0.556210930439825,0.953133796270643,2.29100997934545,3.284112271272554,-0.0018455028766766,0.1174056306481361,0,0,0
239,10648.096720699956,2011-01-31 13:48:35,1512.2576044954349,7,2,-1.0997490882873535,2.859401226043701,0.556210930439825,0.962302054103221,2.29100997934545,3.310713565152362,-0.0023634911049157,0.1174056306481361,0,0,0
240,10678.109807391787,2011-01-31 13:49:05,1542.2706910870168,7,2,-1.0993878841400146,2.751909017562866,0.556210930439825,0.971469025708,2.29100997934545,3.336455558004465,-0.0031729699112474,0.1174056306481361,0,0,0
241,10690.203325966158,2011-01-31 13:49:17,1554.3642096363244,7,2,-1.099568486213684,2.699943780899048,0.556210930439825,0.975162766799785,2.29100997934545,3.346525818173971,-0.0035290718078613,0.1174056306481361,0,0,0
242,10750.218302220012,2011-01-31 13:50:17,60.014595793747496,8,2,0.0,3.711405754089356,0.556210930439825,0.975162766799785,2.29100997934545,3.346525818173971,0.0009065627818927,0.1174056306481361,0,0,0
243,10750.406253909669,2011-01-31 13:50:17,0.187536794395262,9,2,-1.9243103452026844e-05,3.711567640304565,0.556210930439825,0.975162767802227,2.29100997934545,3.346525821894601,0.0,0.1167013496160507,0,0,0
244,10755.234122624002,2011-01-31 13:50:22,5.015405478654493,9,2,0.0007031940040178,3.716909885406494,0.556211750729241,0.975162767885042,2.291013026431662,3.346525822201976,0.0007446765666827,0.1167013496160507,0,0,0
