Data_Point,Test_Time(s),Date_Time,Step_Time(s),Step_Index,Cycle_Index,Current(A),Voltage(V),Charge_Capacity(Ah),Discharge_Capacity(Ah),Charge_Energy(Wh),Discharge_Energy(Wh),dV/dt(V/s),Internal_Resistance(Ohm),Is_FC_Data,AC_Impedance(Ohm),ACI_Phase_Angle(Deg)
9274,323148.2788426917,2010-11-20 05:31:18,30.015369845884532,1,29,0.0,3.3450584411621094,27.630855213736123,27.660473481959883,110.31983152497902,100.90393324690882,0.0007122993702068,0.0923885703086853,0,0,0
9275,323178.29413891875,2010-11-20 05:31:48,60.0306660679928,1,29,0.0,3.3678841590881348,27.630855213736123,27.660473481959883,110.31983152497902,100.90393324690882,0.0005180359003134,0.0923885703086853,0,0,0
9276,323208.3094595518,2010-11-20 05:32:18,90.04598670103451,1,29,0.0,3.3852059841156006,27.630855213736123,27.660473481959883,110.31983152497902,100.90393324690882,0.0003561496851034,0.0923885703086853,0,0,0
9277,323238.2779653127,2010-11-20 05:32:48,120.01449248701569,1,29,0.0,3.399290084838867,27.630855213736123,27.660473481959883,110.31983152497902,100.90393324690882,0.0003561496851034,0.0923885703086853,0,0,0
9278,323268.29088638123,2010-11-20 05:33:18,30.01529523965591,2,29,0.5501165986061096,3.56263279914856,27.63544191026316,27.660473481959883,110.33599608079152,100.90393324690882,0.0017483711708337,0.0923885703086853,0,0,0
9279,323298.3062260969,2010-11-20 05:33:48,60.03063497036835,2,29,0.5501165986061096,3.614759922027588,27.6400286449562,27.660473481959883,110.35246370072456,100.90393324690882,0.0011979580158367,0.0923885703086853,0,0,0
9280,323328.3216854161,2010-11-20 05:34:18,90.04609429460461,2,29,0.5501165986061096,3.6531269550323486,27.64461538165532,27.660473481959883,110.36913569690684,100.90393324690882,0.0008741855854168,0.0923885703086853,0,0,0
9281,323358.33977912617,2010-11-20 05:34:48,120.06418810993596,2,29,0.5501165986061096,3.683399438858032,27.64920251356205,27.660473481959883,110.38596512725556,100.90393324690882,0.0007446765666827,0.0923885703086853,0,0,0
9282,323388.3522915645,2010-11-20 05:35:18,150.07670043801645,2,29,0.5501165986061096,3.708329916000366,27.65378887326665,27.660473481959883,110.40291750617656,100.90393324690882,0.0005827903514727,0.0923885703086853,0,0,0
9283,323418.36755495967,2010-11-20 05:35:48,180.0919638331836,2,29,0.550297200679779,3.729051351547241,27.658375639146108,27.660473481959883,110.41997598027956,100.90393324690882,0.0005180359003134,0.0923885703086853,0,0,0
9284,323448.3829068106,2010-11-20 05:36:18,210.10731570921263,2,29,0.550297200679779,3.746373176574707,27.66296239005642,27.660473481959883,110.4371213641985,100.90393324690882,0.0004209041653666,0.0923885703086853,0,0,0
9285,323478.3983776887,2010-11-20 05:36:48,240.12278656222648,2,29,0.5501165986061096,3.759000062942505,27.66754921191456,27.660473481959883,110.45433623355804,100.90393324690882,0.0002590179501567,0.0923885703086853,0,0,0
9286,323508.41355012683,2010-11-20 05:37:18,270.13795902541347,2,29,0.5501165986061096,3.767094373703003,27.672135944968485,27.660473481959883,110.47159805634408,100.90393324690882,0.0001618862152099,0.0923885703086853,0,0,0
9287,323538.4288884591,2010-11-20 05:37:48,300.15329735763504,2,29,0.5501165986061096,3.7722747325897217,27.67672271034112,27.660473481959883,110.48888936765049,100.90393324690882,0.0001618862152099,0.0923885703086853,0,0,0
9288,323568.4442081147,2010-11-20 05:38:18,330.1686170182494,2,29,0.5501165986061096,3.7764837741851807,27.681309394536903,27.660473481959883,110.50620136565952,100.90393324690882,0.0001295089750783,0.0923885703086853,0,0,0
9289,323598.45972250635,2010-11-20 05:38:48,360.18413140493004,2,29,0.5501165986061096,3.7802071571350098,27.68589614522655,27.660473481959883,110.5235318740861,100.90393324690882,6.47544875391759e-05,0.0923885703086853,0,0,0
9290,323628.4748748443,2010-11-20 05:39:18,390.19928371781873,2,29,0.550297200679779,3.783930540084839,27.69048286413523,27.660473481959883,110.54087928216671,100.90393324690882,9.713172767078504e-05,0.0923885703086853,0,0,0
9291,323658.4903285095,2010-11-20 05:39:48,420.2147373678914,2,29,0.5501165986061096,3.787492036819458,27.69506967104665,27.660473481959883,110.55824337999266,100.90393324690882,9.713172767078504e-05,0.0923885703086853,0,0,0
9292,323688.5055502205,2010-11-20 05:40:18,450.22995911910886,2,29,0.5501165986061096,3.790729761123657,27.699656373771468,27.660473481959883,110.57562282256193,100.90393324690882,6.47544875391759e-05,0.0923885703086853,0,0,0
9293,323718.522685809,2010-11-20 05:40:48,480.2470946925209,2,29,0.5504778623580933,3.794291257858277,27.70424336234312,27.660473481959883,110.59301853045494,100.90393324690882,0.0001295089750783,0.0923885703086853,0,0,0
9294,323748.53634896467,2010-11-20 05:41:18,510.26075784824434,2,29,0.550297200679779,3.797205209732056,27.708829873278304,27.660473481959883,110.61042731214934,100.90393324690882,9.713172767078504e-05,0.0923885703086853,0,0,0
9295,323778.5515474729,2010-11-20 05:41:48,540.2759563464186,2,29,0.5499359965324402,3.800442934036255,27.71341663078077,27.660473481959883,110.62785154198542,100.90393324690882,9.713172767078504e-05,0.0923885703086853,0,0,0
9296,323808.56692036643,2010-11-20 05:42:18,570.2913292699855,2,29,0.5501165986061096,3.803356885910034,27.71800341239425,27.660473481959883,110.6452900284702,100.90393324690882,6.47544875391759e-05,0.0923885703086853,0,0,0
9297,323838.5822305534,2010-11-20 05:42:48,600.3066394268772,2,29,0.5501165986061096,3.806432723999024,27.72259013472747,27.660473481959883,110.66274232493554,100.90393324690882,9.713172767078504e-05,0.0923885703086853,0,0,0
9298,323868.59753941704,2010-11-20 05:43:18,630.321948295553,2,29,0.5499359965324402,3.8095085620880127,27.72717689247797,27.660473481959883,110.6802086289628,100.90393324690882,6.47544875391759e-05,0.0923885703086853,0,0,0
9299,323898.61300403444,2010-11-20 05:43:48,660.3374129079896,2,29,0.5501165986061096,3.812422513961792,27.73176373098241,27.660473481959883,110.69768917529204,100.90393324690882,9.713172767078504e-05,0.0923885703086853,0,0,0
9300,323928.62821716414,2010-11-20 05:44:18,690.3526260376864,2,29,0.5501165986061096,3.815822124481201,27.736350445463515,27.660473481959883,110.7151836769239,100.90393324690882,9.713172767078504e-05,0.0923885703086853,0,0,0
9301,323958.64354878466,2010-11-20 05:44:48,720.3679576882295,2,29,0.5501165986061096,3.8188979625701904,27.740937152137025,27.660473481959883,110.73269244098232,100.90393324690882,9.713172767078504e-05,0.0923885703086853,0,0,0
9302,323988.6593101378,2010-11-20 05:45:19,750.3837190263387,2,29,0.5501165986061096,3.8221356868743896,27.74552398614675,27.660473481959883,110.75021637270308,100.90393324690882,9.713172767078504e-05,0.0923885703086853,0,0,0
9303,324018.6742723311,2010-11-20 05:45:49,780.3986812046222,2,29,0.5499359965324402,3.825373411178589,27.75011062202997,27.660473481959883,110.76775452876146,100.90393324690882,3.237724376958795e-05,0.0923885703086853,0,0,0
9304,324048.689600107,2010-11-20 05:46:19,810.4140090957812,2,29,0.550297200679779,3.828773021697998,27.754697375725662,27.660473481959883,110.7853086160478,100.90393324690882,9.713172767078504e-05,0.0923885703086853,0,0,0
9305,324078.7048917176,2010-11-20 05:46:49,840.4293005910909,2,29,0.550297200679779,3.832334518432617,27.75928415403451,27.660473481959883,110.80287850840736,100.90393324690882,0.0001295089750783,0.0923885703086853,0,0,0
9306,324108.7202191927,2010-11-20 05:47:19,870.4446280662115,2,29,0.5501165986061096,3.8357338905334473,27.763870889727595,27.660473481959883,110.82046400215816,100.90393324690882,9.713172767078504e-05,0.0923885703086853,0,0,0
9307,324138.73553894856,2010-11-20 05:47:49,900.4599478220636,2,29,0.5501165986061096,3.839133501052856,27.76845759088001,27.660473481959883,110.8380653096019,100.90393324690882,9.713172767078504e-05,0.0923885703086853,0,0,0
9308,324168.7509635712,2010-11-20 05:48:19,930.4753724446792,2,29,0.550297200679779,3.842694997787476,27.773044351176413,27.660473481959883,110.85568265394112,100.90393324690882,9.713172767078504e-05,0.0923885703086853,0,0,0
9309,324198.7662135629,2010-11-20 05:48:49,960.4906224363892,2,29,0.5501165986061096,3.845932722091675,27.77763110584621,27.660473481959883,110.8733155869339,100.90393324690882,6.47544875391759e-05,0.0923885703086853,0,0,0
9310,324228.7815521708,2010-11-20 05:49:19,990.505961044299,2,29,0.550297200679779,3.849494218826294,27.782217874411742,27.660473481959883,110.8909640407642,100.90393324690882,9.713172767078504e-05,0.0923885703086853,0,0,0
9311,324258.796864839,2010-11-20 05:49:49,1020.5212737174716,2,29,0.5501165986061096,3.852570056915283,27.78680459016975,27.660473481959883,110.90862753794067,100.90393324690882,9.713172767078504e-05,0.0923885703086853,0,0,0
9312,324288.8122006048,2010-11-20 05:50:19,1050.5366094782746,2,29,0.5501165986061096,3.855969667434693,27.791391250305377,27.660473481959883,110.92630571695976,100.90393324690882,0.0001295089750783,0.0923885703086853,0,0,0
9313,324318.82975936454,2010-11-20 05:50:49,1080.5541682530625,2,29,0.5501165986061096,3.859207391738892,27.79597825905878,27.660473481959883,110.94399986617836,100.90393324690882,0.0001295089750783,0.0923885703086853,0,0,0
9314,324348.8429718352,2010-11-20 05:51:19,1110.567380718794,2,29,0.5501165986061096,3.862121343612671,27.80056468585961,27.660473481959883,110.9617059032938,100.90393324690882,9.713172767078504e-05,0.0923885703086853,0,0,0
9315,324378.8581807344,2010-11-20 05:51:49,1140.582589607906,2,29,0.5499359965324402,3.86487340927124,27.80515142989682,27.660473481959883,110.9794267702795,100.90393324690882,6.47544875391759e-05,0.0923885703086853,0,0,0
9316,324408.8735389763,2010-11-20 05:52:19,1170.597947849825,2,29,0.5499359965324402,3.8676254749298096,27.809738170901927,27.660473481959883,110.99716070655283,100.90393324690882,3.237724376958795e-05,0.0923885703086853,0,0,0
9317,324438.888949188,2010-11-20 05:52:49,1200.6133580664814,2,29,0.5501165986061096,3.870539426803589,27.814324971555777,27.660473481959883,111.014907395458,100.90393324690882,9.713172767078504e-05,0.0923885703086853,0,0,0
9318,324468.9042359364,2010-11-20 05:53:19,1230.6286448099297,2,29,0.5501165986061096,3.8729677200317374,27.81891174345731,27.660473481959883,111.03266591812924,100.90393324690882,6.47544875391759e-05,0.0923885703086853,0,0,0
9319,324498.9197165789,2010-11-20 05:53:49,1260.6441254924794,2,29,0.550297200679779,3.8752341270446777,27.82349853548222,27.660473481959883,111.05043576590884,100.90393324690882,3.237724376958795e-05,0.0923885703086853,0,0,0
9320,324528.93500208424,2010-11-20 05:54:19,1290.659410967762,2,29,0.550297200679779,3.877662420272827,27.82808522249176,27.660473481959883,111.06821581509048,100.90393324690882,6.47544875391759e-05,0.0923885703086853,0,0,0
9321,324558.9502127277,2010-11-20 05:54:49,1320.6746216012275,2,29,0.5501165986061096,3.8797669410705566,27.83267193757713,27.660473481959883,111.0860059815138,100.90393324690882,9.713172767078504e-05,0.0923885703086853,0,0,0
9322,324588.96554706496,2010-11-20 05:55:19,1350.6899559384774,2,29,0.5499359965324402,3.881709575653076,27.83725868321779,27.660473481959883,111.10380558785045,100.90393324690882,3.237724376958795e-05,0.0923885703086853,0,0,0
9323,324618.9808702494,2010-11-20 05:55:49,1380.7052791228873,2,29,0.5501165986061096,3.8834903240203857,27.841845500555618,27.660473481959883,111.12161422687132,100.90393324690882,3.237724376958795e-05,0.0923885703086853,0,0,0
9324,324648.9962410226,2010-11-20 05:56:19,1410.7206498960866,2,29,0.5501165986061096,3.885109186172485,27.846432347932225,27.660473481959883,111.13943106427396,100.90393324690882,3.237724376958795e-05,0.0923885703086853,0,0,0
9325,324679.01155652787,2010-11-20 05:56:49,1440.7359654013287,2,29,0.5501165986061096,3.886889934539795,27.85101911508741,27.660473481959883,111.15725518767468,100.90393324690882,6.47544875391759e-05,0.0923885703086853,0,0,0
9326,324709.0269993709,2010-11-20 05:57:19,1470.7514082444254,2,29,0.5501165986061096,3.888346910476685,27.855605931322035,27.660473481959883,111.17508674807218,100.90393324690882,3.237724376958795e-05,0.0923885703086853,0,0,0
9327,324739.04220497183,2010-11-20 05:57:49,1500.7666138453292,2,29,0.5501165986061096,3.889803886413574,27.860192760592696,27.660473481959883,111.19292534427684,100.90393324690882,3.237724376958795e-05,0.0923885703086853,0,0,0
9328,324769.0576668174,2010-11-20 05:58:19,1530.7820756958715,2,29,0.5501165986061096,3.891422748565674,27.86477961134694,27.660473481959883,111.21077065692894,100.90393324690882,9.713172767078504e-05,0.0923885703086853,0,0,0
9329,324799.07288797206,2010-11-20 05:58:49,1560.7972968455877,2,29,0.5501165986061096,3.8927178382873535,27.86936646011129,27.660473481959883,111.22862248165612,100.90393324690882,3.237724376958795e-05,0.0923885703086853,0,0,0
9330,324829.0882093269,2010-11-20 05:59:19,1590.8126182004312,2,29,0.550297200679779,3.894174814224243,27.87395330963782,27.660473481959883,111.24648068396488,100.90393324690882,3.237724376958795e-05,0.0923885703086853,0,0,0
9331,324859.1038093273,2010-11-20 05:59:49,1620.8282182108417,2,29,0.5499359965324402,3.895146131515503,27.878540199686555,27.660473481959883,111.26434498632337,100.90393324690882,3.237724376958795e-05,0.0923885703086853,0,0,0
9332,324889.1188846831,2010-11-20 06:00:19,1650.8432935566086,2,29,0.550297200679779,3.8966031074523926,27.883126964410152,27.660473481959883,111.28221485376068,100.90393324690882,3.237724376958795e-05,0.0923885703086853,0,0,0
9333,324919.1361935892,2010-11-20 06:00:49,1680.8606024626856,2,29,0.5501165986061096,3.898060083389282,27.887714117694696,27.660473481959883,111.30009240973536,100.90393324690882,6.47544875391759e-05,0.0923885703086853,0,0,0
9334,324949.1495560744,2010-11-20 06:01:19,1710.8739649478891,2,29,0.5501165986061096,3.899355173110962,27.89230057307394,27.660473481959883,111.31797336910176,100.90393324690882,6.47544875391759e-05,0.0923885703086853,0,0,0
9335,324979.1648959454,2010-11-20 06:01:49,1740.889304818952,2,29,0.5501165986061096,3.9006502628326416,27.8968873715608,27.660473481959883,111.33586172722964,100.90393324690882,3.237724376958795e-05,0.0923885703086853,0,0,0
9336,325009.1802208392,2010-11-20 06:02:19,1770.904629712629,2,29,0.5501165986061096,3.9021072387695312,27.901474125121588,27.660473481959883,111.35375600527864,100.90393324690882,9.713172767078504e-05,0.0923885703086853,0,0,0
9337,325039.1955736024,2010-11-20 06:02:49,1800.9199824758723,2,29,0.5501165986061096,3.903240442276001,27.90606087477745,27.660473481959883,111.37165636334454,100.90393324690882,0.0,0.0923885703086853,0,0,0
9338,325069.2112429108,2010-11-20 06:03:19,1830.935651789274,2,29,0.5501165986061096,3.9045355319976807,27.91064769900254,27.660473481959883,111.38956318495924,100.90393324690882,3.237724376958795e-05,0.0923885703086853,0,0,0
9339,325099.2262283972,2010-11-20 06:03:49,1860.950637265713,2,29,0.5501165986061096,3.9059925079345694,27.91523448269194,27.660473481959883,111.40747591308286,100.90393324690882,3.237724376958795e-05,0.0923885703086853,0,0,0
9340,325129.2415572808,2010-11-20 06:04:19,1890.9659661543624,2,29,0.5501165986061096,3.90744948387146,27.919821198768897,27.660473481959883,111.42539456274356,100.90393324690882,6.47544875391759e-05,0.0923885703086853,0,0,0
9341,325159.2569098285,2010-11-20 06:04:49,1920.981318722118,2,29,0.5501165986061096,3.90874457359314,27.92440794615276,27.660473481959883,111.44331956070842,100.90393324690882,3.237724376958795e-05,0.0923885703086853,0,0,0
9342,325189.2723459449,2010-11-20 06:05:19,1950.996754823386,2,29,0.5501165986061096,3.9100396633148193,27.9289947124854,27.660473481959883,111.46125100939872,100.90393324690882,3.237724376958795e-05,0.0923885703086853,0,0,0
9343,325219.28760270344,2010-11-20 06:05:49,1981.0120115769748,2,29,0.5501165986061096,3.911496639251709,27.93358143138464,27.660473481959883,111.47918847861682,100.90393324690882,6.47544875391759e-05,0.0923885703086853,0,0,0
9344,325249.302907116,2010-11-20 06:06:19,2011.027315989528,2,29,0.5501165986061096,3.9127917289733887,27.93816816835361,27.660473481959883,111.49713239619598,100.90393324690882,3.237724376958795e-05,0.0923885703086853,0,0,0
9345,325279.31904206675,2010-11-20 06:06:49,2041.0434510855944,2,29,0.5501165986061096,3.914248466491699,27.94275506152385,27.660473481959883,111.51508330962972,100.90393324690882,3.237724376958795e-05,0.0923885703086853,0,0,0
9346,325309.32079762424,2010-11-20 06:07:19,2071.0452065278328,2,29,0.5501165986061096,3.915543556213379,27.947339797359867,27.660473481959883,111.5330322094926,100.90393324690882,3.237724376958795e-05,0.0923885703086853,0,0,0
9347,325339.3333035714,2010-11-20 06:07:49,2101.057712530123,2,29,0.550297200679779,3.9171624183654794,27.951926151286056,27.660473481959883,111.5509937315539,100.90393324690882,6.47544875391759e-05,0.0923885703086853,0,0,0
9348,325369.3487206953,2010-11-20 06:08:19,2131.0731295688083,2,29,0.5501165986061096,3.918457508087158,27.956512946464983,27.660473481959883,111.56896356056612,100.90393324690882,3.237724376958795e-05,0.0923885703086853,0,0,0
9349,325399.36392766464,2010-11-20 06:08:49,2161.0883365381283,2,29,0.5501165986061096,3.919752597808838,27.96109967236709,27.660473481959883,111.5869396594007,100.90393324690882,3.237724376958795e-05,0.0923885703086853,0,0,0
9350,325429.37933479855,2010-11-20 06:09:19,2191.1037436570514,2,29,0.550297200679779,3.9213714599609375,27.96568644319902,27.660473481959883,111.60492247448518,100.90393324690882,6.47544875391759e-05,0.0923885703086853,0,0,0
9351,325459.3946162939,2010-11-20 06:09:49,2221.119025167437,2,29,0.550297200679779,3.922828435897827,27.97027324298881,27.660473481959883,111.62291208887284,100.90393324690882,6.47544875391759e-05,0.0923885703086853,0,0,0
9352,325489.40992395463,2010-11-20 06:10:19,2251.1343328331104,2,29,0.550297200679779,3.924285411834717,27.97486006392575,27.660473481959883,111.6409084491346,100.90393324690882,6.47544875391759e-05,0.0923885703086853,0,0,0
9353,325519.4253898202,2010-11-20 06:10:49,2281.149798693662,2,29,0.5501165986061096,3.9257423877716064,27.97944681248907,27.660473481959883,111.65891125906552,100.90393324690882,6.47544875391759e-05,0.0923885703086853,0,0,0
9354,325549.44259537826,2010-11-20 06:11:19,2311.16700425678,2,29,0.5501165986061096,3.927199363708496,27.98403380212151,27.660473481959883,111.67692164170624,100.90393324690882,6.47544875391759e-05,0.0923885703086853,0,0,0
9355,325579.45594581845,2010-11-20 06:11:49,2341.180354691904,2,29,0.550297200679779,3.928494453430176,27.98862024168596,27.660473481959883,111.69493668744362,100.90393324690882,3.237724376958795e-05,0.0923885703086853,0,0,0
9356,325609.4718883087,2010-11-20 06:12:19,2371.19629730751,2,29,0.5501165986061096,3.9301133155822754,27.993207191381625,27.660473481959883,111.71296057935513,100.90393324690882,3.237724376958795e-05,0.0923885703086853,0,0,0
9357,325639.48665740504,2010-11-20 06:12:49,2401.211066278518,2,29,0.550297200679779,3.931570291519165,27.99779389535088,27.660473481959883,111.73099034478842,100.90393324690882,6.47544875391759e-05,0.0923885703086853,0,0,0
9358,325669.5019464392,2010-11-20 06:13:19,2431.2263553126845,2,29,0.5501165986061096,3.9331891536712646,28.00238073113263,27.660473481959883,111.74902753931804,100.90393324690882,6.47544875391759e-05,0.0923885703086853,0,0,0
9359,325699.51726252586,2010-11-20 06:13:49,2461.241671399377,2,29,0.5501165986061096,3.934808015823364,28.006967546207896,27.660473481959883,111.76707165055392,100.90393324690882,6.47544875391759e-05,0.0923885703086853,0,0,0
9360,325729.53260038694,2010-11-20 06:14:19,2491.257009260423,2,29,0.5501165986061096,3.936103105545044,28.01155436691292,27.660473481959883,111.78512285256838,100.90393324690882,0.0,0.0923885703086853,0,0,0
9361,325759.5479408645,2010-11-20 06:14:49,2521.272349738,2,29,0.550297200679779,3.937721967697144,28.01614117775168,27.660473481959883,111.80318091256449,100.90393324690882,3.237724376958795e-05,0.0923885703086853,0,0,0
9362,325789.5632908207,2010-11-20 06:15:19,2551.287699699249,2,29,0.5501165986061096,3.939340829849243,28.020727947325984,27.660473481959883,111.82124602600211,100.90393324690882,6.47544875391759e-05,0.0923885703086853,0,0,0
9363,325819.5786074739,2010-11-20 06:15:49,2581.303016347344,2,29,0.5501165986061096,3.940797805786133,28.025314781734945,27.660473481959883,111.83931856807736,100.90393324690882,0.0,0.0923885703086853,0,0,0
9364,325849.5941079558,2010-11-20 06:16:19,2611.318516834329,2,29,0.5501165986061096,3.942416667938232,28.029901573153776,27.660473481959883,111.85739802726576,100.90393324690882,0.0,0.0923885703086853,0,0,0
9365,325879.6092762135,2010-11-20 06:16:49,2641.333685087005,2,29,0.5501165986061096,3.944035530090332,28.034488293609343,27.660473481959883,111.8754844786809,100.90393324690882,6.47544875391759e-05,0.0923885703086853,0,0,0
9366,325909.6246686357,2010-11-20 06:17:19,2671.3490775343066,2,29,0.5501165986061096,3.9454925060272217,28.039075086490826,27.660473481959883,111.89357849131346,100.90393324690882,3.237724376958795e-05,0.0923885703086853,0,0,0
9367,325939.63994105347,2010-11-20 06:17:50,2701.3643499269333,2,29,0.5497553944587708,3.947111368179321,28.04366191129385,27.660473481959883,111.91167994845576,100.90393324690882,3.237724376958795e-05,0.0923885703086853,0,0,0
9368,325969.65527498466,2010-11-20 06:18:20,2731.3796838581693,2,29,0.5501165986061096,3.948892116546631,28.048248736885565,27.660473481959883,111.92978884662074,100.90393324690882,6.47544875391759e-05,0.0923885703086853,0,0,0
9369,325999.6707506798,2010-11-20 06:18:50,2761.3951595532694,2,29,0.550297200679779,3.9505109786987305,28.052835495683908,27.660473481959883,111.94790483941212,100.90393324690882,6.47544875391759e-05,0.0923885703086853,0,0,0
9370,326029.6859822655,2010-11-20 06:19:20,2791.410391139036,2,29,0.5501165986061096,3.95196795463562,28.05742226682829,27.660473481959883,111.96602841748756,100.90393324690882,3.237724376958795e-05,0.0923885703086853,0,0,0
9371,326059.7013152494,2010-11-20 06:19:50,2821.4257241229066,2,29,0.5501165986061096,3.9537487030029297,28.062009026962755,27.660473481959883,111.98415950490669,100.90393324690882,3.237724376958795e-05,0.0923885703086853,0,0,0
9372,326089.71661408804,2010-11-20 06:20:20,2851.441022966559,2,29,0.5499359965324402,3.955367565155029,28.066595800964876,27.660473481959883,112.00229827150125,100.90393324690882,3.237724376958795e-05,0.0923885703086853,0,0,0
9373,326119.73194873607,2010-11-20 06:20:50,2881.456357609572,2,29,0.5499359965324402,3.956986427307129,28.071182653624987,27.660473481959883,112.02044512321864,100.90393324690882,0.0,0.0923885703086853,0,0,0
9374,326149.7491771813,2010-11-20 06:21:20,2911.473586140019,2,29,0.5501165986061096,3.9587671756744394,28.07576977501673,27.660473481959883,112.03860066718482,100.90393324690882,6.47544875391759e-05,0.0923885703086853,0,0,0
9375,326179.7626516912,2010-11-20 06:21:50,2941.48706056464,2,29,0.5501165986061096,3.960547924041748,28.08035629384225,27.660473481959883,112.05676171959458,100.90393324690882,6.47544875391759e-05,0.0923885703086853,0,0,0
9376,326209.77796498087,2010-11-20 06:22:20,2971.502373854352,2,29,0.5501165986061096,3.9623286724090576,28.084943038917977,27.660473481959883,112.07493160954536,100.90393324690882,6.47544875391759e-05,0.0923885703086853,0,0,0
9377,326239.79330026044,2010-11-20 06:22:50,3001.5177091339538,2,29,0.5501165986061096,3.963947534561157,28.089529828596035,27.660473481959883,112.09310957736258,100.90393324690882,3.237724376958795e-05,0.0923885703086853,0,0,0
9378,326269.8089306366,2010-11-20 06:23:20,3031.5333395151742,2,29,0.550297200679779,3.9658901691436768,28.09411666096379,27.660473481959883,112.11129580124022,100.90393324690882,6.47544875391759e-05,0.0923885703086853,0,0,0
9379,326299.82398183213,2010-11-20 06:23:50,3061.548390705646,2,29,0.550297200679779,3.967509031295776,28.09870336352994,27.660473481959883,112.12948955587002,100.90393324690882,6.47544875391759e-05,0.0923885703086853,0,0,0
9380,326329.83928919205,2010-11-20 06:24:20,3091.5636980655563,2,29,0.5501165986061096,3.969289779663086,28.10328984525325,27.660473481959883,112.14769050944432,100.90393324690882,3.237724376958795e-05,0.0923885703086853,0,0,0
9381,326359.8547527418,2010-11-20 06:24:50,3121.57916161534,2,29,0.5499359965324402,3.971070528030396,28.107875715355046,27.660473481959883,112.16589723929133,100.90393324690882,3.237724376958795e-05,0.0923885703086853,0,0,0
9382,326389.8699733653,2010-11-20 06:25:20,3151.594382238742,2,29,0.5499359965324402,3.972851276397705,28.112461592705777,27.660473481959883,112.18411237182848,100.90393324690882,3.237724376958795e-05,0.0923885703086853,0,0,0
9383,326419.88529591303,2010-11-20 06:25:50,3181.6097047965886,2,29,0.5501165986061096,3.9747939109802246,28.117047467768867,27.660473481959883,112.202335978644,100.90393324690882,3.237724376958795e-05,0.0923885703086853,0,0,0
9384,326449.90064496204,2010-11-20 06:26:20,3211.6250538405484,2,29,0.5501165986061096,3.976574659347534,28.121633675124635,27.660473481959883,112.22056950309776,100.90393324690882,0.0,0.0923885703086853,0,0,0
9385,326479.9160189733,2010-11-20 06:26:50,3241.6404278468176,2,29,0.5501165986061096,3.9785172939300537,28.12622058156029,27.660473481959883,112.23881418864218,100.90393324690882,0.0001295089750783,0.0923885703086853,0,0,0
9386,326509.9313321277,2010-11-20 06:27:20,3271.655741026254,2,29,0.5501165986061096,3.980621814727783,28.130807299722623,27.660473481959883,112.2570673662582,100.90393324690882,6.47544875391759e-05,0.0923885703086853,0,0,0
9387,326539.94665461534,2010-11-20 06:27:50,3301.6710635089125,2,29,0.5501165986061096,3.982564449310303,28.13539400656043,27.660473481959883,112.27532940058768,100.90393324690882,6.47544875391759e-05,0.0923885703086853,0,0,0
9388,326569.96196676727,2010-11-20 06:28:20,3331.6863756407342,2,29,0.550297200679779,3.9845070838928223,28.139980700628456,27.660473481959883,112.29360031607804,100.90393324690882,9.713172767078504e-05,0.0923885703086853,0,0,0
9389,326599.977310914,2010-11-20 06:28:50,3361.7017197874698,2,29,0.550297200679779,3.986611604690552,28.14456743629096,27.660473481959883,112.31188049409305,100.90393324690882,9.713172767078504e-05,0.0923885703086853,0,0,0
9390,326629.9926733062,2010-11-20 06:29:20,3391.7170821596983,2,29,0.5501165986061096,3.988392353057861,28.14915417680708,27.660473481959883,112.33016985534344,100.90393324690882,6.47544875391759e-05,0.0923885703086853,0,0,0
9391,326660.0079743955,2010-11-20 06:29:50,3421.732383269006,2,29,0.5501165986061096,3.990496873855591,28.153740870560743,27.660473481959883,112.3484682362596,100.90393324690882,3.237724376958795e-05,0.0923885703086853,0,0,0
9392,326690.0233193793,2010-11-20 06:30:20,3451.7477282778937,2,29,0.550297200679779,3.99260139465332,28.15832756020191,27.660473481959883,112.36677596402704,100.90393324690882,9.713172767078504e-05,0.0923885703086853,0,0,0
9393,326720.03875049815,2010-11-20 06:30:50,3481.7631593766746,2,29,0.550297200679779,3.9945437908172607,28.16291428171482,27.660473481959883,112.38509329609934,100.90393324690882,0.0,0.0923885703086853,0,0,0
9394,326750.0559032996,2010-11-20 06:31:20,3511.780312183103,2,29,0.5501165986061096,3.9968101978302,28.16750130271821,27.660473481959883,112.40342143288828,100.90393324690882,6.47544875391759e-05,0.0923885703086853,0,0,0
9395,326780.069370421,2010-11-20 06:31:50,3541.79377929447,2,29,0.5501165986061096,3.99875283241272,28.172087658425937,27.660473481959883,112.42175656176312,100.90393324690882,3.237724376958795e-05,0.0923885703086853,0,0,0
9396,326810.0848093844,2010-11-20 06:32:20,3571.8092182628943,2,29,0.5501165986061096,4.000857353210449,28.176674243715475,27.660473481959883,112.44010226920328,100.90393324690882,3.23295607813634e-05,0.0923885703086853,0,0,0
9397,326840.10002301034,2010-11-20 06:32:50,3601.8244318838174,2,29,0.5499359965324402,4.002962112426758,28.181260830239253,27.660473481959883,112.45845786419636,100.90393324690882,0.0,0.0923885703086853,0,0,0
9398,326870.1155027655,2010-11-20 06:33:20,3631.8399116490777,2,29,0.5501165986061096,4.005228519439697,28.18584743955299,27.660473481959883,112.47682351347537,100.90393324690882,6.47544875391759e-05,0.0923885703086853,0,0,0
9399,326900.1307383613,2010-11-20 06:33:50,3661.855147234829,2,29,0.5501165986061096,4.007656574249268,28.190434018303968,27.660473481959883,112.4951991792828,100.90393324690882,6.47544875391759e-05,0.0923885703086853,0,0,0
9400,326930.14601324016,2010-11-20 06:34:20,3691.870422123686,2,29,0.5501165986061096,4.009761333465576,28.19502065834512,27.660473481959883,112.5135852007606,100.90393324690882,3.24249267578125e-05,0.0923885703086853,0,0,0
9401,326960.1613562792,2010-11-20 06:34:50,3721.885765162656,2,29,0.550297200679779,4.012027740478516,28.19960726462399,27.660473481959883,112.53198139982932,100.90393324690882,6.47544875391759e-05,0.0923885703086853,0,0,0
9402,326990.17671122786,2010-11-20 06:35:20,3751.90112010133,2,29,0.5501165986061096,4.014294147491455,28.20419392804093,27.660473481959883,112.55038818629272,100.90393324690882,9.71794142969884e-05,0.0923885703086853,0,0,0
9403,327020.1922751682,2010-11-20 06:35:50,3781.916684046717,2,29,0.5499359965324402,4.0165605545043945,28.208780676521737,27.660473481959883,112.56880578759782,100.90393324690882,3.24249267578125e-05,0.0923885703086853,0,0,0
9404,327050.2073844487,2010-11-20 06:36:20,3811.931793342227,2,29,0.5499359965324402,4.018988609313965,28.213367332646328,27.660473481959883,112.58723357323832,100.90393324690882,6.47544875391759e-05,0.0923885703086853,0,0,0
9405,327080.2226975479,2010-11-20 06:36:50,3841.9471064214135,2,29,0.5501165986061096,4.021255016326904,28.217953993498504,27.660473481959883,112.60567194226412,100.90393324690882,6.47544875391759e-05,0.0923885703086853,0,0,0
9406,327110.238073474,2010-11-20 06:37:20,3871.962482347475,2,29,0.5501165986061096,4.023521423339844,28.222540612646075,27.660473481959883,112.62412097534911,100.90393324690882,6.47544875391759e-05,0.0923885703086853,0,0,0
9407,327140.25349095376,2010-11-20 06:37:50,3901.977899827261,2,29,0.550297200679779,4.025949954986572,28.22712725697892,27.660473481959883,112.64258100481916,100.90393324690882,6.47544875391759e-05,0.0923885703086853,0,0,0
9408,327170.2686989757,2010-11-20 06:38:20,3931.993107849208,2,29,0.5499359965324402,4.028216361999512,28.231713861826385,27.660473481959883,112.6610518639599,100.90393324690882,3.24249267578125e-05,0.0923885703086853,0,0,0
9409,327200.2840391676,2010-11-20 06:38:50,3962.008448041071,2,29,0.5501165986061096,4.030806541442871,28.23630051312716,27.660473481959883,112.67953385470634,100.90393324690882,6.47544875391759e-05,0.0923885703086853,0,0,0
9410,327230.3008228125,2010-11-20 06:39:20,3992.025231686016,2,29,0.550297200679779,4.033234596252441,28.240887425719297,27.660473481959883,112.69802807516773,100.90393324690882,6.47544875391759e-05,0.0923885703086853,0,0,0
9411,327260.3032107987,2010-11-20 06:39:50,4022.0276197674193,2,29,0.5501165986061096,4.035662651062012,28.245472101791226,27.660473481959883,112.71652451880698,100.90393324690882,9.70840483205393e-05,0.0923885703086853,0,0,0
9412,327290.3144698634,2010-11-20 06:40:20,4052.0388788221367,2,29,0.5501165986061096,4.03809118270874,28.250058137603947,27.660473481959883,112.73503780720372,100.90393324690882,6.47544875391759e-05,0.0923885703086853,0,0,0
9413,327320.329753038,2010-11-20 06:40:50,4082.0541619214887,2,29,0.550297200679779,4.0406813621521,28.25464473485425,27.660473481959883,112.75356479695589,100.90393324690882,9.71794142969884e-05,0.0923885703086853,0,0,0
9414,327350.3450915857,2010-11-20 06:41:20,4112.0695004842855,2,29,0.5501165986061096,4.043271541595459,28.25923131913475,27.660473481959883,112.77210336121348,100.90393324690882,9.71794142969884e-05,0.0923885703086853,0,0,0
9415,327380.3604386848,2010-11-20 06:41:50,4142.084847558328,2,29,0.5501165986061096,4.045699596405029,28.263817971292056,27.660473481959883,112.7906538053128,100.90393324690882,6.47544875391759e-05,0.0923885703086853,0,0,0
9416,327410.361977371,2010-11-20 06:42:20,4172.08638624451,2,29,0.550297200679779,4.048451900482178,28.268402524065262,27.660473481959883,112.80920739444034,100.90393324690882,0.0001295089750783,0.0923885703086853,0,0,0
9417,327440.37549703853,2010-11-20 06:42:50,4202.099905912065,2,29,0.550297200679779,4.050879955291748,28.27298890300872,27.660473481959883,112.8277802343234,100.90393324690882,6.47544875391759e-05,0.0923885703086853,0,0,0
9418,327470.3908033358,2010-11-20 06:43:20,4232.115212209323,2,29,0.5499359965324402,4.053470134735107,28.27757554256339,27.660473481959883,112.84636612812773,100.90393324690882,6.47544875391759e-05,0.0923885703086853,0,0,0
9419,327500.4061451417,2010-11-20 06:43:50,4262.130554015214,2,29,0.5501165986061096,4.056222438812256,28.28216217971683,27.660473481959883,112.86496421240156,100.90393324690882,9.71794142969884e-05,0.0923885703086853,0,0,0
9420,327530.42149200523,2010-11-20 06:44:20,4292.145900878732,2,29,0.5499359965324402,4.058812618255615,28.286748872584983,27.660473481959883,112.88357493191464,100.90393324690882,6.47544875391759e-05,0.0923885703086853,0,0,0
9421,327560.4368236959,2010-11-20 06:44:50,4322.161232569375,2,29,0.5501165986061096,4.0615644454956055,28.291335505343792,27.660473481959883,112.902197623358,100.90393324690882,9.70840483205393e-05,0.0923885703086853,0,0,0
9422,327590.4522716216,2010-11-20 06:45:20,4352.176680505185,2,29,0.5501165986061096,4.064316749572754,28.295922117425867,27.660473481959883,112.92083257090128,100.90393324690882,6.47544875391759e-05,0.0923885703086853,0,0,0
9423,327620.467476997,2010-11-20 06:45:50,4382.191885875512,2,29,0.550297200679779,4.067068576812744,28.30050870602851,27.660473481959883,112.93948002761216,100.90393324690882,6.47544875391759e-05,0.0923885703086853,0,0,0
9424,327650.4828146976,2010-11-20 06:46:20,4412.207223576157,2,29,0.5501165986061096,4.069658756256104,28.30509529170249,27.660473481959883,112.95814010435524,100.90393324690882,6.47544875391759e-05,0.0923885703086853,0,0,0
9425,327680.4981291201,2010-11-20 06:46:50,4442.222537993684,2,29,0.550297200679779,4.072734832763672,28.30968189640208,27.660473481959883,112.9768130597835,100.90393324690882,9.71794142969884e-05,0.0923885703086853,0,0,0
9426,327710.5135516325,2010-11-20 06:47:20,4472.237960531095,2,29,0.5499359965324402,4.075325012207031,28.314268640769075,27.660473481959883,112.9954995128388,100.90393324690882,6.47544875391759e-05,0.0923885703086853,0,0,0
9427,327740.5287757747,2010-11-20 06:47:50,4502.253184758493,2,29,0.550297200679779,4.0782389640808105,28.3188560915046,27.660473481959883,113.0142019836418,100.90393324690882,6.47544875391759e-05,0.0923885703086853,0,0,0
9428,327770.5441478562,2010-11-20 06:48:20,4532.268556875046,2,29,0.5501165986061096,4.08115291595459,28.323443409854196,27.660473481959883,113.03291703822178,100.90393324690882,6.47544875391759e-05,0.0923885703086853,0,0,0
9429,327800.5594570808,2010-11-20 06:48:50,4562.283865954248,2,29,0.5501165986061096,4.084066867828369,28.328030812945585,27.660473481959883,113.05164557180392,100.90393324690882,9.71794142969884e-05,0.0923885703086853,0,0,0
9430,327830.5749884248,2010-11-20 06:49:20,4592.299397298256,2,29,0.5501165986061096,4.086980819702148,28.33261828535703,27.660473481959883,113.070387768291,100.90393324690882,6.47544875391759e-05,0.0923885703086853,0,0,0
9431,327860.59013590054,2010-11-20 06:49:50,4622.314544779083,2,29,0.5499359965324402,4.089732646942139,28.337205643773512,27.660473481959883,113.0891429897048,100.90393324690882,3.23295607813634e-05,0.0923885703086853,0,0,0
9432,327890.6053320629,2010-11-20 06:50:20,4652.329740931402,2,29,0.5501165986061096,4.092808723449707,28.341793021964545,27.660473481959883,113.1079119072578,100.90393324690882,6.47544875391759e-05,0.0923885703086853,0,0,0
9433,327920.6207991866,2010-11-20 06:50:51,4682.345208060119,2,29,0.5501165986061096,4.095884323120117,28.34637977842343,27.660473481959883,113.12669189523452,100.90393324690882,0.0001295089750783,0.0923885703086853,0,0,0
9434,327950.6361314788,2010-11-20 06:51:21,4712.360540352263,2,29,0.5501165986061096,4.0989603996276855,28.35096657661312,27.660473481959883,113.14548580312264,100.90393324690882,9.71794142969884e-05,0.0923885703086853,0,0,0
9435,327980.65160586056,2010-11-20 06:51:51,4742.376014744112,2,29,0.5499359965324402,4.101874351501465,28.355553402460604,27.660473481959883,113.16429371994298,100.90393324690882,6.47544875391759e-05,0.0923885703086853,0,0,0
9436,328010.66870778,2010-11-20 06:52:21,4772.393116658505,2,29,0.5501165986061096,4.104788303375244,28.36014051722699,27.660473481959883,113.18311667886532,100.90393324690882,6.47544875391759e-05,0.0923885703086853,0,0,0
9437,328040.6822104301,2010-11-20 06:52:51,4802.40661930357,2,29,0.550297200679779,4.108026027679443,28.36472694362549,27.660473481959883,113.201951039148,100.90393324690882,6.47544875391759e-05,0.0923885703086853,0,0,0
9438,328070.69747767487,2010-11-20 06:53:21,4832.421886558371,2,29,0.5501165986061096,4.111263751983643,28.36931366603759,27.660473481959883,113.22080087012525,100.90393324690882,9.71794142969884e-05,0.0923885703086853,0,0,0
9439,328100.7128219118,2010-11-20 06:53:51,4862.437230785306,2,29,0.5501165986061096,4.114339351654053,28.373900445977217,27.660473481959883,113.23966536617408,100.90393324690882,6.47544875391759e-05,0.0923885703086853,0,0,0
9440,328130.7281959782,2010-11-20 06:54:21,4892.452604866764,2,29,0.5497553944587708,4.117414951324463,28.37848716093257,27.660473481959883,113.2585440446314,100.90393324690882,6.47544875391759e-05,0.0923885703086853,0,0,0
9441,328160.7435145862,2010-11-20 06:54:51,4922.467923459713,2,29,0.5501165986061096,4.120814800262451,28.383073843031124,27.660473481959883,113.27743719773936,100.90393324690882,9.71794142969884e-05,0.0923885703086853,0,0,0
9442,328190.7588239812,2010-11-20 06:55:21,4952.483232854703,2,29,0.5501165986061096,4.12405252456665,28.38766056411846,27.660473481959883,113.29634531757316,100.90393324690882,0.0001295089750783,0.0923885703086853,0,0,0
9443,328220.77421935083,2010-11-20 06:55:51,4982.498628334573,2,29,0.5501165986061096,4.1271281242370605,28.392247342665545,27.660473481959883,113.3152685291689,100.90393324690882,6.47544875391759e-05,0.0923885703086853,0,0,0
9444,328250.78987868427,2010-11-20 06:56:21,5012.5142875577885,2,29,0.5501165986061096,4.130527973175049,28.39683410198772,27.660473481959883,113.33420651787388,100.90393324690882,0.0001295089750783,0.0923885703086853,0,0,0
9445,328280.8048316546,2010-11-20 06:56:51,5042.529240528087,2,29,0.550297200679779,4.133765697479248,28.401420836341337,27.660473481959883,113.35315937694388,100.90393324690882,9.71794142969884e-05,0.0923885703086853,0,0,0
9446,328310.82029885845,2010-11-20 06:57:21,5072.544707731993,2,29,0.5501165986061096,4.137003421783447,28.40600765735246,27.660473481959883,113.3721277117638,100.90393324690882,6.47544875391759e-05,0.0923885703086853,0,0,0
9447,328340.83551217866,2010-11-20 06:57:51,5102.559921052164,2,29,0.550297200679779,4.140402793884277,28.41059440937489,27.660473481959883,113.39111091358866,100.90393324690882,0.0001295089750783,0.0923885703086853,0,0,0
9448,328370.8508665459,2010-11-20 06:58:21,5132.575275419412,2,29,0.5501165986061096,4.143640518188477,28.415181206396586,27.660473481959883,113.41010961044655,100.90393324690882,6.47544875391759e-05,0.0923885703086853,0,0,0
9449,328400.86618594587,2010-11-20 06:58:51,5162.590594819376,2,29,0.5501165986061096,4.147364139556885,28.419768014531947,27.660473481959883,113.42912429224796,100.90393324690882,9.71794142969884e-05,0.0923885703086853,0,0,0
9450,328430.8815166541,2010-11-20 06:59:21,5192.605925527567,2,29,0.550297200679779,4.150763511657715,28.42435479634063,27.660473481959883,113.44815471982729,100.90393324690882,9.70840483205393e-05,0.0923885703086853,0,0,0
9451,328460.89689734706,2010-11-20 06:59:51,5222.621306220528,2,29,0.5501165986061096,4.154001235961914,28.42894163353347,27.660473481959883,113.46720128865888,100.90393324690882,6.47544875391759e-05,0.0923885703086853,0,0,0
9452,328490.91223248624,2010-11-20 07:00:21,5252.636641359779,2,29,0.5501165986061096,4.157724857330322,28.43352838682571,27.660473481959883,113.48626345601411,100.90393324690882,6.47544875391759e-05,0.0923885703086853,0,0,0
9453,328520.9275331395,2010-11-20 07:00:51,5282.651942012948,2,29,0.5499359965324402,4.161124229431152,28.438115152166624,27.660473481959883,113.50534179585529,100.90393324690882,6.47544875391759e-05,0.0923885703086853,0,0,0
9454,328550.94286974234,2010-11-20 07:01:21,5312.667278615852,2,29,0.5501165986061096,4.164685726165772,28.44270190755854,27.660473481959883,113.52443619630124,100.90393324690882,9.70840483205393e-05,0.0923885703086853,0,0,0
9455,328580.9581990821,2010-11-20 07:01:51,5342.682607955628,2,29,0.5499359965324402,4.168247222900391,28.447288669167964,27.660473481959883,113.54354687307716,100.90393324690882,9.70840483205393e-05,0.0923885703086853,0,0,0
9456,328610.9754321088,2010-11-20 07:02:21,5372.69984098731,2,29,0.5501165986061096,4.17180871963501,28.45187569278365,27.660473481959883,113.56267489311948,100.90393324690882,9.70840483205393e-05,0.0923885703086853,0,0,0
9457,328640.9890288187,2010-11-20 07:02:51,5402.713437692162,2,29,0.550297200679779,4.175370216369629,28.456462225446625,27.660473481959883,113.5818171403944,100.90393324690882,9.70840483205393e-05,0.0923885703086853,0,0,0
9458,328671.00428265,2010-11-20 07:03:21,5432.728691533482,2,29,0.5501165986061096,4.178931713104248,28.46104892190992,27.660473481959883,113.60097653710972,100.90393324690882,6.47544875391759e-05,0.0923885703086853,0,0,0
9459,328701.0195557744,2010-11-20 07:03:51,5462.74396464791,2,29,0.5501165986061096,4.182816982269287,28.46563569376524,27.660473481959883,113.62015284969776,100.90393324690882,0.0001618385285837,0.0923885703086853,0,0,0
9460,328731.0351004768,2010-11-20 07:04:21,5492.759509350262,2,29,0.5499359965324402,4.186216831207275,28.47022253450231,27.660473481959883,113.63934606812025,100.90393324690882,6.47544875391759e-05,0.0923885703086853,0,0,0
9461,328761.05017470976,2010-11-20 07:04:51,5522.774583593277,2,29,0.5499359965324402,4.189939975738525,28.47480924902615,27.660473481959883,113.6585555985778,100.90393324690882,9.70840483205393e-05,0.0923885703086853,0,0,0
9462,328791.0656920188,2010-11-20 07:05:21,5552.790100902252,2,29,0.5501165986061096,4.193663597106934,28.47939530466708,27.660473481959883,113.67777910610828,100.90393324690882,0.0001619339018361,0.0923885703086853,0,0,0
9463,328821.0808665571,2010-11-20 07:05:51,5582.805275430594,2,29,0.550297200679779,4.197386741638184,28.483981324514545,27.660473481959883,113.69701942491304,100.90393324690882,0.0001295089750783,0.0923885703086853,0,0,0
9464,328842.28415189433,2010-11-20 07:06:12,5604.008560772852,2,29,0.550297200679779,4.200138568878174,28.4872215204992,27.660473481959883,113.71062382456192,100.90393324690882,0.0001295089750783,0.0923885703086853,0,0,0
9465,328872.2885505928,2010-11-20 07:06:42,30.015336432479536,3,29,0.0,4.116767406463623,28.4872215204992,27.660473481959883,113.71062382456192,100.90393324690882,-0.0003885269106831,0.0923885703086853,0,0,0
9466,328902.3038920177,2010-11-20 07:07:12,60.03067785742103,3,29,0.0,4.106730937957764,28.4872215204992,27.660473481959883,113.71062382456192,100.90393324690882,-0.0002265930233988,0.0923885703086853,0,0,0
9467,328932.3192613373,2010-11-20 07:07:42,90.04604717699179,3,29,0.0,4.100740909576416,28.4872215204992,27.660473481959883,113.71062382456192,100.90393324690882,-0.0001295089750783,0.0923885703086853,0,0,0
9468,328962.28769201576,2010-11-20 07:08:12,120.01447785549314,3,29,0.0,4.096855640411377,28.4872215204992,27.660473481959883,113.71062382456192,100.90393324690882,-0.0001295089750783,0.0923885703086853,0,0,0
9469,328962.2938251536,2010-11-20 07:08:12,2.827056769e-06,4,29,0.0001613661734154,4.096855640411377,28.48722152049933,27.660473481959883,113.71062382456245,100.90393324690882,0.0,0.0923885703086853,0,0,0
9470,328992.2996503578,2010-11-20 07:08:43,30.01547286804369,5,29,0.0,4.094427585601807,28.48722152049933,27.660473481959883,113.71062382456245,100.90393324690882,-6.47544875391759e-05,0.0923885703086853,0,0,0
9471,329022.299335813,2010-11-20 07:09:13,60.0151583333012,5,29,0.0,4.092322826385498,28.48722152049933,27.660473481959883,113.71062382456245,100.90393324690882,-3.24249267578125e-05,0.0923885703086853,0,0,0
9472,329022.4934101015,2010-11-20 07:09:13,0.187481141773118,6,29,-1.9243103452026844e-05,4.092484951019287,28.48722152049933,27.660473482962026,113.71062382456245,100.90393325101007,0.0,0.0946486890316009,0,0,0
9473,329027.3214337513,2010-11-20 07:09:18,5.015504791575896,6,29,0.0007031940040178,4.092322826385498,28.48722236434426,27.66047348304589,113.71062727787766,100.90393325135328,-3.24249267578125e-05,0.0946486890316009,0,0,0
9474,329057.34356259526,2010-11-20 07:09:48,30.015365334623738,7,29,-1.099929690361023,3.925256729125977,28.48722236434426,27.669642960531803,113.71062727787766,100.94010498453169,-0.0008094310760498,0.0946486890316009,0,0,0
9475,329087.3588652334,2010-11-20 07:10:18,60.03066796272233,7,29,-1.099929690361023,3.901945352554321,28.48722236434426,27.67881233746271,113.71062727787766,100.97598229565156,-0.0005180359003134,0.0946486890316009,0,0,0
9476,329117.37428802147,2010-11-20 07:10:48,90.04609079085871,7,29,-1.0997490882873535,3.885918617248535,28.48722236434426,27.68798173463475,113.71062727787766,101.01168368715106,-0.0003885269106831,0.0946486890316009,0,0,0
9477,329147.3894836474,2010-11-20 07:11:18,120.06128637676356,7,29,-1.099568486213684,3.873453378677368,28.48722236434426,27.69715105653972,113.71062727787766,101.04725535814198,-0.0002590179501567,0.0946486890316009,0,0,0
9478,329177.4049210469,2010-11-20 07:11:48,150.07672377627233,7,29,-1.0997490882873535,3.8629307746887207,28.48722236434426,27.706320379430416,113.71062727787766,101.08272193883792,-0.0001942634553415,0.0946486890316009,0,0,0
9479,329207.420150367,2010-11-20 07:12:18,180.09195312645795,7,29,-1.0997490882873535,3.853217601776123,28.48722236434426,27.71548969369585,113.71062727787766,101.11809626247712,-0.0002266406954731,0.0946486890316009,0,0,0
9480,329237.4354734412,2010-11-20 07:12:48,210.107276170518,7,29,-1.0997490882873535,3.844151973724365,28.48722236434426,27.724659065091345,113.71062727787766,101.15338582070298,-0.0002590179501567,0.0946486890316009,0,0,0
9481,329267.45083911164,2010-11-20 07:13:18,240.12264184098,7,29,-1.0997490882873535,3.835572004318237,28.48722236434426,27.73382839266348,113.71062727787766,101.18859488150837,-0.0002266406954731,0.0946486890316009,0,0,0
9482,329297.46619635605,2010-11-20 07:13:48,270.1379990904219,7,29,-1.099929690361023,3.8274779319763184,28.48722236434426,27.742997703568896,113.71062727787766,101.22372727805352,-0.0001942634553415,0.0946486890316009,0,0,0
9483,329327.48161394114,2010-11-20 07:14:18,300.15341667045817,7,29,-1.099568486213684,3.8195455074310303,28.48722236434426,27.752167006995776,113.71062727787766,101.25878584764656,-0.0001942634553415,0.0946486890316009,0,0,0
9484,329357.4968189255,2010-11-20 07:14:48,330.1686216798855,7,29,-1.099568486213684,3.811774969100952,28.48722236434426,27.761336239557785,113.71062727787766,101.29377225078647,-0.0002266406954731,0.0946486890316009,0,0,0
9485,329387.51218391425,2010-11-20 07:15:18,360.183986668646,7,29,-1.0997490882873535,3.804166316986084,28.48722236434426,27.770505515535568,113.71062727787766,101.32868819311614,-0.0001942634553415,0.0946486890316009,0,0,0
9486,329417.5274876251,2010-11-20 07:15:48,390.1992903794472,7,29,-1.099568486213684,3.796881437301636,28.48722236434426,27.779674816529926,113.71062727787766,101.363536136057,-0.0001618862152099,0.0946486890316009,0,0,0
9487,329447.542846669,2010-11-20 07:16:18,420.21464939830577,7,29,-1.099568486213684,3.789596557617188,28.48722236434426,27.78884411084048,113.71062727787766,101.3983169618104,-0.0002266406954731,0.0946486890316009,0,0,0
9488,329477.5581672719,2010-11-20 07:16:48,450.2299699962599,7,29,-1.099929690361023,3.782473564147949,28.48722236434426,27.798013426502862,113.71062727787766,101.43303239567744,-0.0001942634553415,0.0946486890316009,0,0,0
9489,329507.5754444287,2010-11-20 07:17:18,480.2472471580985,7,29,-1.0997490882873535,3.775512456893921,28.48722236434426,27.80718339078621,113.71062727787766,101.46768552597425,-0.0002266406954731,0.0946486890316009,0,0,0
9490,329537.5890628979,2010-11-20 07:17:48,510.2608656322898,7,29,-1.0997490882873535,3.7685513496398926,28.48722236434426,27.81635219472047,113.71062727787766,101.5022711412102,-0.0002590179501567,0.0946486890316009,0,0,0
9491,329567.604349471,2010-11-20 07:18:18,540.27615222035,7,29,-1.0997490882873535,3.761914014816284,28.48722236434426,27.82552154960485,113.71062727787766,101.53679675264756,-0.0001618862152099,0.0946486890316009,0,0,0
9492,329597.6195172374,2010-11-20 07:18:48,570.2913199517257,7,29,-1.0997490882873535,3.755276679992676,28.48722236434426,27.834690840174687,113.71062727787766,101.57126107356756,-0.0001942634553415,0.0946486890316009,0,0,0
9493,329627.6348931184,2010-11-20 07:19:18,600.3066958477123,7,29,-1.099568486213684,3.749125242233277,28.48722236434426,27.84386020071881,113.71062727787766,101.60566598765148,-0.0001295089750783,0.0946486890316009,0,0,0
9494,329657.6501999119,2010-11-20 07:19:48,630.3220026412082,7,29,-1.0997490882873535,3.742811679840088,28.48722236434426,27.85302954047739,113.71062727787766,101.64001273528504,-0.0001295089750783,0.0946486890316009,0,0,0
9495,329687.66554391827,2010-11-20 07:20:18,660.3373466475934,7,29,-1.099929690361023,3.736660003662109,28.48722236434426,27.862198865455227,113.71062727787766,101.67430237302324,-0.0001295089750783,0.0946486890316009,0,0,0
9496,329717.6810538037,2010-11-20 07:20:48,690.3528565330382,7,29,-1.0997490882873535,3.730508327484131,28.48722236434426,27.871368274191315,113.71062727787766,101.70853664537265,-0.0001618862152099,0.0946486890316009,0,0,0
9497,329747.69694582804,2010-11-20 07:21:18,720.3687485824231,7,29,-1.099929690361023,3.724680423736572,28.48722236434426,27.880537725353808,113.71062727787766,101.74271733256396,-0.0001942634553415,0.0946486890316009,0,0,0
9498,329777.6989437154,2010-11-20 07:21:48,750.3707465700924,7,29,-1.099929690361023,3.7188525199890137,28.48722236434426,27.88970299611376,113.71062727787766,101.77682889389472,-0.0001618862152099,0.0946486890316009,0,0,0
9499,329807.7112652523,2010-11-20 07:22:18,780.3830679816157,7,29,-1.0997490882873535,3.713348388671875,28.48722236434426,27.89887142098485,113.71062727787766,101.81089973294512,-0.0001295089750783,0.0946486890316009,0,0,0
9500,329837.7266941907,2010-11-20 07:22:48,810.3984969200042,7,29,-1.0997490882873535,3.707844257354736,28.48722236434426,27.908040772022076,113.71062727787766,101.84492324111775,-0.0001295089750783,0.0946486890316009,0,0,0
9501,329867.7419758865,2010-11-20 07:23:18,840.4137786208652,7,29,-1.0997490882873535,3.702502012252808,28.48722236434426,27.917210031019668,113.71062727787766,101.87889670694577,-0.0001295089750783,0.0946486890316009,0,0,0
9502,329897.7572534972,2010-11-20 07:23:48,870.4290562365289,7,29,-1.0997490882873535,3.697321653366089,28.48722236434426,27.92637940594001,113.71062727787766,101.91282188932344,-0.0001295089750783,0.0946486890316009,0,0,0
9503,329927.77258065145,2010-11-20 07:24:18,900.4443833808236,7,29,-1.0997490882873535,3.69197940826416,28.48722236434426,27.935548694391944,113.71062727787766,101.94669886912143,-0.0001618862152099,0.0946486890316009,0,0,0
9504,329957.78791427193,2010-11-20 07:24:48,930.459717001284,7,29,-1.0997490882873535,3.687122821807861,28.48722236434426,27.944717974507444,113.71062727787766,101.98052886525218,-9.713172767078504e-05,0.0946486890316009,0,0,0
9505,329987.8032565791,2010-11-20 07:25:18,960.47505933349,7,29,-1.099568486213684,3.682104349136353,28.48722236434426,27.95388721514544,113.71062727787766,102.01431251597448,-6.47544875391759e-05,0.0946486890316009,0,0,0
9506,330017.8186076932,2010-11-20 07:25:48,990.4904104225548,7,29,-1.0997490882873535,3.677085876464844,28.48722236434426,27.963056490008984,113.71062727787766,102.04805054645392,-0.0001295089750783,0.0946486890316009,0,0,0
9507,330047.83393208066,2010-11-20 07:26:18,1020.505734809968,7,29,-1.0997490882873535,3.672229528427124,28.48722236434426,27.972225755028617,113.71062727787766,102.08174381703292,-0.0001294612884521,0.0946486890316009,0,0,0
9508,330077.8494589585,2010-11-20 07:26:48,1050.5212616878284,7,29,-1.099568486213684,3.667372941970825,28.48722236434426,27.981395083193707,113.71062727787766,102.11539311722986,-0.0001295089750783,0.0946486890316009,0,0,0
9509,330107.86461072,2010-11-20 07:27:18,1080.536413449341,7,29,-1.099568486213684,3.662678241729736,28.48722236434426,27.99056429204047,113.71062727787766,102.14899826247338,-0.0001295089750783,0.0946486890316009,0,0,0
9510,330137.88191797695,2010-11-20 07:27:48,1110.5537208316143,7,29,-1.0997490882873535,3.657983541488648,28.48722236434426,27.999734157378267,113.71062727787766,102.18256303900688,-9.713172767078504e-05,0.0946486890316009,0,0,0
9511,330167.89528549975,2010-11-20 07:28:18,1140.5670882290794,7,29,-1.0997490882873535,3.653450727462769,28.48722236434426,28.008902806448877,113.71062727787766,102.21608110509976,-9.713172767078504e-05,0.0946486890316009,0,0,0
9512,330197.91062083445,2010-11-20 07:28:48,1170.582423563819,7,29,-1.0997490882873535,3.6489179134368896,28.48722236434426,28.01807197131493,113.71062727787766,102.24955953160736,-0.0001295089750783,0.0946486890316009,0,0,0
9513,330227.92597168795,2010-11-20 07:29:18,1200.5977744172956,7,29,-1.0997490882873535,3.6443850994110103,28.48722236434426,28.02724117055898,113.71062727787766,102.28299690006376,-0.0001618862152099,0.0946486890316009,0,0,0
9514,330257.9414834481,2010-11-20 07:29:48,1230.61328617742,7,29,-1.0997490882873535,3.6403379440307617,28.48722236434426,28.03641037885324,113.71062727787766,102.3163942759938,-9.713172767078504e-05,0.0946486890316009,0,0,0
9515,330287.95685300825,2010-11-20 07:30:18,1260.6286557426035,7,29,-1.0997490882873535,3.6359670162200928,28.48722236434426,28.045579557802192,113.71062727787766,102.34975213761057,-0.0001295089750783,0.0946486890316009,0,0,0
9516,330317.9721059122,2010-11-20 07:30:48,1290.6439086415708,7,29,-1.0997490882873535,3.631596088409424,28.48722236434426,28.05474877267381,113.71062727787766,102.38307149052218,-0.0001618862152099,0.0946486890316009,0,0,0
9517,330347.987316245,2010-11-20 07:31:18,1320.659118974286,7,29,-1.099568486213684,3.6277108192443848,28.48722236434426,28.06391792879651,113.71062727787766,102.41635289844976,-9.713172767078504e-05,0.0946486890316009,0,0,0
9518,330378.00266579515,2010-11-20 07:31:48,1350.6744685245094,7,29,-1.099929690361023,3.623663663864136,28.48722236434426,28.07308709184268,113.71062727787766,102.44959743787344,-0.0001295089750783,0.0946486890316009,0,0,0
9519,330408.017988338,2010-11-20 07:32:19,1380.6897910572932,7,29,-1.0997490882873535,3.619940280914306,28.48722236434426,28.08225628432525,113.71062727787766,102.48280623531508,-9.713172767078504e-05,0.0946486890316009,0,0,0
9520,330438.0333293469,2010-11-20 07:32:49,1410.7051320762212,7,29,-1.0997490882873535,3.616055011749268,28.48722236434426,28.091425530115693,113.71062727787766,102.51598040859108,-0.0001295089750783,0.0946486890316009,0,0,0
9521,330468.0486658946,2010-11-20 07:33:19,1440.7204686239884,7,29,-1.099929690361023,3.612493515014648,28.48722236434426,28.10059475553127,113.71062727787766,102.54912057813743,-9.713172767078504e-05,0.0946486890316009,0,0,0
9522,330498.0640720863,2010-11-20 07:33:49,1470.7358748155975,7,29,-1.0997490882873535,3.608932018280029,28.48722236434426,28.109763990464028,113.71062727787766,102.58222801807676,-9.713172767078504e-05,0.0946486890316009,0,0,0
9523,330528.0793382734,2010-11-20 07:34:19,1500.7511410027337,7,29,-1.099929690361023,3.60537052154541,28.48722236434426,28.11893326206245,113.71062727787766,102.61530357132406,-0.0001295089750783,0.0946486890316009,0,0,0
9524,330558.09467538755,2010-11-20 07:34:49,1530.7664781169149,7,29,-1.0997490882873535,3.601970911026001,28.48722236434426,28.128102442839936,113.71062727787766,102.64834740689044,-0.0001295089750783,0.0946486890316009,0,0,0
9525,330588.1100595492,2010-11-20 07:35:19,1560.7818623637463,7,29,-1.099929690361023,3.5987331867218018,28.48722236434426,28.13727168678125,113.71062727787766,102.68136091763974,-9.713172767078504e-05,0.0946486890316009,0,0,0
9526,330618.12548834225,2010-11-20 07:35:49,1590.7972911868474,7,29,-1.0997490882873535,3.5956573486328125,28.48722236434426,28.146440989731403,113.71062727787766,102.71434464394235,-6.47544875391759e-05,0.0946486890316009,0,0,0
9527,330648.14068698575,2010-11-20 07:36:19,1620.8124897150965,7,29,-1.099568486213684,3.5925815105438232,28.48722236434426,28.15561022417306,113.71062727787766,102.74729899925974,-3.237724376958795e-05,0.0946486890316009,0,0,0
9528,330678.15615110693,2010-11-20 07:36:49,1650.827953846332,7,29,-1.099568486213684,3.589344024658203,28.48722236434426,28.16477954741152,113.71062727787766,102.78022489653668,-9.713172767078504e-05,0.0946486890316009,0,0,0
9529,330708.17142836173,2010-11-20 07:37:19,1680.8432310910696,7,29,-1.0997490882873535,3.586268186569214,28.48722236434426,28.173948792952032,113.71062727787766,102.81312230054088,-9.713172767078504e-05,0.0946486890316009,0,0,0
9530,330738.18882235023,2010-11-20 07:37:49,1710.860625104588,7,29,-1.0997490882873535,3.5831923484802246,28.48722236434426,28.18311864084045,113.71062727787766,102.84599409426454,-9.713172767078504e-05,0.0946486890316009,0,0,0
9531,330768.20207284583,2010-11-20 07:38:19,1740.8738755751858,7,29,-1.0997490882873535,3.5802783966064453,28.48722236434426,28.192287250024517,113.71062727787766,102.87883415937684,-9.713172767078504e-05,0.0946486890316009,0,0,0
9532,330798.21737879224,2010-11-20 07:38:49,1770.8891815215673,7,29,-1.099929690361023,3.577364444732666,28.48722236434426,28.201456522458585,113.71062727787766,102.91164919915298,-9.713172767078504e-05,0.0946486890316009,0,0,0
9533,330828.23272318457,2010-11-20 07:39:19,1800.904525913916,7,29,-1.099929690361023,3.574126720428467,28.48722236434426,28.210625781923824,113.71062727787766,102.94443678766848,-9.713172767078504e-05,0.0946486890316009,0,0,0
9534,330858.24807122606,2010-11-20 07:39:49,1830.9198739553733,7,29,-1.0997490882873535,3.571374654769897,28.48722236434426,28.219795044908025,113.71062727787766,102.97719686962684,-3.237724376958795e-05,0.0946486890316009,0,0,0
9535,330888.263390636,2010-11-20 07:40:19,1860.935193365362,7,29,-1.099929690361023,3.568298816680908,28.48722236434426,28.22896430342991,113.71062727787766,103.00992916822162,-6.47544875391759e-05,0.0946486890316009,0,0,0
9536,330918.2788382511,2010-11-20 07:40:49,1890.9506409903952,7,29,-1.0997490882873535,3.565384864807129,28.48722236434426,28.23813359945133,113.71062727787766,103.04263390334503,-3.237724376958795e-05,0.0946486890316009,0,0,0
9537,330948.2940671651,2010-11-20 07:41:19,1920.9658698944672,7,29,-1.099568486213684,3.56230902671814,28.48722236434426,28.247302724768225,113.71062727787766,103.07530996168542,-6.47544875391759e-05,0.0946486890316009,0,0,0
9538,330978.30942734686,2010-11-20 07:41:49,1950.981230106304,7,29,-1.0997490882873535,3.5590713024139404,28.48722236434426,28.256471979072828,113.71062727787766,103.1079585180262,-6.47544875391759e-05,0.0946486890316009,0,0,0
9539,331008.32474436593,2010-11-20 07:42:19,1980.9965470952493,7,29,-1.099929690361023,3.555833578109741,28.48722236434426,28.26564123526809,113.71062727787766,103.1405781738896,-0.0001618862152099,0.0946486890316009,0,0,0
9540,331038.3400744425,2010-11-20 07:42:49,2011.011877176876,7,29,-1.099568486213684,3.552595853805542,28.48722236434426,28.274810478286007,113.71062727787766,103.17316786494315,-9.713172767078504e-05,0.0946486890316009,0,0,0
9541,331068.355426484,2010-11-20 07:43:19,2041.027229208293,7,29,-1.099568486213684,3.5493581295013428,28.48722236434426,28.283979757517283,113.71062727787766,103.20572747338343,-6.47544875391759e-05,0.0946486890316009,0,0,0
9542,331098.37078321713,2010-11-20 07:43:49,2071.0425859464585,7,29,-1.0997490882873535,3.545796632766724,28.48722236434426,28.2931490385404,113.71062727787766,103.23825585694335,-6.47544875391759e-05,0.0946486890316009,0,0,0
9543,331128.3861652785,2010-11-20 07:44:19,2101.057968007835,7,29,-1.099929690361023,3.5420732498168945,28.48722236434426,28.302318350202587,113.71062727787766,103.27075198096388,-0.0001295089750783,0.0946486890316009,0,0,0
9544,331158.4014431197,2010-11-20 07:44:49,2131.073245849061,7,29,-1.0997490882873535,3.5385117530822754,28.48722236434426,28.311487621140405,113.71062727787766,103.30321495961496,-9.713172767078504e-05,0.0946486890316009,0,0,0
9545,331188.41689593275,2010-11-20 07:45:19,2161.088698667057,7,29,-1.0997490882873535,3.5346264839172363,28.48722236434426,28.32065692367712,113.71062727787766,103.33564359643272,-0.0001618862152099,0.0946486890316009,0,0,0
9546,331218.432138937,2010-11-20 07:45:49,2191.1039416713256,7,29,-1.099568486213684,3.5309031009674072,28.48722236434426,28.32982625428027,113.71062727787766,103.36803690178486,-9.713172767078504e-05,0.0946486890316009,0,0,0
9547,331248.4475772437,2010-11-20 07:46:19,2221.1193799730863,7,29,-1.0993878841400146,3.526855945587158,28.48722236434426,28.33899569442447,113.71062727787766,103.40039393421358,-6.47544875391759e-05,0.0946486890316009,0,0,0
9548,331278.4629509593,2010-11-20 07:46:49,2251.1347536886306,7,29,-1.0997490882873535,3.522646903991699,28.48722236434426,28.348165045188004,113.71062727787766,103.43271265415164,-9.713172767078504e-05,0.0946486890316009,0,0,0
9549,331308.478265046,2010-11-20 07:47:19,2281.1500677753315,7,29,-1.0997490882873535,3.5181140899658203,28.48722236434426,28.35733423583032,113.71062727787766,103.4649915250465,-0.0001295089750783,0.0946486890316009,0,0,0
9550,331338.4955403933,2010-11-20 07:47:49,2311.167343137678,7,29,-1.0997490882873535,3.5135812759399414,28.48722236434426,28.366504116008915,113.71062727787766,103.49723189293222,-0.0001295089750783,0.0946486890316009,0,0,0
9551,331368.5088033701,2010-11-20 07:48:19,2341.180606104469,7,29,-1.099929690361023,3.5087249279022217,28.48722236434426,28.3756728397913,113.71062727787766,103.52942515476464,-0.0001618862152099,0.0946486890316009,0,0,0
9552,331398.5241354467,2010-11-20 07:48:49,2371.1959381760626,7,29,-1.099568486213684,3.503544569015503,28.48722236434426,28.384842199970347,113.71062727787766,103.56157486874451,-0.0001295089750783,0.0946486890316009,0,0,0
9553,331428.5396126857,2010-11-20 07:49:19,2401.2114154150167,7,29,-1.099929690361023,3.4978785514831543,28.48722236434426,28.394011563178548,113.71062727787766,103.593675278791,-0.0001942634553415,0.0946486890316009,0,0,0
9554,331458.5548327828,2010-11-20 07:49:49,2431.226635512105,7,29,-1.099929690361023,3.491726875305176,28.48722236434426,28.4031808018406,113.71062727787766,103.62572172837086,-0.0001942634553415,0.0946486890316009,0,0,0
9555,331488.5703822019,2010-11-20 07:50:19,2461.2421849312323,7,29,-1.0997490882873535,3.4849276542663574,28.48722236434426,28.41235012079315,113.71062727787766,103.65770908537188,-0.0001942634553415,0.0946486890316009,0,0,0
9556,331518.58550001367,2010-11-20 07:50:49,2491.2573027430008,7,29,-1.0997490882873535,3.4771571159362797,28.48722236434426,28.42151934811937,113.71062727787766,103.68962841235064,-0.0001942634553415,0.0946486890316009,0,0,0
9557,331548.6009093581,2010-11-20 07:51:19,2521.27271208748,7,29,-1.0997490882873535,3.4677677154541016,28.48722236434426,28.43068868884792,113.71062727787766,103.72146989745552,-0.0002913951757363,0.0946486890316009,0,0,0
9558,331578.616196277,2010-11-20 07:51:49,2551.2879990063657,7,29,-1.099929690361023,3.456759452819824,28.48722236434426,28.439857936401825,113.71062727787766,103.75321853901124,-0.0003237724304199,0.0946486890316009,0,0,0
9559,331608.63147808315,2010-11-20 07:52:19,2581.30328081249,7,29,-1.0997490882873535,3.442999124526977,28.48722236434426,28.44902715875141,113.71062727787766,103.78485341359615,-0.0003561496851034,0.0946486890316009,0,0,0
9560,331638.64695164794,2010-11-20 07:52:49,2611.3187543772724,7,29,-1.099568486213684,3.425029993057251,28.48722236434426,28.458196181884915,113.71062727787766,103.8163431450545,-0.0005504131549969,0.0946486890316009,0,0,0
9561,331668.6622779401,2010-11-20 07:53:19,2641.3340806744527,7,29,-1.0997490882873535,3.4010708332061768,28.48722236434426,28.46736531153161,113.71062727787766,103.8476433977938,-0.0007446765666827,0.0946486890316009,0,0,0
9562,331698.6806180402,2010-11-20 07:53:49,2671.3524208096364,7,29,-1.099568486213684,3.3682079315185547,28.48722236434426,28.47653556852361,113.71062727787766,103.8786898648372,-0.0010360718006268,0.0946486890316009,0,0,0
9563,331728.69289697066,2010-11-20 07:54:19,2701.36469970002,7,29,-1.0997490882873535,3.321908712387085,28.48722236434426,28.485703999795085,113.71062727787766,103.90937077804728,-0.0014245987404137,0.0946486890316009,0,0,0
9564,331758.7082923954,2010-11-20 07:54:49,2731.3800951247536,7,29,-1.0997490882873535,3.25602126121521,28.48722236434426,28.494873303714577,113.71062727787766,103.9395458832848,-0.0020397664047777,0.0946486890316009,0,0,0
9565,331788.7235706276,2010-11-20 07:55:19,2761.3953733569565,7,29,-1.0997490882873535,3.1600229740142822,28.48722236434426,28.50404261477371,113.71062727787766,103.96899117886542,-0.0030758380889892,0.0946486890316009,0,0,0
9566,331818.7389241628,2010-11-20 07:55:49,2791.4107268921266,7,29,-1.099929690361023,3.0067172050476074,28.48722236434426,28.5132119427506,113.71062727787766,103.99733059265256,-0.0052774427458643,0.0946486890316009,0,0,0
9567,331838.7699999898,2010-11-20 07:56:09,2811.441802719095,7,29,-1.0997490882873535,2.806464433670044,28.48722236434426,28.519331230052128,113.71062727787766,104.01518446081792,-0.0101988315582275,0.0946486890316009,0,0,0
9568,331846.36365652474,2010-11-20 07:56:17,2819.0354592540607,7,29,-1.0997490882873535,2.699620008468628,28.48722236434426,28.521650971832823,113.71062727787766,104.0215727576014,-0.0114938737824559,0.0946486890316009,0,0,0
9569,331906.3655436731,2010-11-20 07:57:17,60.01503725607382,8,29,0.0,3.2908265590667725,28.48722236434426,28.521650971832823,113.71062727787766,104.0215727576014,0.0011332035064697,0.0946486890316009,0,0,0
9570,331906.55423936865,2010-11-20 07:57:17,0.185762792508994,9,29,-1.9243103452026844e-05,3.2908265590667725,28.48722236434426,28.521650972825785,113.71062727787766,104.02157276086903,0.0,0.0956302732229232,0,0,0
9571,331911.3823106925,2010-11-20 07:57:22,5.013834196513606,9,29,0.0007031940040178,3.2981114387512207,28.48722317955088,28.52165097299319,113.71062996422316,104.02157276141996,0.0009713172912597,0.0956302732229232,0,0,0
