Data_Point,Test_Time(s),Date_Time,Step_Time(s),Step_Index,Cycle_Index,Current(A),Voltage(V),Charge_Capacity(Ah),Discharge_Capacity(Ah),Charge_Energy(Wh),Discharge_Energy(Wh),dV/dt(V/s),Internal_Resistance(Ohm),Is_FC_Data,AC_Impedance(Ohm),ACI_Phase_Angle(Deg)
8944,311677.2472548192,2010-11-20 02:20:06,30.015330362327504,1,28,0.0,3.3484580516815186,26.64923389093802,26.67816597261196,106.40178802402926,97.31660089515093,0.0007122993702068,0.0907677188515663,0,0,0
8945,311707.26256089093,2010-11-20 02:20:36,60.03063642900933,1,28,0.0,3.371283769607544,26.64923389093802,26.67816597261196,106.40178802402926,97.31660089515093,0.0005180359003134,0.0907677188515663,0,0,0
8946,311737.2778920502,2010-11-20 02:21:06,90.04596759333876,1,28,0.0,3.38876748085022,26.64923389093802,26.67816597261196,106.40178802402926,97.31660089515093,0.0004209041653666,0.0907677188515663,0,0,0
8947,311767.2463651145,2010-11-20 02:21:36,120.01444065764156,1,28,0.0,3.4026896953582764,26.64923389093802,26.67816597261196,106.40178802402926,97.31660089515093,0.0003561496851034,0.0907677188515663,0,0,0
8948,311797.27062376594,2010-11-20 02:22:06,30.015427274234533,2,28,0.5501165986061096,3.565870523452759,26.65382055344563,26.67816597261196,106.41796869975836,97.31660089515093,0.0017159938579425,0.0907677188515663,0,0,0
8949,311827.28581748216,2010-11-20 02:22:36,60.03062098044735,2,28,0.5501165986061096,3.617835760116577,26.65840721497417,26.67816597261196,106.43445066745709,97.31660089515093,0.0011979580158367,0.0907677188515663,0,0,0
8950,311857.3014258485,2010-11-20 02:23:06,90.0462293667655,2,28,0.5501165986061096,3.655879020690918,26.66299393270372,26.67816597261196,106.45113585819227,97.31660089515093,0.0009065627818927,0.0907677188515663,0,0,0
8951,311887.3167319502,2010-11-20 02:23:36,120.0615355888352,2,28,0.5501165986061096,3.6858277320861816,26.667580573493275,26.67816597261196,106.46797549986232,97.31660089515093,0.0007122993702068,0.0907677188515663,0,0,0
8952,311917.3317816219,2010-11-20 02:24:06,150.07658512016533,2,28,0.5499359965324402,3.710434436798096,26.672167137971417,26.67816597261196,106.48493948732668,97.31660089515093,0.0005827903514727,0.0907677188515663,0,0,0
8953,311947.3471599189,2010-11-20 02:24:36,180.09196341213257,2,28,0.550297200679779,3.7313177585601807,26.67675378336421,26.67816597261196,106.50200735347264,97.31660089515093,0.0005180359003134,0.0907677188515663,0,0,0
8954,311977.3624934491,2010-11-20 02:25:06,210.10729698246777,2,28,0.5501165986061096,3.7481539249420166,26.681340402257877,26.67816597261196,106.51916113468155,97.31660089515093,0.0003885269106831,0.0907677188515663,0,0,0
8955,312007.378149359,2010-11-20 02:25:36,240.1229529625874,2,28,0.550297200679779,3.760618925094605,26.685927117861137,26.67816597261196,106.53638317077883,97.31660089515093,0.0002913951757363,0.0907677188515663,0,0,0
8956,312037.393220354,2010-11-20 02:26:06,270.13802385724364,2,28,0.5501165986061096,3.7683894634246826,26.69051372287139,26.67816597261196,106.55365059446784,97.31660089515093,0.0001942634553415,0.0907677188515663,0,0,0
8957,312067.40839075705,2010-11-20 02:26:36,300.15319425527565,2,28,0.5499359965324402,3.773246049880981,26.69510037898804,26.67816597261196,106.57094676596212,97.31660089515093,9.713172767078504e-05,0.0907677188515663,0,0,0
8958,312097.4237320466,2010-11-20 02:27:06,330.1685355498918,2,28,0.5501165986061096,3.77745509147644,26.69968700441633,26.67816597261196,106.58826364347954,97.31660089515093,3.237724376958795e-05,0.0907677188515663,0,0,0
8959,312127.43904506566,2010-11-20 02:27:36,360.1838485639153,2,28,0.5501165986061096,3.78134036064148,26.70427366491677,26.67816597261196,106.6055988229417,97.31660089515093,9.713172767078504e-05,0.0907677188515663,0,0,0
8960,312157.4544174829,2010-11-20 02:28:06,390.1992210062811,2,28,0.5501165986061096,3.7850637435913086,26.708860268639103,26.67816597261196,106.62295094424358,97.31660089515093,9.713172767078504e-05,0.0907677188515663,0,0,0
8961,312187.4697190083,2010-11-20 02:28:36,420.214522511577,2,28,0.550297200679779,3.788625240325928,26.713446885543032,26.67816597261196,106.6403195172904,97.31660089515093,9.713172767078504e-05,0.0907677188515663,0,0,0
8962,312217.48795841204,2010-11-20 02:29:06,450.23276200053215,2,28,0.5501165986061096,3.792024850845337,26.71803396208074,26.67816597261196,106.65770562294443,97.31660089515093,0.0001295089750783,0.0907677188515663,0,0,0
8963,312247.5002577685,2010-11-20 02:29:36,480.2450613219151,2,28,0.5499359965324402,3.795100688934326,26.722620098491607,26.67816597261196,106.67510342911272,97.31660089515093,9.713172767078504e-05,0.0907677188515663,0,0,0
8964,312277.5156709476,2010-11-20 02:30:06,510.26047444582827,2,28,0.5501165986061096,3.798500299453736,26.727206679453875,26.67816597261196,106.69251783605384,97.31660089515093,9.713172767078504e-05,0.0907677188515663,0,0,0
8965,312307.5309583076,2010-11-20 02:30:36,540.2757618108278,2,28,0.5501165986061096,3.8015761375427246,26.73179384331136,26.67816597261196,106.709949172398,97.31660089515093,6.47544875391759e-05,0.0907677188515663,0,0,0
8966,312337.5462871511,2010-11-20 02:31:06,570.2910906543642,2,28,0.5501165986061096,3.804813861846924,26.736381355666246,26.67816597261196,106.72739610782416,97.31660089515093,9.713172767078504e-05,0.0907677188515663,0,0,0
8967,312367.56169123243,2010-11-20 02:31:36,600.3064947357057,2,28,0.550297200679779,3.807727813720703,26.740968732147387,26.67816597261196,106.74485670400897,97.31660089515093,6.47544875391759e-05,0.0907677188515663,0,0,0
8968,312397.57693354,2010-11-20 02:32:06,630.3217370432349,2,28,0.550297200679779,3.810803651809693,26.74555631649282,26.67816597261196,106.7623321050585,97.31660089515093,6.47544875391759e-05,0.0907677188515663,0,0,0
8969,312427.5922601028,2010-11-20 02:32:36,660.3370636060782,2,28,0.5501165986061096,3.814041376113892,26.750143821360847,26.67816597261196,106.77982131115974,97.31660089515093,0.0001295089750783,0.0907677188515663,0,0,0
8970,312457.6075852421,2010-11-20 02:33:06,690.3523887503807,2,28,0.550297200679779,3.816955327987671,26.754731248740075,26.67816597261196,106.79732460446326,97.31660089515093,6.47544875391759e-05,0.0907677188515663,0,0,0
8971,312487.6229084215,2010-11-20 02:33:36,720.3677119247661,2,28,0.5501165986061096,3.82003116607666,26.7593183645893,26.67816597261196,106.81484099742794,97.31660089515093,3.237724376958795e-05,0.0907677188515663,0,0,0
8972,312517.63847403607,2010-11-20 02:34:06,750.3832775393194,2,28,0.5501165986061096,3.823430776596069,26.76390512298657,26.67816597261196,106.83237078956732,97.31660089515093,9.713172767078504e-05,0.0907677188515663,0,0,0
8973,312547.6535879581,2010-11-20 02:34:36,780.3983914563661,2,28,0.5501165986061096,3.8268303871154794,26.768491817280346,26.67816597261196,106.84991542405513,97.31660089515093,9.713172767078504e-05,0.0907677188515663,0,0,0
8974,312577.6689615583,2010-11-20 02:35:06,810.4137650616348,2,28,0.5501165986061096,3.8300681114196777,26.773078592595287,26.67816597261196,106.86747585865494,97.31660089515093,3.237724376958795e-05,0.0907677188515663,0,0,0
8975,312607.6842938706,2010-11-20 02:35:36,840.4290973738293,2,28,0.5501165986061096,3.8336293697357178,26.77766532812649,26.67816597261196,106.88505188679122,97.31660089515093,9.70840483205393e-05,0.0907677188515663,0,0,0
8976,312637.69949212816,2010-11-20 02:36:06,870.4442956314028,2,28,0.5499359965324402,3.837028980255127,26.78225197049491,26.67816597261196,106.9026434626608,97.31660089515093,6.47544875391759e-05,0.0907677188515663,0,0,0
8977,312667.714814295,2010-11-20 02:36:36,900.4596177982735,2,28,0.5501165986061096,3.840590476989746,26.786838654562143,26.67816597261196,106.92025111174422,97.31660089515093,9.713172767078504e-05,0.0907677188515663,0,0,0
8978,312697.73017816094,2010-11-20 02:37:06,930.474981664231,2,28,0.550297200679779,3.8439900875091553,26.79142545175825,26.67816597261196,106.93787507071774,97.31660089515093,9.713172767078504e-05,0.0907677188515663,0,0,0
8979,312727.7454708593,2010-11-20 02:37:36,960.4902743575308,2,28,0.5501165986061096,3.847389698028565,26.796012265612617,26.67816597261196,106.95551478198315,97.31660089515093,9.713172767078504e-05,0.0907677188515663,0,0,0
8980,312757.76092241413,2010-11-20 02:38:06,990.5057259123736,2,28,0.5501165986061096,3.8507893085479736,26.800599114554903,26.67816597261196,106.97317005706812,97.31660089515093,9.713172767078504e-05,0.0907677188515663,0,0,0
8981,312787.7761518696,2010-11-20 02:38:36,1020.5209553728344,2,28,0.5501165986061096,3.854027032852173,26.80518599003844,26.67816597261196,106.99084062207142,97.31660089515093,9.713172767078504e-05,0.0907677188515663,0,0,0
8982,312817.79332717217,2010-11-20 02:39:06,1050.5381306754166,2,28,0.5501165986061096,3.857264757156372,26.80977303198827,26.67816597261196,107.00852678718432,97.31660089515093,6.47544875391759e-05,0.0907677188515663,0,0,0
8983,312847.80676077487,2010-11-20 02:39:37,1080.5515642781404,2,28,0.5499359965324402,3.860340595245361,26.814359579556715,26.67816597261196,107.0262256329178,97.31660089515093,6.47544875391759e-05,0.0907677188515663,0,0,0
8984,312877.822071433,2010-11-20 02:40:07,1110.5668749362833,2,28,0.550297200679779,3.863416433334351,26.81894638557073,26.67816597261196,107.0439395904846,97.31660089515093,6.47544875391759e-05,0.0907677188515663,0,0,0
8985,312907.8373972841,2010-11-20 02:40:37,1140.5822007773247,2,28,0.5501165986061096,3.86616849899292,26.823533151991104,26.67816597261196,107.06166690555234,97.31660089515093,6.47544875391759e-05,0.0907677188515663,0,0,0
8986,312937.8527317116,2010-11-20 02:41:07,1170.5975352148246,2,28,0.550297200679779,3.869244337081909,26.82811993818427,26.67816597261196,107.0794074276804,97.31660089515093,9.713172767078504e-05,0.0907677188515663,0,0,0
8987,312967.8680584198,2010-11-20 02:41:37,1200.612861923031,2,28,0.550297200679779,3.871834516525269,26.832706776200187,26.67816597261196,107.09716067244908,97.31660089515093,9.713172767078504e-05,0.0907677188515663,0,0,0
8988,312997.8834170376,2010-11-20 02:42:07,1230.6282205308637,2,28,0.5497553944587708,3.874100923538208,26.837293596549475,26.67816597261196,107.11492577745524,97.31660089515093,0.0,0.0907677188515663,0,0,0
8989,313027.8986963876,2010-11-20 02:42:37,1260.6434998908817,2,28,0.5501165986061096,3.876691102981568,26.84188042820403,26.67816597261196,107.1327021616778,97.31660089515093,6.47544875391759e-05,0.0907677188515663,0,0,0
8990,313057.9140216071,2010-11-20 02:43:07,1290.6588251103717,2,28,0.5501165986061096,3.878957509994507,26.84646726739249,26.67816597261196,107.15048917885072,97.31660089515093,6.47544875391759e-05,0.0907677188515663,0,0,0
8991,313087.9294605104,2010-11-20 02:43:37,1320.674264033684,2,28,0.550297200679779,3.8812239170074463,26.851054096443725,26.67816597261196,107.16828606983148,97.31660089515093,9.713172767078504e-05,0.0907677188515663,0,0,0
8992,313117.9447904918,2010-11-20 02:44:07,1350.6895939849855,2,28,0.550297200679779,3.883004665374756,26.855640905173672,26.67816597261196,107.18609215658664,97.31660089515093,6.47544875391759e-05,0.0907677188515663,0,0,0
8993,313147.9600099723,2010-11-20 02:44:37,1380.7048134605225,2,28,0.5501165986061096,3.884623527526856,26.86022777319863,26.67816597261196,107.20390713595836,97.31660089515093,0.0,0.0907677188515663,0,0,0
8994,313177.9755439078,2010-11-20 02:45:07,1410.7203474310877,2,28,0.5501165986061096,3.886566162109375,26.86481458419729,26.67816597261196,107.22172994327684,97.31660089515093,3.237724376958795e-05,0.0907677188515663,0,0,0
8995,313207.9906935791,2010-11-20 02:45:37,1440.7354970823324,2,28,0.5499359965324402,3.8881850242614746,26.8694013645056,26.67816597261196,107.239560273175,97.31660089515093,6.47544875391759e-05,0.0907677188515663,0,0,0
8996,313238.0059481171,2010-11-20 02:46:07,1470.7507516203907,2,28,0.5501165986061096,3.889642000198364,26.873988218408567,26.67816597261196,107.25739819367855,97.31660089515093,3.237724376958795e-05,0.0907677188515663,0,0,0
8997,313268.0212886449,2010-11-20 02:46:37,1500.766092153105,2,28,0.5501165986061096,3.891098976135254,26.87857508707125,26.67816597261196,107.27524302917934,97.31660089515093,3.237724376958795e-05,0.0907677188515663,0,0,0
8998,313298.03661396453,2010-11-20 02:47:07,1530.7814174778582,2,28,0.550297200679779,3.892555952072144,26.88316197548817,26.67816597261196,107.2930946786478,97.31660089515093,3.237724376958795e-05,0.0907677188515663,0,0,0
8999,313328.0519202618,2010-11-20 02:47:37,1560.796723760078,2,28,0.5501165986061096,3.894012928009033,26.887748869502897,26.67816597261196,107.31095283003452,97.31660089515093,3.237724376958795e-05,0.0907677188515663,0,0,0
9000,313358.0673340825,2010-11-20 02:48:07,1590.8121375807302,2,28,0.5501165986061096,3.894984245300293,26.892335817838333,26.67816597261196,107.32881727586276,97.31660089515093,0.0,0.0907677188515663,0,0,0
9001,313388.0825693324,2010-11-20 02:48:37,1620.827372815605,2,28,0.5501165986061096,3.8966031074523926,26.89692267158977,26.67816597261196,107.34668738682728,97.31660089515093,6.47544875391759e-05,0.0907677188515663,0,0,0
9002,313418.1000043733,2010-11-20 02:49:07,1650.844807991872,2,28,0.5499359965324402,3.8977363109588623,26.901509758492537,26.67816597261196,107.36456455580978,97.31660089515093,0.0,0.0907677188515663,0,0,0
9003,313448.11322028766,2010-11-20 02:49:37,1680.8580237909243,2,28,0.5501165986061096,3.899355173110962,26.90609628991187,26.67816597261196,107.38244573159984,97.31660089515093,6.47544875391759e-05,0.0907677188515663,0,0,0
9004,313478.1285480284,2010-11-20 02:50:07,1710.8733515317078,2,28,0.550297200679779,3.900812149047852,26.910683150216705,26.67816597261196,107.40033426980716,97.31660089515093,9.713172767078504e-05,0.0907677188515663,0,0,0
9005,313508.1438900399,2010-11-20 02:50:37,1740.8886935431133,2,28,0.5501165986061096,3.901945352554321,26.915269972713364,26.67816597261196,107.41822882026834,97.31660089515093,0.0,0.0907677188515663,0,0,0
9006,313538.15921193105,2010-11-20 02:51:07,1770.904015419258,2,28,0.5501165986061096,3.903402328491211,26.91985680853088,26.67816597261196,107.43612954977092,97.31660089515093,3.237724376958795e-05,0.0907677188515663,0,0,0
9007,313568.1745138373,2010-11-20 02:51:37,1800.9193173405924,2,28,0.5501165986061096,3.90469741821289,26.924443618337776,26.67816597261196,107.45403632689924,97.31660089515093,6.47544875391759e-05,0.0907677188515663,0,0,0
9008,313598.1898348613,2010-11-20 02:52:07,1830.9346383595976,2,28,0.550297200679779,3.9059925079345694,26.92903050096682,26.67816597261196,107.47194945200094,97.31660089515093,3.237724376958795e-05,0.0907677188515663,0,0,0
9009,313628.2052288224,2010-11-20 02:52:37,1860.95003232569,2,28,0.5499359965324402,3.90728759765625,26.93361733759783,26.67816597261196,107.4898685685696,97.31660089515093,3.237724376958795e-05,0.0907677188515663,0,0,0
9010,313658.22049863363,2010-11-20 02:53:07,1890.96530215191,2,28,0.5501165986061096,3.9085826873779297,26.938204191376308,26.67816597261196,107.50779392926086,97.31660089515093,3.237724376958795e-05,0.0907677188515663,0,0,0
9011,313688.2358183794,2010-11-20 02:53:37,1920.980621887712,2,28,0.5499359965324402,3.90987777709961,26.9427910539232,26.67816597261196,107.52572554142968,97.31660089515093,3.237724376958795e-05,0.0907677188515663,0,0,0
9012,313718.2512604356,2010-11-20 02:54:07,1950.996063938832,2,28,0.5501165986061096,3.911334753036499,26.947378001311296,26.67816597261196,107.5436637087506,97.31660089515093,3.237724376958795e-05,0.0907677188515663,0,0,0
9013,313748.266458638,2010-11-20 02:54:37,1981.011262136256,2,28,0.5501165986061096,3.9127917289733887,26.95196483529902,26.67816597261196,107.56160777805692,97.31660089515093,6.47544875391759e-05,0.0907677188515663,0,0,0
9014,313778.28180844884,2010-11-20 02:55:07,2011.026611952142,2,28,0.5501165986061096,3.914086580276489,26.95655166864904,26.67816597261196,107.57955812513684,97.31660089515093,0.0,0.0907677188515663,0,0,0
9015,313808.29722299136,2010-11-20 02:55:37,2041.0420264996085,2,28,0.5499359965324402,3.915543556213379,26.96113854893848,26.67816597261196,107.59751508269954,97.31660089515093,3.237724376958795e-05,0.0907677188515663,0,0,0
9016,313838.31256706786,2010-11-20 02:56:07,2071.057370656369,2,28,0.5501165986061096,3.917000532150269,26.96572539060002,26.67816597261196,107.61547814544964,97.31660089515093,3.237724376958795e-05,0.0907677188515663,0,0,0
9017,313868.3277472503,2010-11-20 02:56:37,2101.072550753612,2,28,0.550297200679779,3.918457508087158,26.97031214318958,26.67816597261196,107.6334473965126,97.31660089515093,6.47544875391759e-05,0.0907677188515663,0,0,0
9018,313898.3431699331,2010-11-20 02:57:07,2131.0879735466606,2,28,0.550297200679779,3.919752597808838,26.97489901961676,26.67816597261196,107.65142366577838,97.31660089515093,3.237724376958795e-05,0.0907677188515663,0,0,0
9019,313928.3586211772,2010-11-20 02:57:37,2161.1034246804525,2,28,0.550297200679779,3.9213714599609375,26.97948593432588,26.67816597261196,107.66940662100316,97.31660089515093,6.47544875391759e-05,0.0907677188515663,0,0,0
9020,313958.37385905365,2010-11-20 02:58:07,2191.118662556921,2,28,0.550297200679779,3.922666549682617,26.984072848276405,26.67816597261196,107.68739623410056,97.31660089515093,3.237724376958795e-05,0.0907677188515663,0,0,0
9021,313988.3891700928,2010-11-20 02:58:37,2221.1339735910024,2,28,0.5501165986061096,3.923961639404297,26.988659769125928,26.67816597261196,107.70539247029105,97.31660089515093,3.237724376958795e-05,0.0907677188515663,0,0,0
9022,314018.40619689965,2010-11-20 02:59:07,2251.151000407941,2,28,0.5501165986061096,3.925580501556397,26.99324690883271,26.67816597261196,107.7233962354982,97.31660089515093,3.237724376958795e-05,0.0907677188515663,0,0,0
9023,314048.4197523666,2010-11-20 02:59:37,2281.164555869844,2,28,0.550297200679779,3.926875591278076,26.99783352310244,26.67816597261196,107.74140451801254,97.31660089515093,0.0,0.0907677188515663,0,0,0
9024,314078.43501334573,2010-11-20 03:00:07,2311.179816848981,2,28,0.550297200679779,3.928494453430176,27.00242039204705,26.67816597261196,107.75942057925955,97.31660089515093,6.47544875391759e-05,0.0907677188515663,0,0,0
9025,314108.45035018923,2010-11-20 03:00:37,2341.1951536974984,2,28,0.5501165986061096,3.9299514293670654,27.007006741810063,26.67816597261196,107.77744125969755,97.31660089515093,6.47544875391759e-05,0.0907677188515663,0,0,0
9026,314138.4659472423,2010-11-20 03:01:07,2371.210750745515,2,28,0.5499359965324402,3.931408405303955,27.01159289660701,26.67816597261196,107.79546800374868,97.31660089515093,3.237724376958795e-05,0.0907677188515663,0,0,0
9027,314168.46829356946,2010-11-20 03:01:37,2401.213097187981,2,28,0.5499359965324402,3.9328653812408447,27.016177388856885,26.67816597261196,107.81349514661738,97.31660089515093,0.0,0.0907677188515663,0,0,0
9028,314198.4808211456,2010-11-20 03:02:07,2431.225624744073,2,28,0.5501165986061096,3.934484243392944,27.020763824713917,26.67816597261196,107.83153700568364,97.31660089515093,6.47544875391759e-05,0.0907677188515663,0,0,0
9029,314228.4960365158,2010-11-20 03:02:37,2461.2408400191243,2,28,0.550297200679779,3.936103105545044,27.02535070258637,26.67816597261196,107.84958766804172,97.31660089515093,3.237724376958795e-05,0.0907677188515663,0,0,0
9030,314258.51136483805,2010-11-20 03:03:07,2491.2561683463723,2,28,0.5499359965324402,3.937398195266724,27.029937556004835,26.67816597261196,107.86764509376928,97.31660089515093,0.0,0.0907677188515663,0,0,0
9031,314288.52669688966,2010-11-20 03:03:37,2521.271500392904,2,28,0.5501165986061096,3.9390170574188232,27.03452444220333,26.67816597261196,107.88570984208448,97.31660089515093,3.237724376958795e-05,0.0907677188515663,0,0,0
9032,314318.52675094496,2010-11-20 03:04:07,2551.2715545534816,2,28,0.5501165986061096,3.940635919570923,27.039109016210784,26.67816597261196,107.90377257077452,97.31660089515093,3.237724376958795e-05,0.0907677188515663,0,0,0
9033,314348.54176747386,2010-11-20 03:04:37,2581.28657097717,2,28,0.5499359965324402,3.942092895507813,27.04369586601118,26.67816597261196,107.92185141504643,97.31660089515093,0.0,0.0907677188515663,0,0,0
9034,314378.5570321222,2010-11-20 03:05:07,2611.301835625465,2,28,0.5501165986061096,3.943711757659912,27.048282707228097,26.67816597261196,107.93993740416695,97.31660089515093,3.237724376958795e-05,0.0907677188515663,0,0,0
9035,314408.5723553467,2010-11-20 03:05:37,2641.3171588499754,2,28,0.5499359965324402,3.945330619812012,27.05286963205203,26.67816597261196,107.95803096769728,97.31660089515093,0.0,0.0907677188515663,0,0,0
9036,314438.5876982353,2010-11-20 03:06:07,2671.3325017385705,2,28,0.5501165986061096,3.9469494819641113,27.05745648262358,26.67816597261196,107.97613145924956,97.31660089515093,3.237724376958795e-05,0.0907677188515663,0,0,0
9037,314468.6030222368,2010-11-20 03:06:37,2701.34782574002,2,28,0.5501165986061096,3.948730230331421,27.06204333090676,26.67816597261196,107.9942392405752,97.31660089515093,6.47544875391759e-05,0.0907677188515663,0,0,0
9038,314498.61846357107,2010-11-20 03:07:07,2731.363267074352,2,28,0.5501165986061096,3.950187206268311,27.06663017702288,26.67816597261196,108.01235440941164,97.31660089515093,3.237724376958795e-05,0.0907677188515663,0,0,0
9039,314528.63378040964,2010-11-20 03:07:37,2761.3785839229454,2,28,0.550297200679779,3.95180606842041,27.071217018872662,26.67816597261196,108.03047706202,97.31660089515093,3.237724376958795e-05,0.0907677188515663,0,0,0
9040,314558.6490205167,2010-11-20 03:08:07,2791.3938240199573,2,28,0.550297200679779,3.95358681678772,27.075803886038468,26.67816597261196,108.04860726968651,97.31660089515093,6.47544875391759e-05,0.0907677188515663,0,0,0
9041,314588.6643039418,2010-11-20 03:08:37,2821.4091074451226,2,28,0.5501165986061096,3.9552056789398193,27.08039075148914,26.67816597261196,108.06674509638148,97.31660089515093,6.47544875391759e-05,0.0907677188515663,0,0,0
9042,314618.6796313769,2010-11-20 03:09:07,2851.424434880143,2,28,0.5501165986061096,3.956824541091919,27.084977692517217,26.67816597261196,108.08489089498865,97.31660089515093,3.237724376958795e-05,0.0907677188515663,0,0,0
9043,314648.6949624811,2010-11-20 03:09:37,2881.4397659843225,2,28,0.5501165986061096,3.9584434032440186,27.089564606633417,26.67816597261196,108.10304412418768,97.31660089515093,3.237724376958795e-05,0.0907677188515663,0,0,0
9044,314678.71219288616,2010-11-20 03:10:07,2911.4569963944614,2,28,0.550297200679779,3.960224151611328,27.094151820822432,26.67816597261196,108.12120631578117,97.31660089515093,6.47544875391759e-05,0.0907677188515663,0,0,0
9045,314708.72562154155,2010-11-20 03:10:37,2941.4704250448235,2,28,0.5499359965324402,3.961843013763428,27.098738449124777,26.67816597261196,108.13937398329423,97.31660089515093,3.237724376958795e-05,0.0907677188515663,0,0,0
9046,314738.7410622543,2010-11-20 03:11:07,2971.4858657676277,2,28,0.5501165986061096,3.9637856483459473,27.10332537619152,26.67816597261196,108.1575506298275,97.31660089515093,9.713172767078504e-05,0.0907677188515663,0,0,0
9047,314768.75631295284,2010-11-20 03:11:37,3001.501116456077,2,28,0.5501165986061096,3.965242624282837,27.10791221504433,26.67816597261196,108.17573483265274,97.31660089515093,0.0,0.0907677188515663,0,0,0
9048,314798.77173589624,2010-11-20 03:12:07,3031.5165393995007,2,28,0.5501165986061096,3.967185258865357,27.112499159279157,26.67816597261196,108.19392746138938,97.31660089515093,3.237724376958795e-05,0.0907677188515663,0,0,0
9049,314828.78690653987,2010-11-20 03:12:38,3061.5317100331213,2,28,0.550297200679779,3.968804121017456,27.117086042139636,26.67816597261196,108.21212782706124,97.31660089515093,3.237724376958795e-05,0.0907677188515663,0,0,0
9050,314858.8023366261,2010-11-20 03:13:08,3091.5471401294,2,28,0.5501165986061096,3.9705848693847656,27.121672986370537,26.67816597261196,108.23033668735242,97.31660089515093,3.237724376958795e-05,0.0907677188515663,0,0,0
9051,314888.8175424526,2010-11-20 03:13:38,3121.562345960879,2,28,0.5501165986061096,3.972527503967285,27.12625984927303,26.67816597261196,108.24855351738329,97.31660089515093,6.47544875391759e-05,0.0907677188515663,0,0,0
9052,314918.83292367694,2010-11-20 03:14:08,3151.577727180153,2,28,0.5501165986061096,3.9743082523345943,27.13084676342688,26.67816597261196,108.26677882461902,97.31660089515093,3.237724376958795e-05,0.0907677188515663,0,0,0
9053,314948.8482434929,2010-11-20 03:14:38,3181.593046996156,2,28,0.5501165986061096,3.976089000701904,27.13543370238726,26.67816597261196,108.28501267855786,97.31660089515093,3.237724376958795e-05,0.0907677188515663,0,0,0
9054,314978.8636134792,2010-11-20 03:15:08,3211.608417007453,2,28,0.5501165986061096,3.977707862854004,27.140020667751333,26.67816597261196,108.30325515817624,97.31660089515093,0.0,0.0907677188515663,0,0,0
9055,315008.8789077363,2010-11-20 03:15:38,3241.6237112395934,2,28,0.550297200679779,3.979812383651733,27.14460751774476,26.67816597261196,108.3215055842188,97.31660089515093,0.0,0.0907677188515663,0,0,0
9056,315038.89424970263,2010-11-20 03:16:08,3271.6390532058867,2,28,0.5499359965324402,3.981755018234253,27.14919427332017,26.67816597261196,108.3397647235838,97.31660089515093,3.237724376958795e-05,0.0907677188515663,0,0,0
9057,315068.9095302606,2010-11-20 03:16:38,3301.654333763895,2,28,0.5501165986061096,3.9838595390319824,27.15378111363192,26.67816597261196,108.35803317099636,97.31660089515093,6.47544875391759e-05,0.0907677188515663,0,0,0
9058,315098.92486147006,2010-11-20 03:17:08,3331.669664973337,2,28,0.5501165986061096,3.985640287399292,27.158367920435552,26.67816597261196,108.37631043643437,97.31660089515093,3.237724376958795e-05,0.0907677188515663,0,0,0
9059,315128.9401835768,2010-11-20 03:17:38,3361.68498708507,2,28,0.5501165986061096,3.9877448081970215,27.16295471704333,26.67816597261196,108.39459678011907,97.31660089515093,3.237724376958795e-05,0.0907677188515663,0,0,0
9060,315158.9557364545,2010-11-20 03:18:08,3391.700539957817,2,28,0.5499359965324402,3.989525556564331,27.167541493448372,26.67816597261196,108.41289210704048,97.31660089515093,0.0,0.0907677188515663,0,0,0
9061,315188.970883795,2010-11-20 03:18:38,3421.71568730832,2,28,0.5501165986061096,3.9917919635772714,27.17212825628692,26.67816597261196,108.43119675770264,97.31660089515093,3.237724376958795e-05,0.0907677188515663,0,0,0
9062,315218.9861592252,2010-11-20 03:19:08,3451.730962728503,2,28,0.550297200679779,3.993896484375,27.176714951703037,26.67816597261196,108.44951044446024,97.31660089515093,9.713172767078504e-05,0.0907677188515663,0,0,0
9063,315249.0016186397,2010-11-20 03:19:38,3481.7464221429645,2,28,0.5499359965324402,3.9960007667541504,27.181301727518782,26.67816597261196,108.4678339096029,97.31660089515093,6.47544875391759e-05,0.0907677188515663,0,0,0
9064,315279.016883288,2010-11-20 03:20:08,3511.76168679126,2,28,0.5501165986061096,3.99794340133667,27.18588853107053,26.67816597261196,108.48616711950012,97.31660089515093,3.237724376958795e-05,0.0907677188515663,0,0,0
9065,315309.018447543,2010-11-20 03:20:38,3541.7632510562908,2,28,0.5499359965324402,4.0000481605529785,27.190473193767147,26.67816597261196,108.5045013511311,97.31660089515093,3.24249267578125e-05,0.0907677188515663,0,0,0
9066,315339.0319434613,2010-11-20 03:21:08,3571.7767469645387,2,28,0.5501165986061096,4.002152442932129,27.195059701709106,26.67816597261196,108.52285281675351,97.31660089515093,3.23295607813634e-05,0.0907677188515663,0,0,0
9067,315369.0472400693,2010-11-20 03:21:38,3601.7920435926603,2,28,0.5501165986061096,4.004418849945068,27.199646424168986,26.67816597261196,108.54121505364898,97.31660089515093,3.23295607813634e-05,0.0907677188515663,0,0,0
9068,315399.0624898856,2010-11-20 03:22:08,3631.807293388882,2,28,0.5499359965324402,4.006523609161377,27.20423314516326,26.67816597261196,108.5595872717886,97.31660089515093,6.47544875391759e-05,0.0907677188515663,0,0,0
9069,315429.0778244184,2010-11-20 03:22:38,3661.822627926632,2,28,0.550297200679779,4.008790016174316,27.208819913713988,26.67816597261196,108.57796978062308,97.31660089515093,6.47544875391759e-05,0.0907677188515663,0,0,0
9070,315459.0931394324,2010-11-20 03:23:08,3691.837942935635,2,28,0.5501165986061096,4.011056423187256,27.213406648599555,26.67816597261196,108.59636224281694,97.31660089515093,3.24249267578125e-05,0.0907677188515663,0,0,0
9071,315489.10854989965,2010-11-20 03:23:38,3721.8533534079297,2,28,0.550297200679779,4.013484477996826,27.217993443788245,26.67816597261196,108.61476536553369,97.31660089515093,9.70840483205393e-05,0.0907677188515663,0,0,0
9072,315519.1237703476,2010-11-20 03:24:08,3751.8685738508816,2,28,0.5501165986061096,4.015589237213135,27.22258021925253,26.67816597261196,108.6331788368235,97.31660089515093,3.24249267578125e-05,0.0907677188515663,0,0,0
9073,315549.1391293966,2010-11-20 03:24:38,3781.883932904828,2,28,0.5501165986061096,4.018017292022705,27.227166996778887,26.67816597261196,108.65160286761328,97.31660089515093,6.47544875391759e-05,0.0907677188515663,0,0,0
9074,315579.15441545326,2010-11-20 03:25:08,3811.899218956549,2,28,0.5501165986061096,4.020122051239014,27.231753823767587,26.67816597261196,108.67003759103352,97.31660089515093,3.24249267578125e-05,0.0907677188515663,0,0,0
9075,315609.1697376602,2010-11-20 03:25:38,3841.914541163519,2,28,0.550297200679779,4.022712230682373,27.236340530558383,26.67816597261196,108.68848249563882,97.31660089515093,9.71794142969884e-05,0.0907677188515663,0,0,0
9076,315639.1850685539,2010-11-20 03:26:08,3871.9298720571737,2,28,0.5499359965324402,4.024816513061523,27.240927229641585,26.67816597261196,108.70693814717036,97.31660089515093,0.0,0.0907677188515663,0,0,0
9077,315669.2004175327,2010-11-20 03:26:38,3901.9452210359705,2,28,0.5501165986061096,4.027245044708252,27.245513973310985,26.67816597261196,108.72540487808388,97.31660089515093,6.47544875391759e-05,0.0907677188515663,0,0,0
9078,315699.215720251,2010-11-20 03:27:08,3931.960523754295,2,28,0.5501165986061096,4.029673099517822,27.250100749037426,26.67816597261196,108.74388278103436,97.31660089515093,6.47544875391759e-05,0.0907677188515663,0,0,0
9079,315729.23117688857,2010-11-20 03:27:38,3961.975980391824,2,28,0.5501165986061096,4.032101631164551,27.254687518801266,26.67816597261196,108.76237176170676,97.31660089515093,3.24249267578125e-05,0.0907677188515663,0,0,0
9080,315759.2464232863,2010-11-20 03:28:08,3991.9912267895634,2,28,0.5501165986061096,4.034529685974121,27.259274291379885,26.67816597261196,108.78087198290773,97.31660089515093,6.47544875391759e-05,0.0907677188515663,0,0,0
9081,315789.2617412577,2010-11-20 03:28:38,4022.006544770986,2,28,0.5499359965324402,4.036957740783691,27.263861102265466,26.67816597261196,108.7993835386228,97.31660089515093,3.23295607813634e-05,0.0907677188515663,0,0,0
9082,315819.2770379309,2010-11-20 03:29:08,4052.0218414341953,2,28,0.550297200679779,4.039547920227051,27.2684479775522,26.67816597261196,108.8179066460479,97.31660089515093,9.70840483205393e-05,0.0907677188515663,0,0,0
9083,315849.29237768165,2010-11-20 03:29:38,4082.0371811849577,2,28,0.5501165986061096,4.041976451873779,27.273034764516755,26.67816597261196,108.83644067524034,97.31660089515093,6.47544875391759e-05,0.0907677188515663,0,0,0
9084,315879.3076817334,2010-11-20 03:30:08,4112.05248523661,2,28,0.5501165986061096,4.044566631317139,27.277621571952075,26.67816597261196,108.85498637557784,97.31660089515093,6.47544875391759e-05,0.0907677188515663,0,0,0
9085,315909.3249059229,2010-11-20 03:30:38,4142.0697094312345,2,28,0.5501165986061096,4.046994686126709,27.282208658540203,26.67816597261196,108.8735447964496,97.31660089515093,3.23295607813634e-05,0.0907677188515663,0,0,0
9086,315939.33856027166,2010-11-20 03:31:08,4172.083363784986,2,28,0.5501165986061096,4.049584865570068,27.28679528348509,26.67816597261196,108.89211312960292,97.31660089515093,0.0,0.0907677188515663,0,0,0
9087,315969.35372389783,2010-11-20 03:31:38,4202.098527411114,2,28,0.5499359965324402,4.052175045013428,27.291382051205343,26.67816597261196,108.9106938523922,97.31660089515093,0.0,0.0907677188515663,0,0,0
9088,315999.36898355867,2010-11-20 03:32:08,4232.11378707196,2,28,0.5501165986061096,4.054765224456787,27.29596889191843,26.67816597261196,108.92928701630856,97.31660089515093,3.23295607813634e-05,0.0907677188515663,0,0,0
9089,316029.3843208784,2010-11-20 03:32:38,4262.1291243816295,2,28,0.5501165986061096,4.057517528533936,27.300555676599025,26.67816597261196,108.94789209735636,97.31660089515093,6.47544875391759e-05,0.0907677188515663,0,0,0
9090,316059.399639371,2010-11-20 03:33:08,4292.144442874328,2,28,0.5501165986061096,4.060269355773926,27.30514248243113,26.67816597261196,108.96650959404846,97.31660089515093,0.0001295089750783,0.0907677188515663,0,0,0
9091,316089.41495843016,2010-11-20 03:33:38,4322.159761943467,2,28,0.550297200679779,4.063021659851074,27.309729321390087,26.67816597261196,108.98513920297272,97.31660089515093,0.0001295089750783,0.0907677188515663,0,0,0
9092,316119.4302939404,2010-11-20 03:34:08,4352.175097443619,2,28,0.550297200679779,4.065611839294434,27.314316090555582,26.67816597261196,109.0037810189636,97.31660089515093,9.71794142969884e-05,0.0907677188515663,0,0,0
9093,316149.4485037552,2010-11-20 03:34:38,4382.19330735374,2,28,0.5501165986061096,4.068363666534424,27.31890330143304,26.67816597261196,109.02243712297836,97.31660089515093,6.47544875391759e-05,0.0907677188515663,0,0,0
9094,316179.4614584976,2010-11-20 03:35:08,4412.206262020968,2,28,0.5501165986061096,4.071115970611572,27.323489700898325,26.67816597261196,109.0411026016772,97.31660089515093,3.24249267578125e-05,0.0907677188515663,0,0,0
9095,316209.4762801151,2010-11-20 03:35:38,4442.221083628365,2,28,0.5501165986061096,4.0738677978515625,27.328076432633395,26.67816597261196,109.05978219657894,97.31660089515093,6.47544875391759e-05,0.0907677188515663,0,0,0
9096,316239.49160016165,2010-11-20 03:36:08,4472.236403674942,2,28,0.550297200679779,4.076781749725342,27.332663277722776,26.67816597261196,109.07847528302248,97.31660089515093,6.47544875391759e-05,0.0907677188515663,0,0,0
9097,316269.5069375816,2010-11-20 03:36:38,4502.251741089874,2,28,0.550297200679779,4.079695701599121,27.33725011481637,26.67816597261196,109.09718139754588,97.31660089515093,6.47544875391759e-05,0.0907677188515663,0,0,0
9098,316299.52224780864,2010-11-20 03:37:08,4532.267051321954,2,28,0.5501165986061096,4.0826096534729,27.341836948370403,26.67816597261196,109.11590060849475,97.31660089515093,9.70840483205393e-05,0.0907677188515663,0,0,0
9099,316329.5377340701,2010-11-20 03:37:38,4562.282537578417,2,28,0.5501165986061096,4.085361957550049,27.346423800294723,26.67816597261196,109.1346331394919,97.31660089515093,6.47544875391759e-05,0.0907677188515663,0,0,0
9100,316359.5529039669,2010-11-20 03:38:08,4592.297707470185,2,28,0.5501165986061096,4.088437557220459,27.35101059581869,26.67816597261196,109.1533788545194,97.31660089515093,9.70840483205393e-05,0.0907677188515663,0,0,0
9101,316389.5682939531,2010-11-20 03:38:38,4622.313097456343,2,28,0.5499359965324402,4.091351509094238,27.35559740689285,26.67816597261196,109.17213825542936,97.31660089515093,9.70840483205393e-05,0.0907677188515663,0,0,0
9102,316419.5835517042,2010-11-20 03:39:08,4652.328355212434,2,28,0.5501165986061096,4.094265460968018,27.36018422709533,26.67816597261196,109.19091135018016,97.31660089515093,6.47544875391759e-05,0.0907677188515663,0,0,0
9103,316449.59900543443,2010-11-20 03:39:38,4682.343808937695,2,28,0.5501165986061096,4.097341537475586,27.36477108680745,26.67816597261196,109.20969835594715,97.31660089515093,9.71794142969884e-05,0.0907677188515663,0,0,0
9104,316479.6143248143,2010-11-20 03:40:08,4712.35912834267,2,28,0.550297200679779,4.100417137145996,27.369357907743925,26.67816597261196,109.22849898007937,97.31660089515093,9.70840483205393e-05,0.0907677188515663,0,0,0
9105,316509.6314297212,2010-11-20 03:40:38,4742.376233234497,2,28,0.550297200679779,4.1034932136535645,27.37394500789657,26.67816597261196,109.24731466330384,97.31660089515093,0.0001295089750783,0.0907677188515663,0,0,0
9106,316539.6448635746,2010-11-20 03:41:08,4772.38966707782,2,28,0.5501165986061096,4.106568813323975,27.37853153850123,26.67816597261196,109.26614214614474,97.31660089515093,6.47544875391759e-05,0.0907677188515663,0,0,0
9107,316569.66018486925,2010-11-20 03:41:38,4802.404988377527,2,28,0.5499359965324402,4.109644889831543,27.38311837366818,26.67816597261196,109.2849851026486,97.31660089515093,9.71794142969884e-05,0.0907677188515663,0,0,0
9108,316599.67556438927,2010-11-20 03:42:08,4832.420367892548,2,28,0.5501165986061096,4.112882614135742,27.387705235400283,26.67816597261196,109.3038425170328,97.31660089515093,9.71794142969884e-05,0.0907677188515663,0,0,0
9109,316629.69088623533,2010-11-20 03:42:38,4862.43568974363,2,28,0.5501165986061096,4.115958213806152,27.39229199486196,26.67816597261196,109.32271387337866,97.31660089515093,9.71794142969884e-05,0.0907677188515663,0,0,0
9110,316659.7061751993,2010-11-20 03:43:08,4892.450978712633,2,28,0.5501165986061096,4.1190338134765625,27.39687875677388,26.67816597261196,109.34159972380957,97.31660089515093,9.70840483205393e-05,0.0907677188515663,0,0,0
9111,316689.721627085,2010-11-20 03:43:38,4922.466430588276,2,28,0.5501165986061096,4.122271537780762,27.401465612055286,26.67816597261196,109.3605006259456,97.31660089515093,6.47544875391759e-05,0.0907677188515663,0,0,0
9112,316719.7368227411,2010-11-20 03:44:08,4952.481626244356,2,28,0.5501165986061096,4.12534761428833,27.40605237482063,26.67816597261196,109.37941574958542,97.31660089515093,6.47544875391759e-05,0.0907677188515663,0,0,0
9113,316749.7521641009,2010-11-20 03:44:38,4982.496967604136,2,28,0.550297200679779,4.12874698638916,27.41063922910491,26.67816597261196,109.39834607331096,97.31660089515093,9.70840483205393e-05,0.0907677188515663,0,0,0
9114,316779.7674784532,2010-11-20 03:45:09,5012.5122819565,2,28,0.550297200679779,4.131984710693359,27.415226046872625,26.67816597261196,109.41729121477668,97.31660089515093,6.47544875391759e-05,0.0907677188515663,0,0,0
9115,316809.7828740985,2010-11-20 03:45:39,5042.527677601783,2,28,0.5501165986061096,4.135384559631348,27.419812900601567,26.67816597261196,109.4362516235457,97.31660089515093,9.71794142969884e-05,0.0907677188515663,0,0,0
9116,316839.79815798986,2010-11-20 03:46:09,5072.542961493111,2,28,0.5501165986061096,4.138622283935547,27.424399728745104,26.67816597261196,109.4552271716102,97.31660089515093,6.47544875391759e-05,0.0907677188515663,0,0,0
9117,316869.81347747,2010-11-20 03:46:39,5102.558280978288,2,28,0.550297200679779,4.142021656036377,27.428986575579263,26.67816597261196,109.47421808514127,97.31660089515093,9.70840483205393e-05,0.0907677188515663,0,0,0
9118,316899.8288129601,2010-11-20 03:47:09,5132.573616463404,2,28,0.550297200679779,4.145583152770996,27.433573382351607,26.67816597261196,109.49322430074052,97.31660089515093,0.0001295089750783,0.0907677188515663,0,0,0
9119,316929.84412399423,2010-11-20 03:47:39,5162.588927497483,2,28,0.5501165986061096,4.148820877075195,27.438160094972893,26.67816597261196,109.51224605822928,97.31660089515093,6.47544875391759e-05,0.0907677188515663,0,0,0
9120,316959.85946733895,2010-11-20 03:48:09,5192.604270842218,2,28,0.5501165986061096,4.152382373809815,27.442746912144123,26.67816597261196,109.53128397182464,97.31660089515093,0.0001295089750783,0.0907677188515663,0,0,0
9121,316989.8748152551,2010-11-20 03:48:39,5222.619618758362,2,28,0.5501165986061096,4.155782222747803,27.447333661184924,26.67816597261196,109.5503374302933,97.31660089515093,9.71794142969884e-05,0.0907677188515663,0,0,0
9122,317019.8904174159,2010-11-20 03:49:09,5252.6352210344285,2,28,0.5501165986061096,4.159181594848633,27.45192044946336,26.67816597261196,109.56940691832644,97.31660089515093,6.47544875391759e-05,0.0907677188515663,0,0,0
9123,317049.9054479598,2010-11-20 03:49:39,5282.650251463076,2,28,0.5501165986061096,4.162581443786621,27.456507204818504,26.67816597261196,109.58849238352718,97.31660089515093,6.47544875391759e-05,0.0907677188515663,0,0,0
9124,317079.9207673497,2010-11-20 03:50:09,5312.665570853013,2,28,0.5501165986061096,4.16614294052124,27.46109398719493,26.67816597261196,109.60759406710088,97.31660089515093,6.47544875391759e-05,0.0907677188515663,0,0,0
9125,317109.9382183555,2010-11-20 03:50:39,5342.683021858794,2,28,0.5501165986061096,4.169704437255859,27.46568110817471,26.67816597261196,109.62671340173236,97.31660089515093,6.47544875391759e-05,0.0907677188515663,0,0,0
9126,317139.95143213955,2010-11-20 03:51:09,5372.696235642816,2,28,0.5499359965324402,4.173265933990479,27.47026755704112,26.67816597261196,109.64584621468812,97.31660089515093,9.71794142969884e-05,0.0907677188515663,0,0,0
9127,317169.9667311586,2010-11-20 03:51:39,5402.711534651881,2,28,0.5499359965324402,4.176827430725098,27.474854343760285,26.67816597261196,109.6649967541908,97.31660089515093,6.47544875391759e-05,0.0907677188515663,0,0,0
9128,317199.9821836108,2010-11-20 03:52:09,5432.726987113988,2,28,0.550297200679779,4.180712699890137,27.479441105926192,26.67816597261196,109.68416374617745,97.31660089515093,0.0001295089750783,0.0907677188515663,0,0,0
9129,317229.9974912112,2010-11-20 03:52:39,5462.7422947145,2,28,0.5501165986061096,4.184112071990967,27.484027912411257,26.67816597261196,109.70334755630049,97.31660089515093,9.70840483205393e-05,0.0907677188515663,0,0,0
9130,317260.0127405714,2010-11-20 03:53:09,5492.757544084658,2,28,0.5501165986061096,4.187835693359375,27.48861469811487,26.67816597261196,109.72254791542548,97.31660089515093,0.0001295089750783,0.0907677188515663,0,0,0
9131,317290.0280493498,2010-11-20 03:53:39,5522.772852858096,2,28,0.5501165986061096,4.191558837890625,27.49320143282224,26.67816597261196,109.74176494107128,97.31660089515093,9.70840483205393e-05,0.0907677188515663,0,0,0
9132,317320.0433674064,2010-11-20 03:54:09,5552.788170909694,2,28,0.5501165986061096,4.195281982421875,27.49778821295186,26.67816597261196,109.76099917059352,97.31660089515093,9.70840483205393e-05,0.0907677188515663,0,0,0
9133,317350.05883193866,2010-11-20 03:54:39,5582.803635446942,2,28,0.5501165986061096,4.199005603790283,27.50237497608749,26.67816597261196,109.78025029614892,97.31660089515093,9.71794142969884e-05,0.0907677188515663,0,0,0
9134,317357.12136842625,2010-11-20 03:54:46,5589.86617205486,2,28,0.5504778623580933,4.200138568878174,27.50345421040049,26.67816597261196,109.78478245574344,97.31660089515093,0.0001295089750783,0.0907677188515663,0,0,0
9135,317387.1389228871,2010-11-20 03:55:16,30.01550863231682,3,28,0.0,4.116119861602783,27.503454249159137,26.67816597261196,109.78478261853512,97.31660089515093,-0.0003561973571777,0.0907677188515663,0,0,0
9136,317417.1540624732,2010-11-20 03:55:46,60.03064820340002,3,28,0.0,4.106083393096924,27.503454249159137,26.67816597261196,109.78478261853512,97.31660089515093,-0.0001942634553415,0.0907677188515663,0,0,0
9137,317447.1693878631,2010-11-20 03:56:16,90.04597359331562,3,28,0.0,4.099931716918945,27.503454249159137,26.67816597261196,109.78478261853512,97.31660089515093,-0.0001618385285837,0.0907677188515663,0,0,0
9138,317477.1380143002,2010-11-20 03:56:46,120.01460003547317,3,28,0.0,4.096208095550537,27.503454249159137,26.67816597261196,109.78478261853512,97.31660089515093,-9.71794142969884e-05,0.0907677188515663,0,0,0
9139,317477.1413268202,2010-11-20 03:56:46,2.556381121e-06,4,28,0.9880940914154052,4.199491024017334,27.503454249860788,26.67816597261196,109.7847826214817,97.31660089515093,0.0,0.0907677188515663,0,0,0
9140,317478.0008877565,2010-11-20 03:56:47,0.859563517780922,4,28,0.9375234842300416,4.199491024017334,27.503682455970605,26.67816597261196,109.785741012088,97.31660089515093,0.0,0.0907677188515663,0,0,0
9141,317480.0788507117,2010-11-20 03:56:49,2.937526473003767,4,28,0.8874947428703308,4.199653148651123,27.50420798236696,26.67816597261196,109.78794805094046,97.31660089515093,3.24249267578125e-05,0.0907677188515663,0,0,0
9142,317483.28216147324,2010-11-20 03:56:52,6.140837339744207,4,28,0.8371047377586365,4.199653148651123,27.504974000428696,26.67816597261196,109.79116508017106,97.31660089515093,0.0,0.0907677188515663,0,0,0
9143,317487.7194819829,2010-11-20 03:56:57,10.57815773912574,4,28,0.7868953943252563,4.199653148651123,27.505973475045728,26.67816597261196,109.7953625778758,97.31660089515093,-3.23295607813634e-05,0.0907677188515663,0,0,0
9144,317493.5161532913,2010-11-20 03:57:03,16.374829047507045,4,28,0.7368665933609009,4.199814796447754,27.50719852874422,26.67816597261196,109.80050745564267,97.31660089515093,6.47544875391759e-05,0.0907677188515663,0,0,0
9145,317501.03184669826,2010-11-20 03:57:10,23.89052245451145,4,28,0.6868378520011902,4.199814796447754,27.508682868918516,26.67816597261196,109.80674127145872,97.31660089515093,3.23295607813634e-05,0.0907677188515663,0,0,0
9146,317511.20348792966,2010-11-20 03:57:20,34.06216368589286,4,28,0.6368090510368347,4.199653148651123,27.510550261241622,26.67816597261196,109.81458379100135,97.31660089515093,-3.23295607813634e-05,0.0907677188515663,0,0,0
9147,317525.5471007139,2010-11-20 03:57:35,48.40577647011193,4,28,0.586780309677124,4.199814796447754,27.51298215125102,26.67816597261196,109.82479706621343,97.31660089515093,0.0,0.0907677188515663,0,0,0
9148,317547.5626843426,2010-11-20 03:57:57,70.42136021414993,4,28,0.5367515087127686,4.199653148651123,27.516406362417367,26.67816597261196,109.83917782109386,97.31660089515093,-3.23295607813634e-05,0.0907677188515663,0,0,0
9149,317585.7027408514,2010-11-20 03:58:35,108.561416607609,4,28,0.4867227673530578,4.199653148651123,27.52180285447472,26.67816597261196,109.86184157827483,97.31660089515093,-3.23295607813634e-05,0.0907677188515663,0,0,0
9150,317653.23332639725,2010-11-20 03:59:42,176.0920021634773,4,28,0.4366939961910248,4.199653148651123,27.530426945141908,26.67816597261196,109.89806034052368,97.31660089515093,-3.23295607813634e-05,0.0907677188515663,0,0,0
9151,317753.48232622375,2010-11-20 04:01:23,276.34100197994223,4,28,0.3866652250289917,4.199653148651123,27.541864434549385,26.67816597261196,109.94609468298589,97.31660089515093,3.24249267578125e-05,0.0907677188515663,0,0,0
9152,317876.9344598068,2010-11-20 04:03:26,399.7931355630015,4,28,0.3366364538669586,4.199814796447754,27.55425036219995,26.67816597261196,109.99811239574596,97.31660089515093,6.47544875391759e-05,0.0907677188515663,0,0,0
9153,318022.63588003727,2010-11-20 04:05:52,545.4945558185625,4,28,0.2866076827049255,4.199814796447754,27.566853628310625,26.67816597261196,110.05104278523405,97.31660089515093,0.0,0.0907677188515663,0,0,0
9154,318200.7279743535,2010-11-20 04:08:50,723.5866502500472,4,28,0.2365789115428924,4.199653148651123,27.57977773514532,26.67816597261196,110.10532055907134,97.31660089515093,-3.23295607813634e-05,0.0907677188515663,0,0,0
9155,318421.74133115413,2010-11-20 04:12:31,944.6000069103262,4,28,0.1865501403808593,4.199653148651123,27.59271715273251,26.67816597261196,110.1596626041502,97.31660089515093,0.0,0.0907677188515663,0,0,0
9156,318716.1759375593,2010-11-20 04:17:25,1239.0346133155454,4,28,0.1365213692188263,4.199653148651123,27.605840698607352,26.67816597261196,110.21477802188272,97.31660089515093,0.0,0.0907677188515663,0,0,0
9157,319172.71827800333,2010-11-20 04:25:02,1695.5769537796268,4,28,0.0864925980567932,4.199653148651123,27.61975680944203,26.67816597261196,110.27322196663792,97.31660089515093,0.0,0.0907677188515663,0,0,0
9158,319772.5563870764,2010-11-20 04:35:02,2295.41506297296,4,28,0.0498289167881011,4.199653148651123,27.630853564421265,26.67816597261196,110.31982533172555,97.31660089515093,0.0,0.0907677188515663,0,0,0
9159,319802.5820891979,2010-11-20 04:35:32,30.015406056271228,5,28,0.0,4.192044734954834,27.630853564421265,26.67816597261196,110.31982533172555,97.31660089515093,-3.23295607813634e-05,0.0907677188515663,0,0,0
9160,319832.5816509443,2010-11-20 04:36:02,60.014967822757576,5,28,0.0,4.190911293029785,27.630853564421265,26.67816597261196,110.31982533172555,97.31660089515093,0.0,0.0907677188515663,0,0,0
9161,319832.7804070137,2010-11-20 04:36:02,0.18758697595151,6,28,-1.9243103452026844e-05,4.190911293029785,27.630853564421265,26.678165973614668,110.31982533172555,97.3166008993532,0.0,0.0938397273421287,0,0,0
9162,319837.60831659375,2010-11-20 04:36:07,5.015496545993653,6,28,0.0008838032954372,4.190911293029785,27.630854398721613,26.67816597385532,110.31982882821016,97.31660090036172,-3.24249267578125e-05,0.0938397273421287,0,0,0
9163,319867.63480204483,2010-11-20 04:36:37,30.015261630762943,7,28,-1.0997490882873535,4.018503189086914,27.630854398721613,26.687335225775623,110.31982882821016,97.3536390173767,-0.0009065627818927,0.0938397273421287,0,0,0
9164,319897.65010602126,2010-11-20 04:37:07,60.0305655771522,7,28,-1.0997490882873535,3.99292516708374,27.630854398721613,26.696504466807585,110.31982882821016,97.39036012624544,-0.0005827426793985,0.0938397273421287,0,0,0
9165,319927.66539464943,2010-11-20 04:37:37,90.04585424039236,7,28,-1.0997490882873535,3.9752795696258554,27.630854398721613,26.70567360171832,110.31982882821016,97.42688732713816,-0.0004532813909463,0.0938397273421287,0,0,0
9166,319957.6807267461,2010-11-20 04:38:07,120.06118631198646,7,28,-1.099568486213684,3.9616811275482178,27.630854398721613,26.714842672403385,110.31982882821016,97.46327236439612,-0.0002913951757363,0.0938397273421287,0,0,0
9167,319987.6960308579,2010-11-20 04:38:37,150.0764904237886,7,28,-1.0997490882873535,3.9500253200531006,27.630854398721613,26.72401152489544,110.31982882821016,97.49954121257824,-0.0002913951757363,0.0938397273421287,0,0,0
9168,320017.7113721375,2010-11-20 04:39:07,180.09183172842984,7,28,-1.0997490882873535,3.939340829849243,27.630854398721613,26.7331803921946,110.31982882821016,97.53570823212164,-0.0002590179501567,0.0938397273421287,0,0,0
9169,320047.7271183428,2010-11-20 04:39:37,210.1075780390282,7,28,-1.099568486213684,3.9296276569366455,27.630854398721613,26.7423494906277,110.31982882821016,97.5717831136432,-0.0002266406954731,0.0938397273421287,0,0,0
9170,320077.7421592426,2010-11-20 04:40:07,240.12261893380017,7,28,-1.099568486213684,3.920076370239258,27.630854398721613,26.751518580957665,110.31982882821016,97.60777003982928,-0.0002590179501567,0.0938397273421287,0,0,0
9171,320107.75740122434,2010-11-20 04:40:37,270.1378608102533,7,28,-1.0997490882873535,3.911172866821289,27.630854398721613,26.760687642503207,110.31982882821016,97.64367249224988,-0.0001942634553415,0.0938397273421287,0,0,0
9172,320137.7746397297,2010-11-20 04:41:07,300.15509930056174,7,28,-1.099568486213684,3.902269124984741,27.630854398721613,26.769857360582776,110.31982882821016,97.6794956933913,-0.0002590179501567,0.0938397273421287,0,0,0
9173,320167.78805788385,2010-11-20 04:41:37,330.16851746976107,7,28,-1.0997490882873535,3.893689155578613,27.630854398721613,26.779025911943364,110.31982882821016,97.71523427096638,-0.0002266406954731,0.0938397273421287,0,0,0
9174,320197.8033798803,2010-11-20 04:42:07,360.183839446156,7,28,-1.099568486213684,3.885432958602905,27.630854398721613,26.788195041258245,110.31982882821016,97.7508980767884,-0.0001942634553415,0.0938397273421287,0,0,0
9175,320227.8187185884,2010-11-20 04:42:37,390.19917814930346,7,28,-1.0997490882873535,3.8773386478424072,27.630854398721613,26.797364168258728,110.31982882821016,97.78648556530452,-0.0001942634553415,0.0938397273421287,0,0,0
9176,320257.836864584,2010-11-20 04:43:07,420.2173241498973,7,28,-1.0997490882873535,3.869244337081909,27.630854398721613,26.80653410992818,110.31982882821016,97.82200154564232,-0.0001618862152099,0.0938397273421287,0,0,0
9177,320287.849578801,2010-11-20 04:43:37,450.2300383869736,7,28,-1.0997490882873535,3.860988140106201,27.630854398721613,26.815702482945177,110.31982882821016,97.85743755459472,-0.0002266406954731,0.0938397273421287,0,0,0
9178,320317.86470400624,2010-11-20 04:44:07,480.24516357214736,7,28,-1.099568486213684,3.853217601776123,27.630854398721613,26.82487157129948,110.31982882821016,97.89280268827,-0.0001295089750783,0.0938397273421287,0,0,0
9179,320347.880045752,2010-11-20 04:44:37,510.26050533793966,7,28,-1.0997490882873535,3.845285177230835,27.630854398721613,26.83404077377879,110.31982882821016,97.92809589675404,-0.0001942634553415,0.0938397273421287,0,0,0
9180,320377.8953772321,2010-11-20 04:45:07,540.2758367929948,7,28,-1.099568486213684,3.837514638900757,27.630854398721613,26.843209886978663,110.31982882821016,97.9633177502341,-0.0001618862152099,0.0938397273421287,0,0,0
9181,320407.9107649276,2010-11-20 04:45:37,570.2912246337975,7,28,-1.099568486213684,3.829906225204468,27.630854398721613,26.852379094831704,110.31982882821016,97.9984699585187,-0.0001942634553415,0.0938397273421287,0,0,0
9182,320437.92606885894,2010-11-20 04:46:07,600.306528454874,7,28,-1.0997490882873535,3.8224594593048096,27.630854398721613,26.86154822152556,110.31982882821016,98.03355324718648,-0.0002266406954731,0.0938397273421287,0,0,0
9183,320467.9413540986,2010-11-20 04:46:37,630.3218136644932,7,28,-1.0997490882873535,3.815012693405152,27.630854398721613,26.87071735374361,110.31982882821016,98.06856902341327,-0.0001942634553415,0.0938397273421287,0,0,0
9184,320497.95673553844,2010-11-20 04:47:07,660.3371951043181,7,28,-1.099568486213684,3.807889699935913,27.630854398721613,26.87988652007476,110.31982882821016,98.10351809305256,-0.0002266406954731,0.0938397273421287,0,0,0
9185,320527.97206330433,2010-11-20 04:47:37,690.3525229002395,7,28,-1.099568486213684,3.801090478897095,27.630854398721613,26.88905569093172,110.31982882821016,98.13840192605142,-0.0001618862152099,0.0938397273421287,0,0,0
9186,320557.98746684927,2010-11-20 04:48:07,720.3679264251922,7,28,-1.099568486213684,3.7941293716430655,27.630854398721613,26.89822494242071,110.31982882821016,98.17322207808964,-0.0001618862152099,0.0938397273421287,0,0,0
9187,320588.00276534207,2010-11-20 04:48:37,750.3832249129558,7,28,-1.0997490882873535,3.787168264389038,27.630854398721613,26.907394661560755,110.31982882821016,98.20798106234012,-0.0001942634553415,0.0938397273421287,0,0,0
9188,320618.01798491785,2010-11-20 04:49:07,780.3984445037805,7,28,-1.0997490882873535,3.78069281578064,27.630854398721613,26.91656453223391,110.31982882821016,98.2426792218494,-0.0001942634553415,0.0938397273421287,0,0,0
9189,320648.03331672377,2010-11-20 04:49:37,810.4137762946739,7,28,-1.099929690361023,3.773893594741821,27.630854398721613,26.925734312488235,110.31982882821016,98.27731709501715,-0.0001942634553415,0.0938397273421287,0,0,0
9190,320678.0486434721,2010-11-20 04:50:07,840.4291030429803,7,28,-1.0997490882873535,3.7679038047790527,27.630854398721613,26.93490422797275,110.31982882821016,98.311896839072,-0.0001618862152099,0.0938397273421287,0,0,0
9191,320708.06400396966,2010-11-20 04:50:37,870.444463530505,7,28,-1.099929690361023,3.761752128601074,27.630854398721613,26.944074195210693,110.31982882821016,98.34641989704636,-0.0001618862152099,0.0938397273421287,0,0,0
9192,320738.08122492617,2010-11-20 04:51:07,900.461684492059,7,28,-1.099929690361023,3.755600452423096,27.630854398721613,26.953244734849736,110.31982882821016,98.38088931797492,-0.0001942634553415,0.0938397273421287,0,0,0
9193,320768.09464477457,2010-11-20 04:51:37,930.4751043705248,7,28,-1.099568486213684,3.749772787094116,27.630854398721613,26.96241364257376,110.31982882821016,98.41529812805136,-0.0001618862152099,0.0938397273421287,0,0,0
9194,320798.1100995775,2010-11-20 04:52:07,960.4905591434004,7,28,-1.0997490882873535,3.7439448833465576,27.630854398721613,26.97158275047164,110.31982882821016,98.44965378196814,-0.0001618862152099,0.0938397273421287,0,0,0
9195,320828.1254282056,2010-11-20 04:52:37,990.5058877713988,7,28,-1.0997490882873535,3.738116979598999,27.630854398721613,26.98075180571343,110.31982882821016,98.48395556734746,-0.0001618862152099,0.0938397273421287,0,0,0
9196,320858.1406642324,2010-11-20 04:53:07,1020.5211238032628,7,28,-1.0997490882873535,3.7324509620666495,27.630854398721613,26.98992086637084,110.31982882821016,98.51820467945292,-0.0001618862152099,0.0938397273421287,0,0,0
9197,320888.15596248955,2010-11-20 04:53:38,1050.5364220604513,7,28,-1.0997490882873535,3.7271087169647217,27.630854398721613,26.99908993241727,110.31982882821016,98.55240205768636,-9.713172767078504e-05,0.0938397273421287,0,0,0
9198,320918.1715118385,2010-11-20 04:54:08,1080.55197140439,7,28,-1.0997490882873535,3.721280813217163,27.630854398721613,27.008259047001324,110.31982882821016,98.58654946365172,-0.0001942634553415,0.0938397273421287,0,0,0
9199,320948.18662329944,2010-11-20 04:54:38,1110.5670828903687,7,28,-1.099568486213684,3.716100454330444,27.630854398721613,27.01742806386862,110.31982882821016,98.6206466094844,-0.0001618862152099,0.0938397273421287,0,0,0
9200,320978.20197685465,2010-11-20 04:55:08,1140.5824364205266,7,28,-1.099929690361023,3.7105963230133057,27.630854398721613,27.026597123815293,110.31982882821016,98.65469493346733,-0.0001618862152099,0.0938397273421287,0,0,0
9201,321008.21729846514,2010-11-20 04:55:38,1170.5977580610834,7,28,-1.0997490882873535,3.705415964126587,27.630854398721613,27.035766189833325,110.31982882821016,98.68869447601809,-0.0001295089750783,0.0938397273421287,0,0,0
9202,321038.23261850164,2010-11-20 04:56:08,1200.613078067561,7,28,-1.099568486213684,3.700235605239868,27.630854398721613,27.04493530023385,110.31982882821016,98.72264595439523,-0.0001295089750783,0.0938397273421287,0,0,0
9203,321068.247967295,2010-11-20 04:56:38,1230.6284268859577,7,28,-1.0997490882873535,3.695055246353149,27.630854398721613,27.054104475865017,110.31982882821016,98.75655042420892,-0.0001618862152099,0.0938397273421287,0,0,0
9204,321098.2632925496,2010-11-20 04:57:08,1260.6437521355228,7,28,-1.0997490882873535,3.6900367736816406,27.630854398721613,27.06327362068196,110.31982882821016,98.7904083020514,-0.0001618862152099,0.0938397273421287,0,0,0
9205,321128.27866169874,2010-11-20 04:57:38,1290.6591212746434,7,28,-1.0997490882873535,3.685180187225342,27.630854398721613,27.07244273437505,110.31982882821016,98.82421996770252,-0.0001295089750783,0.0938397273421287,0,0,0
9206,321158.2939072243,2010-11-20 04:58:08,1320.67436679018,7,28,-1.099568486213684,3.680161714553833,27.630854398721613,27.081611447360963,110.31982882821016,98.85798522269432,-0.0001618862152099,0.0938397273421287,0,0,0
9207,321188.3092804586,2010-11-20 04:58:38,1350.6897400245227,7,28,-1.0997490882873535,3.675467014312744,27.630854398721613,27.090779862568887,110.31982882821016,98.89170490103814,-0.0001618862152099,0.0938397273421287,0,0,0
9208,321218.3246531466,2010-11-20 04:59:08,1380.7051127125017,7,28,-1.0997490882873535,3.670610666275024,27.630854398721613,27.099948779246915,110.31982882821016,98.9253825159764,-9.713172767078504e-05,0.0938397273421287,0,0,0
9209,321248.3400904459,2010-11-20 04:59:38,1410.7205500217851,7,28,-1.0997490882873535,3.665915966033936,27.630854398721613,27.10911799655169,110.31982882821016,98.95901752006358,-0.0001295089750783,0.0938397273421287,0,0,0
9210,321278.3552986733,2010-11-20 05:00:08,1440.7357582642828,7,28,-1.0997490882873535,3.661221265792847,27.630854398721613,27.118287113001088,110.31982882821016,98.99260942203804,-0.0001295089750783,0.0938397273421287,0,0,0
9211,321308.3706277675,2010-11-20 05:00:38,1470.7510873333822,7,28,-1.099568486213684,3.656688451766968,27.630854398721613,27.12745630626873,110.31982882821016,99.0261594180656,-0.0001618862152099,0.0938397273421287,0,0,0
9212,321338.3878484484,2010-11-20 05:01:08,1500.7683080242605,7,28,-1.0997490882873535,3.652155637741089,27.630854398721613,27.13662608106464,110.31982882821016,99.05967009218482,-0.0001295089750783,0.0938397273421287,0,0,0
9213,321368.4012922064,2010-11-20 05:01:38,1530.7817517723086,7,28,-1.0997490882873535,3.64794659614563,27.630854398721613,27.1457947090738,110.31982882821016,99.09313584310225,-9.713172767078504e-05,0.0938397273421287,0,0,0
9214,321398.4166247743,2010-11-20 05:02:08,1560.797084365204,7,28,-1.099929690361023,3.643251895904541,27.630854398721613,27.154963793735277,110.31982882821016,99.12656288943997,-0.0001618862152099,0.0938397273421287,0,0,0
9215,321428.43196877063,2010-11-20 05:02:38,1590.8124283365016,7,28,-1.099568486213684,3.639366626739502,27.630854398721613,27.164132971499384,110.31982882821016,99.15995104513804,-6.47544875391759e-05,0.0938397273421287,0,0,0
9216,321458.4472989024,2010-11-20 05:03:08,1620.8277584682537,7,28,-1.099568486213684,3.634995698928833,27.630854398721613,27.17330211657755,110.31982882821016,99.19330026439516,-0.0001295089750783,0.0938397273421287,0,0,0
9217,321488.4627526627,2010-11-20 05:03:38,1650.8432122386264,7,28,-1.099568486213684,3.631110429763794,27.630854398721613,27.182471300075925,110.31982882821016,99.22661208856262,-9.713172767078504e-05,0.0938397273421287,0,0,0
9218,321518.4779690255,2010-11-20 05:04:08,1680.8584285913685,7,28,-1.099568486213684,3.626901388168335,27.630854398721613,27.19164042303086,110.31982882821016,99.25988638365637,-9.713172767078504e-05,0.0938397273421287,0,0,0
9219,321548.49338810425,2010-11-20 05:04:38,1710.8738485172605,7,28,-1.0997490882873535,3.622854232788086,27.630854398721613,27.200809658241543,110.31982882821016,99.29312450427268,-0.0001618862152099,0.0938397273421287,0,0,0
9220,321578.50861742435,2010-11-20 05:05:08,1740.8890769952689,7,28,-1.099568486213684,3.619130849838257,27.630854398721613,27.20997877822176,110.31982882821016,99.3263268249178,-0.0001295089750783,0.0938397273421287,0,0,0
9221,321608.5239415963,2010-11-20 05:05:38,1770.904401167144,7,28,-1.099568486213684,3.6155693531036377,27.630854398721613,27.21914792531735,110.31982882821016,99.35949481250655,-9.713172767078504e-05,0.0938397273421287,0,0,0
9222,321638.5392656829,2010-11-20 05:06:08,1800.9197252738566,7,28,-1.099929690361023,3.6118459701538086,27.630854398721613,27.228317066016583,110.31982882821016,99.39262956440186,-0.0001295089750783,0.0938397273421287,0,0,0
9223,321668.55459709285,2010-11-20 05:06:38,1830.9350566587368,7,28,-1.0997490882873535,3.6084463596344,27.630854398721613,27.237486253897018,110.31982882821016,99.42573192691223,-9.713172767078504e-05,0.0938397273421287,0,0,0
9224,321698.56995119946,2010-11-20 05:07:08,1860.9504107653336,7,28,-1.0997490882873535,3.60488486289978,27.630854398721613,27.246655453683942,110.31982882821016,99.45880240551648,-0.0001295089750783,0.0938397273421287,0,0,0
9225,321728.58526513574,2010-11-20 05:07:38,1890.965724706672,7,28,-1.099929690361023,3.601647138595581,27.630854398721613,27.25582457838584,110.31982882821016,99.49184207413752,-9.713172767078504e-05,0.0938397273421287,0,0,0
9226,321758.60076484585,2010-11-20 05:08:08,1920.9812244167167,7,28,-1.0997490882873535,3.598571300506592,27.630854398721613,27.26499383964413,110.31982882821016,99.52485239145804,-6.47544875391759e-05,0.0938397273421287,0,0,0
9227,321788.6159268178,2010-11-20 05:08:38,1950.996386383704,7,28,-1.0997490882873535,3.5953335762023926,27.630854398721613,27.274163043850297,110.31982882821016,99.55783336895112,-0.0001295089750783,0.0938397273421287,0,0,0
9228,321818.63127589686,2010-11-20 05:09:08,1981.011735467764,7,28,-1.0997490882873535,3.5924196243286133,27.630854398721613,27.28333220644118,110.31982882821016,99.59078582238104,-6.47544875391759e-05,0.0938397273421287,0,0,0
9229,321848.64658545726,2010-11-20 05:09:38,2011.027045023154,7,28,-1.099568486213684,3.589344024658203,27.630854398721613,27.292501386005323,110.31982882821016,99.62371021410138,-6.47544875391759e-05,0.0938397273421287,0,0,0
9230,321878.66191780457,2010-11-20 05:10:08,2041.0423773754487,7,28,-1.0997490882873535,3.586268186569214,27.630854398721613,27.301670604649043,110.31982882821016,99.6566074438662,-9.713172767078504e-05,0.0938397273421287,0,0,0
9231,321908.677256227,2010-11-20 05:10:38,2071.0577157978955,7,28,-1.0997490882873535,3.5833542346954346,27.630854398721613,27.31083983002628,110.31982882821016,99.68947779200852,-9.713172767078504e-05,0.0938397273421287,0,0,0
9232,321938.6925861382,2010-11-20 05:11:08,2101.0730457040845,7,28,-1.0997490882873535,3.580602169036865,27.630854398721613,27.320009126659635,110.31982882821016,99.72232163442304,-6.47544875391759e-05,0.0938397273421287,0,0,0
9233,321968.69417889434,2010-11-20 05:11:38,2131.0746384702584,7,28,-1.0997490882873535,3.577526330947876,27.630854398721613,27.3291741603242,110.31982882821016,99.75512379989992,-9.713172767078504e-05,0.0938397273421287,0,0,0
9234,321998.70804566337,2010-11-20 05:12:08,2161.088505239232,7,28,-1.0997490882873535,3.574774265289306,27.630854398721613,27.33834300043644,110.31982882821016,99.7879130950575,-6.47544875391759e-05,0.0938397273421287,0,0,0
9235,322028.7231009591,2010-11-20 05:12:38,2191.1035605349507,7,28,-1.0997490882873535,3.571860313415528,27.630854398721613,27.34751210328157,110.31982882821016,99.82067711798366,-9.713172767078504e-05,0.0938397273421287,0,0,0
9236,322058.7383171815,2010-11-20 05:13:08,2221.1187767573674,7,28,-1.0997490882873535,3.568946361541748,27.630854398721613,27.356681361960323,110.31982882821016,99.85341540934547,-6.47544875391759e-05,0.0938397273421287,0,0,0
9237,322088.7536646415,2010-11-20 05:13:38,2251.134124212361,7,28,-1.0997490882873535,3.5660324096679688,27.630854398721613,27.365850652203783,110.31982882821016,99.8861273084311,-0.0001295089750783,0.0938397273421287,0,0,0
9238,322118.76907122403,2010-11-20 05:14:08,2281.149530895196,7,28,-1.099568486213684,3.5632803440093994,27.630854398721613,27.37501989557076,110.31982882821016,99.91881232164636,-3.237724376958795e-05,0.0938397273421287,0,0,0
9239,322148.7843922932,2010-11-20 05:14:38,2311.164851859063,7,28,-1.099929690361023,3.56036639213562,27.630854398721613,27.38418910775172,110.31982882821016,99.95147090734685,-6.47544875391759e-05,0.0938397273421287,0,0,0
9240,322178.7995961798,2010-11-20 05:15:08,2341.180055745688,7,28,-1.0997490882873535,3.557290554046631,27.630854398721613,27.393358236750917,110.31982882821016,99.984101780899,-9.713172767078504e-05,0.0938397273421287,0,0,0
9241,322208.81782506726,2010-11-20 05:15:38,2371.198284743456,7,28,-1.099929690361023,3.5542147159576416,27.630854398721613,27.40252831768588,110.31982882821016,100.01670799291338,-6.47544875391759e-05,0.0938397273421287,0,0,0
9242,322238.8302678067,2010-11-20 05:16:08,2401.210727372557,7,28,-1.099929690361023,3.5508151054382324,27.630854398721613,27.411696678234,110.31982882821016,100.04927940557408,-9.713172767078504e-05,0.0938397273421287,0,0,0
9243,322268.84559089085,2010-11-20 05:16:38,2431.226050456717,7,28,-1.099568486213684,3.547901153564453,27.630854398721613,27.420865881688453,110.31982882821016,100.0818244148994,-3.237724376958795e-05,0.0938397273421287,0,0,0
9244,322298.8609360852,2010-11-20 05:17:08,2461.24139565608,7,28,-1.0997490882873535,3.544501543045044,27.630854398721613,27.430035134779143,110.31982882821016,100.11433971373889,-9.713172767078504e-05,0.0938397273421287,0,0,0
9245,322328.8763260112,2010-11-20 05:17:38,2491.2567855871,7,28,-1.0997490882873535,3.5411019325256348,27.630854398721613,27.43920436843879,110.31982882821016,100.14682409165684,-0.0001295089750783,0.0938397273421287,0,0,0
9246,322358.89158232865,2010-11-20 05:18:08,2521.272041894575,7,28,-1.099568486213684,3.5373785495758057,27.630854398721613,27.448373617464355,110.31982882821016,100.17927672162403,-0.0001295089750783,0.0938397273421287,0,0,0
9247,322388.9069152324,2010-11-20 05:18:38,2551.287374798246,7,28,-1.099929690361023,3.533655166625977,27.630854398721613,27.45754287454123,110.31982882821016,100.21169641965028,-0.0001295089750783,0.0938397273421287,0,0,0
9248,322418.9222936497,2010-11-20 05:19:08,2581.302753305752,7,28,-1.099568486213684,3.5299317836761475,27.630854398721613,27.46671217067938,110.31982882821016,100.24408197988008,-0.0001295089750783,0.0938397273421287,0,0,0
9249,322448.9375980121,2010-11-20 05:19:38,2611.318057587979,7,28,-1.099568486213684,3.5262084007263184,27.630854398721613,27.475881417945363,110.31982882821016,100.27643197422591,-6.47544875391759e-05,0.0938397273421287,0,0,0
9250,322478.95292994333,2010-11-20 05:20:08,2641.333389509198,7,28,-1.099929690361023,3.5218374729156494,27.630854398721613,27.485050664966003,110.31982882821016,100.30874470245747,-0.0001295089750783,0.0938397273421287,0,0,0
9251,322508.9683587363,2010-11-20 05:20:38,2671.3488183072363,7,28,-1.0997490882873535,3.5176284313201904,27.630854398721613,27.49421990822905,110.31982882821016,100.34101898014708,-0.0001618862152099,0.0938397273421287,0,0,0
9252,322538.9836242468,2010-11-20 05:21:08,2701.3640838126707,7,28,-1.0997490882873535,3.513257503509521,27.630854398721613,27.50338913615441,110.31982882821016,100.3732529329647,-0.0001618862152099,0.0938397273421287,0,0,0
9253,322569.0008114992,2010-11-20 05:21:38,2731.3812710700945,7,28,-1.0997490882873535,3.5084011554718018,27.630854398721613,27.51255891924623,110.31982882821016,100.4054463880112,-0.0001295089750783,0.0938397273421287,0,0,0
9254,322599.0142412423,2010-11-20 05:22:08,2761.394700808172,7,28,-1.099929690361023,3.503220796585083,27.630854398721613,27.52172761245812,110.31982882821016,100.43759090009942,-0.0001618862152099,0.0938397273421287,0,0,0
9255,322629.02957118355,2010-11-20 05:22:38,2791.4100307594726,7,28,-1.0997490882873535,3.4977166652679443,27.630854398721613,27.53089687350212,110.31982882821016,100.46968865857876,-0.0001618862152099,0.0938397273421287,0,0,0
9256,322659.044905185,2010-11-20 05:23:08,2821.425364755871,7,28,-1.0997490882873535,3.491726875305176,27.630854398721613,27.540066114876705,110.31982882821016,100.50173310116234,-0.0001942634553415,0.0938397273421287,0,0,0
9257,322689.06029092555,2010-11-20 05:23:38,2851.440750491419,7,28,-1.1001102924346924,3.4847657680511475,27.630854398721613,27.549235270066845,110.31982882821016,100.53371790377356,-0.0001942634553415,0.0938397273421287,0,0,0
9258,322719.07568806456,2010-11-20 05:24:08,2881.456147630431,7,28,-1.0997490882873535,3.4766714572906494,27.630854398721613,27.558404519217365,110.31982882821016,100.56563541369005,-0.0002590179501567,0.0938397273421287,0,0,0
9259,322749.0916082291,2010-11-20 05:24:38,2911.472067845121,7,28,-1.099929690361023,3.467605829238892,27.630854398721613,27.56757389263669,110.31982882821016,100.59747564119994,-0.0002913951757363,0.0938397273421287,0,0,0
9260,322779.1062377621,2010-11-20 05:25:08,2941.4866973279454,7,28,-1.0997490882873535,3.456759452819824,27.630854398721613,27.57674288257328,110.31982882821016,100.62922265237604,-0.0003237724304199,0.0938397273421287,0,0,0
9261,322809.12158233987,2010-11-20 05:25:38,2971.502041885707,7,28,-1.099929690361023,3.443322896957397,27.630854398721613,27.585912139886197,110.31982882821016,100.6608584427942,-0.0003237724304199,0.0938397273421287,0,0,0
9262,322839.13688730384,2010-11-20 05:26:09,3001.517346874699,7,28,-1.0997490882873535,3.425677537918091,27.630854398721613,27.595081371019926,110.31982882821016,100.6923528940276,-0.0005180359003134,0.0938397273421287,0,0,0
9263,322869.1522211348,2010-11-20 05:26:39,3031.532680700672,7,28,-1.099568486213684,3.4026896953582764,27.630854398721613,27.60425067166445,110.31982882821016,100.72366327149722,-0.0006799221155233,0.0938397273421287,0,0,0
9264,322899.1676890354,2010-11-20 05:27:09,3061.5481486113417,7,28,-1.0997490882873535,3.371283769607544,27.630854398721613,27.61341985626618,110.31982882821016,100.75472602277216,-0.0009713172912597,0.0938397273421287,0,0,0
9265,322929.182894867,2010-11-20 05:27:39,3091.563354437808,7,28,-1.0997490882873535,3.327736616134644,27.630854398721613,27.622589045095104,110.31982882821016,100.78544942542888,-0.0013598442310467,0.0938397273421287,0,0,0
9266,322959.19838679256,2010-11-20 05:28:09,3121.57884635841,7,28,-1.0997490882873535,3.2668676376342773,27.630854398721613,27.631758299615136,110.31982882821016,100.81570063824404,-0.0019102096557617,0.0938397273421287,0,0,0
9267,322989.21355013293,2010-11-20 05:28:39,3151.59400970885,7,28,-1.099929690361023,3.179287433624268,27.630854398721613,27.640927424833567,110.31982882821016,100.84528103585512,-0.0027843951247632,0.0938397273421287,0,0,0
9268,323019.22888812434,2010-11-20 05:29:09,3181.609347690196,7,28,-1.0997490882873535,3.043465137481689,27.630854398721613,27.65009665714478,110.31982882821016,100.87386240131926,-0.0044680596329271,0.0938397273421287,0,0,0
9269,323042.4474596108,2010-11-20 05:29:32,3204.827919186739,7,28,-1.099929690361023,2.843050718307495,27.630854398721613,27.65718957889602,110.31982882821016,100.89482699283327,-0.0091950893402099,0.0938397273421287,0,0,0
9270,323053.19727066805,2010-11-20 05:29:43,3215.577730243955,7,28,-1.099929690361023,2.699620008468628,27.630854398721613,27.660473480789456,110.31982882821016,100.9039332430414,-0.0110729690641164,0.0938397273421287,0,0,0
9271,323113.2237896004,2010-11-20 05:30:43,60.0150324490748,8,28,0.0,3.304263114929199,27.630854398721613,27.660473480789456,110.31982882821016,100.9039332430414,0.0012627125252038,0.0938397273421287,0,0,0
9272,323113.4076778009,2010-11-20 05:30:43,0.187446159451863,9,28,-1.9243103452026844e-05,3.304263114929199,27.630854398721613,27.660473481791417,110.31982882821016,100.90393324635214,0.0,0.0923885703086853,0,0,0
9273,323118.2358753548,2010-11-20 05:30:48,5.015643693295957,9,28,0.0005225847125984,3.3120336532592773,27.630855213736123,27.660473481959883,110.31983152497902,100.90393324690882,0.0011008263099938,0.0923885703086853,0,0,0
