Data_Point,Test_Time(s),Date_Time,Step_Time(s),Step_Index,Cycle_Index,Current(A),Voltage(V),Charge_Capacity(Ah),Discharge_Capacity(Ah),Charge_Energy(Wh),Discharge_Energy(Wh),dV/dt(V/s),Internal_Resistance(Ohm),Is_FC_Data,AC_Impedance(Ohm),ACI_Phase_Angle(Deg)
11888,412112.7768126115,2010-11-21 06:14:12,30.015355775763343,1,37,0.0,3.3434395790100098,35.37302349800556,35.40083067956602,141.17433774687467,129.16965200490938,0.0007122993702068,0.0938397273421287,0,0,0
11889,412142.7942113368,2010-11-21 06:14:42,60.03275457121816,1,37,0.0,3.366589069366455,35.37302349800556,35.40083067956602,141.17433774687467,129.16965200490938,0.0005180359003134,0.0938397273421287,0,0,0
11890,412172.8075529901,2010-11-21 06:15:12,90.04609615424657,1,37,0.0,3.384396553039551,35.37302349800556,35.40083067956602,141.17433774687467,129.16965200490938,0.0004532813909463,0.0938397273421287,0,0,0
11891,412202.7760538888,2010-11-21 06:15:42,120.01459705804103,1,37,0.0,3.3984806537628174,35.37302349800556,35.40083067956602,141.17433774687467,129.16965200490938,0.0003561496851034,0.0938397273421287,0,0,0
11892,412232.77709225327,2010-11-21 06:16:12,30.01552581019545,2,37,0.550297200679779,3.56101393699646,35.37761107619882,35.40083067956602,141.19049747026358,129.16965200490938,0.0017159938579425,0.0938397273421287,0,0,0
11893,412262.7923717386,2010-11-21 06:16:42,60.0308052804886,2,37,0.5499359965324402,3.612817287445069,35.382198608493205,35.40083067956602,141.2069596389816,129.16965200490938,0.0011332035064697,0.0938397273421287,0,0,0
11894,412292.8076696199,2010-11-21 06:17:12,90.04610305647559,2,37,0.5501165986061096,3.651184320449829,35.38678616078569,35.40083067956602,141.2236260738411,129.16965200490938,0.0009065627818927,0.0938397273421287,0,0,0
11895,412322.82308690925,2010-11-21 06:17:42,120.06152046608648,2,37,0.550297200679779,3.681618690490722,35.39137362013815,35.40083067956602,141.24044836871687,129.16965200490938,0.0007122993702068,0.0938397273421287,0,0,0
11896,412352.8384537075,2010-11-21 06:18:12,150.07688712902592,2,37,0.5504778623580933,3.7067110538482666,35.39596110225118,35.40083067956602,141.25739679730012,129.16965200490938,0.0006475448608398,0.0938397273421287,0,0,0
11897,412382.85393361805,2010-11-21 06:18:42,180.0923670546865,2,37,0.550297200679779,3.727594375610352,35.40054862612752,35.40083067956602,141.2744502497305,129.16965200490938,0.0005504131549969,0.0938397273421287,0,0,0
11898,412412.8691391088,2010-11-21 06:19:12,210.107572545315,2,37,0.5501165986061096,3.7445924282073975,35.405136097035566,35.40083067956602,141.29159060079303,129.16965200490938,0.0003885269106831,0.0938397273421287,0,0,0
11899,412442.8847553547,2010-11-21 06:19:42,240.1231888614272,2,37,0.5501165986061096,3.7575430870056152,35.40972361117225,35.40083067956602,141.30880036183186,129.16965200490938,0.0002913951757363,0.0938397273421287,0,0,0
11900,412472.8998688206,2010-11-21 06:20:12,270.1383022571727,2,37,0.550297200679779,3.7654755115509033,35.414311069746354,35.40083067956602,141.32605745763044,129.16965200490938,0.0001618862152099,0.0938397273421287,0,0,0
11901,412502.8998986855,2010-11-21 06:20:42,300.138332202305,2,37,0.550297200679779,3.770655870437622,35.41889623855448,35.40083067956602,141.34333560712767,129.16965200490938,6.47544875391759e-05,0.0938397273421287,0,0,0
11902,412532.91496386594,2010-11-21 06:21:12,330.1533972824473,2,37,0.550297200679779,3.775026798248291,35.42348374469085,35.40083067956602,141.3606436787439,129.16965200490938,0.0001295089750783,0.0938397273421287,0,0,0
11903,412562.9323006265,2010-11-21 06:21:42,360.1707341483164,2,37,0.550297200679779,3.77875018119812,35.42807163643752,35.40083067956602,141.37797148352468,129.16965200490938,9.713172767078504e-05,0.0938397273421287,0,0,0
11904,412592.9458433968,2010-11-21 06:22:12,390.1842768233012,2,37,0.5501165986061096,3.7823116779327393,35.43265885328077,35.40083067956602,141.39531380145328,129.16965200490938,6.47544875391759e-05,0.0938397273421287,0,0,0
11905,412622.9611450274,2010-11-21 06:22:42,420.1995784689475,2,37,0.550297200679779,3.785711288452149,35.4372463547551,35.40083067956602,141.4126734333333,129.16965200490938,6.47544875391759e-05,0.0938397273421287,0,0,0
11906,412652.97645119927,2010-11-21 06:23:12,450.2148846408921,2,37,0.5501165986061096,3.789272785186768,35.44183393526354,35.40083067956602,141.43004897827052,129.16965200490938,0.0001295089750783,0.0938397273421287,0,0,0
11907,412682.9947948984,2010-11-21 06:23:42,480.2332284201718,2,37,0.550297200679779,3.792348623275757,35.446422019338485,35.40083067956602,141.44744152731448,129.16965200490938,6.47544875391759e-05,0.0938397273421287,0,0,0
11908,412713.00727191335,2010-11-21 06:24:12,510.245705334855,2,37,0.5501165986061096,3.795586347579956,35.45100913836818,35.40083067956602,141.46484510421283,129.16965200490938,6.47544875391759e-05,0.0938397273421287,0,0,0
11909,412743.02277876623,2010-11-21 06:24:42,540.2612122729429,2,37,0.5501165986061096,3.798662185668945,35.45559674905851,35.40083067956602,141.48226488550264,129.16965200490938,9.713172767078504e-05,0.0938397273421287,0,0,0
11910,412773.038066472,2010-11-21 06:25:12,570.2764999136306,2,37,0.5504778623580933,3.801738023757935,35.46018432979944,35.40083067956602,141.49969860836157,129.16965200490938,6.47544875391759e-05,0.0938397273421287,0,0,0
11911,412803.0534008044,2010-11-21 06:25:42,600.2918343761929,2,37,0.550297200679779,3.804813861846924,35.46477195699346,35.40083067956602,141.51714634961155,129.16965200490938,6.47544875391759e-05,0.0938397273421287,0,0,0
11912,412833.0686726555,2010-11-21 06:26:12,630.30710609213,2,37,0.5501165986061096,3.807727813720703,35.46935953792029,35.40083067956602,141.5346077076453,129.16965200490938,0.0001295089750783,0.0938397273421287,0,0,0
11913,412863.0840641154,2010-11-21 06:26:42,660.3224975519662,2,37,0.550297200679779,3.810803651809693,35.473947198483344,35.40083067956602,141.55208317446642,129.16965200490938,9.713172767078504e-05,0.0938397273421287,0,0,0
11914,412893.0994134651,2010-11-21 06:27:12,690.3378469016892,2,37,0.5501165986061096,3.8138794898986816,35.47853482764193,35.40083067956602,141.56957260369683,129.16965200490938,6.47544875391759e-05,0.0938397273421287,0,0,0
11915,412923.1149308092,2010-11-21 06:27:42,720.3533642457519,2,37,0.550297200679779,3.817117214202881,35.483122409387505,35.40083067956602,141.58707637633762,129.16965200490938,0.0001295089750783,0.0938397273421287,0,0,0
11916,412953.130187673,2010-11-21 06:28:12,750.3686211096159,2,37,0.550297200679779,3.82019305229187,35.48771005703963,35.40083067956602,141.6045950583993,129.16965200490938,6.47544875391759e-05,0.0938397273421287,0,0,0
11917,412983.1457396987,2010-11-21 06:28:42,780.3841731352492,2,37,0.5499359965324402,3.823430776596069,35.49229766798043,35.40083067956602,141.6221286109982,129.16965200490938,3.237724376958795e-05,0.0938397273421287,0,0,0
11918,413013.1609024527,2010-11-21 06:29:12,810.3993358892003,2,37,0.5499359965324402,3.8268303871154794,35.496885166813364,35.40083067956602,141.63967716942832,129.16965200490938,3.237724376958795e-05,0.0938397273421287,0,0,0
11919,413043.1763894961,2010-11-21 06:29:42,840.4148230178406,2,37,0.550297200679779,3.830553770065308,35.50147277873023,35.40083067956602,141.65724190263128,129.16965200490938,9.713172767078504e-05,0.0938397273421287,0,0,0
11920,413073.19165955787,2010-11-21 06:30:12,870.4300929944361,2,37,0.550297200679779,3.8339531421661377,35.50606033565828,35.40083067956602,141.67482233519524,129.16965200490938,6.47544875391759e-05,0.0938397273421287,0,0,0
11921,413103.2070097397,2010-11-21 06:30:42,900.4454431762362,2,37,0.550297200679779,3.837352752685547,35.51064790246612,35.40083067956602,141.69241872065098,129.16965200490938,6.47544875391759e-05,0.0938397273421287,0,0,0
11922,413133.2224512695,2010-11-21 06:31:12,930.4608847060548,2,37,0.5501165986061096,3.840752363204956,35.51523549505853,35.40083067956602,141.7100310524287,129.16965200490938,6.47544875391759e-05,0.0938397273421287,0,0,0
11923,413163.2396871583,2010-11-21 06:31:42,960.478120579832,2,37,0.5504778623580933,3.844151973724365,35.51982345273166,35.40083067956602,141.7276605107737,129.16965200490938,6.47544875391759e-05,0.0938397273421287,0,0,0
11924,413193.2532635324,2010-11-21 06:32:12,990.4916969689724,2,37,0.5501165986061096,3.8475515842437744,35.52441075817362,35.40083067956602,141.745302931809,129.16965200490938,9.713172767078504e-05,0.0938397273421287,0,0,0
11925,413223.26864028553,2010-11-21 06:32:42,1020.5070737220988,2,37,0.550297200679779,3.8507893085479736,35.52899835487548,35.40083067956602,141.76296168228757,129.16965200490938,6.47544875391759e-05,0.0938397273421287,0,0,0
11926,413253.28388466325,2010-11-21 06:33:12,1050.522318099795,2,37,0.5501165986061096,3.854188919067383,35.53358593759773,35.40083067956602,141.7806352301681,129.16965200490938,0.0001295089750783,0.0938397273421287,0,0,0
11927,413283.29938506,2010-11-21 06:33:42,1080.5378185015677,2,37,0.5501165986061096,3.857426643371582,35.538173456311654,35.40083067956602,141.7983231025919,129.16965200490938,0.0001295089750783,0.0938397273421287,0,0,0
11928,413313.3147193872,2010-11-21 06:34:13,1110.553152929042,2,37,0.5501165986061096,3.860340595245361,35.54276091949125,35.40083067956602,141.81602480426437,129.16965200490938,9.713172767078504e-05,0.0938397273421287,0,0,0
11929,413343.3300401907,2010-11-21 06:34:43,1140.5684736272465,2,37,0.550297200679779,3.86309266090393,35.54734848783582,35.40083067956602,141.83374050275734,129.16965200490938,9.713172767078504e-05,0.0938397273421287,0,0,0
11930,413373.34536595154,2010-11-21 06:35:13,1170.5837993931004,2,37,0.550297200679779,3.8658447265625,35.55193603476022,35.40083067956602,141.85146910327217,129.16965200490938,9.713172767078504e-05,0.0938397273421287,0,0,0
11931,413403.3607370455,2010-11-21 06:35:43,1200.599170482088,2,37,0.550297200679779,3.868596792221069,35.55652357389509,35.40083067956602,141.86921015730226,129.16965200490938,6.47544875391759e-05,0.0938397273421287,0,0,0
11932,413433.3760797136,2010-11-21 06:36:13,1230.6145131501326,2,37,0.550297200679779,3.8710250854492183,35.5611110615066,35.40083067956602,141.88696284058776,129.16965200490938,3.237724376958795e-05,0.0938397273421287,0,0,0
11933,413463.391458176,2010-11-21 06:36:43,1260.6298916125252,2,37,0.550297200679779,3.873615264892578,35.56569789669164,35.40083067956602,141.90472411598756,129.16965200490938,9.713172767078504e-05,0.0938397273421287,0,0,0
11934,413493.4068490042,2010-11-21 06:37:13,1290.6452824457974,2,37,0.550297200679779,3.8755578994750977,35.570284838240454,35.40083067956602,141.92249625025403,129.16965200490938,3.237724376958795e-05,0.0938397273421287,0,0,0
11935,413523.422239256,2010-11-21 06:37:43,1320.6606726926057,2,37,0.550297200679779,3.877662420272827,35.57487240032978,35.40083067956602,141.94028086649743,129.16965200490938,6.47544875391759e-05,0.0938397273421287,0,0,0
11936,413553.43777923664,2010-11-21 06:38:13,1350.6762126581352,2,37,0.550297200679779,3.8796050548553462,35.579459961998886,35.40083067956602,141.95807476448573,129.16965200490938,3.237724376958795e-05,0.0938397273421287,0,0,0
11937,413583.452958186,2010-11-21 06:38:43,1380.6913916275628,2,37,0.550297200679779,3.881547689437866,35.58404748982245,35.40083067956602,141.97587721704085,129.16965200490938,0.0,0.0938397273421287,0,0,0
11938,413613.46832590655,2010-11-21 06:39:13,1410.7067593431295,2,37,0.5501165986061096,3.883166551589966,35.58863505251894,35.40083067956602,141.993687937577,129.16965200490938,3.237724376958795e-05,0.0938397273421287,0,0,0
11939,413643.4839194058,2010-11-21 06:39:43,1440.7223528422871,2,37,0.550297200679779,3.8847854137420654,35.59322272250207,35.40083067956602,142.0115067717698,129.16965200490938,3.237724376958795e-05,0.0938397273421287,0,0,0
11940,413673.4990727061,2010-11-21 06:40:13,1470.7375061326156,2,37,0.550297200679779,3.886566162109375,35.59781028053201,35.40083067956602,142.0293324387751,129.16965200490938,6.47544875391759e-05,0.0938397273421287,0,0,0
11941,413703.5144408076,2010-11-21 06:40:43,1500.752874234146,2,37,0.550297200679779,3.8880231380462646,35.6023979007158,35.40083067956602,142.0471653714817,129.16965200490938,6.47544875391759e-05,0.0938397273421287,0,0,0
11942,413733.5298049643,2010-11-21 06:41:13,1530.7682383858169,2,37,0.550297200679779,3.889318227767944,35.60698543676304,35.40083067956602,142.0650047404866,129.16965200490938,3.237724376958795e-05,0.0938397273421287,0,0,0
11943,413763.5471558652,2010-11-21 06:41:43,1560.785589291732,2,37,0.550297200679779,3.890775203704834,35.61157333619394,35.40083067956602,142.0828520845189,129.16965200490938,3.237724376958795e-05,0.0938397273421287,0,0,0
11944,413793.56055156334,2010-11-21 06:42:13,1590.7989849998653,2,37,0.550297200679779,3.892232179641724,35.616160580225404,35.40083067956602,142.10070329783412,129.16965200490938,6.47544875391759e-05,0.0938397273421287,0,0,0
11945,413823.57591671246,2010-11-21 06:42:43,1620.8143501490258,2,37,0.5501165986061096,3.8935272693634033,35.62074819431131,35.40083067956602,142.11856229937797,129.16965200490938,3.237724376958795e-05,0.0938397273421287,0,0,0
11946,413853.591417024,2010-11-21 06:43:13,1650.8298504455352,2,37,0.550297200679779,3.894822359085083,35.62533583711487,35.40083067956602,142.13642762055923,129.16965200490938,3.237724376958795e-05,0.0938397273421287,0,0,0
11947,413883.6066750959,2010-11-21 06:43:43,1680.8451085174147,2,37,0.550297200679779,3.8961174488067623,35.629923454206704,35.40083067956602,142.15429847391158,129.16965200490938,3.237724376958795e-05,0.0938397273421287,0,0,0
11948,413913.6220285659,2010-11-21 06:44:13,1710.8604620024598,2,37,0.5501165986061096,3.8974125385284415,35.63451100133868,35.40083067956602,142.17217534345284,129.16965200490938,0.0,0.0938397273421287,0,0,0
11949,413943.63739514863,2010-11-21 06:44:43,1740.875828585199,2,37,0.550297200679779,3.898869514465332,35.639098600765216,35.40083067956602,142.19005853797714,129.16965200490938,3.237724376958795e-05,0.0938397273421287,0,0,0
11950,413973.652983936,2010-11-21 06:45:13,1770.891417377608,2,37,0.5501165986061096,3.9000027179718018,35.64368622631536,35.40083067956602,142.20794805351173,129.16965200490938,0.0,0.0938397273421287,0,0,0
11951,414003.668165923,2010-11-21 06:45:43,1800.9065993595552,2,37,0.550297200679779,3.901621580123901,35.64827376259868,35.40083067956602,142.2258433282473,129.16965200490938,3.237724376958795e-05,0.0938397273421287,0,0,0
11952,414033.6835075333,2010-11-21 06:46:13,1830.92194096996,2,37,0.550297200679779,3.902916669845581,35.65286137483192,35.40083067956602,142.243745099498,129.16965200490938,0.0,0.0938397273421287,0,0,0
11953,414063.6989038153,2010-11-21 06:46:43,1860.937337236795,2,37,0.550297200679779,3.9042117595672607,35.65744893763088,35.40083067956602,142.26165290067252,129.16965200490938,3.237724376958795e-05,0.0938397273421287,0,0,0
11954,414093.7142500422,2010-11-21 06:47:13,1890.9526834787605,2,37,0.5501165986061096,3.905506849288941,35.66203657800046,35.40083067956602,142.27956719995913,129.16965200490938,3.237724376958795e-05,0.0938397273421287,0,0,0
11955,414123.72964536666,2010-11-21 06:47:43,1920.9680788032435,2,37,0.5499359965324402,3.90680193901062,35.66662416035127,35.40083067956602,142.29748750418256,129.16965200490938,0.0,0.0938397273421287,0,0,0
11956,414153.7449938442,2010-11-21 06:48:13,1950.983427280789,2,37,0.5501165986061096,3.9082589149475098,35.67121166598073,35.40083067956602,142.31541379839962,129.16965200490938,0.0,0.0938397273421287,0,0,0
11957,414183.76055590494,2010-11-21 06:48:43,1980.9989893414715,2,37,0.550297200679779,3.9097158908844,35.675799266437856,35.40083067956602,142.33334680703626,129.16965200490938,6.47544875391759e-05,0.0938397273421287,0,0,0
11958,414213.7757782928,2010-11-21 06:49:13,2011.014211729278,2,37,0.5504778623580933,3.911172866821289,35.680386833909914,35.40083067956602,142.35128604984794,129.16965200490938,6.47544875391759e-05,0.0938397273421287,0,0,0
11959,414243.7911356123,2010-11-21 06:49:43,2041.029569053908,2,37,0.5501165986061096,3.9124679565429688,35.68497437123911,35.40083067956602,142.36923154631543,129.16965200490938,3.237724376958795e-05,0.0938397273421287,0,0,0
11960,414273.8064478344,2010-11-21 06:50:13,2071.044881270942,2,37,0.550297200679779,3.914086580276489,35.68956190205068,35.40083067956602,142.38718345738292,129.16965200490938,9.70840483205393e-05,0.0938397273421287,0,0,0
11961,414303.8218613342,2010-11-21 06:50:43,2101.060294770793,2,37,0.550297200679779,3.915381669998169,35.69414946658819,35.40083067956602,142.40514198144476,129.16965200490938,6.47544875391759e-05,0.0938397273421287,0,0,0
11962,414333.8372381475,2010-11-21 06:51:13,2131.07567158407,2,37,0.5501165986061096,3.9166767597198486,35.6987371147669,35.40083067956602,142.4231072263051,129.16965200490938,3.237724376958795e-05,0.0938397273421287,0,0,0
11963,414363.8545160561,2010-11-21 06:51:43,2161.092949477735,2,37,0.550297200679779,3.9181337356567374,35.7033249922836,35.40083067956602,142.44108001667752,129.16965200490938,3.237724376958795e-05,0.0938397273421287,0,0,0
11964,414393.86855242855,2010-11-21 06:52:13,2191.1069859703643,2,37,0.550297200679779,3.919590711593628,35.707912374780264,35.40083067956602,142.45905741310935,129.16965200490938,3.237724376958795e-05,0.0938397273421287,0,0,0
11965,414423.88334606605,2010-11-21 06:52:43,2221.121779507694,2,37,0.550297200679779,3.921209573745728,35.71249988060912,35.40083067956602,142.47704193551365,129.16965200490938,9.713172767078504e-05,0.0938397273421287,0,0,0
11966,414453.8987229195,2010-11-21 06:53:13,2251.137156356058,2,37,0.5501165986061096,3.922342777252197,35.71708740642512,35.40083067956602,142.495033185492,129.16965200490938,3.237724376958795e-05,0.0938397273421287,0,0,0
11967,414483.91410611366,2010-11-21 06:53:43,2281.152539540237,2,37,0.5501165986061096,3.923961639404297,35.72167496933187,35.40083067956602,142.51303127542548,129.16965200490938,3.237724376958795e-05,0.0938397273421287,0,0,0
11968,414513.9294632328,2010-11-21 06:54:13,2311.1678966743907,2,37,0.550297200679779,3.925580501556397,35.72626255897729,35.40083067956602,142.53103628977675,129.16965200490938,6.47544875391759e-05,0.0938397273421287,0,0,0
11969,414543.94483083807,2010-11-21 06:54:43,2341.1832642746704,2,37,0.5501165986061096,3.926875591278076,35.730850164998536,35.40083067956602,142.54904806611182,129.16965200490938,3.237724376958795e-05,0.0938397273421287,0,0,0
11970,414573.9601942829,2010-11-21 06:55:13,2371.198627719577,2,37,0.550297200679779,3.928332567214966,35.73543771826207,35.40083067956602,142.56706653465,129.16965200490938,0.0,0.0938397273421287,0,0,0
11971,414603.9787292646,2010-11-21 06:55:43,2401.217162686089,2,37,0.550297200679779,3.9299514293670654,35.740025779919684,35.40083067956602,142.5850938752173,129.16965200490938,3.237724376958795e-05,0.0938397273421287,0,0,0
11972,414633.9909880347,2010-11-21 06:56:13,2431.2294215565007,2,37,0.550297200679779,3.931570291519165,35.74461291037199,35.40083067956602,142.60312449009777,129.16965200490938,3.237724376958795e-05,0.0938397273421287,0,0,0
11973,414664.00631453743,2010-11-21 06:56:43,2461.244747973981,2,37,0.550297200679779,3.933027267456055,35.74920042741182,35.40083067956602,142.62116356500047,129.16965200490938,3.237724376958795e-05,0.0938397273421287,0,0,0
11974,414694.0216928043,2010-11-21 06:57:13,2491.2601262408857,2,37,0.550297200679779,3.934484243392944,35.75378804517517,35.40083067956602,142.6392100868975,129.16965200490938,3.237724376958795e-05,0.0938397273421287,0,0,0
11975,414724.0370768757,2010-11-21 06:57:43,2521.2755103122795,2,37,0.5501165986061096,3.936103105545044,35.75837560288769,35.40083067956602,142.6572634313246,129.16965200490938,6.47544875391759e-05,0.0938397273421287,0,0,0
11976,414754.0524205864,2010-11-21 06:58:13,2551.290854022927,2,37,0.550297200679779,3.9375600814819336,35.76296321778413,35.40083067956602,142.67532397599456,129.16965200490938,6.47544875391759e-05,0.0938397273421287,0,0,0
11977,414784.06778440217,2010-11-21 06:58:43,2581.306217838759,2,37,0.5501165986061096,3.939178943634033,35.76755080490194,35.40083067956602,142.6933916394811,129.16965200490938,6.47544875391759e-05,0.0938397273421287,0,0,0
11978,414814.0832379671,2010-11-21 06:59:13,2611.3216713885813,2,37,0.5501165986061096,3.940797805786133,35.772138368652094,35.40083067956602,142.71146646267087,129.16965200490938,6.47544875391759e-05,0.0938397273421287,0,0,0
11979,414844.0986829104,2010-11-21 06:59:43,2641.337116331921,2,37,0.550297200679779,3.9422547817230233,35.776726044682555,35.40083067956602,142.7295489921173,129.16965200490938,3.237724376958795e-05,0.0938397273421287,0,0,0
11980,414874.1139043057,2010-11-21 07:00:13,2671.35233772725,2,37,0.550297200679779,3.944035530090332,35.781313645661655,35.40083067956602,142.7476386128679,129.16965200490938,3.237724376958795e-05,0.0938397273421287,0,0,0
11981,414904.1293996749,2010-11-21 07:00:43,2701.367833111497,2,37,0.5501165986061096,3.945654392242432,35.78590125848189,35.40083067956602,142.76573565562796,129.16965200490938,6.47544875391759e-05,0.0938397273421287,0,0,0
11982,414934.1446484536,2010-11-21 07:01:13,2731.383081895192,2,37,0.5501165986061096,3.947111368179321,35.79048887391279,35.40083067956602,142.78384014992673,129.16965200490938,0.0,0.0938397273421287,0,0,0
11983,414964.1619216605,2010-11-21 07:01:43,2761.4003550821085,2,37,0.5501165986061096,3.948892116546631,35.795076758026504,35.40083067956602,142.80195322049263,129.16965200490938,3.237724376958795e-05,0.0938397273421287,0,0,0
11984,414994.1753848822,2010-11-21 07:02:13,2791.413818318804,2,37,0.5501165986061096,3.9505109786987305,35.799664093776464,35.40083067956602,142.82007166673782,129.16965200490938,0.0,0.0938397273421287,0,0,0
11985,415024.1908174096,2010-11-21 07:02:43,2821.429250846151,2,37,0.5504778623580933,3.95212984085083,35.804251731147964,35.40083067956602,142.8381989263033,129.16965200490938,3.237724376958795e-05,0.0938397273421287,0,0,0
11986,415054.20625406224,2010-11-21 07:03:13,2851.44468748877,2,37,0.5504778623580933,3.95391058921814,35.80883928814843,35.40083067956602,142.85633352420558,129.16965200490938,6.47544875391759e-05,0.0938397273421287,0,0,0
11987,415084.2215266604,2010-11-21 07:03:43,2881.4599601019468,2,37,0.5501165986061096,3.9555294513702393,35.81342687460358,35.40083067956602,142.8744759580758,129.16965200490938,3.237724376958795e-05,0.0938397273421287,0,0,0
11988,415114.2369894282,2010-11-21 07:04:13,2911.4754228497286,2,37,0.5501165986061096,3.956986427307129,35.8180144947843,35.40083067956602,142.89262629879602,129.16965200490938,0.0,0.0938397273421287,0,0,0
11989,415144.2523658856,2010-11-21 07:04:43,2941.490799312129,2,37,0.550297200679779,3.9590909481048575,35.82260207267556,35.40083067956602,142.91078424705958,129.16965200490938,9.713172767078504e-05,0.0938397273421287,0,0,0
11990,415174.2677315961,2010-11-21 07:05:13,2971.506165022691,2,37,0.550297200679779,3.960547924041748,35.82718959761466,35.40083067956602,142.92894995134165,129.16965200490938,3.237724376958795e-05,0.0938397273421287,0,0,0
11991,415204.2830099336,2010-11-21 07:05:43,3001.5214433751944,2,37,0.5501165986061096,3.9623286724090576,35.83177716973798,35.40083067956602,142.94712388730682,129.16965200490938,3.237724376958795e-05,0.0938397273421287,0,0,0
11992,415234.2984683406,2010-11-21 07:06:14,3031.5369017821404,2,37,0.550297200679779,3.964271306991577,35.83636490055643,35.40083067956602,142.96530656711627,129.16965200490938,6.47544875391759e-05,0.0938397273421287,0,0,0
11993,415264.31373804144,2010-11-21 07:06:44,3061.5521714629976,2,37,0.5501165986061096,3.966052055358887,35.84095253981775,35.40083067956602,142.98349713189413,129.16965200490938,3.237724376958795e-05,0.0938397273421287,0,0,0
11994,415294.329086514,2010-11-21 07:07:14,3091.567519935531,2,37,0.550297200679779,3.967832803726196,35.845540207190595,35.40083067956602,143.00169607859883,129.16965200490938,6.47544875391759e-05,0.0938397273421287,0,0,0
11995,415324.3444799839,2010-11-21 07:07:44,3121.5829134204223,2,37,0.550297200679779,3.969613552093506,35.85012785132096,35.40083067956602,143.01990327729533,129.16965200490938,3.237724376958795e-05,0.0938397273421287,0,0,0
11996,415354.3598256795,2010-11-21 07:08:14,3151.598259116024,2,37,0.5501165986061096,3.971394300460816,35.85471547160445,35.40083067956602,143.03811877718078,129.16965200490938,3.237724376958795e-05,0.0938397273421287,0,0,0
11997,415384.37519956543,2010-11-21 07:08:44,3181.613633001993,2,37,0.550297200679779,3.973498821258545,35.85930316180339,35.40083067956602,143.05634307684625,129.16965200490938,6.47544875391759e-05,0.0938397273421287,0,0,0
11998,415414.3905624239,2010-11-21 07:09:14,3211.6289958604366,2,37,0.550297200679779,3.9752795696258554,35.863890793877616,35.40083067956602,143.07457572608524,129.16965200490938,6.47544875391759e-05,0.0938397273421287,0,0,0
11999,415444.4060263245,2010-11-21 07:09:44,3241.6444597460586,2,37,0.550297200679779,3.977222204208374,35.86847847403557,35.40083067956602,143.09281725512034,129.16965200490938,9.713172767078504e-05,0.0938397273421287,0,0,0
12000,415474.42130292766,2010-11-21 07:10:14,3271.659736364232,2,37,0.5501165986061096,3.9791648387908936,35.873066084861506,35.40083067956602,143.11106682181892,129.16965200490938,6.47544875391759e-05,0.0938397273421287,0,0,0
12001,415504.4367049739,2010-11-21 07:10:44,3301.6751384104937,2,37,0.5501165986061096,3.980945587158203,35.877653623050776,35.40083067956602,143.12932542413998,129.16965200490938,3.237724376958795e-05,0.0938397273421287,0,0,0
12002,415534.4520478324,2010-11-21 07:11:14,3331.6904812690136,2,37,0.550297200679779,3.982888221740722,35.88224112754754,35.40083067956602,143.14759290510415,129.16965200490938,0.0,0.0938397273421287,0,0,0
12003,415564.4695441463,2010-11-21 07:11:44,3361.7079775828897,2,37,0.550297200679779,3.984992742538452,35.88682899223663,35.40083067956602,143.16587086789718,129.16965200490938,6.47544875391759e-05,0.0938397273421287,0,0,0
12004,415594.4828161908,2010-11-21 07:12:14,3391.721249627339,2,37,0.5504778623580933,3.987259149551392,35.89141624840908,35.40083067956602,143.1841557242639,129.16965200490938,9.713172767078504e-05,0.0938397273421287,0,0,0
12005,415624.4981602173,2010-11-21 07:12:44,3421.7365936537744,2,37,0.550297200679779,3.988878011703491,35.89600383267322,35.40083067956602,143.20245121649896,129.16965200490938,0.0,0.0938397273421287,0,0,0
12006,415654.5136002333,2010-11-21 07:13:14,3451.752033659789,2,37,0.550297200679779,3.991144418716431,35.900591389820924,35.40083067956602,143.22075608196377,129.16965200490938,6.47544875391759e-05,0.0938397273421287,0,0,0
12007,415684.5289248211,2010-11-21 07:13:44,3481.767358257728,2,37,0.550297200679779,3.99324893951416,35.9051788404736,35.40083067956602,143.23907010554348,129.16965200490938,6.47544875391759e-05,0.0938397273421287,0,0,0
12008,415714.5442699704,2010-11-21 07:14:14,3511.782703411978,2,37,0.5501165986061096,3.995353221893311,35.909766360833295,35.40083067956602,143.2573939831028,129.16965200490938,3.237724376958795e-05,0.0938397273421287,0,0,0
12009,415744.5596782472,2010-11-21 07:14:44,3541.7981117188674,2,37,0.550297200679779,3.99761962890625,35.91435394875899,35.40083067956602,143.2757278737139,129.16965200490938,9.713172767078504e-05,0.0938397273421287,0,0,0
12010,415774.5750077624,2010-11-21 07:15:14,3571.813441198993,2,37,0.550297200679779,3.9995622634887695,35.91894154107549,35.40083067956602,143.2940715081408,129.16965200490938,3.237724376958795e-05,0.0938397273421287,0,0,0
12011,415804.590403939,2010-11-21 07:15:44,3601.828837375603,2,37,0.550297200679779,4.001828670501709,35.92352904082843,35.40083067956602,143.31242469926,129.16965200490938,6.47544875391759e-05,0.0938397273421287,0,0,0
12012,415834.6057599254,2010-11-21 07:16:14,3631.844193361892,2,37,0.550297200679779,4.004095077514648,35.92811655922233,35.40083067956602,143.33078803484486,129.16965200490938,9.70840483205393e-05,0.0938397273421287,0,0,0
12013,415864.621319976,2010-11-21 07:16:44,3661.859753402531,2,37,0.5501165986061096,4.006037712097168,35.932704168181616,35.40083067956602,143.34916187086134,129.16965200490938,0.0,0.0938397273421287,0,0,0
12014,415894.6367194107,2010-11-21 07:17:14,3691.8751528322623,2,37,0.550297200679779,4.0084662437438965,35.93729171929102,35.40083067956602,143.36754578884785,129.16965200490938,6.47544875391759e-05,0.0938397273421287,0,0,0
12015,415924.65202038974,2010-11-21 07:17:44,3721.890453811244,2,37,0.550297200679779,4.010732650756836,35.94187927936054,35.40083067956602,143.38594007654416,129.16965200490938,6.47544875391759e-05,0.0938397273421287,0,0,0
12016,415954.6673257296,2010-11-21 07:18:14,3751.905759156124,2,37,0.5501165986061096,4.012999057769775,35.94646684716694,35.40083067956602,143.4043449161931,129.16965200490938,3.24249267578125e-05,0.0938397273421287,0,0,0
12017,415984.6825999818,2010-11-21 07:18:44,3781.921033423429,2,37,0.550297200679779,4.015265464782715,35.951054343771986,35.40083067956602,143.42275995989527,129.16965200490938,6.47544875391759e-05,0.0938397273421287,0,0,0
12018,416014.698052815,2010-11-21 07:19:14,3811.9364862514512,2,37,0.5501165986061096,4.017693519592285,35.95564196470793,35.40083067956602,143.4411861156598,129.16965200490938,6.47544875391759e-05,0.0938397273421287,0,0,0
12019,416044.7135015126,2010-11-21 07:19:44,3841.9519349491616,2,37,0.550297200679779,4.019959926605225,35.96022951287568,35.40083067956602,143.45962267163992,129.16965200490938,6.47544875391759e-05,0.0938397273421287,0,0,0
12020,416074.72878861695,2010-11-21 07:20:14,3871.9672220384737,2,37,0.550297200679779,4.022388458251953,35.96481703265191,35.40083067956602,143.47807005735214,129.16965200490938,6.47544875391759e-05,0.0938397273421287,0,0,0
12021,416104.7442273598,2010-11-21 07:20:44,3901.982660781335,2,37,0.5501165986061096,4.024654865264893,35.96940460462589,35.40083067956602,143.4965285867866,129.16965200490938,3.24249267578125e-05,0.0938397273421287,0,0,0
12022,416134.76006764494,2010-11-21 07:21:14,3931.9985011166336,2,37,0.550297200679779,4.027245044708252,35.973992183040856,35.40083067956602,143.5149981854849,129.16965200490938,9.71794142969884e-05,0.0938397273421287,0,0,0
12023,416164.7767452652,2010-11-21 07:21:44,3962.015178686799,2,37,0.5501165986061096,4.029673099517822,35.97857995052524,35.40083067956602,143.5334797825209,129.16965200490938,6.47544875391759e-05,0.0938397273421287,0,0,0
12024,416194.7902836094,2010-11-21 07:22:14,3992.0287170460106,2,37,0.550297200679779,4.032101631164551,35.98316720573936,35.40083067956602,143.55197045338562,129.16965200490938,9.71794142969884e-05,0.0938397273421287,0,0,0
12025,416224.8055890145,2010-11-21 07:22:44,4022.0440224510417,2,37,0.5501165986061096,4.034691333770752,35.98775478974975,35.40083067956602,143.57047385941408,129.16965200490938,6.47544875391759e-05,0.0938397273421287,0,0,0
12026,416254.8210108552,2010-11-21 07:23:14,4052.0594442917127,2,37,0.550297200679779,4.0371198654174805,35.992342328575354,35.40083067956602,143.5889885059572,129.16965200490938,6.47544875391759e-05,0.0938397273421287,0,0,0
12027,416284.836397939,2010-11-21 07:23:44,4082.0748313756258,2,37,0.550297200679779,4.03971004486084,35.996929910030914,35.40083067956602,143.60751492843173,129.16965200490938,6.47544875391759e-05,0.0938397273421287,0,0,0
12028,416314.851961684,2010-11-21 07:24:14,4112.090395225775,2,37,0.550297200679779,4.042300224304199,36.001517501618224,35.40083067956602,143.62605295771556,129.16965200490938,9.71794142969884e-05,0.0938397273421287,0,0,0
12029,416344.8670448843,2010-11-21 07:24:44,4142.105478320886,2,37,0.550297200679779,4.044890403747559,36.00610499617088,35.40083067956602,143.64460240148983,129.16965200490938,9.71794142969884e-05,0.0938397273421287,0,0,0
12030,416374.8824168505,2010-11-21 07:25:14,4172.120850287062,2,37,0.5501165986061096,4.047318458557129,36.01069254911074,35.40083067956602,143.6631639531724,129.16965200490938,6.47544875391759e-05,0.0938397273421287,0,0,0
12031,416404.89781397954,2010-11-21 07:25:44,4202.136247421063,2,37,0.5499359965324402,4.049908638000488,36.01528010555199,35.40083067956602,143.6817374508107,129.16965200490938,6.47544875391759e-05,0.0938397273421287,0,0,0
12032,416434.9131872138,2010-11-21 07:26:14,4232.151620655405,2,37,0.550297200679779,4.052498817443848,36.01986768844411,35.40083067956602,143.70032302037646,129.16965200490938,3.23295607813634e-05,0.0938397273421287,0,0,0
12033,416464.9285213004,2010-11-21 07:26:44,4262.16695474203,2,37,0.5499359965324402,4.055088996887207,36.02445523246005,35.40083067956602,143.718920566306,129.16965200490938,3.23295607813634e-05,0.0938397273421287,0,0,0
12034,416494.9439668053,2010-11-21 07:27:14,4292.182400241758,2,37,0.550297200679779,4.058002948760986,36.02904276596103,35.40083067956602,143.73753033345182,129.16965200490938,6.47544875391759e-05,0.0938397273421287,0,0,0
12035,416524.962195016,2010-11-21 07:27:44,4322.200628537773,2,37,0.550297200679779,4.060593128204346,36.033630809945535,35.40083067956602,143.7561546573414,129.16965200490938,6.47544875391759e-05,0.0938397273421287,0,0,0
12036,416554.9746466526,2010-11-21 07:28:14,4352.2130800891455,2,37,0.5501165986061096,4.063345432281494,36.03821793969836,35.40083067956602,143.77478730717397,129.16965200490938,6.47544875391759e-05,0.0938397273421287,0,0,0
12037,416584.9895937482,2010-11-21 07:28:44,4382.22802718478,2,37,0.5501165986061096,4.066097259521484,36.04280309856568,35.40083067956602,143.79342462838585,129.16965200490938,6.47544875391759e-05,0.0938397273421287,0,0,0
12038,416614.9897822842,2010-11-21 07:29:14,4412.228215725792,2,37,0.550297200679779,4.068849563598633,36.04739062053664,35.40083067956602,143.81208415932406,129.16965200490938,9.71794142969884e-05,0.0938397273421287,0,0,0
12039,416645.0053287058,2010-11-21 07:29:44,4442.243762127388,2,37,0.550297200679779,4.071601390838623,36.051978204861705,35.40083067956602,143.83075674995524,129.16965200490938,9.70840483205393e-05,0.0938397273421287,0,0,0
12040,416675.0206462011,2010-11-21 07:30:14,4472.259079622597,2,37,0.5501165986061096,4.074353694915772,36.05656570973514,35.40083067956602,143.84944188814384,129.16965200490938,6.47544875391759e-05,0.0938397273421287,0,0,0
12041,416705.03592598205,2010-11-21 07:30:44,4502.274359453791,2,37,0.5501165986061096,4.077267646789551,36.06115323305276,35.40083067956602,143.86814016966426,129.16965200490938,6.47544875391759e-05,0.0938397273421287,0,0,0
12042,416735.0512315676,2010-11-21 07:31:14,4532.289665004184,2,37,0.550297200679779,4.080343246459961,36.065740796516735,35.40083067956602,143.8868517937452,129.16965200490938,6.47544875391759e-05,0.0938397273421287,0,0,0
12043,416765.0666148219,2010-11-21 07:31:44,4562.305048258538,2,37,0.5501165986061096,4.08293342590332,36.070328301409965,35.40083067956602,143.90557648225655,129.16965200490938,3.23295607813634e-05,0.0938397273421287,0,0,0
12044,416795.08390531206,2010-11-21 07:32:14,4592.322338733608,2,37,0.5501165986061096,4.08617115020752,36.074916083796666,35.40083067956602,143.9243157812489,129.16965200490938,9.70840483205393e-05,0.0938397273421287,0,0,0
12045,416825.09734826814,2010-11-21 07:32:44,4622.335781704716,2,37,0.5501165986061096,4.089085102081299,36.07950332619752,35.40083067956602,143.9430664886711,129.16965200490938,9.70840483205393e-05,0.0938397273421287,0,0,0
12046,416855.1129066847,2010-11-21 07:33:14,4652.3513401062655,2,37,0.5504778623580933,4.091999053955078,36.08409091728232,35.40083067956602,143.96183226013423,129.16965200490938,9.70840483205393e-05,0.0938397273421287,0,0,0
12047,416885.1280829024,2010-11-21 07:33:44,4682.366516343874,2,37,0.550297200679779,4.095075130462647,36.08867845099128,35.40083067956602,143.98061150722413,129.16965200490938,3.24249267578125e-05,0.0938397273421287,0,0,0
12048,416915.1434805025,2010-11-21 07:34:14,4712.3819139440375,2,37,0.550297200679779,4.098150730133057,36.09326605801473,35.40083067956602,143.99940491506572,129.16965200490938,9.70840483205393e-05,0.0938397273421287,0,0,0
12049,416945.158824133,2010-11-21 07:34:44,4742.397257569472,2,37,0.5501165986061096,4.101226806640625,36.09785361465292,35.40083067956602,144.01821204874832,129.16965200490938,6.47544875391759e-05,0.0938397273421287,0,0,0
12050,416975.17419531214,2010-11-21 07:35:14,4772.412628748684,2,37,0.550297200679779,4.104302406311035,36.10244122127839,35.40083067956602,144.03703346580158,129.16965200490938,9.70840483205393e-05,0.0938397273421287,0,0,0
12051,417005.1895783359,2010-11-21 07:35:44,4802.428011772463,2,37,0.550297200679779,4.107216358184815,36.10702878198713,35.40083067956602,144.05586899775707,129.16965200490938,3.23295607813634e-05,0.0938397273421287,0,0,0
12052,417035.2050031489,2010-11-21 07:36:14,4832.443436585554,2,37,0.5504778623580933,4.110616207122803,36.11161634572112,35.40083067956602,144.0747189228085,129.16965200490938,9.71794142969884e-05,0.0938397273421287,0,0,0
12053,417065.22037119535,2010-11-21 07:36:44,4862.458804616909,2,37,0.550297200679779,4.113530158996582,36.11620392178746,35.40083067956602,144.09358336101977,129.16965200490938,6.47544875391759e-05,0.0938397273421287,0,0,0
12054,417095.23580876034,2010-11-21 07:37:14,4892.474242181831,2,37,0.550297200679779,4.116767406463623,36.12079149356748,35.40083067956602,144.11246232460434,129.16965200490938,6.47544875391759e-05,0.0938397273421287,0,0,0
12055,417125.251049554,2010-11-21 07:37:44,4922.489482990619,2,37,0.5501165986061096,4.120005130767822,36.125378998435934,35.40083067956602,144.13135571569873,129.16965200490938,6.47544875391759e-05,0.0938397273421287,0,0,0
12056,417155.26648482826,2010-11-21 07:38:14,4952.504918299911,2,37,0.550297200679779,4.1234049797058105,36.12996662348474,35.40083067956602,144.15026438484838,129.16965200490938,0.0001295089750783,0.0938397273421287,0,0,0
12057,417185.2817862082,2010-11-21 07:38:45,4982.520219644805,2,37,0.5501165986061096,4.126480579376221,36.13455418221189,35.40083067956602,144.1691876477346,129.16965200490938,6.47544875391759e-05,0.0938397273421287,0,0,0
12058,417215.2971602697,2010-11-21 07:39:15,5012.535593706213,2,37,0.5501165986061096,4.129880428314209,36.13914174912527,35.40083067956602,144.1881258725338,129.16965200490938,9.71794142969884e-05,0.0938397273421287,0,0,0
12059,417245.3126477242,2010-11-21 07:39:45,5042.551081150642,2,37,0.5501165986061096,4.133118152618408,36.14372936502508,35.40083067956602,144.207079428487,129.16965200490938,9.71794142969884e-05,0.0938397273421287,0,0,0
12060,417275.3279812543,2010-11-21 07:40:15,5072.566414690901,2,37,0.5501165986061096,4.136355876922607,36.14831698607357,35.40083067956602,144.22604822656052,129.16965200490938,9.71794142969884e-05,0.0938397273421287,0,0,0
12061,417305.34327111056,2010-11-21 07:40:45,5102.581704547119,2,37,0.550297200679779,4.139917373657227,36.15290458038091,35.40083067956602,144.2450322739439,129.16965200490938,0.0001295089750783,0.0938397273421287,0,0,0
12062,417335.3586321645,2010-11-21 07:41:15,5132.597065606071,2,37,0.550297200679779,4.143316745758057,36.15749222089378,35.40083067956602,144.2640319818375,129.16965200490938,9.70840483205393e-05,0.0938397273421287,0,0,0
12063,417365.3741133784,2010-11-21 07:41:45,5162.612546814934,2,37,0.550297200679779,4.146554470062256,36.16207974745834,35.40083067956602,144.28304694771126,129.16965200490938,6.47544875391759e-05,0.0938397273421287,0,0,0
12064,417395.3912385858,2010-11-21 07:42:15,5192.629672007434,2,37,0.550297200679779,4.150115966796875,36.16666749945197,35.40083067956602,144.30207872973105,129.16965200490938,9.70840483205393e-05,0.0938397273421287,0,0,0
12065,417425.4048379274,2010-11-21 07:42:45,5222.643271348867,2,37,0.550297200679779,4.153515815734863,36.17125472357715,35.40083067956602,144.32112423590263,129.16965200490938,6.47544875391759e-05,0.0938397273421287,0,0,0
12066,417455.4201192924,2010-11-21 07:43:15,5252.658552728927,2,37,0.550297200679779,4.157077312469482,36.1758422393792,35.40083067956602,144.3401868567547,129.16965200490938,9.71794142969884e-05,0.0938397273421287,0,0,0
12067,417485.4355707119,2010-11-21 07:43:45,5282.674004133395,2,37,0.550297200679779,4.1604766845703125,36.18042975624776,35.40083067956602,144.359265483399,129.16965200490938,9.70840483205393e-05,0.0938397273421287,0,0,0
12068,417515.4510942815,2010-11-21 07:44:15,5312.689527718035,2,37,0.550297200679779,4.164200305938721,36.18501735374692,35.40083067956602,144.3783605326408,129.16965200490938,9.71794142969884e-05,0.0938397273421287,0,0,0
12069,417545.4662363888,2010-11-21 07:44:45,5342.704669810411,2,37,0.550297200679779,4.167599678039551,36.1896048450495,35.40083067956602,144.3974712273276,129.16965200490938,0.0001295089750783,0.0938397273421287,0,0,0
12070,417575.4816056584,2010-11-21 07:45:15,5372.720039094894,2,37,0.5501165986061096,4.17116117477417,36.19419245707528,35.40083067956602,144.41659877241474,129.16965200490938,6.47544875391759e-05,0.0938397273421287,0,0,0
12071,417605.4969802761,2010-11-21 07:45:45,5402.73541371269,2,37,0.550297200679779,4.174561023712158,36.19878000115331,35.40083067956602,144.43574237965137,129.16965200490938,3.24249267578125e-05,0.0938397273421287,0,0,0
12072,417635.5124940964,2010-11-21 07:46:15,5432.75092751792,2,37,0.5501165986061096,4.178122520446777,36.203367517426784,35.40083067956602,144.45490218731382,129.16965200490938,6.47544875391759e-05,0.0938397273421287,0,0,0
12073,417665.5276966998,2010-11-21 07:46:45,5462.766130136379,2,37,0.550297200679779,4.182007789611816,36.20795504706628,35.40083067956602,144.47407850427962,129.16965200490938,9.71794142969884e-05,0.0938397273421287,0,0,0
12074,417695.5433940833,2010-11-21 07:47:15,5492.781827529872,2,37,0.550297200679779,4.185569286346436,36.212542695744446,35.40083067956602,144.49327201701087,129.16965200490938,9.71794142969884e-05,0.0938397273421287,0,0,0
12075,417725.55851517327,2010-11-21 07:47:45,5522.796948609799,2,37,0.5501165986061096,4.189130783081055,36.217130167281695,35.40083067956602,144.51248160939713,129.16965200490938,6.47544875391759e-05,0.0938397273421287,0,0,0
12076,417755.5738869189,2010-11-21 07:48:15,5552.812320355426,2,37,0.550297200679779,4.193016052246094,36.22171771313818,35.40083067956602,144.53170853320066,129.16965200490938,9.71794142969884e-05,0.0938397273421287,0,0,0
12077,417785.5892434165,2010-11-21 07:48:45,5582.827676852991,2,37,0.5501165986061096,4.196577072143555,36.22630521627431,35.40083067956602,144.55095239101212,129.16965200490938,6.47544875391759e-05,0.0938397273421287,0,0,0
12078,417811.5264941647,2010-11-21 07:49:11,5608.764927601204,2,37,0.550297200679779,4.200138568878174,36.23026942629649,35.40083067956602,144.56759544367705,129.16965200490938,0.0001618385285837,0.0938397273421287,0,0,0
12079,417841.5417510845,2010-11-21 07:49:41,30.013454755524368,3,37,0.0,4.117577075958252,36.23026942629649,35.40083067956602,144.56759544367705,129.16965200490938,-0.0003237724304199,0.0938397273421287,0,0,0
12080,417871.5571058077,2010-11-21 07:50:11,60.02880949369773,3,37,0.0,4.107540130615234,36.23026942629649,35.40083067956602,144.56759544367705,129.16965200490938,-0.0001942634553415,0.0938397273421287,0,0,0
12081,417901.5724782701,2010-11-21 07:50:41,90.04418195611353,3,37,0.0,4.101874351501465,36.23026942629649,35.40083067956602,144.56759544367705,129.16965200490938,-6.47544875391759e-05,0.0938397273421287,0,0,0
12082,417931.54107695294,2010-11-21 07:51:11,120.01278066404215,3,37,0.0,4.097989082336426,36.23026942629649,35.40083067956602,144.56759544367705,129.16965200490938,-9.70840483205393e-05,0.0938397273421287,0,0,0
12083,417931.54379555694,2010-11-21 07:51:11,2.586456193e-06,4,37,0.9823145866394044,4.199814796447754,36.23026942700224,35.40083067956602,144.5675954466411,129.16965200490938,0.0,0.0938397273421287,0,0,0
12084,417932.5437730797,2010-11-21 07:51:12,0.999980134258206,4,37,0.9313827753067015,4.199653148651123,36.23053372684508,35.40083067956602,144.56870543344215,129.16965200490938,-3.23295607813634e-05,0.0938397273421287,0,0,0
12085,417934.7155760089,2010-11-21 07:51:14,3.171783063493104,4,37,0.8809928297996521,4.199653148651123,36.23107923551555,35.40083067956602,144.57099640850234,129.16965200490938,-3.23295607813634e-05,0.0938397273421287,0,0,0
12086,417938.0122643753,2010-11-21 07:51:18,6.468471429838327,4,37,0.8307834267616272,4.199653148651123,36.231861623755485,35.40083067956602,144.57428219001864,129.16965200490938,3.24249267578125e-05,0.0938397273421287,0,0,0
12087,417942.49689966993,2010-11-21 07:51:22,10.953106844777928,4,37,0.7807546854019165,4.199653148651123,36.23286393355848,35.40083067956602,144.57849160554022,129.16965200490938,-3.23295607813634e-05,0.0938397273421287,0,0,0
12088,417948.4184235596,2010-11-21 07:51:28,16.87463061912235,4,37,0.7305452823638916,4.199491024017334,36.234105269820894,35.40083067956602,144.5837048694492,129.16965200490938,-3.24249267578125e-05,0.0938397273421287,0,0,0
12089,417956.15288211807,2010-11-21 07:51:36,24.60908918762604,4,37,0.6805165410041809,4.199653148651123,36.23561892381039,35.40083067956602,144.5900618012673,129.16965200490938,-3.23295607813634e-05,0.0938397273421287,0,0,0
12090,417966.5903834172,2010-11-21 07:51:46,35.04659047160026,4,37,0.6304877400398254,4.199814796447754,36.2375159512131,35.40083067956602,144.5980288065874,129.16965200490938,3.23295607813634e-05,0.0938397273421287,0,0,0
12091,417981.30878451554,2010-11-21 07:52:01,49.76499157011156,4,37,0.5804589986801147,4.199653148651123,36.23998528096556,35.40083067956602,144.60839933945456,129.16965200490938,-3.23295607813634e-05,0.0938397273421287,0,0,0
12092,418004.3086773365,2010-11-21 07:52:24,72.76488452637545,4,37,0.5302495956420898,4.199653148651123,36.24352113610971,35.40083067956602,144.62324898385907,129.16965200490938,0.0,0.0938397273421287,0,0,0
12093,418044.3082301341,2010-11-21 07:53:04,112.76443720363524,4,37,0.4802208244800567,4.199491024017334,36.24910907895417,35.40083067956602,144.64671683536565,129.16965200490938,-6.47544875391759e-05,0.0938397273421287,0,0,0
12094,418114.4327779237,2010-11-21 07:54:14,182.8889849782727,4,37,0.4301920533180237,4.199653148651123,36.25794027327469,35.40083067956602,144.68380548881035,129.16965200490938,0.0,0.0938397273421287,0,0,0
12095,418214.6507642206,2010-11-21 07:55:54,283.10697129025914,4,37,0.3801632821559906,4.199491024017334,36.26919513152648,35.40083067956602,144.73107290791464,129.16965200490938,-3.24249267578125e-05,0.0938397273421287,0,0,0
12096,418337.4934339181,2010-11-21 07:57:57,405.9496409927088,4,37,0.3301345109939575,4.199653148651123,36.2812971831212,35.40083067956602,144.7818982658966,129.16965200490938,0.0,0.0938397273421287,0,0,0
12097,418483.960790263,2010-11-21 08:00:23,552.4169973175349,4,37,0.2801057398319244,4.199814796447754,36.29369074451704,35.40083067956602,144.8339479686402,129.16965200490938,0.0,0.0938397273421287,0,0,0
12098,418658.9437180312,2010-11-21 08:03:18,727.3999250907073,4,37,0.2300769686698913,4.199653148651123,36.30606465745444,35.40083067956602,144.88591520135847,129.16965200490938,-3.23295607813634e-05,0.0938397273421287,0,0,0
12099,418879.4594861188,2010-11-21 08:06:59,947.9156931733444,4,37,0.1798675954341888,4.199653148651123,36.31858198655196,35.40083067956602,144.9384847660418,129.16965200490938,0.0,0.0938397273421287,0,0,0
12100,419181.2360853728,2010-11-21 08:12:01,1249.6922924422888,4,37,0.1298388242721557,4.199814796447754,36.33147397020453,35.40083067956602,144.9926277199233,129.16965200490938,3.23295607813634e-05,0.0938397273421287,0,0,0
12101,419657.747749185,2010-11-21 08:19:57,1726.2039562446262,4,37,0.0798100605607032,4.199653148651123,36.345100180955406,35.40083067956602,145.04985424915978,129.16965200490938,0.0,0.0938397273421287,0,0,0
12102,420170.3370483407,2010-11-21 08:28:30,2238.7932553951982,4,37,0.0498289167881011,4.199653148651123,36.35417615249219,35.40083067956602,145.08797074919244,129.16965200490938,-3.23295607813634e-05,0.0938397273421287,0,0,0
12103,420200.3431033153,2010-11-21 08:29:00,30.01546897332187,5,37,0.0,4.192206382751465,36.35417615249219,35.40083067956602,145.08797074919244,129.16965200490938,-6.47544875391759e-05,0.0938397273421287,0,0,0
12104,420230.34271987353,2010-11-21 08:29:30,60.015085526564384,5,37,0.0,4.191073417663574,36.35417615249219,35.40083067956602,145.08797074919244,129.16965200490938,0.0,0.0938397273421287,0,0,0
12105,420230.5369007394,2010-11-21 08:29:30,0.187471021511388,6,37,-1.9243103452026844e-05,4.191073417663574,36.35417615249219,35.40083068056811,145.08797074919244,129.1696520091092,0.0,0.0946486890316009,0,0,0
12106,420235.3648722592,2010-11-21 08:29:35,5.015442521139305,6,37,0.0008838032954372,4.191073417663574,36.35417716327864,35.40083068065122,145.0879749855036,129.16965200945748,-3.23295607813634e-05,0.0946486890316009,0,0,0
12107,420265.36953284894,2010-11-21 08:30:05,30.01354007349114,7,37,-1.1001102924346924,4.021255016326904,36.35417716327864,35.409999195412524,145.0879749855036,129.2067093808167,-0.000809478748124,0.0946486890316009,0,0,0
12108,420295.38496432366,2010-11-21 08:30:35,60.02897153317319,7,37,-1.0997490882873535,3.9960007667541504,36.35417716327864,35.41916822998722,145.0879749855036,129.24345621729637,-0.0005827903514727,0.0946486890316009,0,0,0
12109,420325.4002723703,2010-11-21 08:31:05,90.04427959483479,7,37,-1.0997490882873535,3.9788410663604736,36.35417716327864,35.428337285345094,145.0879749855036,129.2800132187275,-0.0004209041653666,0.0946486890316009,0,0,0
12110,420355.4156569831,2010-11-21 08:31:35,120.05966420757969,7,37,-1.0997490882873535,3.965080738067627,36.35417716327864,35.43750620948175,145.0879749855036,129.31643039234848,-0.0003885269106831,0.0946486890316009,0,0,0
12111,420385.43101894925,2010-11-21 08:32:05,150.07502615875782,7,37,-1.0997490882873535,3.9537487030029297,36.35417716327864,35.44667512121437,145.0879749855036,129.3527331727264,-0.0002590179501567,0.0946486890316009,0,0,0
12112,420415.44650435867,2010-11-21 08:32:35,180.09051156810654,7,37,-1.099568486213684,3.943226099014282,36.35417716327864,35.45584407540241,145.0879749855036,129.38893500521266,-0.0002590179501567,0.0946486890316009,0,0,0
12113,420445.4618273526,2010-11-21 08:33:05,210.10583458209143,7,37,-1.099568486213684,3.9333510398864746,36.35417716327864,35.46501297122734,145.0879749855036,129.4250433470431,-0.0002266406954731,0.0946486890316009,0,0,0
12114,420475.477121269,2010-11-21 08:33:35,240.12112847839416,7,37,-1.099568486213684,3.923961639404297,36.35417716327864,35.474181825683864,145.0879749855036,129.46106354592345,-0.0002590179501567,0.0946486890316009,0,0,0
12115,420505.4926062272,2010-11-21 08:34:05,270.1366134717044,7,37,-1.0997490882873535,3.914896011352539,36.35417716327864,35.48335064170969,145.0879749855036,129.49699955027813,-0.0002266406954731,0.0946486890316009,0,0,0
12116,420535.5078376575,2010-11-21 08:34:35,300.1518448820325,7,37,-1.0997490882873535,3.90583062171936,36.35417716327864,35.49251936993297,145.0879749855036,129.53285267995324,-0.0002590179501567,0.0946486890316009,0,0,0
12117,420565.52356253465,2010-11-21 08:35:05,330.1675698643923,7,37,-1.099568486213684,3.8974125385284415,36.35417716327864,35.50168823724036,145.0879749855036,129.56862672688658,-0.0002590179501567,0.0946486890316009,0,0,0
12118,420595.5386295045,2010-11-21 08:35:35,360.1826367139513,7,37,-1.0997490882873535,3.8891563415527344,36.35417716327864,35.510857002821304,145.0879749855036,129.60432320099113,-0.0001942634553415,0.0946486890316009,0,0,0
12119,420625.554020834,2010-11-21 08:36:05,390.19802804346233,7,37,-1.0997490882873535,3.880738258361816,36.35417716327864,35.520025952638704,145.0879749855036,129.6399438697785,-0.0001942634553415,0.0946486890316009,0,0,0
12120,420655.5695711704,2010-11-21 08:36:35,420.213578379879,7,37,-1.0997490882873535,3.8726439476013184,36.35417716327864,35.52919489064743,145.0879749855036,129.67548899810862,-0.0002266406954731,0.0946486890316009,0,0,0
12121,420685.5847590771,2010-11-21 08:37:05,450.2287662866154,7,37,-1.099929690361023,3.86454963684082,36.35417716327864,35.538363751171325,145.0879749855036,129.7109590372054,-0.0001942634553415,0.0946486890316009,0,0,0
12122,420715.6001599255,2010-11-21 08:37:35,480.2441671398992,7,37,-1.0997490882873535,3.856617212295532,36.35417716327864,35.547532733446545,145.0879749855036,129.74635652924226,-0.0002266406954731,0.0946486890316009,0,0,0
12123,420745.6156454952,2010-11-21 08:38:06,510.2596527046358,7,37,-1.099568486213684,3.848846673965454,36.35417716327864,35.556701720901415,145.0879749855036,129.78168174165793,-0.0001942634553415,0.0946486890316009,0,0,0
12124,420775.63080104615,2010-11-21 08:38:36,540.2748082556072,7,37,-1.0997490882873535,3.841076135635376,36.35417716327864,35.56587065398292,145.0879749855036,129.81693518811034,-0.0002266406954731,0.0946486890316009,0,0,0
12125,420805.6462436887,2010-11-21 08:39:06,570.2902508982036,7,37,-1.0997490882873535,3.833467483520508,36.35417716327864,35.57503964853652,145.0879749855036,129.8521188845164,-0.0001942634553415,0.0946486890316009,0,0,0
12126,420835.66343751753,2010-11-21 08:39:36,600.3074448122429,7,37,-1.0997490882873535,3.8260209560394287,36.35417716327864,35.58420915903359,145.0879749855036,129.88723533762382,-0.0001942634553415,0.0946486890316009,0,0,0
12127,420865.677006834,2010-11-21 08:40:06,630.3210141437665,7,37,-1.099568486213684,3.818736076354981,36.35417716327864,35.593377605090225,145.0879749855036,129.92228005628763,-0.0001942634553415,0.0946486890316009,0,0,0
12128,420895.69231207867,2010-11-21 08:40:36,660.3363193031837,7,37,-1.0997490882873535,3.811451196670532,36.35417716327864,35.60254662944727,145.0879749855036,129.95725987033714,-0.0001618862152099,0.0946486890316009,0,0,0
12129,420925.7077579493,2010-11-21 08:41:06,690.3517651738377,7,37,-1.0997490882873535,3.804328203201294,36.35417716327864,35.61171555197217,145.0879749855036,129.99217363075763,-0.0001942634553415,0.0946486890316009,0,0,0
12130,420955.72293482855,2010-11-21 08:41:36,720.3669420530479,7,37,-1.099568486213684,3.797528982162476,36.35417716327864,35.6208844947634,145.0879749855036,130.0270233359323,-0.0001618862152099,0.0946486890316009,0,0,0
12131,420985.7384970295,2010-11-21 08:42:06,750.3825042540803,7,37,-1.099568486213684,3.7905678749084473,36.35417716327864,35.63005354581807,145.0879749855036,130.06181030290904,-0.0001618862152099,0.0946486890316009,0,0,0
12132,421015.7537379837,2010-11-21 08:42:36,780.3977452132439,7,37,-1.099929690361023,3.783768653869629,36.35417716327864,35.63922256188503,145.0879749855036,130.09653524526203,-0.0001618862152099,0.0946486890316009,0,0,0
12133,421045.76913446106,2010-11-21 08:43:06,810.4131416705545,7,37,-1.099568486213684,3.7776169776916495,36.35417716327864,35.64839164966492,145.0879749855036,130.13120003258817,-0.0001295089750783,0.0946486890316009,0,0,0
12134,421075.7846378904,2010-11-21 08:43:36,840.428645119934,7,37,-1.0997490882873535,3.770817756652832,36.35417716327864,35.6575607538671,145.0879749855036,130.16580603498772,-0.0001942634553415,0.0946486890316009,0,0,0
12135,421105.79986319545,2010-11-21 08:44:06,870.4438704049725,7,37,-1.1001102924346924,3.7646660804748535,36.35417716327864,35.666729703186235,145.0879749855036,130.20035366856703,-0.0001618862152099,0.0946486890316009,0,0,0
12136,421135.8152944747,2010-11-21 08:44:36,900.459301684204,7,37,-1.099568486213684,3.758676290512085,36.35417716327864,35.67589872980068,145.0879749855036,130.23484459553353,-0.0001295089750783,0.0946486890316009,0,0,0
12137,421165.8305993935,2010-11-21 08:45:06,930.4746066230708,7,37,-1.0997490882873535,3.752686738967896,36.35417716327864,35.685067731013014,145.0879749855036,130.2692801890412,-0.0001618385285837,0.0946486890316009,0,0,0
12138,421195.8459841466,2010-11-21 08:45:36,960.4899913711532,7,37,-1.099568486213684,3.746858835220337,36.35417716327864,35.69423674008301,145.0879749855036,130.3036617429662,-0.0001618862152099,0.0946486890316009,0,0,0
12139,421225.8613135967,2010-11-21 08:46:06,990.505320826216,7,37,-1.099568486213684,3.7410309314727774,36.35417716327864,35.70340576489167,145.0879749855036,130.33799010855824,-0.0001295089750783,0.0946486890316009,0,0,0
12140,421255.8766807759,2010-11-21 08:46:36,1020.5206879853944,7,37,-1.0997490882873535,3.73552680015564,36.35417716327864,35.712574801756574,145.0879749855036,130.37226628569348,-9.713172767078504e-05,0.0946486890316009,0,0,0
12141,421285.89209680207,2010-11-21 08:47:06,1050.5361040165644,7,37,-1.099568486213684,3.729860782623291,36.35417716327864,35.7217439156899,145.0879749855036,130.40649068308772,-0.0001295089750783,0.0946486890316009,0,0,0
12142,421315.9075036052,2010-11-21 08:47:36,1080.5515108146874,7,37,-1.099929690361023,3.7241947650909424,36.35417716327864,35.73091289171067,145.0879749855036,130.4406632676814,-0.0001295089750783,0.0946486890316009,0,0,0
12143,421345.9229053157,2010-11-21 08:48:06,1110.5669125401482,7,37,-1.0997490882873535,3.718690633773804,36.35417716327864,35.74008196051425,145.0879749855036,130.4747857847766,-0.0001295089750783,0.0946486890316009,0,0,0
12144,421375.9382037783,2010-11-21 08:48:36,1140.5822110028496,7,37,-1.0997490882873535,3.713348388671875,36.35417716327864,35.74925104098841,145.0879749855036,130.50885907305263,-0.0001942634553415,0.0946486890316009,0,0,0
12145,421405.95357453154,2010-11-21 08:49:06,1170.5975817559986,7,37,-1.099568486213684,3.708329916000366,36.35417716327864,35.75842018656865,145.0879749855036,130.54288382905452,-9.713172767078504e-05,0.0946486890316009,0,0,0
12146,421435.97084409936,2010-11-21 08:49:36,1200.6148513038315,7,37,-1.099929690361023,3.7029876708984375,36.35417716327864,35.767589814253434,145.0879749855036,130.5768625334785,-0.0001295089750783,0.0946486890316009,0,0,0
12147,421465.9844488493,2010-11-21 08:50:06,1230.6284560587774,7,37,-1.0997490882873535,3.697807312011719,36.35417716327864,35.776758349608,145.0879749855036,130.61078988526856,-0.0001942634553415,0.0946486890316009,0,0,0
12148,421495.99969088606,2010-11-21 08:50:36,1260.6436981106683,7,37,-1.0997490882873535,3.69278883934021,36.35417716327864,35.785927379036565,145.0879749855036,130.64467284070238,-0.0001295089750783,0.0946486890316009,0,0,0
12149,421526.0151814383,2010-11-21 08:51:06,1290.659188647817,7,37,-1.0997490882873535,3.687932252883911,36.35417716327864,35.79509647126656,145.0879749855036,130.6785101422254,-0.0001295089750783,0.0946486890316009,0,0,0
12150,421556.0306522212,2010-11-21 08:51:36,1320.6746594306555,7,37,-1.0997490882873535,3.6829137802124015,36.35417716327864,35.804265584338374,145.0879749855036,130.71230231939845,-0.0001295089750783,0.0946486890316009,0,0,0
12151,421586.04592286446,2010-11-21 08:52:06,1350.689930073915,7,37,-1.0997490882873535,3.6782190799713135,36.35417716327864,35.81343460695314,145.0879749855036,130.74604986745803,-0.0001618862152099,0.0946486890316009,0,0,0
12152,421616.0613006301,2010-11-21 08:52:36,1380.7053078546064,7,37,-1.099929690361023,3.673362493515015,36.35417716327864,35.82260366444328,145.0879749855036,130.7797535247662,-0.0001295089750783,0.0946486890316009,0,0,0
12153,421646.07799744833,2010-11-21 08:53:06,1410.722004742993,7,37,-1.0997490882873535,3.668829917907715,36.35417716327864,35.83177319939199,145.0879749855036,130.81341507927826,-6.47544875391759e-05,0.0946486890316009,0,0,0
12154,421676.0920546327,2010-11-21 08:53:36,1440.7360618420598,7,37,-1.0997490882873535,3.663811445236206,36.35417716327864,35.84094182254537,145.0879749855036,130.84703021812956,-0.0001618862152099,0.0946486890316009,0,0,0
12155,421706.10728501534,2010-11-21 08:54:06,1470.7512922448727,7,37,-1.099568486213684,3.659602403640747,36.35417716327864,35.85011081475211,145.0879749855036,130.88060460224585,-9.713172767078504e-05,0.0946486890316009,0,0,0
12156,421736.1226420593,2010-11-21 08:54:36,1500.766649283789,7,37,-1.0997490882873535,3.654907703399658,36.35417716327864,35.85927987632295,145.0879749855036,130.9141372862466,-9.713172767078504e-05,0.0946486890316009,0,0,0
12157,421766.1382072126,2010-11-21 08:55:06,1530.7822144371914,7,37,-1.099929690361023,3.6503748893737793,36.35417716327864,35.86844896871504,145.0879749855036,130.9476292765111,-0.0001618862152099,0.0946486890316009,0,0,0
12158,421796.1533959064,2010-11-21 08:55:36,1560.7974031308922,7,37,-1.0997490882873535,3.64616584777832,36.35417716327864,35.877617950422255,145.0879749855036,130.9810803694314,-9.713172767078504e-05,0.0946486890316009,0,0,0
12159,421826.168980353,2010-11-21 08:56:06,1590.812987567428,7,37,-1.0997490882873535,3.6417949199676514,36.35417716327864,35.88678698042022,145.0879749855036,131.0144920052803,-0.0001295089750783,0.0946486890316009,0,0,0
12160,421856.18417006417,2010-11-21 08:56:36,1620.8281772886935,7,37,-1.0997490882873535,3.637585878372192,36.35417716327864,35.89595590692345,145.0879749855036,131.04786419458588,-9.713172767078504e-05,0.0946486890316009,0,0,0
12161,421886.1995212735,2010-11-21 08:57:06,1650.8435284830211,7,37,-1.0993878841400146,3.633538722991944,36.35417716327864,35.90512484722983,145.0879749855036,131.08119872264106,-9.713172767078504e-05,0.0946486890316009,0,0,0
12162,421916.2148846032,2010-11-21 08:57:36,1680.85889181264,7,37,-1.0997490882873535,3.6294915676116943,36.35417716327864,35.91429387748026,145.0879749855036,131.11449652854898,-0.0001295089750783,0.0946486890316009,0,0,0
12163,421946.2302458827,2010-11-21 08:58:06,1710.874253102167,7,37,-1.0997490882873535,3.625768184661865,36.35417716327864,35.92346288108369,145.0879749855036,131.14775785857196,-9.713172767078504e-05,0.0946486890316009,0,0,0
12164,421976.2456970165,2010-11-21 08:58:36,1740.8897042409708,7,37,-1.0997490882873535,3.621882915496826,36.35417716327864,35.93263197458723,145.0879749855036,131.18098425096684,-9.713172767078504e-05,0.0946486890316009,0,0,0
12165,422006.260983394,2010-11-21 08:59:06,1770.9049906185055,7,37,-1.0997490882873535,3.618159532546997,36.35417716327864,35.94180100670569,145.0879749855036,131.2141759263915,-6.47544875391759e-05,0.0946486890316009,0,0,0
12166,422036.2793574288,2010-11-21 08:59:36,1800.9233647385204,7,37,-1.0997490882873535,3.614436149597168,36.35417716327864,35.95097097537132,145.0879749855036,131.24733736348816,-0.0001295089750783,0.0946486890316009,0,0,0
12167,422066.29173431377,2010-11-21 09:00:06,1830.9357415383013,7,37,-1.0997490882873535,3.611036539077759,36.35417716327864,35.96013910974257,145.0879749855036,131.28045975763237,-9.713172767078504e-05,0.0946486890316009,0,0,0
12168,422096.30709466094,2010-11-21 09:00:36,1860.9511018704384,7,37,-1.0997490882873535,3.60747504234314,36.35417716327864,35.96930813543826,145.0879749855036,131.3135534620023,-0.0001295089750783,0.0946486890316009,0,0,0
12169,422126.3224571234,2010-11-21 09:01:06,1890.9664643379049,7,37,-1.099568486213684,3.604237318038941,36.35417716327864,35.978477129999085,145.0879749855036,131.34661585922146,-9.713172767078504e-05,0.0946486890316009,0,0,0
12170,422156.3378416058,2010-11-21 09:01:36,1920.9818488303497,7,37,-1.099568486213684,3.601161479949951,36.35417716327864,35.987646164302,145.0879749855036,131.37964850300287,-6.47544875391759e-05,0.0946486890316009,0,0,0
12171,422186.3532598726,2010-11-21 09:02:06,1950.9972670820623,7,37,-1.0997490882873535,3.597761869430542,36.35417716327864,35.99681520767901,145.0879749855036,131.41265186588274,-9.713172767078504e-05,0.0946486890316009,0,0,0
12172,422216.3685587262,2010-11-21 09:02:36,1981.0125659357395,7,37,-1.0997490882873535,3.5945241451263428,36.35417716327864,36.00598421947198,145.0879749855036,131.44562637815994,-0.0001295089750783,0.0946486890316009,0,0,0
12173,422246.384058321,2010-11-21 09:03:06,2011.0280655505471,7,37,-1.0997490882873535,3.5917723178863525,36.35417716327864,36.01515330216222,145.0879749855036,131.4785732953006,-6.47544875391759e-05,0.0946486890316009,0,0,0
12174,422276.39933890913,2010-11-21 09:03:36,2041.043346133618,7,37,-1.0997490882873535,3.588858366012573,36.35417716327864,36.0243223420316,145.0879749855036,131.5114927222483,-6.47544875391759e-05,0.0946486890316009,0,0,0
12175,422306.4146738729,2010-11-21 09:04:06,2071.0586810823943,7,37,-1.099568486213684,3.585944414138794,36.35417716327864,36.03349134573602,145.0879749855036,131.5443849918309,-6.47544875391759e-05,0.0946486890316009,0,0,0
12176,422336.4301667158,2010-11-21 09:04:36,2101.074173925298,7,37,-1.0997490882873535,3.583030462265014,36.35417716327864,36.04266040931904,145.0879749855036,131.57725053815665,-6.47544875391759e-05,0.0946486890316009,0,0,0
12177,422366.4454137802,2010-11-21 09:05:06,2131.0894209947137,7,37,-1.099568486213684,3.580116510391236,36.35417716327864,36.05182943515332,145.0879749855036,131.61008946100296,-6.47544875391759e-05,0.0946486890316009,0,0,0
12178,422396.4608587386,2010-11-21 09:05:36,2161.104865963116,7,37,-1.099929690361023,3.577040672302246,36.35417716327864,36.0609985211937,145.0879749855036,131.64290230373956,-9.713172767078504e-05,0.0946486890316009,0,0,0
12179,422426.4761522038,2010-11-21 09:06:06,2191.1201594133045,7,37,-1.0997490882873535,3.5744504928588867,36.35417716327864,36.070167563354175,145.0879749855036,131.67568877963475,-6.47544875391759e-05,0.0946486890316009,0,0,0
12180,422456.49152352347,2010-11-21 09:06:36,2221.135530752918,7,37,-1.0997490882873535,3.571374654769897,36.35417716327864,36.07933667367245,145.0879749855036,131.70844928347606,-0.0001295089750783,0.0946486890316009,0,0,0
12181,422486.50691166497,2010-11-21 09:07:06,2251.150918889459,7,37,-1.0997490882873535,3.568622589111328,36.35417716327864,36.08850568598646,145.0879749855036,131.7411829167062,-6.47544875391759e-05,0.0946486890316009,0,0,0
12182,422516.5223050696,2010-11-21 09:07:36,2281.166312299162,7,37,-1.0997490882873535,3.565546751022339,36.35417716327864,36.09767474089872,145.0879749855036,131.77388991868008,-9.713172767078504e-05,0.0946486890316009,0,0,0
12183,422546.53776106046,2010-11-21 09:08:06,2311.18176827504,7,37,-1.0997490882873535,3.56263279914856,36.35417716327864,36.10684379005085,145.0879749855036,131.80656987254144,-0.0001295089750783,0.0946486890316009,0,0,0
12184,422576.5532432819,2010-11-21 09:08:36,2341.197250491419,7,37,-1.099929690361023,3.5597188472747803,36.35417716327864,36.11601287034638,145.0879749855036,131.83922277323504,-6.47544875391759e-05,0.0946486890316009,0,0,0
12185,422606.5684406624,2010-11-21 09:09:06,2371.2124478718038,7,37,-1.0997490882873535,3.556481122970581,36.35417716327864,36.1251819205095,145.0879749855036,131.87184699297856,-0.0001295089750783,0.0946486890316009,0,0,0
12186,422636.5856454435,2010-11-21 09:09:36,2401.229652652968,7,37,-1.0997490882873535,3.553243398666382,36.35417716327864,36.13435151914303,145.0879749855036,131.904443793292,-9.713172767078504e-05,0.0946486890316009,0,0,0
12187,422666.599117848,2010-11-21 09:10:07,2431.243125072585,7,37,-1.099568486213684,3.5500056743621826,36.35417716327864,36.14352000184956,145.0879749855036,131.93700649537757,-6.47544875391759e-05,0.0946486890316009,0,0,0
12188,422696.61448766384,2010-11-21 09:10:37,2461.2584948883946,7,37,-1.099568486213684,3.546606063842773,36.35417716327864,36.15268907600669,145.0879749855036,131.9695406844654,-3.237724376958795e-05,0.0946486890316009,0,0,0
12189,422726.62996925873,2010-11-21 09:11:07,2491.2739765884844,7,37,-1.0997490882873535,3.5427207946777344,36.35417716327864,36.16185826667915,145.0879749855036,132.00204361175238,-0.0001942634553415,0.0946486890316009,0,0,0
12190,422756.64525370137,2010-11-21 09:11:37,2521.2892609259266,7,37,-1.0997490882873535,3.539483070373535,36.35417716327864,36.17102728557244,145.0879749855036,132.03451338993673,-9.713172767078504e-05,0.0946486890316009,0,0,0
12191,422786.6605936828,2010-11-21 09:12:07,2551.304600892227,7,37,-1.0997490882873535,3.535759687423706,36.35417716327864,36.18019632093797,145.0879749855036,132.0669494674608,-9.713172767078504e-05,0.0946486890316009,0,0,0
12192,422816.67603479646,2010-11-21 09:12:37,2581.320042021045,7,37,-1.0997490882873535,3.531874418258667,36.35417716327864,36.1893654496988,145.0879749855036,132.09935059086098,-6.47544875391759e-05,0.0946486890316009,0,0,0
12193,422846.691469404,2010-11-21 09:13:07,2611.3354766285843,7,37,-1.0997490882873535,3.527665376663208,36.35417716327864,36.1985345276148,145.0879749855036,132.13171513306096,-0.0001295089750783,0.0946486890316009,0,0,0
12194,422876.7067436112,2010-11-21 09:13:37,2641.35075083574,7,37,-1.099568486213684,3.523780107498169,36.35417716327864,36.20770364117679,145.0879749855036,132.16404192315505,-6.47544875391759e-05,0.0946486890316009,0,0,0
12195,422906.7220680788,2010-11-21 09:14:07,2671.366075303353,7,37,-1.0997490882873535,3.51924729347229,36.35417716327864,36.21687269642985,145.0879749855036,132.1963295262343,-0.0001295089750783,0.0946486890316009,0,0,0
12196,422936.7374416891,2010-11-21 09:14:37,2701.3814489136344,7,37,-1.099568486213684,3.514714479446411,36.35417716327864,36.22604178160294,145.0879749855036,132.2285769473312,-9.713172767078504e-05,0.0946486890316009,0,0,0
12197,422966.7529504267,2010-11-21 09:15:07,2731.3969576562267,7,37,-1.0997490882873535,3.5098581314086914,36.35417716327864,36.23521091421106,145.0879749855036,132.26078171158622,-9.713172767078504e-05,0.0946486890316009,0,0,0
12198,422996.7684383272,2010-11-21 09:15:37,2761.412445526719,7,37,-1.099568486213684,3.5048396587371826,36.35417716327864,36.2443800383371,145.0879749855036,132.29294087612453,-0.0001295089750783,0.0946486890316009,0,0,0
12199,423026.78362149216,2010-11-21 09:16:07,2791.4276287166813,7,37,-1.099568486213684,3.499173641204834,36.35417716327864,36.253549112485565,145.0879749855036,132.32505044785586,-0.0001295089750783,0.0946486890316009,0,0,0
12200,423056.7989255789,2010-11-21 09:16:37,2821.4429328034207,7,37,-1.0997490882873535,3.492860078811645,36.35417716327864,36.26271826219404,145.0879749855036,132.3571059311709,-0.0001618862152099,0.0946486890316009,0,0,0
12201,423086.81432114897,2010-11-21 09:17:07,2851.45832835848,7,37,-1.099929690361023,3.485898971557617,36.35417716327864,36.27188740258418,145.0879749855036,132.38910105403693,-0.0001942634553415,0.0946486890316009,0,0,0
12202,423116.8298092651,2010-11-21 09:17:37,2881.473816474585,7,37,-1.0997490882873535,3.477804660797119,36.35417716327864,36.281056543433,145.0879749855036,132.4210275060412,-0.0002266406954731,0.0946486890316009,0,0,0
12203,423146.845027688,2010-11-21 09:18:07,2911.489034912532,7,37,-1.099568486213684,3.468577146530152,36.35417716327864,36.29022556517212,145.0879749855036,132.45287347353852,-0.0001942634553415,0.0946486890316009,0,0,0
12204,423176.860406386,2010-11-21 09:18:37,2941.5044136155248,7,37,-1.099568486213684,3.456921339035034,36.35417716327864,36.299394630810845,145.0879749855036,132.4846243557853,-0.0003237724304199,0.0946486890316009,0,0,0
12205,423206.875772668,2010-11-21 09:19:07,2971.519779892501,7,37,-1.099929690361023,3.4426753520965576,36.35417716327864,36.30856372152607,145.0879749855036,132.51625805733244,-0.0004209041653666,0.0946486890316009,0,0,0
12206,423236.89303094265,2010-11-21 09:19:37,3001.537038142132,7,37,-1.099929690361023,3.424058675765991,36.35417716327864,36.31773346613238,145.0879749855036,132.54774531683614,-0.0005827903514727,0.0946486890316009,0,0,0
12207,423266.9066402139,2010-11-21 09:20:07,3031.5506474384133,7,37,-1.0997490882873535,3.399613857269287,36.35417716327864,36.3269020786723,145.0879749855036,132.57903390665786,-0.0007446765666827,0.0946486890316009,0,0,0
12208,423296.9218851078,2010-11-21 09:20:37,3061.565892337412,7,37,-1.0997490882873535,3.366265296936035,36.35417716327864,36.33607111835643,145.0879749855036,132.61006122629067,-0.0010360718006268,0.0946486890316009,0,0,0
12209,423326.9372538711,2010-11-21 09:21:07,3091.581261095581,7,37,-1.0997490882873535,3.3198041915893555,36.35417716327864,36.34524029693334,145.0879749855036,132.64072669021274,-0.0014569759368896,0.0946486890316009,0,0,0
12210,423356.95271617774,2010-11-21 09:21:37,3121.5967233872243,7,37,-1.099568486213684,3.2545642852783203,36.35417716327864,36.3544094183622,145.0879749855036,132.67088536283853,-0.0020073889754712,0.0946486890316009,0,0,0
12211,423386.96807492594,2010-11-21 09:22:07,3151.6120822707453,7,37,-1.099568486213684,3.1596992015838623,36.35417716327864,36.36357847008683,145.0879749855036,132.70032147316576,-0.002978706266731,0.0946486890316009,0,0,0
12212,423416.9834274987,2010-11-21 09:22:37,3181.627434723213,7,37,-1.0997490882873535,3.008336067199707,36.35417716327864,36.37274750482968,145.0879749855036,132.72866548791825,-0.0052450657822191,0.0946486890316009,0,0,0
12213,423437.3115392931,2010-11-21 09:22:57,3201.9555466379543,7,37,-1.0997490882873535,2.808083295822144,36.35417716327864,36.37895739131687,145.0879749855036,132.7467926614267,-0.0099721904844045,0.0946486890316009,0,0,0
12214,423445.2800061624,2010-11-21 09:23:05,3209.9240133918897,7,37,-1.0997490882873535,2.699781894683838,36.35417716327864,36.38139161094536,145.0879749855036,132.7534975820568,-0.011008215136826,0.0946486890316009,0,0,0
12215,423505.2823777256,2010-11-21 09:24:05,60.01520083439046,8,37,0.0,3.3032917976379395,36.35417716327864,36.38139161094536,145.0879749855036,132.7534975820568,0.0012627125252038,0.0946486890316009,0,0,0
12216,423505.45735616505,2010-11-21 09:24:06,0.187490324695104,9,37,-1.9243103452026844e-05,3.3034536838531494,36.35417716327864,36.38139161194755,145.0879749855036,132.7534975853675,0.0,0.0931148082017898,0,0,0
12217,423510.2853537147,2010-11-21 09:24:10,5.015487874347891,9,37,0.0010644125286489,3.3112242221832275,36.354178185766095,36.38139161203022,145.08797836785044,132.7534975856406,0.0011008263099938,0.0931148082017898,0,0,0
