Data_Point,Test_Time(s),Date_Time,Step_Time(s),Step_Index,Cycle_Index,Current(A),Voltage(V),Charge_Capacity(Ah),Discharge_Capacity(Ah),Charge_Energy(Wh),Discharge_Energy(Wh),dV/dt(V/s),Internal_Resistance(Ohm),Is_FC_Data,AC_Impedance(Ohm),ACI_Phase_Angle(Deg)
15792,549023.5242409138,2010-11-22 20:16:17,30.0152715956368,1,49,0.0,3.4386281967163086,47.027821847596,47.02915967959906,187.73410415121245,171.52133716426516,0.0006799221155233,0.096440702676773,0,0,0
15793,549053.5396300628,2010-11-22 20:16:47,60.03066074470506,1,49,0.0,3.4601590633392334,47.027821847596,47.02915967959906,187.73410415121245,171.52133716426516,0.0004856586456298,0.096440702676773,0,0,0
15794,549083.5547719847,2010-11-22 20:17:17,90.04580266665639,1,49,0.0,3.4765095710754395,47.027821847596,47.02915967959906,187.73410415121245,171.52133716426516,0.0003885269106831,0.096440702676773,0,0,0
15795,549113.5231578163,2010-11-22 20:17:47,120.01418849821285,1,49,0.0,3.4894604682922363,47.027821847596,47.02915967959906,187.73410415121245,171.52133716426516,0.0002913951757363,0.096440702676773,0,0,0
15796,549143.5267643335,2010-11-22 20:18:17,30.01524921477072,2,49,0.5501165986061096,3.64778470993042,47.032408354217125,47.02915967959906,187.75068966891223,171.52133716426516,0.0014569759368896,0.096440702676773,0,0,0
15797,549173.5430707873,2010-11-22 20:18:47,60.03155566857271,2,49,0.5501165986061096,3.689389228820801,47.036994954225975,47.02915967959906,187.76752211071076,171.52133716426516,0.0009713172912597,0.096440702676773,0,0,0
15798,549203.5573111889,2010-11-22 20:19:17,90.0457960701906,2,49,0.550297200679779,3.7195000648498535,47.04158128571564,47.02915967959906,187.78451451146844,171.52133716426516,0.0007122993702068,0.096440702676773,0,0,0
15799,549233.5725782933,2010-11-22 20:19:47,120.06106322975428,2,49,0.5501165986061096,3.742487907409668,47.04616766857709,47.02915967959906,187.80162785719887,171.52133716426516,0.0005827903514727,0.096440702676773,0,0,0
15800,549263.5879517281,2010-11-22 20:20:17,150.0764366094598,2,49,0.5501165986061096,3.761266469955444,47.050754037534816,47.02915967959906,187.81883674949412,171.52133716426516,0.0004856586456298,0.096440702676773,0,0,0
15801,549293.6031348128,2010-11-22 20:20:47,180.0916197242347,2,49,0.550297200679779,3.774864912033081,47.05534040237377,47.02915967959906,187.8361197796447,171.52133716426516,0.0002913951757363,0.096440702676773,0,0,0
15802,549323.6183547295,2010-11-22 20:21:17,210.1068396107977,2,49,0.550297200679779,3.783930540084839,47.05992674586725,47.02915967959906,187.85345454811235,171.52133716426516,0.0002266406954731,0.096440702676773,0,0,0
15803,549353.6335931624,2010-11-22 20:21:47,240.1220780436551,2,49,0.5501165986061096,3.789920330047608,47.064513147874045,47.02915967959906,187.870823127486,171.52133716426516,0.0001618862152099,0.096440702676773,0,0,0
15804,549383.6488694798,2010-11-22 20:22:17,270.1373543610782,2,49,0.5501165986061096,3.794615030288696,47.06909963752475,47.02915967959906,187.8882163196148,171.52133716426516,6.47544875391759e-05,0.096440702676773,0,0,0
15805,549413.6643237313,2010-11-22 20:22:47,300.15280861265234,2,49,0.5501165986061096,3.7988240718841553,47.07368608311678,47.02915967959906,187.90563023603968,171.52133716426516,9.713172767078504e-05,0.096440702676773,0,0,0
15806,549443.6793694332,2010-11-22 20:23:17,330.16785431442327,2,49,0.5501165986061096,3.803194999694824,47.07827250265875,47.02915967959906,187.9230635612546,171.52133716426516,0.0001295089750783,0.096440702676773,0,0,0
15807,549473.6946305326,2010-11-22 20:23:47,360.18311541386,2,49,0.5497553944587708,3.806918382644653,47.08285897034655,47.02915967959906,187.9405157026118,171.52133716426516,9.713172767078504e-05,0.096440702676773,0,0,0
15808,549503.7100427141,2010-11-22 20:24:17,390.1985275954209,2,49,0.5499359965324402,3.8109655380249023,47.08744552215027,47.02915967959906,187.9579861373108,171.52133716426516,6.47544875391759e-05,0.096440702676773,0,0,0
15809,549533.725314415,2010-11-22 20:24:47,420.2137992963204,2,49,0.5501165986061096,3.814850807189941,47.09203197453856,47.02915967959906,187.97547372753212,171.52133716426516,0.0001295089750783,0.096440702676773,0,0,0
15810,549563.740538888,2010-11-22 20:25:17,450.229023769332,2,49,0.5499359965324402,3.818250417709351,47.0966184144262,47.02915967959906,187.99297825709803,171.52133716426516,3.237724376958795e-05,0.096440702676773,0,0,0
15811,549593.7556735168,2010-11-22 20:25:47,480.2441583980783,2,49,0.5501165986061096,3.8218119144439697,47.10120479008047,47.02915967959906,188.01049891599305,171.52133716426516,6.47544875391759e-05,0.096440702676773,0,0,0
15812,549623.7709586162,2010-11-22 20:26:17,510.2594435475475,2,49,0.5497553944587708,3.825211524963379,47.10579118216572,47.02915967959906,188.0280355170628,171.52133716426516,6.47544875391759e-05,0.096440702676773,0,0,0
15813,549653.7862028284,2010-11-22 20:26:47,540.2746877097061,2,49,0.5501165986061096,3.828773021697998,47.11037757956567,47.02915967959906,188.04558778294995,171.52133716426516,9.713172767078504e-05,0.096440702676773,0,0,0
15814,549683.8014524091,2010-11-22 20:27:17,570.2899372903903,2,49,0.550297200679779,3.8321726322174072,47.11496396591664,47.02915967959906,188.06315532066355,171.52133716426516,0.0001295089750783,0.096440702676773,0,0,0
15815,549713.8168749264,2010-11-22 20:27:47,600.3053598328135,2,49,0.5499359965324402,3.8352482318878174,47.119550428428845,47.02915967959906,188.0807382318696,171.52133716426516,9.713172767078504e-05,0.096440702676773,0,0,0
15816,549743.8323942706,2010-11-22 20:28:17,630.3208791618309,2,49,0.5501165986061096,3.838809728622437,47.12413686580002,47.02915967959906,188.0983361063997,171.52133716426516,9.713172767078504e-05,0.096440702676773,0,0,0
15817,549773.8472604993,2010-11-22 20:28:47,660.3357453805846,2,49,0.550297200679779,3.841885566711426,47.128723222531214,47.02915967959906,188.1159488450341,171.52133716426516,6.47544875391759e-05,0.096440702676773,0,0,0
15818,549803.8624960148,2010-11-22 20:29:17,690.35098089616,2,49,0.5501165986061096,3.845285177230835,47.13330965594341,47.02915967959906,188.13357706553035,171.52133716426516,9.713172767078504e-05,0.096440702676773,0,0,0
15819,549833.877758959,2010-11-22 20:29:47,720.366243840201,2,49,0.550297200679779,3.848522901535034,47.13789603734744,47.02915967959906,188.15122042969645,171.52133716426516,6.47544875391759e-05,0.096440702676773,0,0,0
15820,549863.893017101,2010-11-22 20:30:17,750.3815019822557,2,49,0.5501165986061096,3.8519225120544434,47.14248243590353,47.02915967959906,188.1688793485047,171.52133716426516,9.713172767078504e-05,0.096440702676773,0,0,0
15821,549893.908299248,2010-11-22 20:30:47,780.3967841292304,2,49,0.5501165986061096,3.8554840087890634,47.14706887055339,47.02915967959906,188.1865538777052,171.52133716426516,9.713172767078504e-05,0.096440702676773,0,0,0
15822,549923.9235591294,2010-11-22 20:31:17,810.4120440306766,2,49,0.5501165986061096,3.8587217330932617,47.15165529419816,47.02915967959906,188.20424389914305,171.52133716426516,9.713172767078504e-05,0.096440702676773,0,0,0
15823,549953.9388155572,2010-11-22 20:31:47,840.427300438402,2,49,0.550297200679779,3.862121343612671,47.15624166211604,47.02915967959906,188.22194909212428,171.52133716426516,9.713172767078504e-05,0.096440702676773,0,0,0
15824,549983.9540658696,2010-11-22 20:32:17,870.4425507509129,2,49,0.5501165986061096,3.86535906791687,47.16082802319329,47.02915967959906,188.23966951297865,171.52133716426516,9.713172767078504e-05,0.096440702676773,0,0,0
15825,550013.969340934,2010-11-22 20:32:47,900.4578258202205,2,49,0.5499359965324402,3.868596792221069,47.16541445861056,47.02915967959906,188.25740531251267,171.52133716426516,6.47544875391759e-05,0.096440702676773,0,0,0
15826,550043.9845833417,2010-11-22 20:33:17,930.4730682229872,2,49,0.5501165986061096,3.871834516525269,47.170000846103086,47.02915967959906,188.27515570659023,171.52133716426516,9.713172767078504e-05,0.096440702676773,0,0,0
15827,550073.9998509925,2010-11-22 20:33:47,960.4883358737771,2,49,0.5501165986061096,3.875072240829468,47.1745873030381,47.02915967959906,188.2929208623954,171.52133716426516,0.0001618862152099,0.096440702676773,0,0,0
15828,550104.0151128487,2010-11-22 20:34:17,990.5035977301033,2,49,0.5501165986061096,3.877986192703247,47.17917376055081,47.02915967959906,188.3107001902318,171.52133716426516,9.713172767078504e-05,0.096440702676773,0,0,0
15829,550134.0307614004,2010-11-22 20:34:47,1020.51924630173,2,49,0.550297200679779,3.8809001445770255,47.18376031644456,47.02915967959906,188.3284936042932,171.52133716426516,6.47544875391759e-05,0.096440702676773,0,0,0
15830,550164.0456265765,2010-11-22 20:35:17,1050.5341114578312,2,49,0.550297200679779,3.8838140964508057,47.1883467462966,47.02915967959906,188.3462997401364,171.52133716426516,6.47544875391759e-05,0.096440702676773,0,0,0
15831,550194.0610268082,2010-11-22 20:35:47,1080.5495116895636,2,49,0.5501165986061096,3.886566162109375,47.19293328354209,47.02915967959906,188.36411885813183,171.52133716426516,9.713172767078504e-05,0.096440702676773,0,0,0
15832,550224.0762912111,2010-11-22 20:36:17,1110.5647760922457,2,49,0.550297200679779,3.888994455337525,47.1975197670688,47.02915967959906,188.38194978545204,171.52133716426516,3.237724376958795e-05,0.096440702676773,0,0,0
15833,550254.091568952,2010-11-22 20:36:47,1140.5800538332223,2,49,0.5497553944587708,3.891260862350464,47.20210623785784,47.02915967959906,188.39979206863552,171.52133716426516,0.0,0.096440702676773,0,0,0
15834,550284.1067051395,2010-11-22 20:37:17,1170.5951900208595,2,49,0.5504778623580933,3.8938510417938232,47.2066926717773,47.02915967959906,188.4176449416517,171.52133716426516,9.713172767078504e-05,0.096440702676773,0,0,0
15835,550314.1219412367,2010-11-22 20:37:47,1200.6104261178866,2,49,0.5501165986061096,3.895793676376343,47.21127921710487,47.02915967959906,188.4355080657935,171.52133716426516,0.0001295089750783,0.096440702676773,0,0,0
15836,550344.1372218096,2010-11-22 20:38:17,1230.625706675895,2,49,0.5501165986061096,3.8977363109588623,47.21586566299426,47.02915967959906,188.45338005224488,171.52133716426516,6.47544875391759e-05,0.096440702676773,0,0,0
15837,550374.152493721,2010-11-22 20:38:47,1260.640978602357,2,49,0.5501165986061096,3.899678945541382,47.22045212065398,47.02915967959906,188.47126083132872,171.52133716426516,6.47544875391759e-05,0.096440702676773,0,0,0
15838,550404.1677313771,2010-11-22 20:39:17,1290.6562162582757,2,49,0.5501165986061096,3.901135921478272,47.2250386083717,47.02915967959906,188.4891498258359,171.52133716426516,6.47544875391759e-05,0.096440702676773,0,0,0
15839,550434.1832428916,2010-11-22 20:39:47,1320.6717279081245,2,49,0.5501165986061096,3.902754783630371,47.2296250924567,47.02915967959906,188.50704644702472,171.52133716426516,3.237724376958795e-05,0.096440702676773,0,0,0
15840,550464.1982450446,2010-11-22 20:40:17,1350.6867299258531,2,49,0.550297200679779,3.904373645782471,47.23421155788624,47.02915967959906,188.52495022619271,171.52133716426516,3.237724376958795e-05,0.096440702676773,0,0,0
15841,550494.2136511109,2010-11-22 20:40:47,1380.7021359871371,2,49,0.5501165986061096,3.90583062171936,47.23879807122626,47.02915967959906,188.5428610268459,171.52133716426516,3.237724376958795e-05,0.096440702676773,0,0,0
15842,550524.2288903958,2010-11-22 20:41:17,1410.7173753021966,2,49,0.5499359965324402,3.90728759765625,47.24338451909466,47.02915967959906,188.56077821660952,171.52133716426516,3.237724376958795e-05,0.096440702676773,0,0,0
15843,550554.2440508992,2010-11-22 20:41:47,1440.7325357904924,2,49,0.5501165986061096,3.9085826873779297,47.24797091419142,47.02915967959906,188.5787016694396,171.52133716426516,6.47544875391759e-05,0.096440702676773,0,0,0
15844,550584.259288886,2010-11-22 20:42:18,1470.7477737722238,2,49,0.5499359965324402,3.9100396633148193,47.25255735438926,47.02915967959906,188.596631618904,171.52133716426516,6.47544875391759e-05,0.096440702676773,0,0,0
15845,550614.2745744515,2010-11-22 20:42:48,1500.763059332719,2,49,0.5501165986061096,3.911334753036499,47.257143800555234,47.02915967959906,188.6145676676852,171.52133716426516,6.47544875391759e-05,0.096440702676773,0,0,0
15846,550644.2899432397,2010-11-22 20:43:18,1530.7784281209636,2,49,0.5501165986061096,3.9126298427581783,47.26173019926453,47.02915967959906,188.63250973289507,171.52133716426516,0.0,0.096440702676773,0,0,0
15847,550674.3050745752,2010-11-22 20:43:48,1560.7935594564894,2,49,0.5501165986061096,3.9139246940612793,47.26631661693732,47.02915967959906,188.65045797089428,171.52133716426516,3.237724376958795e-05,0.096440702676773,0,0,0
15848,550704.3203429277,2010-11-22 20:44:18,1590.8088278090308,2,49,0.5501165986061096,3.915219783782959,47.27090309066954,47.02915967959906,188.66841262318707,171.52133716426516,3.237724376958795e-05,0.096440702676773,0,0,0
15849,550734.3356132201,2010-11-22 20:44:48,1620.8240981014148,2,49,0.5501165986061096,3.9166767597198486,47.27548948308661,47.02915967959906,188.68637282759315,171.52133716426516,6.47544875391759e-05,0.096440702676773,0,0,0
15850,550764.3512852653,2010-11-22 20:45:18,1650.8397701666854,2,49,0.550297200679779,3.917971849441528,47.280076023345416,47.02915967959906,188.70433985711892,171.52133716426516,3.237724376958795e-05,0.096440702676773,0,0,0
15851,550794.3661375995,2010-11-22 20:45:48,1680.8546225007808,2,49,0.5501165986061096,3.919428825378418,47.28466236077139,47.02915967959906,188.72231219232097,171.52133716426516,3.237724376958795e-05,0.096440702676773,0,0,0
15852,550824.3813890098,2010-11-22 20:46:18,1710.8698738909818,2,49,0.5499359965324402,3.920562028884888,47.28924879210712,47.02915967959906,188.7402911709486,171.52133716426516,3.237724376958795e-05,0.096440702676773,0,0,0
15853,550854.3966606755,2010-11-22 20:46:48,1740.8851455567938,2,49,0.5501165986061096,3.922019004821777,47.29383518501093,47.02915967959906,188.7582761942309,171.52133716426516,0.0,0.096440702676773,0,0,0
15854,550884.4119179704,2010-11-22 20:47:18,1770.9004028517338,2,49,0.5499359965324402,3.923314094543457,47.29842157243738,47.02915967959906,188.77626754783483,171.52133716426516,0.0,0.096440702676773,0,0,0
15855,550914.4271890196,2010-11-22 20:47:48,1800.9156739010068,2,49,0.550297200679779,3.925094842910767,47.30300803150737,47.02915967959906,188.79426552263573,171.52133716426516,9.713172767078504e-05,0.096440702676773,0,0,0
15856,550944.4425595923,2010-11-22 20:48:18,1830.9310444737057,2,49,0.5501165986061096,3.926228046417236,47.30759447049256,47.02915967959906,188.81226973223107,171.52133716426516,6.47544875391759e-05,0.096440702676773,0,0,0
15857,550974.4577176095,2010-11-22 20:48:48,1860.9462025108828,2,49,0.5501165986061096,3.927523136138916,47.31218095947316,47.02915967959906,188.83028056213809,171.52133716426516,3.237724376958795e-05,0.096440702676773,0,0,0
15858,551004.4729629797,2010-11-22 20:49:18,1890.9614478610067,2,49,0.5501165986061096,3.9289801120758057,47.31676741225833,47.02915967959906,188.84829776494325,171.52133716426516,3.237724376958795e-05,0.096440702676773,0,0,0
15859,551034.4882230315,2010-11-22 20:49:48,1920.9767079128285,2,49,0.5501165986061096,3.930598974227905,47.32135385231829,47.02915967959906,188.86632147864668,171.52133716426516,3.237724376958795e-05,0.096440702676773,0,0,0
15860,551064.5034831786,2010-11-22 20:50:18,1950.991968059888,2,49,0.550297200679779,3.931894063949585,47.325940426420935,47.02915967959906,188.8843523092624,171.52133716426516,3.237724376958795e-05,0.096440702676773,0,0,0
15861,551094.518965029,2010-11-22 20:50:48,1981.0074499103528,2,49,0.5501165986061096,3.933512926101685,47.33052693418936,47.02915967959906,188.9023895421574,171.52133716426516,9.713172767078504e-05,0.096440702676773,0,0,0
15862,551124.5194683558,2010-11-22 20:51:18,2011.0079532571688,2,49,0.550297200679779,3.934969902038574,47.33511114007708,47.02915967959906,188.92042438645248,171.52133716426516,9.713172767078504e-05,0.096440702676773,0,0,0
15863,551154.5336768929,2010-11-22 20:51:48,2041.0221618042733,2,49,0.5501165986061096,3.936264991760254,47.33969752413707,47.02915967959906,188.93847454654693,171.52133716426516,3.237724376958795e-05,0.096440702676773,0,0,0
15864,551184.5489233859,2010-11-22 20:52:18,2071.0374082671747,2,49,0.5499359965324402,3.937721967697144,47.34428397583179,47.02915967959906,188.95653163053208,171.52133716426516,3.237724376958795e-05,0.096440702676773,0,0,0
15865,551214.5641702599,2010-11-22 20:52:48,2101.0526551411026,2,49,0.5501165986061096,3.939340829849243,47.34887043552132,47.02915967959906,188.97459571550132,171.52133716426516,3.237724376958795e-05,0.096440702676773,0,0,0
15866,551244.579444878,2010-11-22 20:53:18,2131.067929759284,2,49,0.5501165986061096,3.940959692001343,47.35345686527789,47.02915967959906,188.99266658577463,171.52133716426516,6.47544875391759e-05,0.096440702676773,0,0,0
15867,551274.59469697,2010-11-22 20:53:48,2161.083181851236,2,49,0.5499359965324402,3.942416667938232,47.35804328962478,47.02915967959906,189.0107443916919,171.52133716426516,6.47544875391759e-05,0.096440702676773,0,0,0
15868,551304.6099650217,2010-11-22 20:54:18,2191.098449903028,2,49,0.550297200679779,3.943711757659912,47.36262972047806,47.02915967959906,189.02882927027733,171.52133716426516,0.0,0.096440702676773,0,0,0
15869,551334.6252372338,2010-11-22 20:54:48,2221.113722125228,2,49,0.5501165986061096,3.9454925060272217,47.3672161417157,47.02915967959906,189.0469211356619,171.52133716426516,3.237724376958795e-05,0.096440702676773,0,0,0
15870,551364.6404676869,2010-11-22 20:55:18,2251.128952568142,2,49,0.5501165986061096,3.9469494819641113,47.37180263452559,47.02915967959906,189.06502036444965,171.52133716426516,6.47544875391759e-05,0.096440702676773,0,0,0
15871,551394.6557306409,2010-11-22 20:55:48,2281.1442155322325,2,49,0.5499359965324402,3.948406457901001,47.37638907715708,47.02915967959906,189.08312647646196,171.52133716426516,0.0,0.096440702676773,0,0,0
15872,551424.671132206,2010-11-22 20:56:18,2311.159617097293,2,49,0.5501165986061096,3.950187206268311,47.38097549725356,47.02915967959906,189.1012396698016,171.52133716426516,6.47544875391759e-05,0.096440702676773,0,0,0
15873,551454.686317446,2010-11-22 20:56:48,2341.1748023373725,2,49,0.550297200679779,3.95180606842041,47.38556183954068,47.02915967959906,189.1193598200361,171.52133716426516,6.47544875391759e-05,0.096440702676773,0,0,0
15874,551484.7017152868,2010-11-22 20:57:18,2371.1902001731246,2,49,0.5501165986061096,3.9532630443573,47.390148255780375,47.02915967959906,189.13748746765603,171.52133716426516,3.237724376958795e-05,0.096440702676773,0,0,0
15875,551514.702339365,2010-11-22 20:57:48,2401.190824256317,2,49,0.5501165986061096,3.9548819065094,47.39473245997912,47.02915967959906,189.15561365802805,171.52133716426516,6.47544875391759e-05,0.096440702676773,0,0,0
15876,551544.7174505752,2010-11-22 20:58:18,2431.20593555182,2,49,0.550297200679779,3.956662654876709,47.39931890688716,47.02915967959906,189.17375607295548,171.52133716426516,9.713172767078504e-05,0.096440702676773,0,0,0
15877,551574.7317319091,2010-11-22 20:58:48,2461.220216790373,2,49,0.5499359965324402,3.958119630813599,47.40390521151507,47.02915967959906,189.1919052232664,171.52133716426516,3.237724376958795e-05,0.096440702676773,0,0,0
15878,551604.7469809685,2010-11-22 20:59:18,2491.235465859781,2,49,0.5499359965324402,3.959738492965698,47.408491606175865,47.02915967959906,189.2100621599972,171.52133716426516,6.47544875391759e-05,0.096440702676773,0,0,0
15879,551634.7622622533,2010-11-22 20:59:48,2521.250747144604,2,49,0.5501165986061096,3.961357355117798,47.413078025562726,47.02915967959906,189.2282266054503,171.52133716426516,3.237724376958795e-05,0.096440702676773,0,0,0
15880,551664.7775074882,2010-11-22 21:00:18,2551.265992369414,2,49,0.5501165986061096,3.962814331054688,47.417664437753565,47.02915967959906,189.2463983919299,171.52133716426516,3.237724376958795e-05,0.096440702676773,0,0,0
15881,551694.7928147528,2010-11-22 21:00:48,2581.281299664161,2,49,0.5501165986061096,3.964595079421997,47.42225079951288,47.02915967959906,189.26457735243696,171.52133716426516,6.47544875391759e-05,0.096440702676773,0,0,0
15882,551724.8084424373,2010-11-22 21:01:18,2611.2969273235885,2,49,0.5501165986061096,3.9662139415740967,47.42683729354209,47.02915967959906,189.282764221805,171.52133716426516,9.713172767078504e-05,0.096440702676773,0,0,0
15883,551754.8233391573,2010-11-22 21:01:48,2641.311824038465,2,49,0.5501165986061096,3.967509031295776,47.43142366884549,47.02915967959906,189.30095790782087,171.52133716426516,3.237724376958795e-05,0.096440702676773,0,0,0
15884,551784.8385692843,2010-11-22 21:02:18,2671.32705416559,2,49,0.5499359965324402,3.969289779663086,47.43601012921523,47.02915967959906,189.3191592562064,171.52133716426516,3.237724376958795e-05,0.096440702676773,0,0,0
15885,551814.8539584534,2010-11-22 21:02:48,2701.342443344733,2,49,0.5501165986061096,3.9709086418151855,47.44059660749318,47.02915967959906,189.33736798014297,171.52133716426516,3.237724376958795e-05,0.096440702676773,0,0,0
15886,551844.8690999042,2010-11-22 21:03:18,2731.357584785484,2,49,0.5501165986061096,3.972365617752075,47.44518299196459,47.02915967959906,189.35558373966973,171.52133716426516,0.0,0.096440702676773,0,0,0
15887,551874.8843846978,2010-11-22 21:03:48,2761.372869584077,2,49,0.5501165986061096,3.9743082523345943,47.4497694860317,47.02915967959906,189.37380731821196,171.52133716426516,0.0001295089750783,0.096440702676773,0,0,0
15888,551904.8997815761,2010-11-22 21:04:18,2791.388266462439,2,49,0.5501165986061096,3.975765228271485,47.45435598542424,47.02915967959906,189.39203844342936,171.52133716426516,3.237724376958795e-05,0.096440702676773,0,0,0
15889,551934.9149125909,2010-11-22 21:04:48,2821.4033974721515,2,49,0.5501165986061096,3.977384090423584,47.45894251725607,47.02915967959906,189.41027723274613,171.52133716426516,0.0,0.096440702676773,0,0,0
15890,551964.930211625,2010-11-22 21:05:18,2851.4186965163044,2,49,0.5501165986061096,3.979002952575684,47.46352904181765,47.02915967959906,189.42852304789832,171.52133716426516,6.47544875391759e-05,0.096440702676773,0,0,0
15891,551994.9454524036,2010-11-22 21:05:48,2881.433937295017,2,49,0.5499359965324402,3.980621814727783,47.4681154055466,47.02915967959906,189.44677638546497,171.52133716426516,3.237724376958795e-05,0.096440702676773,0,0,0
15892,552024.9607180796,2010-11-22 21:06:18,2911.4492029608523,2,49,0.5501165986061096,3.9824025630950928,47.47270183753301,47.02915967959906,189.4650377571264,171.52133716426516,3.237724376958795e-05,0.096440702676773,0,0,0
15893,552054.9761084818,2010-11-22 21:06:48,2941.464593373073,2,49,0.5501165986061096,3.984021425247192,47.47728826344298,47.02915967959906,189.4833068719412,171.52133716426516,0.0,0.096440702676773,0,0,0
15894,552084.9912523185,2010-11-22 21:07:18,2971.47973719978,2,49,0.5501165986061096,3.985964059829712,47.481874594137246,47.02915967959906,189.50158352253453,171.52133716426516,6.47544875391759e-05,0.096440702676773,0,0,0
15895,552115.006902835,2010-11-22 21:07:48,3001.495387741324,2,49,0.5499359965324402,3.9874210357666016,47.486461112738766,47.02915967959906,189.51986892109005,171.52133716426516,0.0,0.096440702676773,0,0,0
15896,552145.0219274391,2010-11-22 21:08:18,3031.510412320369,2,49,0.550297200679779,3.989525556564331,47.491047541176286,47.02915967959906,189.53816188421024,171.52133716426516,6.47544875391759e-05,0.096440702676773,0,0,0
15897,552175.0370842331,2010-11-22 21:08:48,3061.525569124469,2,49,0.5499359965324402,3.991144418716431,47.49563400313048,47.02915967959906,189.55646315466,171.52133716426516,3.237724376958795e-05,0.096440702676773,0,0,0
15898,552205.0524934123,2010-11-22 21:09:18,3091.54097829351,2,49,0.5501165986061096,3.99308705329895,47.50022042837647,47.02915967959906,189.57477256311992,171.52133716426516,9.713172767078504e-05,0.096440702676773,0,0,0
15899,552235.0678991928,2010-11-22 21:09:48,3121.556384079105,2,49,0.5499359965324402,3.9948675632476807,47.50480688568114,47.02915967959906,189.593090463314,171.52133716426516,6.47544875391759e-05,0.096440702676773,0,0,0
15900,552265.0829044837,2010-11-22 21:10:18,3151.571389364992,2,49,0.5501165986061096,3.9966483116149902,47.50939333185057,47.02915967959906,189.6114167941216,171.52133716426516,6.47544875391759e-05,0.096440702676773,0,0,0
15901,552295.0981896933,2010-11-22 21:10:48,3181.5866745846365,2,49,0.5501165986061096,3.9985909461975098,47.513979750774105,47.02915967959906,189.629751647114,171.52133716426516,3.237724376958795e-05,0.096440702676773,0,0,0
15902,552325.1134967775,2010-11-22 21:11:18,3211.601981713971,2,49,0.5501165986061096,4.000371932983398,47.51856628181272,47.02915967959906,189.6480956306194,171.52133716426516,3.24249267578125e-05,0.096440702676773,0,0,0
15903,552355.1287480124,2010-11-22 21:11:48,3241.6172329187084,2,49,0.5501165986061096,4.002638339996338,47.52315260463926,47.02915967959906,189.66644770197368,171.52133716426516,9.71794142969884e-05,0.096440702676773,0,0,0
15904,552385.1440295628,2010-11-22 21:12:18,3271.632514464182,2,49,0.5499359965324402,4.004418849945068,47.52773895692586,47.02915967959906,189.68480889920303,171.52133716426516,9.70840483205393e-05,0.096440702676773,0,0,0
15905,552415.159323795,2010-11-22 21:12:48,3301.647808686298,2,49,0.5501165986061096,4.006361484527588,47.532325295277936,47.02915967959906,189.70317905511425,171.52133716426516,6.47544875391759e-05,0.096440702676773,0,0,0
15906,552445.1745721777,2010-11-22 21:13:18,3331.663057084029,2,49,0.5499359965324402,4.008304119110107,47.53691169650256,47.02915967959906,189.721558608824,171.52133716426516,3.23295607813634e-05,0.096440702676773,0,0,0
15907,552475.1899691913,2010-11-22 21:13:48,3361.678454067653,2,49,0.5501165986061096,4.010408878326416,47.54149815478669,47.02915967959906,189.73994748619933,171.52133716426516,6.47544875391759e-05,0.096440702676773,0,0,0
15908,552505.2051337949,2010-11-22 21:14:18,3391.693618681247,2,49,0.5499359965324402,4.012351512908936,47.54608459478462,47.02915967959906,189.7583456860904,171.52133716426516,3.24249267578125e-05,0.096440702676773,0,0,0
15909,552535.2205775804,2010-11-22 21:14:48,3421.709062481733,2,49,0.5501165986061096,4.014455795288086,47.55067106908049,47.02915967959906,189.77675346360056,171.52133716426516,6.47544875391759e-05,0.096440702676773,0,0,0
15910,552565.2357016678,2010-11-22 21:15:19,3451.724186549117,2,49,0.5501165986061096,4.0165605545043945,47.55525746341555,47.02915967959906,189.79517055625504,171.52133716426516,3.24249267578125e-05,0.096440702676773,0,0,0
15911,552595.2509844112,2010-11-22 21:15:49,3481.73946929258,2,49,0.5499359965324402,4.018826961517334,47.55984392631914,47.02915967959906,189.81359772075825,171.52133716426516,6.47544875391759e-05,0.096440702676773,0,0,0
15912,552625.2662847837,2010-11-22 21:16:19,3511.754769660036,2,49,0.550297200679779,4.020931243896484,47.56443039995245,47.02915967959906,189.83203463297363,171.52133716426516,6.47544875391759e-05,0.096440702676773,0,0,0
15913,552655.2816183742,2010-11-22 21:16:49,3541.770103400797,2,49,0.5499359965324402,4.023197650909424,47.56901681064308,47.02915967959906,189.8504813713729,171.52133716426516,6.47544875391759e-05,0.096440702676773,0,0,0
15914,552685.2968454537,2010-11-22 21:17:19,3571.785330334952,2,49,0.5501165986061096,4.025302410125732,47.57360321002725,47.02915967959906,189.86893818093984,171.52133716426516,3.24249267578125e-05,0.096440702676773,0,0,0
15915,552715.312142167,2010-11-22 21:17:49,3601.800627048286,2,49,0.5501165986061096,4.027730464935303,47.57818961928064,47.02915967959906,189.8874052742983,171.52133716426516,9.70840483205393e-05,0.096440702676773,0,0,0
15916,552745.3274336122,2010-11-22 21:18:19,3631.8159185185327,2,49,0.5501165986061096,4.029835224151611,47.58277611167005,47.02915967959906,189.9058829944056,171.52133716426516,6.47544875391759e-05,0.096440702676773,0,0,0
15917,552775.3428329317,2010-11-22 21:18:49,3661.8313178129247,2,49,0.5499359965324402,4.032101631164551,47.58736257435356,47.02915967959906,189.92437097946635,171.52133716426516,3.24249267578125e-05,0.096440702676773,0,0,0
15918,552805.3579968434,2010-11-22 21:19:19,3691.8464817247664,2,49,0.5501165986061096,4.034529685974121,47.59194904100192,47.02915967959906,189.94286962572085,171.52133716426516,6.47544875391759e-05,0.096440702676773,0,0,0
15919,552835.3732965041,2010-11-22 21:19:49,3721.8617813854585,2,49,0.5501165986061096,4.036957740783691,47.59653547699084,47.02915967959906,189.9613787988797,171.52133716426516,9.70840483205393e-05,0.096440702676773,0,0,0
15920,552865.38857417,2010-11-22 21:20:19,3751.8770590462345,2,49,0.5499359965324402,4.039224147796631,47.60112192565085,47.02915967959906,189.9798988707476,171.52133716426516,6.47544875391759e-05,0.096440702676773,0,0,0
15921,552895.4038754747,2010-11-22 21:20:49,3781.8923603460175,2,49,0.5501165986061096,4.041652679443359,47.60570845235578,47.02915967959906,189.99843007594183,171.52133716426516,0.0001295089750783,0.096440702676773,0,0,0
15922,552925.4192789345,2010-11-22 21:21:19,3811.90776381082,2,49,0.5497553944587708,4.04375696182251,47.61029491470662,47.02915967959906,190.0169720726986,171.52133716426516,3.23295607813634e-05,0.096440702676773,0,0,0
15923,552955.4346019184,2010-11-22 21:21:49,3841.9230868248046,2,49,0.5501165986061096,4.046347141265869,47.61488140455473,47.02915967959906,190.03552536989463,171.52133716426516,3.23295607813634e-05,0.096440702676773,0,0,0
15924,552985.4497518253,2010-11-22 21:22:19,3871.938236711638,2,49,0.5501165986061096,4.049099445343018,47.61946777373648,47.02915967959906,190.05408947341897,171.52133716426516,9.71794142969884e-05,0.096440702676773,0,0,0
15925,553015.4650771501,2010-11-22 21:22:49,3901.953562206817,2,49,0.5501165986061096,4.051365852355957,47.624054221523785,47.02915967959906,190.07266524965053,171.52133716426516,6.47544875391759e-05,0.096440702676773,0,0,0
15926,553045.4803164852,2010-11-22 21:23:19,3931.968801361475,2,49,0.5501165986061096,4.054117679595947,47.62864076589221,47.02915967959906,190.0912529411219,171.52133716426516,9.70840483205393e-05,0.096440702676773,0,0,0
15927,553075.4958266463,2010-11-22 21:23:49,3961.984311527621,2,49,0.5501165986061096,4.056546211242676,47.6332272678542,47.02915967959906,190.1098520928724,171.52133716426516,9.71794142969884e-05,0.096440702676773,0,0,0
15928,553105.5110498762,2010-11-22 21:24:19,3991.9995347675545,2,49,0.5499359965324402,4.058974266052246,47.63781339543756,47.02915967959906,190.128461439676,171.52133716426516,6.47544875391759e-05,0.096440702676773,0,0,0
15929,553135.5262031314,2010-11-22 21:24:49,4022.014688027808,2,49,0.5499359965324402,4.0615644454956055,47.64239902878899,47.02915967959906,190.14708042183725,171.52133716426516,9.70840483205393e-05,0.096440702676773,0,0,0
15930,553165.541506702,2010-11-22 21:25:19,4052.0299915832206,2,49,0.5499359965324402,4.064316749572754,47.64698455731366,47.02915967959906,190.1657109048304,171.52133716426516,6.47544875391759e-05,0.096440702676773,0,0,0
15931,553195.5567930645,2010-11-22 21:25:49,4082.045277940706,2,49,0.5499359965324402,4.066744804382324,47.65157012683078,47.02915967959906,190.18435363639605,171.52133716426516,3.23295607813634e-05,0.096440702676773,0,0,0
15932,553225.5720827401,2010-11-22 21:26:19,4112.060567611461,2,49,0.5501165986061096,4.069497108459473,47.65615605851551,47.02915967959906,190.20301020770697,171.52133716426516,6.47544875391759e-05,0.096440702676773,0,0,0
15933,553255.587498621,2010-11-22 21:26:49,4142.075983502281,2,49,0.5499359965324402,4.072248935699463,47.660742587819406,47.02915967959906,190.22168161033457,171.52133716426516,6.47544875391759e-05,0.096440702676773,0,0,0
15934,553285.6027280514,2010-11-22 21:27:19,4172.091212922642,2,49,0.5501165986061096,4.075001239776611,47.66532909210364,47.02915967959906,190.24036540413795,171.52133716426516,6.47544875391759e-05,0.096440702676773,0,0,0
15935,553315.6179745845,2010-11-22 21:27:49,4202.106459460731,2,49,0.5501165986061096,4.077753067016602,47.6699155725648,47.02915967959906,190.25906164839984,171.52133716426516,9.70840483205393e-05,0.096440702676773,0,0,0
15936,553345.6332605961,2010-11-22 21:28:19,4232.12174546734,2,49,0.5501165986061096,4.08050537109375,47.67450203860129,47.02915967959906,190.27777053765365,171.52133716426516,3.24249267578125e-05,0.096440702676773,0,0,0
15937,553375.6485833745,2010-11-22 21:28:49,4262.137068270798,2,49,0.550297200679779,4.083419322967529,47.67908851969676,47.02915967959906,190.2964923039389,171.52133716426516,6.47544875391759e-05,0.096440702676773,0,0,0
15938,553405.6638695615,2010-11-22 21:29:19,4292.152354457858,2,49,0.5501165986061096,4.08617115020752,47.68367498703911,47.02915967959906,190.315226990776,171.52133716426516,6.47544875391759e-05,0.096440702676773,0,0,0
15939,553435.6792960087,2010-11-22 21:29:49,4322.167780879966,2,49,0.5501165986061096,4.089085102081299,47.6882614180696,47.02915967959906,190.33397446279577,171.52133716426516,9.70840483205393e-05,0.096440702676773,0,0,0
15940,553465.6944440709,2010-11-22 21:30:19,4352.18292897232,2,49,0.5501165986061096,4.091837406158447,47.69284779483522,47.02915967959906,190.3527348426981,171.52133716426516,6.47544875391759e-05,0.096440702676773,0,0,0
15941,553495.7097443182,2010-11-22 21:30:49,4382.1982291894,2,49,0.5501165986061096,4.094913005828857,47.69743421453104,47.02915967959906,190.3715085917179,171.52133716426516,9.70840483205393e-05,0.096440702676773,0,0,0
15942,553525.7250376029,2010-11-22 21:31:19,4412.213522479188,2,49,0.5499359965324402,4.097665309906006,47.70202068823382,47.02915967959906,190.3902960292721,171.52133716426516,6.47544875391759e-05,0.096440702676773,0,0,0
15943,553555.7403478852,2010-11-22 21:31:49,4442.228832761393,2,49,0.5501165986061096,4.100579261779785,47.70660711509191,47.02915967959906,190.4090967752866,171.52133716426516,6.47544875391759e-05,0.096440702676773,0,0,0
15944,553585.7556550746,2010-11-22 21:32:19,4472.24413997594,2,49,0.5501165986061096,4.103654861450195,47.71119359452231,47.02915967959906,190.4279112676776,171.52133716426516,6.47544875391759e-05,0.096440702676773,0,0,0
15945,553615.7710164143,2010-11-22 21:32:49,4502.259501290529,2,49,0.5501165986061096,4.106730937957764,47.715780086226445,47.02915967959906,190.44673963640105,171.52133716426516,9.71794142969884e-05,0.096440702676773,0,0,0
15946,553645.786631768,2010-11-22 21:33:19,4532.275116649252,2,49,0.5501165986061096,4.109644889831543,47.72036662202285,47.02915967959906,190.465582055014,171.52133716426516,6.47544875391759e-05,0.096440702676773,0,0,0
15947,553675.8015436908,2010-11-22 21:33:49,4562.290028577102,2,49,0.5501165986061096,4.112720489501953,47.724953072403885,47.02915967959906,190.48443810199467,171.52133716426516,6.47544875391759e-05,0.096440702676773,0,0,0
15948,553705.8168306598,2010-11-22 21:34:19,4592.3053155360885,2,49,0.550297200679779,4.115796089172363,47.72953952415884,47.02915967959906,190.5033082034276,171.52133716426516,6.47544875391759e-05,0.096440702676773,0,0,0
15949,553735.8323043999,2010-11-22 21:34:49,4622.320789311397,2,49,0.5499359965324402,4.118872165679932,47.73412602993436,47.02915967959906,190.5221926845124,171.52133716426516,9.71794142969884e-05,0.096440702676773,0,0,0
15950,553765.8474285576,2010-11-22 21:35:19,4652.335913428906,2,49,0.5501165986061096,4.122109889984131,47.73871250539568,47.02915967959906,190.54109128361853,171.52133716426516,6.47544875391759e-05,0.096440702676773,0,0,0
15951,553795.8627540829,2010-11-22 21:35:49,4682.351238989246,2,49,0.550297200679779,4.12534761428833,47.74329898097877,47.02915967959906,190.56000430875852,171.52133716426516,6.47544875391759e-05,0.096440702676773,0,0,0
15952,553825.8780434579,2010-11-22 21:36:19,4712.366528334188,2,49,0.550297200679779,4.128585338592529,47.74788542013679,47.02915967959906,190.57893167232544,171.52133716426516,0.0001295089750783,0.096440702676773,0,0,0
15953,553855.8933657903,2010-11-22 21:36:49,4742.381850666472,2,49,0.5501165986061096,4.131499290466309,47.75247187253306,47.02915967959906,190.59787365243332,171.52133716426516,6.47544875391759e-05,0.096440702676773,0,0,0
15954,553885.9086737667,2010-11-22 21:37:19,4772.397158657958,2,49,0.5501165986061096,4.134737014770508,47.75705828607556,47.02915967959906,190.6168302382907,171.52133716426516,6.47544875391759e-05,0.096440702676773,0,0,0
15955,553915.9239518936,2010-11-22 21:37:49,4802.412436774872,2,49,0.5501165986061096,4.138136386871338,47.76164479971299,47.02915967959906,190.6358021351804,171.52133716426516,9.70840483205393e-05,0.096440702676773,0,0,0
15956,553945.9392381458,2010-11-22 21:38:19,4832.427723022082,2,49,0.5499359965324402,4.141212463378906,47.76623126230347,47.02915967959906,190.65478893653017,171.52133716426516,3.24249267578125e-05,0.096440702676773,0,0,0
15957,553975.954540453,2010-11-22 21:38:49,4862.443025334393,2,49,0.5499359965324402,4.144773960113525,47.77081777793778,47.02915967959906,190.67379117932,171.52133716426516,6.47544875391759e-05,0.096440702676773,0,0,0
15958,554005.9698645247,2010-11-22 21:39:19,4892.458349401005,2,49,0.5501165986061096,4.148173332214356,47.77540426235139,47.02915967959906,190.6928090562436,171.52133716426516,6.47544875391759e-05,0.096440702676773,0,0,0
15959,554035.9855460436,2010-11-22 21:39:49,4922.474030919873,2,49,0.550297200679779,4.151573181152344,47.77999073036267,47.02915967959906,190.7118423663861,171.52133716426516,6.47544875391759e-05,0.096440702676773,0,0,0
15960,554066.0004519614,2010-11-22 21:40:19,4952.488936837722,2,49,0.5501165986061096,4.154972553253174,47.78457712692868,47.02915967959906,190.7308909087168,171.52133716426516,6.47544875391759e-05,0.096440702676773,0,0,0
15961,554096.0157526096,2010-11-22 21:40:49,4982.504237490891,2,49,0.5501165986061096,4.158534049987793,47.78916357171066,47.02915967959906,190.74995535397107,171.52133716426516,9.70840483205393e-05,0.096440702676773,0,0,0
15962,554126.0311934075,2010-11-22 21:41:19,5012.519678298907,2,49,0.5501165986061096,4.161933898925781,47.7937500221667,47.02915967959906,190.76903564083236,171.52133716426516,9.71794142969884e-05,0.096440702676773,0,0,0
15963,554156.0465169279,2010-11-22 21:41:49,5042.535001809131,2,49,0.5501165986061096,4.165333271026611,47.79833653008794,47.02915967959906,190.7881320653141,171.52133716426516,6.47544875391759e-05,0.096440702676773,0,0,0
15964,554186.0617941074,2010-11-22 21:42:19,5072.550278988707,2,49,0.550297200679779,4.168894767761231,47.80292284183459,47.02915967959906,190.80724350262523,171.52133716426516,0.0001295089750783,0.096440702676773,0,0,0
15965,554216.0771324747,2010-11-22 21:42:49,5102.565617361028,2,49,0.550297200679779,4.17245626449585,47.807509246984125,47.02915967959906,190.82637143619007,171.52133716426516,9.70840483205393e-05,0.096440702676773,0,0,0
15966,554246.0922739255,2010-11-22 21:43:19,5132.580758811803,2,49,0.5501165986061096,4.175856113433838,47.81209567367103,47.02915967959906,190.8455157191144,171.52133716426516,6.47544875391759e-05,0.096440702676773,0,0,0
15967,554276.1075980272,2010-11-22 21:43:49,5162.596082908491,2,49,0.5501165986061096,4.179417610168457,47.81668204898416,47.02915967959906,190.8646759112446,171.52133716426516,9.71794142969884e-05,0.096440702676773,0,0,0
15968,554306.1228844348,2010-11-22 21:44:19,5192.611369311087,2,49,0.5501165986061096,4.182979106903076,47.82126844220552,47.02915967959906,190.88385256809,171.52133716426516,6.47544875391759e-05,0.096440702676773,0,0,0
15969,554336.1381974989,2010-11-22 21:44:49,5222.626682380249,2,49,0.5501165986061096,4.186702251434326,47.82585491319874,47.02915967959906,190.90304602722264,171.52133716426516,0.0001295089750783,0.096440702676773,0,0,0
15970,554366.1535093901,2010-11-22 21:45:19,5252.641994266458,2,49,0.5501165986061096,4.190263748168945,47.83044133265509,47.02915967959906,190.9222559112044,171.52133716426516,9.70840483205393e-05,0.096440702676773,0,0,0
15971,554396.1689603184,2010-11-22 21:45:49,5282.657445209773,2,49,0.5499359965324402,4.193663597106934,47.83502776333442,47.02915967959906,190.9414824643555,171.52133716426516,3.24249267578125e-05,0.096440702676773,0,0,0
15972,554426.184093659,2010-11-22 21:46:19,5312.67257854028,2,49,0.550297200679779,4.197710514068604,47.83961420068724,47.02915967959906,190.9607258638152,171.52133716426516,0.0001295089750783,0.096440702676773,0,0,0
15973,554445.5277432743,2010-11-22 21:46:39,5332.016228250903,2,49,0.550297200679779,4.200138568878174,47.842570034092354,47.02915967959906,190.9731366528524,171.52133716426516,0.0001295089750783,0.096440702676773,0,0,0
15974,554475.5149197911,2010-11-22 21:47:09,30.01505019298171,3,49,0.0,4.112396717071533,47.842570034092354,47.02915967959906,190.9731366528524,171.52133716426516,-0.0004209518374409,0.096440702676773,0,0,0
15975,554505.5303869649,2010-11-22 21:47:39,60.03051734174921,3,49,0.0,4.101712226867676,47.842570034092354,47.02915967959906,190.9731366528524,171.52133716426516,-0.0002266883820993,0.096440702676773,0,0,0
15976,554535.5454773181,2010-11-22 21:48:09,90.04560769998959,3,49,0.0,4.095075130462647,47.842570034092354,47.02915967959906,190.9731366528524,171.52133716426516,-0.0001618385285837,0.096440702676773,0,0,0
15977,554565.5139701618,2010-11-22 21:48:39,120.01410053865224,3,49,0.0,4.091027736663818,47.842570034092354,47.02915967959906,190.9731366528524,171.52133716426516,-6.47544875391759e-05,0.096440702676773,0,0,0
15978,554565.518734908,2010-11-22 21:48:39,0.03124458629425,4,49,0.9891777634620668,4.199814796447754,47.84257864652367,47.02915967959906,190.97317282382247,171.52133716426516,-3.24249267578125e-05,0.096440702676773,0,0,0
15979,554566.4875191826,2010-11-22 21:48:40,1.000028855874857,4,49,0.939149022102356,4.199814796447754,47.84283642158224,47.02915967959906,190.9742554185697,171.52133716426516,-3.24249267578125e-05,0.096440702676773,0,0,0
15980,554568.6753579096,2010-11-22 21:48:42,3.18786761801574,4,49,0.888939619064331,4.199653148651123,47.84339071903134,47.02915967959906,190.9765833322317,171.52133716426516,-6.47544875391759e-05,0.096440702676773,0,0,0
15981,554571.9719211287,2010-11-22 21:48:46,6.484430811911271,4,49,0.8387302160263062,4.199814796447754,47.84418046727698,47.02915967959906,190.9799000852623,171.52133716426516,3.23295607813634e-05,0.096440702676773,0,0,0
15982,554576.4717477531,2010-11-22 21:48:50,10.98425743143462,4,49,0.7887014746665955,4.199653148651123,47.845196184470666,47.02915967959906,190.98416587655885,171.52133716426516,0.0,0.096440702676773,0,0,0
15983,554582.3936786588,2010-11-22 21:48:56,16.906188337041304,4,49,0.7381308674812317,4.199653148651123,47.84645073647118,47.02915967959906,190.98943473528087,171.52133716426516,-6.47544875391759e-05,0.096440702676773,0,0,0
15984,554590.2374572819,2010-11-22 21:49:04,24.749967110595296,4,49,0.688102126121521,4.199814796447754,47.848002450546645,47.02915967959906,190.99595160423613,171.52133716426516,0.0,0.096440702676773,0,0,0
15985,554600.674753048,2010-11-22 21:49:14,35.18726274122714,4,49,0.6380733251571655,4.199814796447754,47.84992115649028,47.02915967959906,191.00400977601004,171.52133716426516,0.0,0.096440702676773,0,0,0
15986,554615.3307174648,2010-11-22 21:49:29,49.84322714313807,4,49,0.5880445837974548,4.199814796447754,47.85241097462768,47.02915967959906,191.0144665179714,171.52133716426516,0.0,0.096440702676773,0,0,0
15987,554638.1117237163,2010-11-22 21:49:52,72.62423339952419,4,49,0.5380157828330994,4.199814796447754,47.85596220312538,47.02915967959906,191.0293809764636,171.52133716426516,3.23295607813634e-05,0.096440702676773,0,0,0
15988,554678.5956792727,2010-11-22 21:50:32,113.10818897093128,4,49,0.4879870116710663,4.199814796447754,47.86170430171578,47.02915967959906,191.0534965947502,171.52133716426516,3.23295607813634e-05,0.096440702676773,0,0,0
15989,554751.3605235284,2010-11-22 21:51:45,185.8730332017228,4,49,0.4379582405090332,4.199814796447754,47.87101975862217,47.02915967959906,191.0926196094476,171.52133716426516,0.0,0.096440702676773,0,0,0
15990,554857.9532670854,2010-11-22 21:53:32,292.46577676353667,4,49,0.3877488672733307,4.199814796447754,47.88322174930087,47.02915967959906,191.1438654878855,171.52133716426516,0.0,0.096440702676773,0,0,0
15991,554990.4673990855,2010-11-22 21:55:44,424.97990879888647,4,49,0.3377200961112976,4.199653148651123,47.89656026076908,47.02915967959906,191.19988446205824,171.52133716426516,-3.23295607813634e-05,0.096440702676773,0,0,0
15992,555147.0751125768,2010-11-22 21:58:21,581.5876222551677,4,49,0.2876913249492645,4.199653148651123,47.91014061642337,47.02915967959906,191.25691918458045,171.52133716426516,-6.47544875391759e-05,0.096440702676773,0,0,0
15993,555335.8076283971,2010-11-22 22:01:29,770.3201381656519,4,49,0.2376625686883926,4.199814796447754,47.92388453912706,47.02915967959906,191.31464082196865,171.52133716426516,0.0,0.096440702676773,0,0,0
15994,555571.4612368783,2010-11-22 22:05:25,1005.9737465616096,4,49,0.1876337975263595,4.199653148651123,47.93776268846469,47.02915967959906,191.372926274432,171.52133716426516,-3.23295607813634e-05,0.096440702676773,0,0,0
15995,555883.0205170739,2010-11-22 22:10:37,1317.5330267571746,4,49,0.1376050263643264,4.199653148651123,47.951749094809166,47.02915967959906,191.43166623253543,171.52133716426516,-3.23295607813634e-05,0.096440702676773,0,0,0
15996,556368.5935918521,2010-11-22 22:18:42,1803.106101535371,4,49,0.0875762552022934,4.199814796447754,47.966689338046365,47.02915967959906,191.4944121728912,171.52133716426516,0.0,0.096440702676773,0,0,0
15997,557034.7273507564,2010-11-22 22:29:48,2469.239860469788,4,49,0.0498289167881011,4.199653148651123,47.97906126199592,47.02915967959906,191.54637169733363,171.52133716426516,-6.47544875391759e-05,0.096440702676773,0,0,0
15998,557064.726319152,2010-11-22 22:30:19,30.01530984611588,5,49,0.0,4.191720962524414,47.97906126199592,47.02915967959906,191.54637169733363,171.52133716426516,-6.47544875391759e-05,0.096440702676773,0,0,0
15999,557094.7260043717,2010-11-22 22:30:49,60.01499505573528,5,49,0.0,4.190587520599365,47.97906126199592,47.02915967959906,191.54637169733363,171.52133716426516,0.0,0.096440702676773,0,0,0
16000,557094.9135729632,2010-11-22 22:30:49,0.187623532201534,6,49,-1.9243103452026844e-05,4.190587520599365,47.97906126199592,47.02915968060197,191.54637169733363,171.5213371684679,0.0,0.0947341993451118,0,0,0
16001,557099.7415322172,2010-11-22 22:30:54,5.01558278125012,6,49,0.0005225847125984,4.190425872802734,47.9790621453006,47.02915968068513,191.54637539895057,171.52133716881642,-6.47544875391759e-05,0.0947341993451118,0,0,0
16002,557129.7411993509,2010-11-22 22:31:24,30.015311640595176,7,49,-1.0997490882873535,4.011541843414307,47.9790621453006,47.038328508610284,191.54637539895057,171.558318902864,-0.0009713172912597,0.0947341993451118,0,0,0
16003,557159.7565562094,2010-11-22 22:31:54,60.03066851911117,7,49,-1.099568486213684,3.984668970108032,47.9790621453006,47.0474973942825,191.54637539895057,171.5949677740709,-0.0005827903514727,0.0947341993451118,0,0,0
16004,557189.7720327667,2010-11-22 22:32:24,90.04614505631365,7,49,-1.099929690361023,3.965566396713257,47.9790621453006,47.05666618598717,191.54637539895057,171.63141077115387,-0.0004532813909463,0.0947341993451118,0,0,0
16005,557219.7872054505,2010-11-22 22:32:54,120.06131774005114,7,49,-1.099568486213684,3.95132040977478,47.9790621453006,47.06583483947422,191.54637539895057,171.66770181519922,-0.0003237724304199,0.0947341993451118,0,0,0
16006,557249.8024641589,2010-11-22 22:33:24,150.07657645353208,7,49,-1.099929690361023,3.938855171203613,47.9790621453006,47.07500357601347,191.54637539895057,171.70387082557022,-0.0002913951757363,0.0947341993451118,0,0,0
16007,557279.8179000848,2010-11-22 22:33:54,180.09201238437484,7,49,-1.0997490882873535,3.927685022354126,47.9790621453006,47.08417232600696,191.54637539895057,171.7399327364865,-0.0002913951757363,0.0947341993451118,0,0,0
16008,557309.8330974953,2010-11-22 22:34:24,210.10720979483403,7,49,-1.0997490882873535,3.9171624183654794,47.9790621453006,47.0933410865188,191.54637539895057,171.77589598230426,-0.0002913951757363,0.0947341993451118,0,0,0
16009,557339.8484190356,2010-11-22 22:34:54,240.1225313351404,7,49,-1.099568486213684,3.90744948387146,47.9790621453006,47.10250984001869,191.54637539895057,171.81176695290853,-0.0002266406954731,0.0947341993451118,0,0,0
16010,557369.863723794,2010-11-22 22:35:24,270.1378360935566,7,49,-1.0997490882873535,3.897898197174072,47.9790621453006,47.11167856312104,191.54637539895057,171.8475495621551,-0.0002590179501567,0.0947341993451118,0,0,0
16011,557399.8790255449,2010-11-22 22:35:54,300.1531378394531,7,49,-1.099568486213684,3.8891563415527344,47.9790621453006,47.12084735053598,191.54637539895057,171.88324870685236,-0.0002266406954731,0.0947341993451118,0,0,0
16012,557429.8943858218,2010-11-22 22:36:24,330.1684981415148,7,49,-1.099568486213684,3.8802525997161865,47.9790621453006,47.13001615210607,191.54637539895057,171.91886656964854,-0.0002590179501567,0.0947341993451118,0,0,0
16013,557459.9096579539,2010-11-22 22:36:54,360.1837702534403,7,49,-1.099568486213684,3.8716726303100586,47.9790621453006,47.13918492088917,191.54637539895057,171.9544038678454,-0.0001942634553415,0.0947341993451118,0,0,0
16014,557489.9249764215,2010-11-22 22:37:24,390.1990887110518,7,49,-1.099568486213684,3.863416433334351,47.9790621453006,47.148353697882506,191.54637539895057,171.989863143705,-0.0001942634553415,0.0947341993451118,0,0,0
16015,557519.940281245,2010-11-22 22:37:54,420.2143935346306,7,49,-1.0997490882873535,3.8549983501434326,47.9790621453006,47.15752253377621,191.54637539895057,172.0252471025306,-0.0002266406954731,0.0947341993451118,0,0,0
16016,557549.9557618524,2010-11-22 22:38:24,450.22987415201794,7,49,-1.0997490882873535,3.8467421531677246,47.9790621453006,47.166691337748965,191.54637539895057,172.0605557841941,-0.0002590179501567,0.0947341993451118,0,0,0
16017,557579.9709113984,2010-11-22 22:38:54,480.245023698,7,49,-1.099568486213684,3.839133501052856,47.9790621453006,47.17586010538294,191.54637539895057,172.09579014746413,-0.0001618862152099,0.0947341993451118,0,0,0
16018,557609.986246678,2010-11-22 22:39:24,510.2603589675768,7,49,-1.0997490882873535,3.830877542495728,47.9790621453006,47.18502896651799,191.54637539895057,172.13095199439132,-0.0002266406954731,0.0947341993451118,0,0,0
16019,557640.0015596017,2010-11-22 22:39:54,540.2756719164375,7,49,-1.0997490882873535,3.8231070041656494,47.9790621453006,47.19419778571315,191.54637539895057,172.16604210731848,-0.0002266406954731,0.0947341993451118,0,0,0
16020,557670.0168696585,2010-11-22 22:40:24,570.2909819480165,7,49,-1.0997490882873535,3.815498352050781,47.9790621453006,47.2033666019957,191.54637539895057,172.2010619590352,-0.0002266406954731,0.0947341993451118,0,0,0
16021,557700.0321731787,2010-11-22 22:40:54,600.3062854683421,7,49,-1.099929690361023,3.808051586151123,47.9790621453006,47.21253539499086,191.54637539895057,172.23601235866042,-0.0001942634553415,0.0947341993451118,0,0,0
16022,557730.0474877316,2010-11-22 22:41:24,630.3216000212068,7,49,-1.0997490882873535,3.8009285926818848,47.9790621453006,47.22170419409332,191.54637539895057,172.27089512115944,-0.0001618862152099,0.0947341993451118,0,0,0
16023,557760.0632016063,2010-11-22 22:41:54,660.337313905865,7,49,-1.099568486213684,3.7938055992126474,47.9790621453006,47.23087320207763,191.54637539895057,172.30571260364664,-0.0002266406954731,0.0947341993451118,0,0,0
16024,557790.0781311481,2010-11-22 22:42:24,690.3522434426703,7,49,-1.099568486213684,3.786844491958618,47.9790621453006,47.24004188717109,191.54637539895057,172.34046421699836,-0.0001618862152099,0.0947341993451118,0,0,0
16025,557820.0934409741,2010-11-22 22:42:54,720.3675532737487,7,49,-1.0997490882873535,3.77988338470459,47.9790621453006,47.249210771008585,191.54637539895057,172.3751531138385,-0.0001942634553415,0.0947341993451118,0,0,0
16026,557850.1087661484,2010-11-22 22:43:24,750.3828784431138,7,49,-1.099568486213684,3.773084163665772,47.9790621453006,47.25837967081313,191.54637539895057,172.40978016485508,-0.0002266406954731,0.0947341993451118,0,0,0
16027,557880.1241295583,2010-11-22 22:43:54,780.3982418479203,7,49,-1.0997490882873535,3.766608715057373,47.9790621453006,47.26754852929942,191.54637539895057,172.44434645134822,-0.0001618862152099,0.0947341993451118,0,0,0
16028,557910.1393906928,2010-11-22 22:44:24,810.4135029824446,7,49,-1.0997490882873535,3.760295152664185,47.9790621453006,47.276717402841314,191.54637539895057,172.4788536989834,-0.0001942634553415,0.0947341993451118,0,0,0
16029,557940.1548185936,2010-11-22 22:44:54,840.4289308832432,7,49,-1.0997490882873535,3.754143476486206,47.9790621453006,47.28588631536152,191.54637539895057,172.51330353744368,-0.0001618862152099,0.0947341993451118,0,0,0
16030,557970.1700386556,2010-11-22 22:45:24,870.4441509452441,7,49,-1.099929690361023,3.7478301525115967,47.9790621453006,47.2950551400369,191.54637539895057,172.5476954322427,-0.0001942634553415,0.0947341993451118,0,0,0
16031,558000.1853736846,2010-11-22 22:45:54,900.4594859692077,7,49,-1.099929690361023,3.741840362548828,47.9790621453006,47.30422405162791,191.54637539895057,172.58203128930927,-0.0001295089750783,0.0947341993451118,0,0,0
16032,558030.2006636561,2010-11-22 22:46:24,930.474775955751,7,49,-1.0997490882873535,3.73585057258606,47.9790621453006,47.313392951295945,191.54637539895057,172.61631238323284,-0.0001942634553415,0.0947341993451118,0,0,0
16033,558060.2159747905,2010-11-22 22:46:54,960.4900871101324,7,49,-1.099929690361023,3.730022668838501,47.9790621453006,47.322561864531856,191.54637539895057,172.65053936902666,-0.0001618862152099,0.0947341993451118,0,0,0
16034,558090.2312760301,2010-11-22 22:47:24,990.5053883196904,7,49,-1.0997490882873535,3.724356651306152,47.9790621453006,47.33173071348965,191.54637539895057,172.68471315312925,-0.0001618862152099,0.0947341993451118,0,0,0
16035,558120.2465943324,2010-11-22 22:47:54,1020.5207066319388,7,49,-1.0997490882873535,3.7185287475585938,47.9790621453006,47.34089951480363,191.54637539895057,172.71883441159997,-0.0001618862152099,0.0947341993451118,0,0,0
16036,558150.2621633153,2010-11-22 22:48:24,1050.5362756349502,7,49,-1.0997490882873535,3.713024616241455,47.9790621453006,47.35006851622336,191.54637539895057,172.75290473489116,-0.0001295089750783,0.0947341993451118,0,0,0
16037,558180.277382896,2010-11-22 22:48:54,1080.5514951906875,7,49,-1.099568486213684,3.7076823711395264,47.9790621453006,47.35923736896402,191.54637539895057,172.78692380480013,-0.0001295089750783,0.0947341993451118,0,0,0
16038,558210.2926776595,2010-11-22 22:49:24,1110.5667899541547,7,49,-1.0997490882873535,3.702178239822388,47.9790621453006,47.36840629097279,191.54637539895057,172.82089310088136,-0.0001618862152099,0.0947341993451118,0,0,0
16039,558240.3078507542,2010-11-22 22:49:54,1140.5819630439055,7,49,-1.099568486213684,3.696674108505249,47.9790621453006,47.37757516767593,191.54637539895057,172.85481262170777,-0.0001618862152099,0.0947341993451118,0,0,0
16040,558270.3238889384,2010-11-22 22:50:24,1170.5980013583908,7,49,-1.0997490882873535,3.6914937496185294,47.9790621453006,47.38674432281004,191.54637539895057,172.88868452385873,-0.0001295089750783,0.0947341993451118,0,0,0
16041,558300.3384835792,2010-11-22 22:50:54,1200.612595878944,7,49,-1.0997490882873535,3.686313390731812,47.9790621453006,47.39591295054415,191.54637539895057,172.92250655607438,-0.0001295089750783,0.0947341993451118,0,0,0
16042,558330.3538037562,2010-11-22 22:51:24,1230.6279160558472,7,49,-1.099568486213684,3.6811330318450928,47.9790621453006,47.405081851703805,191.54637539895057,172.95628217374087,-0.0001295089750783,0.0947341993451118,0,0,0
16043,558360.3691155572,2010-11-22 22:51:54,1260.6432278518305,7,49,-1.099568486213684,3.676114559173584,47.9790621453006,47.414250716150654,191.54637539895057,172.99001116296782,-0.0001295089750783,0.0947341993451118,0,0,0
16044,558390.3844470624,2010-11-22 22:52:24,1290.6585593570103,7,49,-1.0997490882873535,3.671258211135864,47.9790621453006,47.42341964028117,191.54637539895057,173.02369479747273,-9.713172767078504e-05,0.0947341993451118,0,0,0
16045,558420.3997692744,2010-11-22 22:52:54,1320.673881604081,7,49,-1.099568486213684,3.666401624679565,47.9790621453006,47.43258853101696,191.54637539895057,173.05733336992571,-0.0001295089750783,0.0947341993451118,0,0,0
16046,558450.4150783535,2010-11-22 22:53:24,1350.6891906532076,7,49,-1.0997490882873535,3.661706924438477,47.9790621453006,47.44175745457875,191.54637539895057,173.0909280633414,-9.713172767078504e-05,0.0947341993451118,0,0,0
16047,558480.4304961993,2010-11-22 22:53:54,1380.7046085339946,7,49,-1.099929690361023,3.656688451766968,47.9790621453006,47.45092639254989,191.54637539895057,173.12447912051095,-0.0001618862152099,0.0947341993451118,0,0,0
16048,558510.4458397495,2010-11-22 22:54:24,1410.719952049153,7,49,-1.0997490882873535,3.652317523956299,47.9790621453006,47.46009525921669,191.54637539895057,173.15798699031404,-0.0001295089750783,0.0947341993451118,0,0,0
16049,558540.4610190397,2010-11-22 22:54:54,1440.7351313393815,7,49,-1.0997490882873535,3.64778470993042,47.9790621453006,47.469264145105846,191.54637539895057,173.19145304627656,-9.713172767078504e-05,0.0947341993451118,0,0,0
16050,558570.4763402943,2010-11-22 22:55:24,1470.7504525939753,7,49,-1.099568486213684,3.643251895904541,47.9790621453006,47.47843295640314,191.54637539895057,173.2248768989815,-9.713172767078504e-05,0.0947341993451118,0,0,0
16051,558600.4917788317,2010-11-22 22:55:55,1500.7658912365866,7,49,-1.099929690361023,3.638557195663452,47.9790621453006,47.48760190107905,191.54637539895057,173.25826017902898,-0.0001295089750783,0.0947341993451118,0,0,0
16052,558630.5069796205,2010-11-22 22:56:25,1530.7810919152037,7,49,-1.0997490882873535,3.634348154067993,47.9790621453006,47.49677072642951,191.54637539895057,173.29160251829975,-9.713172767078504e-05,0.0947341993451118,0,0,0
16053,558660.5222834616,2010-11-22 22:56:55,1560.7963957613426,7,49,-1.0997490882873535,3.629977226257324,47.9790621453006,47.50593957017395,191.54637539895057,173.32490510638172,-9.713172767078504e-05,0.0947341993451118,0,0,0
16054,558690.5376340846,2010-11-22 22:57:25,1590.8117464042937,7,49,-1.0997490882873535,3.625768184661865,47.9790621453006,47.51510848252705,191.54637539895057,173.35816868075,-9.713172767078504e-05,0.0947341993451118,0,0,0
16055,558720.5529177103,2010-11-22 22:57:55,1620.8270300048969,7,49,-1.0997490882873535,3.621721029281616,47.9790621453006,47.5242773508635,191.54637539895057,173.39139407311984,-0.0001295089750783,0.0947341993451118,0,0,0
16056,558750.5683556261,2010-11-22 22:58:25,1650.8424680510195,7,49,-1.0997490882873535,3.617673873901367,47.9790621453006,47.53344626555238,191.54637539895057,173.424582762545,-0.0001295089750783,0.0947341993451118,0,0,0
16057,558780.583559232,2010-11-22 22:58:55,1680.857671521606,7,49,-1.099568486213684,3.613788604736328,47.9790621453006,47.542615064558206,191.54637539895057,173.45773498383724,-0.0001295089750783,0.0947341993451118,0,0,0
16058,558810.5988863212,2010-11-22 22:59:25,1710.8729986207882,7,49,-1.0997490882873535,3.610065221786499,47.9790621453006,47.55178397645684,191.54637539895057,173.4908522418946,-6.47544875391759e-05,0.0947341993451118,0,0,0
16059,558840.6141933854,2010-11-22 22:59:55,1740.8883056749348,7,49,-1.099568486213684,3.60650372505188,47.9790621453006,47.56095286960672,191.54637539895057,173.5239348528931,-6.47544875391759e-05,0.0947341993451118,0,0,0
16060,558870.6295201688,2010-11-22 23:00:25,1770.9036324683536,7,49,-1.0997490882873535,3.602294683456421,47.9790621453006,47.570121751582285,191.54637539895057,173.55698376346606,-0.0001942634553415,0.0947341993451118,0,0,0
16061,558900.6448428018,2010-11-22 23:00:55,1800.9189551164252,7,49,-1.099929690361023,3.5990569591522217,47.9790621453006,47.579290597223945,191.54637539895057,173.5899997765181,-0.0001295089750783,0.0947341993451118,0,0,0
16062,558930.6601596955,2010-11-22 23:01:25,1830.9342719850704,7,49,-1.0997490882873535,3.5958192348480225,47.9790621453006,47.58845949564767,191.54637539895057,173.62298399346383,-6.47544875391759e-05,0.0947341993451118,0,0,0
16063,558960.6754770955,2010-11-22 23:01:55,1860.9495893900544,7,49,-1.0997490882873535,3.5920960903167725,47.9790621453006,47.597628400142426,191.54637539895057,173.6559367504389,-9.70840483205393e-05,0.0947341993451118,0,0,0
16064,558990.6908171771,2010-11-22 23:02:25,1890.9649294716428,7,49,-1.0997490882873535,3.589020252227783,47.9790621453006,47.60679730064339,191.54637539895057,173.68885892263967,-6.47544875391759e-05,0.0947341993451118,0,0,0
16065,559020.7060985571,2010-11-22 23:02:55,1920.9802108567155,7,49,-1.099568486213684,3.585782527923584,47.9790621453006,47.6159661962193,191.54637539895057,173.72175128023946,-6.47544875391759e-05,0.0947341993451118,0,0,0
16066,559050.7214175661,2010-11-22 23:03:25,1950.9955298606908,7,49,-1.099568486213684,3.5827066898345947,47.9790621453006,47.62513506449766,191.54637539895057,173.75461433206536,-9.713172767078504e-05,0.0947341993451118,0,0,0
16067,559080.736805472,2010-11-22 23:03:55,1981.0109178117689,7,49,-1.099568486213684,3.579630851745605,47.9790621453006,47.63430397722357,191.54637539895057,173.7874493642399,-9.713172767078504e-05,0.0947341993451118,0,0,0
16068,559110.752277498,2010-11-22 23:04:25,2011.0263898126475,7,49,-1.0997490882873535,3.5763931274414062,47.9790621453006,47.64347294275698,191.54637539895057,173.82025652339863,-0.0001295089750783,0.0947341993451118,0,0,0
16069,559140.767377791,2010-11-22 23:04:55,2041.0414901106992,7,49,-1.099568486213684,3.573641061782837,47.9790621453006,47.65264182140649,191.54637539895057,173.85303554057575,-3.237724376958795e-05,0.0947341993451118,0,0,0
16070,559170.7826765444,2010-11-22 23:05:25,2071.0567888541013,7,49,-1.099568486213684,3.5707271099090576,47.9790621453006,47.66181066627325,191.54637539895057,173.88578697240322,-3.237724376958795e-05,0.0947341993451118,0,0,0
16071,559200.7979935736,2010-11-22 23:05:55,2101.072105883147,7,49,-1.0997490882873535,3.5676512718200684,47.9790621453006,47.67097957126379,191.54637539895057,173.9185111102874,-9.713172767078504e-05,0.0947341993451118,0,0,0
16072,559230.8133151088,2010-11-22 23:06:25,2131.0874274184407,7,49,-1.0997490882873535,3.564575433731079,47.9790621453006,47.680148516318376,191.54637539895057,173.95120784585689,-6.47544875391759e-05,0.0947341993451118,0,0,0
16073,559260.8286218572,2010-11-22 23:06:55,2161.102734156799,7,49,-1.0997490882873535,3.5618233680725098,47.9790621453006,47.68931738061463,191.54637539895057,173.98387751702538,-6.47544875391759e-05,0.0947341993451118,0,0,0
16074,559290.8439440541,2010-11-22 23:07:25,2191.118056343719,7,49,-1.099568486213684,3.5585856437683105,47.9790621453006,47.69848633560742,191.54637539895057,174.01652101718486,-0.0001295089750783,0.0947341993451118,0,0,0
16075,559320.859252978,2010-11-22 23:07:55,2221.133365297608,7,49,-1.099568486213684,3.5555098056793213,47.9790621453006,47.70765514132556,191.54637539895057,174.04913665088526,-0.0001295089750783,0.0947341993451118,0,0,0
16076,559350.8747203824,2010-11-22 23:08:25,2251.1488326769518,7,49,-1.099568486213684,3.552757740020752,47.9790621453006,47.716823821210745,191.54637539895057,174.08172372572733,-6.47544875391759e-05,0.0947341993451118,0,0,0
16077,559380.8900464689,2010-11-22 23:08:55,2281.164158898944,7,49,-1.0997490882873535,3.5495200157165527,47.9790621453006,47.72599236664523,191.54637539895057,174.11428249139803,-9.713172767078504e-05,0.0947341993451118,0,0,0
16078,559410.905217689,2010-11-22 23:09:25,2311.179329988702,7,49,-1.0997490882873535,3.5464441776275635,47.9790621453006,47.73516097996681,191.54637539895057,174.14681294593524,-9.713172767078504e-05,0.0947341993451118,0,0,0
16079,559440.9205156656,2010-11-22 23:09:55,2341.194627960177,7,49,-1.099568486213684,3.543368339538574,47.9790621453006,47.74432968912189,191.54637539895057,174.17931467040438,-6.47544875391759e-05,0.0947341993451118,0,0,0
16080,559470.9360735859,2010-11-22 23:10:25,2371.2101858855376,7,49,-1.0997490882873535,3.539968729019165,47.9790621453006,47.75349864083435,191.54637539895057,174.21178782015608,-9.713172767078504e-05,0.0947341993451118,0,0,0
16081,559500.951153854,2010-11-22 23:10:55,2401.225266143566,7,49,-1.0997490882873535,3.536569118499756,47.9790621453006,47.762667453624665,191.54637539895057,174.24423058513733,-0.0001618862152099,0.0947341993451118,0,0,0
16082,559530.9664900408,2010-11-22 23:11:25,2431.2406023504827,7,49,-1.099568486213684,3.5333313941955566,47.9790621453006,47.77183642483034,191.54637539895057,174.27664299820654,-9.713172767078504e-05,0.0947341993451118,0,0,0
16083,559560.9817888745,2010-11-22 23:11:55,2461.255901184109,7,49,-1.0997490882873535,3.529769897460937,47.9790621453006,47.78100533823774,191.54637539895057,174.30902389975543,-0.0001295089750783,0.0947341993451118,0,0,0
16084,559590.997123312,2010-11-22 23:12:25,2491.271235636647,7,49,-1.0997490882873535,3.5262084007263184,47.9790621453006,47.79017430044611,191.54637539895057,174.34137231001478,-6.47544875391759e-05,0.0947341993451118,0,0,0
16085,559621.0124233988,2010-11-22 23:12:55,2521.286535693327,7,49,-1.0997490882873535,3.5224850177764893,47.9790621453006,47.79934327998006,191.54637539895057,174.37368690111722,-9.713172767078504e-05,0.0947341993451118,0,0,0
16086,559651.0277711144,2010-11-22 23:13:25,2551.301883413983,7,49,-1.099929690361023,3.51843786239624,47.9790621453006,47.80851219656019,191.54637539895057,174.4059663632234,-0.0001295089750783,0.0947341993451118,0,0,0
16087,559681.0434576608,2010-11-22 23:13:55,2581.3175700456136,7,49,-1.0997490882873535,3.514552593231201,47.9790621453006,47.817681173427786,191.54637539895057,174.43820989927838,-9.713172767078504e-05,0.0947341993451118,0,0,0
16088,559711.0585212171,2010-11-22 23:14:25,2611.332633511727,7,49,-1.0997490882873535,3.5105056762695312,47.9790621453006,47.82684994600674,191.54637539895057,174.4704149177351,-9.713172767078504e-05,0.0947341993451118,0,0,0
16089,559741.0737210586,2010-11-22 23:14:55,2641.3478333482426,7,49,-1.0997490882873535,3.5058109760284424,47.9790621453006,47.83601883680304,191.54637539895057,174.50258033347652,-0.0001295089750783,0.0947341993451118,0,0,0
16090,559771.0890270952,2010-11-22 23:15:25,2671.363139384849,7,49,-1.0997490882873535,3.500954389572144,47.9790621453006,47.8451877723702,191.54637539895057,174.5347026669882,-9.713172767078504e-05,0.0947341993451118,0,0,0
16091,559801.1043471318,2010-11-22 23:15:55,2701.3784594214017,7,49,-1.099568486213684,3.495612144470215,47.9790621453006,47.85435667891852,191.54637539895057,174.56677859630014,-0.0001295089750783,0.0947341993451118,0,0,0
16092,559831.1196728376,2010-11-22 23:16:25,2731.3937851271057,7,49,-1.099568486213684,3.489946126937866,47.9790621453006,47.86352561100139,191.54637539895057,174.59880373911696,-0.0001618862152099,0.0947341993451118,0,0,0
16093,559861.1349838916,2010-11-22 23:16:55,2761.409096181237,7,49,-1.0997490882873535,3.483308792114258,47.9790621453006,47.87269457439742,191.54637539895057,174.63077318570913,-0.0002266406954731,0.0947341993451118,0,0,0
16094,559891.1503096725,2010-11-22 23:17:25,2791.4244219621287,7,49,-1.0997490882873535,3.4760239124298096,47.9790621453006,47.88186349989248,191.54637539895057,174.66267965743478,-0.0002266406954731,0.0947341993451118,0,0,0
16095,559921.1657441799,2010-11-22 23:17:55,2821.439856469418,7,49,-1.0997490882873535,3.4677677154541016,47.9790621453006,47.89103247630533,191.54637539895057,174.69451494221445,-0.0002266406954731,0.0947341993451118,0,0,0
16096,559951.1811254541,2010-11-22 23:18:25,2851.455237773905,7,49,-1.099568486213684,3.458054542541504,47.9790621453006,47.90020144884812,191.54637539895057,174.7262673231655,-0.0002590179501567,0.0947341993451118,0,0,0
16097,559981.1964042278,2010-11-22 23:18:55,2881.470516517384,7,49,-1.0997490882873535,3.4463987350463867,47.9790621453006,47.90937037634437,191.54637539895057,174.75792126329517,-0.0002913951757363,0.0947341993451118,0,0,0
16098,560011.2117046755,2010-11-22 23:19:25,2911.48581696504,7,49,-1.0997490882873535,3.4316670894622803,47.9790621453006,47.91853934036854,191.54637539895057,174.78945530407628,-0.0004209041653666,0.0947341993451118,0,0,0
16099,560041.226892938,2010-11-22 23:19:55,2941.5010052276643,7,49,-1.099568486213684,3.413050413131714,47.9790621453006,47.92770827895119,191.54637539895057,174.8208384208657,-0.0005827903514727,0.0947341993451118,0,0,0
16100,560071.2424264223,2010-11-22 23:20:25,2971.516538712016,7,49,-1.0997490882873535,3.38876748085022,47.9790621453006,47.936877274862375,191.54637539895057,174.8520271372844,-0.0007446765666827,0.0947341993451118,0,0,0
16101,560101.2576833715,2010-11-22 23:20:55,3001.5317956711174,7,49,-1.0997490882873535,3.356066465377808,47.9790621453006,47.94604616875115,191.54637539895057,174.88295677547544,-0.0010036944877356,0.0947341993451118,0,0,0
16102,560131.272835925,2010-11-22 23:21:25,3031.546948214582,7,49,-1.0997490882873535,3.3112242221832275,47.9790621453006,47.9552150480387,191.54637539895057,174.91353427580324,-0.0013922214275225,0.0947341993451118,0,0,0
16103,560161.288175415,2010-11-22 23:21:55,3061.562287709706,7,49,-1.0997490882873535,3.2490601539611816,47.9790621453006,47.964383988274335,191.54637539895057,174.9436264562344,-0.0018778800731524,0.0947341993451118,0,0,0
16104,560191.3036295715,2010-11-22 23:22:25,3091.5777418710554,7,49,-1.099568486213684,3.1593754291534424,47.9790621453006,47.97355289087279,191.54637539895057,174.97303181459043,-0.002816820051521,0.0947341993451118,0,0,0
16105,560221.3187954281,2010-11-22 23:22:55,3121.5929077377764,7,49,-1.1001102924346924,3.0180492401123047,47.9790621453006,47.98272180110775,191.54637539895057,175.0014080702824,-0.0047594071365892,0.0947341993451118,0,0,0
16106,560243.928234722,2010-11-22 23:23:18,3144.2023470115787,7,49,-1.0997490882873535,2.817796468734741,47.9790621453006,47.98962843669306,191.54637539895057,175.0216349613205,-0.0090656280517578,0.0947341993451118,0,0,0
16107,560253.3342326349,2010-11-22 23:23:27,3153.608344924446,7,49,-1.099568486213684,2.699620008468628,47.9790621453006,47.992501698431866,191.54637539895057,175.02956401160043,-0.0102635379880666,0.0947341993451118,0,0,0
16108,560313.3346167908,2010-11-22 23:24:27,60.01498492544852,8,49,0.0,3.335669040679932,47.9790621453006,47.992501698431866,191.54637539895057,175.02956401160043,0.0012627125252038,0.0947341993451118,0,0,0
16109,560313.5082979485,2010-11-22 23:24:28,0.187531823281962,9,49,-1.9243103452026844e-05,3.3358309268951416,47.9790621453006,47.99250169943428,191.54637539895057,175.02956401494433,0.0,0.0932833403348922,0,0,0
16110,560318.3364565952,2010-11-22 23:24:33,5.015690470057953,9,49,0.0008838032954372,3.34360146522522,47.979062947695006,47.992501699601206,191.54637807934083,175.02956401550117,0.0011008263099938,0.0932833403348922,0,0,0
