Data_Point,Test_Time(s),Date_Time,Step_Time(s),Step_Index,Cycle_Index,Current(A),Voltage(V),Charge_Capacity(Ah),Discharge_Capacity(Ah),Charge_Energy(Wh),Discharge_Energy(Wh),dV/dt(V/s),Internal_Resistance(Ohm),Is_FC_Data,AC_Impedance(Ohm),ACI_Phase_Angle(Deg)
9903,343450.4869922446,2010-11-20 11:09:43,30.01525583128656,1,31,0.0,3.34295392036438,29.47386589864656,29.504142282285823,117.64709495855767,107.61138319381249,0.0007122993702068,0.0923885703086853,0,0,0
9904,343480.5023638098,2010-11-20 11:10:13,60.03062738142518,1,31,0.0,3.366103410720825,29.47386589864656,29.504142282285823,117.64709495855767,107.61138319381249,0.0005180359003134,0.0923885703086853,0,0,0
9905,343510.517698939,2010-11-20 11:10:43,90.0459625156641,1,31,0.0,3.383749008178711,29.47386589864656,29.504142282285823,117.64709495855767,107.61138319381249,0.0004209041653666,0.0923885703086853,0,0,0
9906,343540.4861580134,2010-11-20 11:11:13,120.01442160007096,1,31,0.0,3.3975093364715576,29.47386589864656,29.504142282285823,117.64709495855767,107.61138319381249,0.0003237724304199,0.0923885703086853,0,0,0
9907,343570.4895498286,2010-11-20 11:11:43,30.01555489279008,2,31,0.5501165986061096,3.56036639213562,29.478453500424937,29.504142282285823,117.66325246538088,107.61138319381249,0.0017159938579425,0.0923885703086853,0,0,0
9908,343600.5048266623,2010-11-20 11:12:13,60.03083172650192,2,31,0.550297200679779,3.612817287445069,29.483041043533312,29.504142282285823,117.67971346088892,107.61138319381249,0.0012303352123126,0.0923885703086853,0,0,0
9909,343630.52002743614,2010-11-20 11:12:43,90.04603250035666,2,31,0.5501165986061096,3.651346206665039,29.48762856446532,29.504142282285823,117.69637940097226,107.61138319381249,0.0009713172912597,0.0923885703086853,0,0,0
9910,343660.53537345753,2010-11-20 11:13:13,120.06137852177164,2,31,0.5501165986061096,3.6817805767059326,29.492216161203466,29.504142282285823,117.7132023780458,107.61138319381249,0.0007446765666827,0.0923885703086853,0,0,0
9911,343690.55260669976,2010-11-20 11:13:43,150.07861174894256,2,31,0.550297200679779,3.706872940063477,29.49680404510629,29.504142282285823,117.73015282933738,107.61138319381249,0.0006475448608398,0.0923885703086853,0,0,0
9912,343720.5661391342,2010-11-20 11:14:13,180.0921441984029,2,31,0.550297200679779,3.7277562618255615,29.501391313551256,29.504142282285823,117.74720620050589,107.61138319381249,0.0005180359003134,0.0923885703086853,0,0,0
9913,343750.58154431323,2010-11-20 11:14:43,210.10754936244703,2,31,0.5501165986061096,3.7449162006378174,29.505978875711797,29.504142282285823,117.7643482754468,107.61138319381249,0.0003885269106831,0.0923885703086853,0,0,0
9914,343780.5967533428,2010-11-20 11:15:13,240.1227584069466,2,31,0.550297200679779,3.758028745651245,29.510566387822116,29.504142282285823,117.78156004430352,107.61138319381249,0.0002913951757363,0.0923885703086853,0,0,0
9915,343810.6121185721,2010-11-20 11:15:43,270.1381236363076,2,31,0.550297200679779,3.766123056411743,29.515153918707256,29.504142282285823,117.79882000704384,107.61138319381249,0.0001942634553415,0.0923885703086853,0,0,0
9916,343840.6274441776,2010-11-20 11:16:13,300.1534492417612,2,31,0.550297200679779,3.771303415298462,29.51974146660455,29.504142282285823,117.81610985367143,107.61138319381249,0.0001295089750783,0.0923885703086853,0,0,0
9917,343870.64279261,2010-11-20 11:16:43,330.16879767920693,2,31,0.550297200679779,3.775512456893921,29.52432896058343,29.504142282285823,117.8334206047912,107.61138319381249,9.713172767078504e-05,0.0923885703086853,0,0,0
9918,343900.65813988453,2010-11-20 11:17:13,360.1841449487374,2,31,0.5501165986061096,3.77939772605896,29.52891655325806,29.504142282285823,117.85074988853786,107.61138319381249,9.713172767078504e-05,0.0923885703086853,0,0,0
9919,343930.6736548476,2010-11-20 11:17:43,390.19965991185694,2,31,0.550297200679779,3.782959222793579,29.533504102852177,29.504142282285823,117.86809604743657,107.61138319381249,9.713172767078504e-05,0.0923885703086853,0,0,0
9920,343960.6888414361,2010-11-20 11:18:13,420.21484650030266,2,31,0.5499359965324402,3.7861969470977774,29.538091528425333,29.504142282285823,117.885457943414,107.61138319381249,3.237724376958795e-05,0.0923885703086853,0,0,0
9921,343990.704201282,2010-11-20 11:18:43,450.23020634622577,2,31,0.5501165986061096,3.789596557617188,29.54267903060085,29.504142282285823,117.9028357604128,107.61138319381249,3.237724376958795e-05,0.0923885703086853,0,0,0
9922,344020.71952631103,2010-11-20 11:19:13,480.2455313752405,2,31,0.5501165986061096,3.7928342819213863,29.54726651929685,29.504142282285823,117.92022869691428,107.61138319381249,6.47544875391759e-05,0.0923885703086853,0,0,0
9923,344050.7348838612,2010-11-20 11:19:43,510.2608889254331,2,31,0.5504778623580933,3.796233892440796,29.551854004419205,29.504142282285823,117.93763635728112,107.61138319381249,6.47544875391759e-05,0.0923885703086853,0,0,0
9924,344080.7502249954,2010-11-20 11:20:13,540.2762300596488,2,31,0.550297200679779,3.799309730529785,29.556441493183563,29.504142282285823,117.95505838391784,107.61138319381249,9.713172767078504e-05,0.0923885703086853,0,0,0
9925,344110.76569127204,2010-11-20 11:20:43,570.2916963362394,2,31,0.5501165986061096,3.802223682403565,29.56102899714133,29.504142282285823,117.9724945409129,107.61138319381249,9.713172767078504e-05,0.0923885703086853,0,0,0
9926,344140.7811150375,2010-11-20 11:21:13,600.307120086678,2,31,0.550297200679779,3.805137634277344,29.56561657877748,29.504142282285823,117.98994482791149,107.61138319381249,3.237724376958795e-05,0.0923885703086853,0,0,0
9927,344170.7964837906,2010-11-20 11:21:43,630.3224888398348,2,31,0.550297200679779,3.808375358581543,29.570204129735625,29.504142282285823,118.00740878511148,107.61138319381249,9.713172767078504e-05,0.0923885703086853,0,0,0
9928,344200.81165016367,2010-11-20 11:22:13,660.3376552629447,2,31,0.550297200679779,3.811451196670532,29.57479164455219,29.504142282285823,118.02488642761308,107.61138319381249,0.0001295089750783,0.0923885703086853,0,0,0
9929,344230.8270726008,2010-11-20 11:22:43,690.35307764998,2,31,0.550297200679779,3.8145270347595215,29.57937921662563,29.504142282285823,118.04237836314904,107.61138319381249,9.713172767078504e-05,0.0923885703086853,0,0,0
9930,344260.84229501867,2010-11-20 11:23:13,720.3683000828993,2,31,0.550297200679779,3.817602872848511,29.58396674520837,29.504142282285823,118.0598844902102,107.61138319381249,9.713172767078504e-05,0.0923885703086853,0,0,0
9931,344290.8595499951,2010-11-20 11:23:43,750.3855550443221,2,31,0.550297200679779,3.82100248336792,29.588554564166056,29.504142282285823,118.07740630717316,107.61138319381249,0.0001618862152099,0.0923885703086853,0,0,0
9932,344320.8732454816,2010-11-20 11:24:13,780.3992505357605,2,31,0.550297200679779,3.824078321456909,29.59314188331156,29.504142282285823,118.09494119759512,107.61138319381249,6.47544875391759e-05,0.0923885703086853,0,0,0
9933,344350.8884034786,2010-11-20 11:24:43,810.4144085428627,2,31,0.5501165986061096,3.8274779319763184,29.59772943942002,29.504142282285823,118.11249241261626,107.61138319381249,6.47544875391759e-05,0.0923885703086853,0,0,0
9934,344380.9036607987,2010-11-20 11:25:13,840.4296658478279,2,31,0.5501165986061096,3.8310394287109375,29.60231696073569,29.504142282285823,118.13005910380772,107.61138319381249,9.713172767078504e-05,0.0923885703086853,0,0,0
9935,344410.91902189265,2010-11-20 11:25:43,870.445026956904,2,31,0.550297200679779,3.834438800811768,29.60690442884852,29.504142282285823,118.14764139945652,107.61138319381249,9.713172767078504e-05,0.0923885703086853,0,0,0
9936,344440.9343591172,2010-11-20 11:26:13,900.4603641813603,2,31,0.550297200679779,3.8378384113311768,29.611491936991133,29.504142282285823,118.16523972476088,107.61138319381249,9.713172767078504e-05,0.0923885703086853,0,0,0
9937,344470.94974355947,2010-11-20 11:26:43,930.4757486236798,2,31,0.550297200679779,3.841399908065796,29.61607952986101,29.504142282285823,118.18285417814477,107.61138319381249,0.0001295089750783,0.0923885703086853,0,0,0
9938,344500.96509658336,2010-11-20 11:27:13,960.491101647574,2,31,0.550297200679779,3.844637632369995,29.620667034837677,29.504142282285823,118.20048388480244,107.61138319381249,9.713172767078504e-05,0.0923885703086853,0,0,0
9939,344530.9832716515,2010-11-20 11:27:43,990.5092767157252,2,31,0.550297200679779,3.848037242889404,29.625255000130696,29.504142282285823,118.2181308596741,107.61138319381249,9.713172767078504e-05,0.0923885703086853,0,0,0
9940,344560.9958954779,2010-11-20 11:28:13,1020.5219006273352,2,31,0.5501165986061096,3.851274967193604,29.629842185054237,29.504142282285823,118.2357900288645,107.61138319381249,6.47544875391759e-05,0.0923885703086853,0,0,0
9941,344591.0111435799,2010-11-20 11:28:43,1050.537148629078,2,31,0.550297200679779,3.8545126914978023,29.634429852118544,29.504142282285823,118.25346598695114,107.61138319381249,6.47544875391759e-05,0.0923885703086853,0,0,0
9942,344621.0264913056,2010-11-20 11:29:13,1080.5524963547473,2,31,0.5501165986061096,3.857588529586792,29.63901739130807,29.504142282285823,118.27115606007264,107.61138319381249,3.237724376958795e-05,0.0923885703086853,0,0,0
9943,344651.0418413671,2010-11-20 11:29:43,1110.567846431284,2,31,0.550297200679779,3.860826253890991,29.643604989668383,29.504142282285823,118.28886052552647,107.61138319381249,0.0001295089750783,0.0923885703086853,0,0,0
9944,344681.0571724261,2010-11-20 11:30:13,1140.583177490351,2,31,0.5501165986061096,3.863578319549561,29.648192548377207,29.504142282285823,118.30657849798918,107.61138319381249,6.47544875391759e-05,0.0923885703086853,0,0,0
9945,344711.07252586103,2010-11-20 11:30:43,1170.5985309302837,2,31,0.5501165986061096,3.86616849899292,29.65278008251199,29.504142282285823,118.32430941053364,107.61138319381249,3.237724376958795e-05,0.0923885703086853,0,0,0
9946,344741.08786850405,2010-11-20 11:31:13,1200.6138735732654,2,31,0.550297200679779,3.869082450866699,29.65736768329268,29.504142282285823,118.34205315528264,107.61138319381249,9.713172767078504e-05,0.0923885703086853,0,0,0
9947,344771.10325205413,2010-11-20 11:31:43,1230.6292571183455,2,31,0.5501165986061096,3.8716726303100586,29.66195526742947,29.504142282285823,118.35980879516596,107.61138319381249,9.713172767078504e-05,0.0923885703086853,0,0,0
9948,344801.11856907816,2010-11-20 11:32:13,1260.6445741423786,2,31,0.550297200679779,3.874100923538208,29.666542813774907,29.504142282285823,118.37757565661894,107.61138319381249,6.47544875391759e-05,0.0923885703086853,0,0,0
9949,344831.13403242244,2010-11-20 11:32:43,1290.6600374866491,2,31,0.550297200679779,3.876367330551148,29.671130386128223,29.504142282285823,118.39535321391638,107.61138319381249,6.47544875391759e-05,0.0923885703086853,0,0,0
9950,344861.14925572753,2010-11-20 11:33:13,1320.675260796758,2,31,0.5501165986061096,3.878309965133667,29.67571792000349,29.504142282285823,118.4131407094238,107.61138319381249,3.237724376958795e-05,0.0923885703086853,0,0,0
9951,344891.1665127792,2010-11-20 11:33:43,1350.692517823336,2,31,0.550297200679779,3.880414485931397,29.680305821377463,29.504142282285823,118.43093903105614,107.61138319381249,6.47544875391759e-05,0.0923885703086853,0,0,0
9952,344921.17996326403,2010-11-20 11:34:13,1380.7059683182251,2,31,0.5501165986061096,3.882195234298706,29.684893140688867,29.504142282285823,118.4487438902961,107.61138319381249,6.47544875391759e-05,0.0923885703086853,0,0,0
9953,344951.1953111952,2010-11-20 11:34:43,1410.7213162443948,2,31,0.5501165986061096,3.883975982666016,29.689480794051622,29.504142282285823,118.46655830569462,107.61138319381249,3.237724376958795e-05,0.0923885703086853,0,0,0
9954,344981.21072682535,2010-11-20 11:35:13,1440.7367318745637,2,31,0.5504778623580933,3.885756731033325,29.69406845462368,29.504142282285823,118.48438036025998,107.61138319381249,6.47544875391759e-05,0.0923885703086853,0,0,0
9955,345011.2260149422,2010-11-20 11:35:43,1470.7520199914402,2,31,0.5501165986061096,3.887051820755005,29.69865592615117,29.504142282285823,118.5022090371578,107.61138319381249,3.237724376958795e-05,0.0923885703086853,0,0,0
9956,345041.2414782064,2010-11-20 11:36:13,1500.767483255511,2,31,0.550297200679779,3.888670682907105,29.70324357411864,29.504142282285823,118.52004544663012,107.61138319381249,3.237724376958795e-05,0.0923885703086853,0,0,0
9957,345071.256816714,2010-11-20 11:36:43,1530.7828217631704,2,31,0.5501165986061096,3.890127658843994,29.70783119039094,29.504142282285823,118.53788850605412,107.61138319381249,3.237724376958795e-05,0.0923885703086853,0,0,0
9958,345101.2721784998,2010-11-20 11:37:13,1560.798183553948,2,31,0.550297200679779,3.891584634780884,29.712418805514204,29.504142282285823,118.55573808405022,107.61138319381249,3.237724376958795e-05,0.0923885703086853,0,0,0
9959,345131.2874185717,2010-11-20 11:37:43,1590.8134236208846,2,31,0.5504778623580933,3.893041610717773,29.71700643798117,29.504142282285823,118.57359414102896,107.61138319381249,6.47544875391759e-05,0.0923885703086853,0,0,0
9960,345161.3027312449,2010-11-20 11:38:14,1620.8287362940573,2,31,0.550297200679779,3.894336700439453,29.72159409305337,29.504142282285823,118.5914565468141,107.61138319381249,6.47544875391759e-05,0.0923885703086853,0,0,0
9961,345191.318136038,2010-11-20 11:38:44,1650.844141087175,2,31,0.5504778623580933,3.895631790161133,29.72618179772357,29.504142282285823,118.60932493525507,107.61138319381249,6.47544875391759e-05,0.0923885703086853,0,0,0
9962,345221.3334615031,2010-11-20 11:39:14,1680.8594665723288,2,31,0.5504778623580933,3.896926879882813,29.73076936183025,29.504142282285823,118.62719890983844,107.61138319381249,3.237724376958795e-05,0.0923885703086853,0,0,0
9963,345251.3487762063,2010-11-20 11:39:44,1710.8747812705562,2,31,0.5501165986061096,3.898060083389282,29.73535703109249,29.504142282285823,118.64507941737874,107.61138319381249,0.0,0.0923885703086853,0,0,0
9964,345281.3641132754,2010-11-20 11:40:14,1740.890118339625,2,31,0.550297200679779,3.899517059326172,29.73994464135738,29.504142282285823,118.66296581604,107.61138319381249,3.237724376958795e-05,0.0923885703086853,0,0,0
9965,345311.3794539536,2010-11-20 11:40:44,1770.9054590026642,2,31,0.5501165986061096,3.900812149047852,29.744532255235217,29.504142282285823,118.68085830342731,107.61138319381249,6.47544875391759e-05,0.0923885703086853,0,0,0
9966,345341.3948116089,2010-11-20 11:41:14,1800.920816673157,2,31,0.5501165986061096,3.9021072387695312,29.74911981172501,29.504142282285823,118.6987566668582,107.61138319381249,3.237724376958795e-05,0.0923885703086853,0,0,0
9967,345371.4101635853,2010-11-20 11:41:44,1830.936168639412,2,31,0.550297200679779,3.903564214706421,29.75370732090445,29.504142282285823,118.7166609282172,107.61138319381249,6.47544875391759e-05,0.0923885703086853,0,0,0
9968,345401.42552470934,2010-11-20 11:42:14,1860.9515297735504,2,31,0.550297200679779,3.905021190643311,29.758294833973306,29.504142282285823,118.73457137077662,107.61138319381249,6.47544875391759e-05,0.0923885703086853,0,0,0
9969,345431.4408427759,2010-11-20 11:42:44,1890.9668478401857,2,31,0.550297200679779,3.90615439414978,29.7628824250851,29.504142282285823,118.7524881901574,107.61138319381249,3.237724376958795e-05,0.0923885703086853,0,0,0
9970,345461.4561939653,2010-11-20 11:43:14,1920.9821990295009,2,31,0.5501165986061096,3.90761137008667,29.767469953335567,29.504142282285823,118.77041101915545,107.61138319381249,6.47544875391759e-05,0.0923885703086853,0,0,0
9971,345491.4736702792,2010-11-20 11:43:44,1950.999675328416,2,31,0.550297200679779,3.9089064598083496,29.772057832659304,29.504142282285823,118.78834147130164,107.61138319381249,3.237724376958795e-05,0.0923885703086853,0,0,0
9972,345521.4869069504,2010-11-20 11:44:14,1981.012911999568,2,31,0.550297200679779,3.910201549530029,29.77664503792387,29.504142282285823,118.8062756185762,107.61138319381249,3.237724376958795e-05,0.0923885703086853,0,0,0
9973,345551.5022537838,2010-11-20 11:44:44,2011.0282589182227,2,31,0.5501165986061096,3.911658525466919,29.781232678036183,29.504142282285823,118.82421776236605,107.61138319381249,3.237724376958795e-05,0.0923885703086853,0,0,0
9974,345581.5178963856,2010-11-20 11:45:14,2041.043901570073,2,31,0.550297200679779,3.912953615188599,29.7858202371798,29.504142282285823,118.8421659672844,107.61138319381249,3.237724376958795e-05,0.0923885703086853,0,0,0
9975,345611.5330199567,2010-11-20 11:45:44,2071.05902500588,2,31,0.5501165986061096,3.914572238922119,29.790407793262485,29.504142282285823,118.86012059284528,107.61138319381249,3.237724376958795e-05,0.0923885703086853,0,0,0
9976,345641.5482800236,2010-11-20 11:46:14,2101.074285087777,2,31,0.550297200679779,3.915867328643799,29.794995418606018,29.504142282285823,118.87808187301476,107.61138319381249,6.47544875391759e-05,0.0923885703086853,0,0,0
9977,345671.5636270124,2010-11-20 11:46:44,2131.0896320766064,2,31,0.550297200679779,3.9171624183654794,29.799583015626386,29.504142282285823,118.89604946469336,107.61138319381249,0.0,0.0923885703086853,0,0,0
9978,345701.5789758408,2010-11-20 11:47:14,2161.104980910041,2,31,0.5501165986061096,3.918781280517578,29.804170605486952,29.504142282285823,118.91402359930828,107.61138319381249,6.47544875391759e-05,0.0923885703086853,0,0,0
9979,345731.5943287344,2010-11-20 11:47:44,2191.120333798597,2,31,0.5501165986061096,3.920076370239258,29.80875816146875,29.504142282285823,118.93200414163157,107.61138319381249,3.237724376958795e-05,0.0923885703086853,0,0,0
9980,345761.60967557284,2010-11-20 11:48:14,2221.135680637052,2,31,0.5501165986061096,3.921533346176148,29.813345783722323,29.504142282285823,118.9499915516354,107.61138319381249,3.237724376958795e-05,0.0923885703086853,0,0,0
9981,345791.62502221577,2010-11-20 11:48:44,2251.1510272800183,2,31,0.5501165986061096,3.922990322113037,29.81793334125376,29.504142282285823,118.96798536230035,107.61138319381249,3.237724376958795e-05,0.0923885703086853,0,0,0
9982,345821.6404015654,2010-11-20 11:49:14,2281.166406634638,2,31,0.5501165986061096,3.924447298049927,29.82252086072672,29.504142282285823,118.98598567221356,107.61138319381249,3.237724376958795e-05,0.0923885703086853,0,0,0
9983,345851.65572205314,2010-11-20 11:49:44,2311.181727117304,2,31,0.550297200679779,3.925904273986816,29.82710838479781,29.504142282285823,119.00399281036766,107.61138319381249,3.237724376958795e-05,0.0923885703086853,0,0,0
9984,345881.6710598289,2010-11-20 11:50:14,2341.1970648931374,2,31,0.5501165986061096,3.927361249923706,29.83169594783701,29.504142282285823,119.0220067690024,107.61138319381249,3.237724376958795e-05,0.0923885703086853,0,0,0
9985,345911.68640942423,2010-11-20 11:50:44,2371.212414488473,2,31,0.5501165986061096,3.9289801120758057,29.83628354737649,29.504142282285823,119.0400277185472,107.61138319381249,6.47544875391759e-05,0.0923885703086853,0,0,0
9986,345941.7017674606,2010-11-20 11:51:14,2401.227772529892,2,31,0.550297200679779,3.930275201797485,29.84087113428697,29.504142282285823,119.0580554705912,107.61138319381249,0.0,0.0923885703086853,0,0,0
9987,345971.717139111,2010-11-20 11:51:44,2431.2431441752683,2,31,0.550297200679779,3.931894063949585,29.8454587881322,29.504142282285823,119.07609035406335,107.61138319381249,3.237724376958795e-05,0.0923885703086853,0,0,0
9988,346001.7324532729,2010-11-20 11:52:14,2461.258458337157,2,31,0.550297200679779,3.933512926101685,29.850046362229733,29.504142282285823,119.09413188762484,107.61138319381249,6.47544875391759e-05,0.0923885703086853,0,0,0
9989,346031.74797774485,2010-11-20 11:52:44,2491.273982793974,2,31,0.5504778623580933,3.934969902038574,29.85463397480473,29.504142282285823,119.11218052906584,107.61138319381249,3.237724376958795e-05,0.0923885703086853,0,0,0
9990,346061.7632707188,2010-11-20 11:53:14,2521.2892757830123,2,31,0.550297200679779,3.936426877975464,29.859221557251978,29.504142282285823,119.1302360875386,107.61138319381249,0.0,0.0923885703086853,0,0,0
9991,346091.7804164425,2010-11-20 11:53:44,2551.306421496736,2,31,0.550297200679779,3.938045740127564,29.86380944045316,29.504142282285823,119.14829984771318,107.61138319381249,3.237724376958795e-05,0.0923885703086853,0,0,0
9992,346121.7939738092,2010-11-20 11:54:14,2581.319978858381,2,31,0.550297200679779,3.939664602279663,29.868396739504107,29.504142282285823,119.16636851915752,107.61138319381249,3.237724376958795e-05,0.0923885703086853,0,0,0
9993,346151.80920595134,2010-11-20 11:54:44,2611.335211015574,2,31,0.5501165986061096,3.9411215782165527,29.87298429654804,29.504142282285823,119.18444543824148,107.61138319381249,3.237724376958795e-05,0.0923885703086853,0,0,0
9994,346181.8245719376,2010-11-20 11:55:14,2641.3505769867866,2,31,0.5501165986061096,3.9425785541534415,29.877571881450592,29.504142282285823,119.20252965351877,107.61138319381249,3.237724376958795e-05,0.0923885703086853,0,0,0
9995,346211.8399119841,2010-11-20 11:55:44,2671.3659170383,2,31,0.5501165986061096,3.944359302520752,29.88215947379893,29.504142282285823,119.22062121368673,107.61138319381249,6.47544875391759e-05,0.0923885703086853,0,0,0
9996,346241.855700891,2010-11-20 11:56:14,2701.3817060504875,2,31,0.5501165986061096,3.9458162784576416,29.886747170104357,29.504142282285823,119.23872057206458,107.61138319381249,0.0,0.0923885703086853,0,0,0
9997,346271.8706038315,2010-11-20 11:56:44,2731.396608900679,2,31,0.550297200679779,3.947597026824951,29.891334705152584,29.504142282285823,119.25682661933308,107.61138319381249,6.47544875391759e-05,0.0923885703086853,0,0,0
9998,346301.8859303893,2010-11-20 11:57:14,2761.4119354585096,2,31,0.5501165986061096,3.9493777751922607,29.89592228761625,29.504142282285823,119.2749403148948,107.61138319381249,6.47544875391759e-05,0.0923885703086853,0,0,0
9999,346331.9012740047,2010-11-20 11:57:44,2791.427279068907,2,31,0.550297200679779,3.950672864913941,29.90050987876226,29.504142282285823,119.2930615097855,107.61138319381249,3.237724376958795e-05,0.0923885703086853,0,0,0
10000,346361.91659736953,2010-11-20 11:58:14,2821.442602433767,2,31,0.550297200679779,3.95245361328125,29.90509750954104,29.504142282285823,119.31119044101884,107.61138319381249,3.237724376958795e-05,0.0923885703086853,0,0,0
10001,346391.9319615964,2010-11-20 11:58:44,2851.457966650601,2,31,0.550297200679779,3.95423436164856,29.909685117570596,29.504142282285823,119.32932691138744,107.61138319381249,3.237724376958795e-05,0.0923885703086853,0,0,0
10002,346421.947296866,2010-11-20 11:59:14,2881.473301935215,2,31,0.550297200679779,3.956015110015869,29.91427272675909,29.504142282285823,119.34747110573733,107.61138319381249,6.47544875391759e-05,0.0923885703086853,0,0,0
10003,346451.9655754876,2010-11-20 11:59:44,2911.491580637052,2,31,0.550297200679779,3.9576339721679688,29.918860785793605,29.504142282285823,119.36562485510824,107.61138319381249,9.713172767078504e-05,0.0923885703086853,0,0,0
10004,346481.97813117394,2010-11-20 12:00:14,2941.504136228123,2,31,0.5504778623580933,3.959252834320069,29.92344798143504,29.504142282285823,119.38378302620433,107.61138319381249,3.237724376958795e-05,0.0923885703086853,0,0,0
10005,346511.9933486495,2010-11-20 12:00:44,2971.5193537187056,2,31,0.550297200679779,3.960871696472168,29.928035513636765,29.504142282285823,119.40195034146032,107.61138319381249,0.0,0.0923885703086853,0,0,0
10006,346542.0086978087,2010-11-20 12:01:14,3001.534702857903,2,31,0.550297200679779,3.9626524448394775,29.93262318824725,29.504142282285823,119.42012620081614,107.61138319381249,3.237724376958795e-05,0.0923885703086853,0,0,0
10007,346572.0241498648,2010-11-20 12:01:44,3031.550155034297,2,31,0.5501165986061096,3.964433193206787,29.93721077073847,29.504142282285823,119.43830972018638,107.61138319381249,6.47544875391759e-05,0.0923885703086853,0,0,0
10008,346602.0393885783,2010-11-20 12:02:14,3061.5653936275557,2,31,0.5501165986061096,3.966375827789306,29.941798369245504,29.504142282285823,119.4565013951834,107.61138319381249,6.47544875391759e-05,0.0923885703086853,0,0,0
10009,346632.0547341938,2010-11-20 12:02:44,3091.580739257994,2,31,0.550297200679779,3.9679946899414062,29.94638602725525,29.504142282285823,119.474701477601,107.61138319381249,3.237724376958795e-05,0.0923885703086853,0,0,0
10010,346662.0701436736,2010-11-20 12:03:14,3121.596148737811,2,31,0.5499359965324402,3.969775438308716,29.95097360741136,29.504142282285823,119.49290943226596,107.61138319381249,3.237724376958795e-05,0.0923885703086853,0,0,0
10011,346692.0872800089,2010-11-20 12:03:44,3151.6132850631,2,31,0.550297200679779,3.9717180728912354,29.95556146602233,29.504142282285823,119.51112687541536,107.61138319381249,6.47544875391759e-05,0.0923885703086853,0,0,0
10012,346722.1007843282,2010-11-20 12:04:14,3181.6267893773306,2,31,0.5504778623580933,3.973822593688965,29.96014885788405,29.504142282285823,119.52935096319275,107.61138319381249,6.47544875391759e-05,0.0923885703086853,0,0,0
10013,346752.1162490057,2010-11-20 12:04:44,3211.6422540749795,2,31,0.550297200679779,3.975441455841065,29.964736537928182,29.504142282285823,119.54758475348906,107.61138319381249,6.47544875391759e-05,0.0923885703086853,0,0,0
10014,346782.13161533285,2010-11-20 12:05:14,3241.6576203820305,2,31,0.5501165986061096,3.977384090423584,29.969324205095266,29.504142282285823,119.56582717758064,107.61138319381249,6.47544875391759e-05,0.0923885703086853,0,0,0
10015,346812.1468207984,2010-11-20 12:05:44,3271.672825862634,2,31,0.5501165986061096,3.9791648387908936,29.97391177284993,29.504142282285823,119.58407757684566,107.61138319381249,3.237724376958795e-05,0.0923885703086853,0,0,0
10016,346842.1621714714,2010-11-20 12:06:14,3301.6881765256358,2,31,0.550297200679779,3.981269359588623,29.9784992839486,29.504142282285823,119.60233709168052,107.61138319381249,6.47544875391759e-05,0.0923885703086853,0,0,0
10017,346872.1776117882,2010-11-20 12:06:44,3331.7036168374134,2,31,0.550297200679779,3.983211994171143,29.983086772835225,29.504142282285823,119.62060548093564,107.61138319381249,6.47544875391759e-05,0.0923885703086853,0,0,0
10018,346902.19286736887,2010-11-20 12:07:14,3361.718872433112,2,31,0.5501165986061096,3.985154628753662,29.987674143249127,29.504142282285823,119.63888241351712,107.61138319381249,6.47544875391759e-05,0.0923885703086853,0,0,0
10019,346932.20824873855,2010-11-20 12:07:44,3391.734253802761,2,31,0.5501165986061096,3.9870972633361816,29.99226168421045,29.504142282285823,119.6571692314288,107.61138319381249,3.237724376958795e-05,0.0923885703086853,0,0,0
10020,346962.2235900232,2010-11-20 12:08:14,3421.7495950873526,2,31,0.5501165986061096,3.989201784133911,29.996849241350017,29.504142282285823,119.67546534873756,107.61138319381249,3.237724376958795e-05,0.0923885703086853,0,0,0
10021,346992.239042796,2010-11-20 12:08:44,3451.765047865248,2,31,0.550297200679779,3.9913063049316406,30.00143677996763,29.504142282285823,119.69377080761627,107.61138319381249,0.0,0.0923885703086853,0,0,0
10022,347022.25427047705,2010-11-20 12:09:14,3481.780275541255,2,31,0.550297200679779,3.99341082572937,30.006024298864684,29.504142282285823,119.71208575289891,107.61138319381249,6.47544875391759e-05,0.0923885703086853,0,0,0
10023,347052.2696269796,2010-11-20 12:09:44,3511.7956320438325,2,31,0.5501165986061096,3.995515108108521,30.01061181839466,29.504142282285823,119.73041026800216,107.61138319381249,6.47544875391759e-05,0.0923885703086853,0,0,0
10024,347082.28499980294,2010-11-20 12:10:15,3541.811004872162,2,31,0.550297200679779,3.99778151512146,30.015199394494417,29.504142282285823,119.74874468821054,107.61138319381249,9.713172767078504e-05,0.0923885703086853,0,0,0
10025,347112.3004574079,2010-11-20 12:10:45,3571.826462457056,2,31,0.550297200679779,3.99972414970398,30.019787033835463,29.504142282285823,119.76708909736192,107.61138319381249,6.47544875391759e-05,0.0923885703086853,0,0,0
10026,347142.3156621868,2010-11-20 12:11:15,3601.8416672509456,2,31,0.550297200679779,4.001990795135498,30.024374486054885,29.504142282285823,119.7854426395266,107.61138319381249,3.24249267578125e-05,0.0923885703086853,0,0,0
10027,347172.3310283785,2010-11-20 12:11:45,3631.8570334427086,2,31,0.550297200679779,4.004095077514648,30.028962003119577,29.504142282285823,119.80380640004196,107.61138319381249,6.47544875391759e-05,0.0923885703086853,0,0,0
10028,347202.34636086115,2010-11-20 12:12:15,3661.8723659253287,2,31,0.550297200679779,4.006199836730957,30.033549533780228,29.504142282285823,119.82218030179504,107.61138319381249,3.24249267578125e-05,0.0923885703086853,0,0,0
10029,347232.3617075742,2010-11-20 12:12:45,3691.887712638472,2,31,0.5504778623580933,4.008627891540527,30.03813708297439,29.504142282285823,119.840564494438,107.61138319381249,6.47544875391759e-05,0.0923885703086853,0,0,0
10030,347262.377092593,2010-11-20 12:13:15,3721.903097687304,2,31,0.550297200679779,4.010894298553467,30.04272456865577,29.504142282285823,119.85895859665072,107.61138319381249,6.47544875391759e-05,0.0923885703086853,0,0,0
10031,347292.39243969216,2010-11-20 12:13:45,3751.9184447563343,2,31,0.5501165986061096,4.012999057769775,30.047312147189626,29.504142282285823,119.87736354865712,107.61138319381249,6.47544875391759e-05,0.0923885703086853,0,0,0
10032,347322.3940227039,2010-11-20 12:14:15,3781.920027753122,2,31,0.5501165986061096,4.015265464782715,30.051897652309897,29.504142282285823,119.89577069606514,107.61138319381249,3.24249267578125e-05,0.0923885703086853,0,0,0
10033,347352.4075082163,2010-11-20 12:14:45,3811.9335132804576,2,31,0.5501165986061096,4.017693519592285,30.05648489308846,29.504142282285823,119.9141953349916,107.61138319381249,6.47544875391759e-05,0.0923885703086853,0,0,0
10034,347382.42283227283,2010-11-20 12:15:15,3841.948837337045,2,31,0.5501165986061096,4.019959926605225,30.06107247245201,29.504142282285823,119.9326319242283,107.61138319381249,6.47544875391759e-05,0.0923885703086853,0,0,0
10035,347412.438173382,2010-11-20 12:15:45,3871.9641784461983,2,31,0.550297200679779,4.022388458251953,30.065659998157425,29.504142282285823,119.95107915064156,107.61138319381249,9.71794142969884e-05,0.0923885703086853,0,0,0
10036,347442.4535947515,2010-11-20 12:16:15,3901.9795998207055,2,31,0.5501165986061096,4.024654865264893,30.070247550023744,29.504142282285823,119.9695373429926,107.61138319381249,6.47544875391759e-05,0.0923885703086853,0,0,0
10037,347472.46889156004,2010-11-20 12:16:45,3931.9948966242655,2,31,0.550297200679779,4.027245044708252,30.07483505065998,29.504142282285823,119.98800630043128,107.61138319381249,9.71794142969884e-05,0.0923885703086853,0,0,0
10038,347502.4842315264,2010-11-20 12:17:15,3962.010236575529,2,31,0.5504778623580933,4.029673099517822,30.079422604577303,29.504142282285823,120.00648655715808,107.61138319381249,9.70840483205393e-05,0.0923885703086853,0,0,0
10039,347532.4995707809,2010-11-20 12:17:45,3992.0255758300527,2,31,0.550297200679779,4.032101631164551,30.084010128742825,29.504142282285823,120.0249777936278,107.61138319381249,6.47544875391759e-05,0.0923885703086853,0,0,0
10040,347562.51492401026,2010-11-20 12:18:15,4022.0409290744974,2,31,0.5501165986061096,4.034529685974121,30.08859765522838,29.504142282285823,120.04348039839572,107.61138319381249,9.70840483205393e-05,0.0923885703086853,0,0,0
10041,347592.5302478163,2010-11-20 12:18:45,4052.0562528704345,2,31,0.550297200679779,4.036957740783691,30.09318519059976,29.504142282285823,120.06199432724372,107.61138319381249,6.47544875391759e-05,0.0923885703086853,0,0,0
10042,347622.5455926397,2010-11-20 12:19:15,4082.071597703884,2,31,0.550297200679779,4.03938627243042,30.097772664814865,29.504142282285823,120.08051945168194,107.61138319381249,3.24249267578125e-05,0.0923885703086853,0,0,0
10043,347652.5610096984,2010-11-20 12:19:45,4112.087014747582,2,31,0.5499359965324402,4.041976451873779,30.102360252437027,29.504142282285823,120.09905654101446,107.61138319381249,6.47544875391759e-05,0.0923885703086853,0,0,0
10044,347682.5763135345,2010-11-20 12:20:15,4142.102318598732,2,31,0.5501165986061096,4.044566631317139,30.106947786641932,29.504142282285823,120.11760520046442,107.61138319381249,3.24249267578125e-05,0.0923885703086853,0,0,0
10045,347712.59165796195,2010-11-20 12:20:45,4172.117663026169,2,31,0.550297200679779,4.047156810760498,30.11153533659962,29.504142282285823,120.1361657437084,107.61138319381249,0.0001295089750783,0.0923885703086853,0,0,0
10046,347742.6069991463,2010-11-20 12:21:15,4202.13300421051,2,31,0.550297200679779,4.049746990203857,30.11612292670713,29.504142282285823,120.1547384687038,107.61138319381249,6.47544875391759e-05,0.0923885703086853,0,0,0
10047,347772.6223411828,2010-11-20 12:21:45,4232.148346251991,2,31,0.550297200679779,4.052498817443848,30.12071055901769,29.504142282285823,120.17332336576834,107.61138319381249,9.70840483205393e-05,0.0923885703086853,0,0,0
10048,347802.63771447225,2010-11-20 12:22:15,4262.163719536458,2,31,0.550297200679779,4.055088996887207,30.12529810638562,29.504142282285823,120.191920079792,107.61138319381249,6.47544875391759e-05,0.0923885703086853,0,0,0
10049,347832.6530342982,2010-11-20 12:22:45,4292.179039362485,2,31,0.5501165986061096,4.057679176330566,30.129885709004657,29.504142282285823,120.21052931189172,107.61138319381249,6.47544875391759e-05,0.0923885703086853,0,0,0
10050,347862.6684383746,2010-11-20 12:23:15,4322.194443423777,2,31,0.550297200679779,4.060431480407715,30.134473293261173,29.504142282285823,120.229150917602,107.61138319381249,6.47544875391759e-05,0.0923885703086853,0,0,0
10051,347892.6838686062,2010-11-20 12:23:45,4352.2098736553935,2,31,0.550297200679779,4.063183307647705,30.139060846986496,29.504142282285823,120.24778441874236,107.61138319381249,9.70840483205393e-05,0.0923885703086853,0,0,0
10052,347922.7009963601,2010-11-20 12:24:15,4382.227001409287,2,31,0.550297200679779,4.0659356117248535,30.14364864354047,29.504142282285823,120.26643160574518,107.61138319381249,6.47544875391759e-05,0.0923885703086853,0,0,0
10053,347952.71456834325,2010-11-20 12:24:45,4412.24057339243,2,31,0.550297200679779,4.068849563598633,30.14823591974969,29.504142282285823,120.2850893782519,107.61138319381249,0.0001295089750783,0.0923885703086853,0,0,0
10054,347982.72991829447,2010-11-20 12:25:15,4442.255923343654,2,31,0.550297200679779,4.071439743041992,30.15282344625801,29.504142282285823,120.30376094416184,107.61138319381249,9.71794142969884e-05,0.0923885703086853,0,0,0
10055,348012.7451445018,2010-11-20 12:25:45,4472.271149566032,2,31,0.5501165986061096,4.074515342712402,30.15741093865617,29.504142282285823,120.32244539393562,107.61138319381249,6.47544875391759e-05,0.0923885703086853,0,0,0
10056,348042.7605249341,2010-11-20 12:26:15,4502.2865300033545,2,31,0.550297200679779,4.077105522155762,30.161998471741896,29.504142282285823,120.34114304252462,107.61138319381249,6.47544875391759e-05,0.0923885703086853,0,0,0
10057,348072.7758995519,2010-11-20 12:26:45,4532.3019046011,2,31,0.5501165986061096,4.080019474029541,30.16658598055937,29.504142282285823,120.3598536601103,107.61138319381249,6.47544875391759e-05,0.0923885703086853,0,0,0
10058,348102.79118328786,2010-11-20 12:27:15,4562.317188352079,2,31,0.5501165986061096,4.08293342590332,30.171173528070742,29.504142282285823,120.37857763691132,107.61138319381249,6.47544875391759e-05,0.0923885703086853,0,0,0
10059,348132.8067204464,2010-11-20 12:27:45,4592.332725530651,2,31,0.550297200679779,4.086009502410889,30.175761065023025,29.504142282285823,120.39731497828548,107.61138319381249,9.71794142969884e-05,0.0923885703086853,0,0,0
10060,348162.82189030806,2010-11-20 12:28:15,4622.347895372295,2,31,0.5501165986061096,4.088761329650879,30.180348591785663,29.504142282285823,120.41606576665058,107.61138319381249,6.47544875391759e-05,0.0923885703086853,0,0,0
10061,348192.83748060925,2010-11-20 12:28:45,4652.363485653419,2,31,0.550297200679779,4.091675281524658,30.184936178725668,29.504142282285823,120.43483040450523,107.61138319381249,6.47544875391759e-05,0.0923885703086853,0,0,0
10062,348222.8525981804,2010-11-20 12:29:15,4682.3786032346125,2,31,0.5501165986061096,4.094751358032227,30.189523625126988,29.504142282285823,120.45360804337774,107.61138319381249,6.47544875391759e-05,0.0923885703086853,0,0,0
10063,348252.8680575999,2010-11-20 12:29:45,4712.394062649074,2,31,0.5501165986061096,4.097665309906006,30.194111202163,29.504142282285823,120.47240002641504,107.61138319381249,6.47544875391759e-05,0.0923885703086853,0,0,0
10064,348282.88373578043,2010-11-20 12:30:15,4742.409740829609,2,31,0.550297200679779,4.100903034210205,30.19869881050505,29.504142282285823,120.49120603593782,107.61138319381249,6.47544875391759e-05,0.0923885703086853,0,0,0
10065,348312.8986210368,2010-11-20 12:30:45,4772.424626100921,2,31,0.5501165986061096,4.103978633880615,30.20328634989188,29.504142282285823,120.51002577542091,107.61138319381249,9.70840483205393e-05,0.0923885703086853,0,0,0
10066,348342.9139789779,2010-11-20 12:31:15,4802.439984042089,2,31,0.550297200679779,4.1068925857543945,30.20787385510814,29.504142282285823,120.52885961006172,107.61138319381249,3.23295607813634e-05,0.0923885703086853,0,0,0
10067,348372.9293300719,2010-11-20 12:31:45,4832.455335136167,2,31,0.5501165986061096,4.110130310058594,30.21246140771333,29.504142282285823,120.5477077945378,107.61138319381249,9.70840483205393e-05,0.0923885703086853,0,0,0
10068,348402.94757674885,2010-11-20 12:32:15,4862.473581898276,2,31,0.5501165986061096,4.113044261932373,30.217049458207885,29.504142282285823,120.56657231730294,107.61138319381249,6.47544875391759e-05,0.0923885703086853,0,0,0
10069,348432.9600349869,2010-11-20 12:32:45,4892.486040051128,2,31,0.550297200679779,4.116281986236572,30.221636575132447,29.504142282285823,120.58544742339164,107.61138319381249,3.24249267578125e-05,0.0923885703086853,0,0,0
10070,348462.97537880286,2010-11-20 12:33:15,4922.50138387205,2,31,0.5501165986061096,4.119357585906982,30.226224164414564,29.504142282285823,120.6043390204692,107.61138319381249,3.23295607813634e-05,0.0923885703086853,0,0,0
10071,348492.99123421573,2010-11-20 12:33:45,4952.517239274959,2,31,0.550297200679779,4.122757434844971,30.230811814076965,29.504142282285823,120.62324551984436,107.61138319381249,6.47544875391759e-05,0.0923885703086853,0,0,0
10072,348523.0079937004,2010-11-20 12:34:15,4982.533998859846,2,31,0.5499359965324402,4.12599515914917,30.235399537470748,29.504142282285823,120.64216705900678,107.61138319381249,6.47544875391759e-05,0.0923885703086853,0,0,0
10073,348553.0213998346,2010-11-20 12:34:45,5012.547404898766,2,31,0.550297200679779,4.12939453125,30.23998683638246,29.504142282285823,120.66110187694888,107.61138319381249,0.0001295089750783,0.0923885703086853,0,0,0
10074,348583.0367459963,2010-11-20 12:35:15,5042.562751060532,2,31,0.550297200679779,4.132632255554199,30.24457440575221,29.504142282285823,120.68005290941484,107.61138319381249,6.47544875391759e-05,0.0923885703086853,0,0,0
10075,348613.0520808098,2010-11-20 12:35:45,5072.578085858932,2,31,0.5504778623580933,4.136032104492188,30.249161960784505,29.504142282285823,120.69901899800202,107.61138319381249,0.0001295089750783,0.0923885703086853,0,0,0
10076,348643.0520916372,2010-11-20 12:36:15,5102.578096691356,2,31,0.550297200679779,4.139269828796387,30.253747201068517,29.504142282285823,120.71799088366228,107.61138319381249,9.71794142969884e-05,0.0923885703086853,0,0,0
10077,348673.0672372283,2010-11-20 12:36:45,5132.593242277454,2,31,0.550297200679779,4.142507553100586,30.258334750754344,29.504142282285823,120.73698776912002,107.61138319381249,6.47544875391759e-05,0.0923885703086853,0,0,0
10078,348703.08257246774,2010-11-20 12:37:15,5162.608577516955,2,31,0.5501165986061096,4.146069049835205,30.26292229150982,29.504142282285823,120.75600026682024,107.61138319381249,6.47544875391759e-05,0.0923885703086853,0,0,0
10079,348733.0981630346,2010-11-20 12:37:45,5192.624168098831,2,31,0.550297200679779,4.149630546569824,30.26750988063715,29.504142282285823,120.77502880803746,107.61138319381249,9.71794142969884e-05,0.0923885703086853,0,0,0
10080,348763.11326021486,2010-11-20 12:38:15,5222.6392652791,2,31,0.5501165986061096,4.153029918670654,30.272097368894705,29.504142282285823,120.79407262580108,107.61138319381249,0.0001295089750783,0.0923885703086853,0,0,0
10081,348793.12871046644,2010-11-20 12:38:45,5252.65471553069,2,31,0.5501165986061096,4.156429767608643,30.27668492248664,29.504142282285823,120.81313252189706,107.61138319381249,9.71794142969884e-05,0.0923885703086853,0,0,0
10082,348823.1440926632,2010-11-20 12:39:15,5282.670097712366,2,31,0.550297200679779,4.159829139709473,30.2812724679486,29.504142282285823,120.83220832175874,107.61138319381249,9.70840483205393e-05,0.0923885703086853,0,0,0
10083,348853.1593546348,2010-11-20 12:39:45,5312.685359688992,2,31,0.5501165986061096,4.163390636444092,30.285860004460996,29.504142282285823,120.85130027381896,107.61138319381249,9.70840483205393e-05,0.0923885703086853,0,0,0
10084,348883.17466756364,2010-11-20 12:40:15,5342.700672627829,2,31,0.5504778623580933,4.1671142578125,30.290447539721164,29.504142282285823,120.8704082637738,107.61138319381249,9.71794142969884e-05,0.0923885703086853,0,0,0
10085,348913.1900379859,2010-11-20 12:40:45,5372.716043050153,2,31,0.550297200679779,4.17051362991333,30.29503505413016,29.504142282285823,120.88953244038336,107.61138319381249,6.47544875391759e-05,0.0923885703086853,0,0,0
10086,348943.2054852701,2010-11-20 12:41:15,5402.731490334335,2,31,0.550297200679779,4.174075126647949,30.29962257990879,29.504142282285823,120.9086731111382,107.61138319381249,9.70840483205393e-05,0.0923885703086853,0,0,0
10087,348973.2208498378,2010-11-20 12:41:45,5432.746854902044,2,31,0.550297200679779,4.177636623382568,30.3042101139748,29.504142282285823,120.92783030469006,107.61138319381249,6.47544875391759e-05,0.0923885703086853,0,0,0
10088,349003.2210438976,2010-11-20 12:42:15,5462.747048966845,2,31,0.5504778623580933,4.181360244750977,30.30879537323145,29.504142282285823,120.94699470036475,107.61138319381249,9.71794142969884e-05,0.0923885703086853,0,0,0
10089,349033.2357983123,2010-11-20 12:42:45,5492.761803376505,2,31,0.550297200679779,4.184921741485596,30.31338286441171,29.504142282285823,120.96618509919811,107.61138319381249,9.71794142969884e-05,0.0923885703086853,0,0,0
10090,349063.2512795412,2010-11-20 12:43:15,5522.77728460542,2,31,0.5501165986061096,4.188644886016846,30.31797051696802,29.504142282285823,120.98539287432004,107.61138319381249,9.70840483205393e-05,0.0923885703086853,0,0,0
10091,349093.26649211446,2010-11-20 12:43:46,5552.792497178727,2,31,0.5501165986061096,4.192206382751465,30.32255803697058,29.504142282285823,121.00461694928862,107.61138319381249,6.47544875391759e-05,0.0923885703086853,0,0,0
10092,349123.28183194547,2010-11-20 12:44:16,5582.80783700969,2,31,0.550297200679779,4.196091651916504,30.32714560276633,29.504142282285823,121.02385813450232,107.61138319381249,0.0001295089750783,0.0923885703086853,0,0,0
10093,349153.2971915859,2010-11-20 12:44:46,5612.823196655112,2,31,0.5501165986061096,4.199653148651123,30.331733152051605,29.504142282285823,121.04311637720744,107.61138319381249,6.47544875391759e-05,0.0923885703086853,0,0,0
10094,349154.6409478833,2010-11-20 12:44:47,5614.166952947549,2,31,0.550297200679779,4.200138568878174,30.33193853662718,29.504142282285823,121.04397897465869,107.61138319381249,9.70840483205393e-05,0.0923885703086853,0,0,0
10095,349184.6647643168,2010-11-20 12:45:17,30.01542921407668,3,31,0.0,4.117253303527832,30.33193853662718,29.504142282285823,121.04397897465869,107.61138319381249,-0.0004208564641885,0.0923885703086853,0,0,0
10096,349214.67998546653,2010-11-20 12:45:47,60.030650363792695,3,31,0.0,4.107378482818604,30.33193853662718,29.504142282285823,121.04397897465869,107.61138319381249,-0.0001942634553415,0.0923885703086853,0,0,0
10097,349244.6953759539,2010-11-20 12:46:17,90.04604088127672,3,31,0.0,4.101388454437256,30.33193853662718,29.504142282285823,121.04397897465869,107.61138319381249,-0.0001295089750783,0.0923885703086853,0,0,0
10098,349274.6638139357,2010-11-20 12:46:47,120.01447883293298,3,31,0.0,4.097826957702637,30.33193853662718,29.504142282285823,121.04397897465869,107.61138319381249,-6.47544875391759e-05,0.0923885703086853,0,0,0
10099,349274.6733297546,2010-11-20 12:46:47,2.686706433e-06,4,31,0.982675850391388,4.199653148651123,30.33193853736056,29.504142282285823,121.04397897773862,107.61138319381249,0.0,0.0923885703086853,0,0,0
10100,349275.62646109203,2010-11-20 12:46:48,0.953134044210356,4,31,0.9321052432060242,4.199653148651123,30.332190518478747,29.504142282285823,121.04503722127374,107.61138319381249,0.0,0.0923885703086853,0,0,0
10101,349277.78278198576,2010-11-20 12:46:50,3.109455013090368,4,31,0.8820764422416687,4.199653148651123,30.33273270083612,29.504142282285823,121.0473142310922,107.61138319381249,0.0,0.0923885703086853,0,0,0
10102,349281.04826892354,2010-11-20 12:46:54,6.374941890719527,4,31,0.832047700881958,4.199814796447754,30.3335086633642,29.504142282285823,121.05057305493328,107.61138319381249,0.0,0.0923885703086853,0,0,0
10103,349285.51698616426,2010-11-20 12:46:58,10.843659116409809,4,31,0.7820188999176025,4.199814796447754,30.334508803349596,29.504142282285823,121.05477334767843,107.61138319381249,0.0,0.0923885703086853,0,0,0
10104,349291.40755445394,2010-11-20 12:47:04,16.734227406102157,4,31,0.7318095564842224,4.199653148651123,30.33574558711019,29.504142282285823,121.05996750922876,107.61138319381249,-3.23295607813634e-05,0.0923885703086853,0,0,0
10105,349299.09497261234,2010-11-20 12:47:12,24.421645564505244,4,31,0.6817807555198669,4.199814796447754,30.337252762145035,29.504142282285823,121.06629723644616,107.61138319381249,0.0,0.0923885703086853,0,0,0
10106,349309.485519546,2010-11-20 12:47:22,34.812192513234955,4,31,0.6315714120864868,4.199814796447754,30.339144735659712,29.504142282285823,121.07424304192988,107.61138319381249,0.0,0.0923885703086853,0,0,0
10107,349324.11037608795,2010-11-20 12:47:37,49.437049060154,4,31,0.5815426111221313,4.199491024017334,30.341603597016192,29.504142282285823,121.08456963441095,107.61138319381249,-6.47544875391759e-05,0.0923885703086853,0,0,0
10108,349346.766581422,2010-11-20 12:47:59,72.09325437418788,4,31,0.5313332676887512,4.199814796447754,30.34509513928488,29.504142282285823,121.09923319333528,107.61138319381249,0.0,0.0923885703086853,0,0,0
10109,349386.39104719466,2010-11-20 12:48:39,111.7177201618656,4,31,0.4813044667243957,4.199976921081543,30.35064337726664,29.504142282285823,121.12253434316752,107.61138319381249,6.47544875391759e-05,0.0923885703086853,0,0,0
10110,349455.8279965729,2010-11-20 12:49:48,181.1546696604216,4,31,0.4310950934886932,4.199491024017334,30.359409180986127,29.504142282285823,121.15934848221836,107.61138319381249,-6.47544875391759e-05,0.0923885703086853,0,0,0
10111,349556.68668686564,2010-11-20 12:51:29,282.01335986790104,4,31,0.3810663223266601,4.199653148651123,30.37076457207805,29.504142282285823,121.20703826801902,107.61138319381249,0.0,0.0923885703086853,0,0,0
10112,349680.0446051829,2010-11-20 12:53:33,405.371278135037,4,31,0.3310375511646271,4.199653148651123,30.382947766053725,29.504142282285823,121.25820462089676,107.61138319381249,0.0,0.0923885703086853,0,0,0
10113,349827.3401379084,2010-11-20 12:56:00,552.6668108605712,4,31,0.281008780002594,4.199653148651123,30.395449535148195,29.504142282285823,121.31070883457528,107.61138319381249,-3.23295607813634e-05,0.0923885703086853,0,0,0
10114,350003.4478993294,2010-11-20 12:58:56,728.7745722715547,4,31,0.2307994067668914,4.199491024017334,30.407939225982485,29.504142282285823,121.36316167877736,107.61138319381249,-3.24249267578125e-05,0.0923885703086853,0,0,0
10115,350228.0864374102,2010-11-20 13:02:41,953.4131103624046,4,31,0.1807706356048584,4.199653148651123,30.42074669151542,29.504142282285823,121.41694964311831,107.61138319381249,-3.23295607813634e-05,0.0923885703086853,0,0,0
10116,350533.42744783283,2010-11-20 13:07:46,1258.754120789972,4,31,0.1307418793439865,4.199491024017334,30.433858856077126,29.504142282285823,121.47201737332578,107.61138319381249,-6.47544875391759e-05,0.0923885703086853,0,0,0
10117,351011.454895159,2010-11-20 13:15:44,1736.78156811117,4,31,0.0807131007313728,4.199814796447754,30.447644501721022,29.504142282285823,121.52991365846545,107.61138319381249,0.0,0.0923885703086853,0,0,0
10118,351533.5901873819,2010-11-20 13:24:26,2258.916860334065,4,31,0.0498289167881011,4.199653148651123,30.45697734204542,29.504142282285823,121.56910928220988,107.61138319381249,-3.23295607813634e-05,0.0923885703086853,0,0,0
10119,351563.60442989465,2010-11-20 13:24:56,30.015339144248525,5,31,0.0,4.192044734954834,30.45697734204542,29.504142282285823,121.56910928220988,107.61138319381249,-6.47544875391759e-05,0.0923885703086853,0,0,0
10120,351593.6042225625,2010-11-20 13:25:26,60.0151318121002,5,31,0.0,4.190911293029785,30.45697734204542,29.504142282285823,121.56910928220988,107.61138319381249,-3.24249267578125e-05,0.0923885703086853,0,0,0
10121,351593.7912394344,2010-11-20 13:25:27,0.187632228909856,6,31,-1.9243103452026844e-05,4.191073417663574,30.45697734204542,29.504142283288772,121.56910928220988,107.61138319801591,0.0,0.0923885703086853,0,0,0
10122,351598.6192548787,2010-11-20 13:25:31,5.015647688268023,6,31,0.0007031940040178,4.190911293029785,30.456978360069066,29.504142283455096,121.56911354881484,107.611383198713,-3.24249267578125e-05,0.0923885703086853,0,0,0
10123,351628.64979426714,2010-11-20 13:26:01,30.015486286538323,7,31,-1.0993878841400146,4.021093368530273,30.456978360069066,29.51331112729797,121.56911354881484,107.64844037589918,-0.0009065627818927,0.0923885703086853,0,0,0
10124,351658.6650121637,2010-11-20 13:26:31,60.030704178121546,7,31,-1.0997490882873535,3.995838880538941,30.456978360069066,29.522479915510008,121.56911354881484,107.68518544141568,-0.0005827903514727,0.0923885703086853,0,0,0
10125,351688.6823566586,2010-11-20 13:27:01,90.04804866802134,7,31,-1.0997490882873535,3.9788410663604736,30.456978360069066,29.531649327267804,121.56911354881484,107.72174329181088,-0.0003885269106831,0.0923885703086853,0,0,0
10126,351718.69573300844,2010-11-20 13:27:32,120.0614250228455,7,31,-1.099568486213684,3.965242624282837,30.456978360069066,29.540817399277223,121.56911354881484,107.75815657435494,-0.0003561496851034,0.0923885703086853,0,0,0
10127,351748.7110773406,2010-11-20 13:28:02,150.07676935504395,7,31,-1.0997490882873535,3.9537487030029297,30.456978360069066,29.54998610908988,121.56911354881484,107.79445925160512,-0.0002913951757363,0.0923885703086853,0,0,0
10128,351778.72643682064,2010-11-20 13:28:32,180.09212883505364,7,31,-1.0997490882873535,3.943387985229492,30.456978360069066,29.55915483353417,121.56911354881484,107.83066226118616,-0.0002590179501567,0.0923885703086853,0,0,0
10129,351808.7417953483,2010-11-20 13:29:02,210.10748736268607,7,31,-1.099568486213684,3.933512926101685,30.456978360069066,29.568323489234157,121.56911354881484,107.86677239412155,-0.0002590179501567,0.0923885703086853,0,0,0
10130,351838.7571372744,2010-11-20 13:29:32,240.1228292888788,7,31,-1.0997490882873535,3.924285411834717,30.456978360069066,29.57749219522468,121.56911354881484,107.90279496217514,-0.0002266406954731,0.0923885703086853,0,0,0
10131,351868.7724635767,2010-11-20 13:30:02,270.1381555910716,7,31,-1.099568486213684,3.915219783782959,30.456978360069066,29.58666089896979,121.56911354881484,107.93873355395476,-0.0002266406954731,0.0923885703086853,0,0,0
10132,351898.78786440485,2010-11-20 13:30:32,300.1535564042552,7,31,-1.0997490882873535,3.9063162803649902,30.456978360069066,29.595829654324653,121.56911354881484,107.9745906326162,-0.0002590179501567,0.0923885703086853,0,0,0
10133,351928.8031879552,2010-11-20 13:31:02,330.16887996961646,7,31,-1.099568486213684,3.897898197174072,30.456978360069066,29.604998344162738,121.56911354881484,108.01036774366123,-0.0001942634553415,0.0923885703086853,0,0,0
10134,351958.8186667029,2010-11-20 13:31:32,360.18435871733675,7,31,-1.099568486213684,3.8894801139831534,30.456978360069066,29.614167030258248,121.56911354881484,108.04606702620826,-0.0001942634553415,0.0923885703086853,0,0,0
10135,351988.83390296536,2010-11-20 13:32:02,390.1995949647389,7,31,-1.0997490882873535,3.881062030792236,30.456978360069066,29.623335722380155,121.56911354881484,108.08169010926954,-0.0002266406954731,0.0923885703086853,0,0,0
10136,352018.84924289654,2010-11-20 13:32:32,420.21493491098937,7,31,-1.0997490882873535,3.8729677200317374,30.456978360069066,29.632504466521187,121.56911354881484,108.1172378510486,-0.0002266406954731,0.0923885703086853,0,0,0
10137,352048.8648185712,2010-11-20 13:33:02,450.2305105856542,7,31,-1.0997490882873535,3.86503529548645,30.456978360069066,29.64167329380308,121.56911354881484,108.1527119741305,-0.0002266406954731,0.0923885703086853,0,0,0
10138,352078.8799446135,2010-11-20 13:33:32,480.24563661293,7,31,-1.099568486213684,3.857102870941162,30.456978360069066,29.65084191035836,121.56911354881484,108.18811155646196,-0.0001942634553415,0.0923885703086853,0,0,0
10139,352108.8953538678,2010-11-20 13:34:02,510.26104586718384,7,31,-1.0997490882873535,3.849008560180664,30.456978360069066,29.660010598593345,121.56911354881484,108.2234379585648,-0.0002266406954731,0.0923885703086853,0,0,0
10140,352138.9106590924,2010-11-20 13:34:32,540.2763511118137,7,31,-1.0997490882873535,3.841399908065796,30.456978360069066,29.669179258610725,121.56911354881484,108.2586923800144,-0.0002266406954731,0.0923885703086853,0,0,0
10141,352168.9260348831,2010-11-20 13:35:02,570.291726897525,7,31,-1.0993878841400146,3.833791255950928,30.456978360069066,29.67834804411141,121.56911354881484,108.29387761007726,-0.0001942634553415,0.0923885703086853,0,0,0
10142,352198.9413501177,2010-11-20 13:35:32,600.3070421320913,7,31,-1.099568486213684,3.8263447284698486,30.456978360069066,29.68751675532104,121.56911354881484,108.32899382398448,-0.0001618862152099,0.0923885703086853,0,0,0
10143,352228.95670394355,2010-11-20 13:36:02,630.3223959629998,7,31,-1.0997490882873535,3.8188979625701904,30.456978360069066,29.696685488466738,121.56911354881484,108.36404229176598,-0.0001618862152099,0.0923885703086853,0,0,0
10144,352258.9567443899,2010-11-20 13:36:32,660.3224364945576,7,31,-1.0997490882873535,3.811613082885742,30.456978360069066,29.70584958606599,121.56911354881484,108.39900641322336,-0.0001942634553415,0.0923885703086853,0,0,0
10145,352288.97178549523,2010-11-20 13:37:02,690.3374775146423,7,31,-1.099568486213684,3.804490089416504,30.456978360069066,29.715018208492847,121.56911354881484,108.43392194348232,-0.0002590179501567,0.0923885703086853,0,0,0
10146,352318.98903375486,2010-11-20 13:37:32,720.3547258394993,7,31,-1.0997490882873535,3.797852754592896,30.456978360069066,29.724187522853637,121.56911354881484,108.4687764384642,-0.0001942634553415,0.0923885703086853,0,0,0
10147,352349.0025039139,2010-11-20 13:38:02,750.368195928298,7,31,-1.099568486213684,3.791215419769287,30.456978360069066,29.733355753530983,121.56911354881484,108.5035650223769,-0.0001618862152099,0.0923885703086853,0,0,0
10148,352379.0179738145,2010-11-20 13:38:32,780.383665813897,7,31,-1.0997490882873535,3.7844161987304688,30.456978360069066,29.74252452498672,121.56911354881484,108.53829466179816,-0.0001942634553415,0.0923885703086853,0,0,0
10149,352409.0332639865,2010-11-20 13:39:02,810.3989561212411,7,31,-1.099929690361023,3.7779407501220703,30.456978360069066,29.751693277651103,121.56911354881484,108.57296350693107,-0.0001618862152099,0.0923885703086853,0,0,0
10150,352439.04870464414,2010-11-20 13:39:32,840.4143966435449,7,31,-1.099568486213684,3.771627187728882,30.456978360069066,29.76086207383728,121.56911354881484,108.60757327783634,-0.0001295089750783,0.0923885703086853,0,0,0
10151,352469.0639635932,2010-11-20 13:40:02,870.4296555926138,7,31,-1.0997490882873535,3.765313625335693,30.456978360069066,29.77003084018862,121.56911354881484,108.64212533885096,-0.0001618862152099,0.0923885703086853,0,0,0
10152,352499.07925714366,2010-11-20 13:40:32,900.4449491580907,7,31,-1.099929690361023,3.759161949157715,30.456978360069066,29.779199654683666,121.56911354881484,108.67662139606958,-0.0001618862152099,0.0923885703086853,0,0,0
10153,352529.09461577155,2010-11-20 13:41:02,930.4603077859734,7,31,-1.0997490882873535,3.7531721591949454,30.456978360069066,29.788368504893885,121.56911354881484,108.71106165637777,-0.0001295089750783,0.0923885703086853,0,0,0
10154,352559.10998351214,2010-11-20 13:41:32,960.4756755266028,7,31,-1.0997490882873535,3.747182607650757,30.456978360069066,29.797537319667203,121.56911354881484,108.74544689697,-0.0001942634553415,0.0923885703086853,0,0,0
10155,352589.12531503243,2010-11-20 13:42:02,990.4910070468208,7,31,-1.0997490882873535,3.741516590118408,30.456978360069066,29.806706151788276,121.56911354881484,108.7797786926716,-0.0001618862152099,0.0923885703086853,0,0,0
10156,352619.14094437606,2010-11-20 13:42:32,1020.506636375414,7,31,-1.0997490882873535,3.73585057258606,30.456978360069066,29.815875011530235,121.56911354881484,108.8140582224686,-0.0001295089750783,0.0923885703086853,0,0,0
10157,352649.15597291494,2010-11-20 13:43:02,1050.5216649193565,7,31,-1.099929690361023,3.730022668838501,30.456978360069066,29.82504380577289,121.56911354881484,108.84828563113304,-0.0001618862152099,0.0923885703086853,0,0,0
10158,352679.1715961534,2010-11-20 13:43:32,1080.5372881577475,7,31,-1.0997490882873535,3.7248423099517822,30.456978360069066,29.834212661582097,121.56911354881484,108.88246306092086,-0.0001618862152099,0.0923885703086853,0,0,0
10159,352709.1867815288,2010-11-20 13:44:02,1110.5524735030904,7,31,-1.0997490882873535,3.7195000648498535,30.456978360069066,29.843381370574782,121.56911354881484,108.91659005940124,-9.713172767078504e-05,0.0923885703086853,0,0,0
10160,352739.20210879337,2010-11-20 13:44:32,1140.5678008127982,7,31,-1.099568486213684,3.713995933532715,30.456978360069066,29.852550199290995,121.56911354881484,108.9506678361714,-0.0001295089750783,0.0923885703086853,0,0,0
10161,352769.21738994285,2010-11-20 13:45:02,1170.5830819572702,7,31,-1.0997490882873535,3.708653688430786,30.456978360069066,29.86171897495679,121.56911354881484,108.98469624861048,-0.0001295089750783,0.0923885703086853,0,0,0
10162,352799.2328193424,2010-11-20 13:45:32,1200.59851135681,7,31,-1.099568486213684,3.7033114433288574,30.456978360069066,29.87088779760017,121.56911354881484,109.01867648411483,-0.0001618862152099,0.0923885703086853,0,0,0
10163,352829.2483685409,2010-11-20 13:46:02,1230.6140605403486,7,31,-1.0997490882873535,3.6982929706573486,30.456978360069066,29.880056747677138,121.56911354881484,109.05260969862428,-0.0001295089750783,0.0923885703086853,0,0,0
10164,352859.26353133,2010-11-20 13:46:32,1260.6292233293875,7,31,-1.0997490882873535,3.69311261177063,30.456978360069066,29.88922556781824,121.56911354881484,109.08649565441227,-0.0001618862152099,0.0923885703086853,0,0,0
10165,352889.2789547847,2010-11-20 13:47:02,1290.644646784088,7,31,-1.0997490882873535,3.688094139099121,30.456978360069066,29.898394424508577,121.56911354881484,109.120335392012,-0.0001618862152099,0.0923885703086853,0,0,0
10166,352919.29610578663,2010-11-20 13:47:32,1320.661797806062,7,31,-1.099568486213684,3.683399438858032,30.456978360069066,29.90756380222903,121.56911354881484,109.15413139003908,-9.713172767078504e-05,0.0923885703086853,0,0,0
10167,352949.30971470696,2010-11-20 13:48:02,1350.6754067213933,7,31,-1.099568486213684,3.678542852401733,30.456978360069066,29.91673209750212,121.56911354881484,109.18787867705542,-0.0001295089750783,0.0923885703086853,0,0,0
10168,352979.32492819754,2010-11-20 13:48:32,1380.6906202972034,7,31,-1.0997490882873535,3.6735243797302246,30.456978360069066,29.92590095385705,121.56911354881484,109.22158360312272,-0.0001295089750783,0.0923885703086853,0,0,0
10169,353009.34029244946,2010-11-20 13:49:02,1410.705984453887,7,31,-1.0997490882873535,3.668829917907715,30.456978360069066,29.935069830606498,121.56911354881484,109.25524500480124,-0.0001295089750783,0.0923885703086853,0,0,0
10170,353039.3584831216,2010-11-20 13:49:32,1440.724175221225,7,31,-1.0997490882873535,3.664135217666626,30.456978360069066,29.944239521120693,121.56911354881484,109.28886665929689,-0.0001618862152099,0.0923885703086853,0,0,0
10171,353069.3710105423,2010-11-20 13:50:02,1470.736702626942,7,31,-1.099568486213684,3.659764289855957,30.456978360069066,29.953407475604436,121.56911354881484,109.32244029141224,-9.713172767078504e-05,0.0923885703086853,0,0,0
10172,353099.3864025987,2010-11-20 13:50:32,1500.752094613092,7,31,-1.0997490882873535,3.655231475830078,30.456978360069066,29.962576327102287,121.56911354881484,109.35597591152296,-0.0001618862152099,0.0923885703086853,0,0,0
10173,353129.4016871667,2010-11-20 13:51:02,1530.7673791811098,7,31,-1.0997490882873535,3.650860548019409,30.456978360069066,29.97174518284089,121.56911354881484,109.38947072819322,-0.0001295089750783,0.0923885703086853,0,0,0
10174,353159.4170614336,2010-11-20 13:51:32,1560.78275344803,7,31,-1.0997490882873535,3.6463277339935294,30.456978360069066,29.980914015151782,121.56911354881484,109.42292502949286,-0.0001618862152099,0.0923885703086853,0,0,0
10175,353189.4325151739,2010-11-20 13:52:02,1590.7982071732902,7,31,-1.099929690361023,3.6421186923980713,30.456978360069066,29.99008282779881,121.56911354881484,109.45633941328488,-0.0001295089750783,0.0923885703086853,0,0,0
10176,353219.4477525742,2010-11-20 13:52:32,1620.8134445735702,7,31,-1.0997490882873535,3.637909650802612,30.456978360069066,29.99925163207714,121.56911354881484,109.48971451211168,-0.0001295089750783,0.0923885703086853,0,0,0
10177,353249.4632323294,2010-11-20 13:53:02,1650.8289243288054,7,31,-1.099568486213684,3.6338624954223633,30.456978360069066,30.008420474815765,121.56911354881484,109.52305160301772,-9.713172767078504e-05,0.0923885703086853,0,0,0
10178,353279.47856234084,2010-11-20 13:53:32,1680.8442545708324,7,31,-1.099568486213684,3.629977226257324,30.456978360069066,30.01758931529153,121.56911354881484,109.5563515660923,-6.47544875391759e-05,0.0923885703086853,0,0,0
10179,353309.49403559987,2010-11-20 13:54:02,1710.8597276443893,7,31,-1.0997490882873535,3.625930070877075,30.456978360069066,30.02675827371544,121.56911354881484,109.58961571457068,-0.0001295089750783,0.0923885703086853,0,0,0
10180,353339.5094217214,2010-11-20 13:54:32,1740.8751137258,7,31,-1.0997490882873535,3.622206687927246,30.456978360069066,30.03592716334108,121.56911354881484,109.62284412522006,-6.47544875391759e-05,0.0923885703086853,0,0,0
10181,353369.5245170721,2010-11-20 13:55:02,1770.8902090865276,7,31,-1.0997490882873535,3.618483304977417,30.456978360069066,30.04509592123824,121.56911354881484,109.6560377136758,-0.0001295089750783,0.0923885703086853,0,0,0
10182,353399.5393278926,2010-11-20 13:55:32,1800.9050198869486,7,31,-1.099568486213684,3.614921808242798,30.456978360069066,30.05424567272533,121.56911354881484,109.68912921129682,-6.47544875391759e-05,0.0923885703086853,0,0,0
10183,353429.5395990197,2010-11-20 13:56:02,1830.9052910341584,7,31,-1.099568486213684,3.6113603115081783,30.456978360069066,30.063428828859408,121.56911354881484,109.72230930388112,-9.713172767078504e-05,0.0923885703086853,0,0,0
10184,353459.55498781294,2010-11-20 13:56:32,1860.9206798123007,7,31,-1.0997490882873535,3.6079607009887695,30.456978360069066,30.072597674522523,121.56911354881484,109.75540605570782,-9.713172767078504e-05,0.0923885703086853,0,0,0
10185,353489.5702868972,2010-11-20 13:57:02,1890.9359789115908,7,31,-1.0997490882873535,3.6047229766845694,30.456978360069066,30.081766453130825,121.56911354881484,109.78847158372332,-3.237724376958795e-05,0.0923885703086853,0,0,0
10186,353519.5857774243,2010-11-20 13:57:32,1920.9514694387144,7,31,-1.0997490882873535,3.601485252380371,30.456978360069066,30.090935349267667,121.56911354881484,109.82150755543468,-6.47544875391759e-05,0.0923885703086853,0,0,0
10187,353549.6029314086,2010-11-20 13:58:02,1950.968623403033,7,31,-1.0997490882873535,3.598247528076172,30.456978360069066,30.10010469298232,121.56911354881484,109.8545156500966,-6.47544875391759e-05,0.0923885703086853,0,0,0
10188,353579.6163619136,2010-11-20 13:58:32,1980.9820539280745,7,31,-1.0997490882873535,3.5951716899871826,30.456978360069066,30.109272920464896,121.56911354881484,109.88749101459752,-6.47544875391759e-05,0.0923885703086853,0,0,0
10189,353609.6321611513,2010-11-20 13:59:02,2010.997853256012,7,31,-1.099568486213684,3.5922577381134038,30.456978360069066,30.118441892919183,121.56911354881484,109.92044103452046,-3.237724376958795e-05,0.0923885703086853,0,0,0
10190,353639.6471996802,2010-11-20 13:59:32,2041.012891679616,7,31,-1.099568486213684,3.589182138442993,30.456978360069066,30.12761056925096,121.56911354881484,109.95336248262912,-0.0001295089750783,0.0923885703086853,0,0,0
10191,353669.66248490487,2010-11-20 14:00:02,2071.028176924323,7,31,-1.0997490882873535,3.586268186569214,30.456978360069066,30.13677940383256,121.56911354881484,109.98625748966415,-6.47544875391759e-05,0.0923885703086853,0,0,0
10192,353699.6778995927,2010-11-20 14:00:33,2101.043591607127,7,31,-1.0997490882873535,3.5833542346954346,30.456978360069066,30.14594825307938,121.56911354881484,110.01912591924216,-9.713172767078504e-05,0.0923885703086853,0,0,0
10193,353729.6931296948,2010-11-20 14:01:03,2131.058821709189,7,31,-1.099568486213684,3.580602169036865,30.456978360069066,30.15511704402964,121.56911354881484,110.05196806862092,-6.47544875391759e-05,0.0923885703086853,0,0,0
10194,353759.70861084847,2010-11-20 14:01:33,2161.074302862916,7,31,-1.0997490882873535,3.577526330947876,30.456978360069066,30.164285906293586,121.56911354881484,110.08478427603376,-0.0001295089750783,0.0923885703086853,0,0,0
10195,353789.72396892,2010-11-20 14:02:03,2191.089660934409,7,31,-1.099568486213684,3.574774265289306,30.456978360069066,30.17345477427316,121.56911354881484,110.11757418743068,-6.47544875391759e-05,0.0923885703086853,0,0,0
10196,353819.7391881549,2010-11-20 14:02:33,2221.1048801543084,7,31,-1.099568486213684,3.5720221996307373,30.456978360069066,30.182623541191493,121.56911354881484,110.150337678113,-6.47544875391759e-05,0.0923885703086853,0,0,0
10197,353849.75454256224,2010-11-20 14:03:03,2251.1202345766933,7,31,-1.0997490882873535,3.569108247756958,30.456978360069066,30.19179236136538,121.56911354881484,110.18307490045878,-3.237724376958795e-05,0.0923885703086853,0,0,0
10198,353879.7700627986,2010-11-20 14:03:33,2281.1357548129754,7,31,-1.0997490882873535,3.5661942958831787,30.456978360069066,30.200961251577063,121.56911354881484,110.2157856890428,-9.713172767078504e-05,0.0923885703086853,0,0,0
10199,353909.785273016,2010-11-20 14:04:03,2311.150965030403,7,31,-1.099929690361023,3.5632803440093994,30.456978360069066,30.21012999148375,121.56911354881484,110.24846903501088,-6.47544875391759e-05,0.0923885703086853,0,0,0
10200,353939.8006101301,2010-11-20 14:04:33,2341.1663021495965,7,31,-1.0997490882873535,3.56020450592041,30.456978360069066,30.219298799946145,121.56911354881484,110.2811259667609,-6.47544875391759e-05,0.0923885703086853,0,0,0
10201,353969.81596015155,2010-11-20 14:05:03,2371.181652170996,7,31,-1.0997490882873535,3.557128667831421,30.456978360069066,30.22846758854883,121.56911354881484,110.3137546456664,-6.47544875391759e-05,0.0923885703086853,0,0,0
10202,353999.8313389047,2010-11-20 14:05:33,2401.1970309040644,7,31,-1.099568486213684,3.5538909435272217,30.456978360069066,30.23763641625043,121.56911354881484,110.34635467756456,-9.713172767078504e-05,0.0923885703086853,0,0,0
10203,354029.8468927298,2010-11-20 14:06:03,2431.212584744227,7,31,-1.099568486213684,3.5506532192230225,30.456978360069066,30.246805295893715,121.56911354881484,110.3789254788699,-9.713172767078504e-05,0.0923885703086853,0,0,0
10204,354059.8621665761,2010-11-20 14:06:33,2461.2278585754443,7,31,-1.0997490882873535,3.5474154949188232,30.456978360069066,30.25597410768172,121.56911354881484,110.41146575305255,-6.47544875391759e-05,0.0923885703086853,0,0,0
10205,354089.8774366329,2010-11-20 14:07:03,2491.2431286322394,7,31,-1.0997490882873535,3.543853998184204,30.456978360069066,30.265142891944137,121.56911354881484,110.443974662251,-9.713172767078504e-05,0.0923885703086853,0,0,0
10206,354119.8927475416,2010-11-20 14:07:33,2521.2584395610584,7,31,-1.099568486213684,3.540454387664795,30.456978360069066,30.2743117056573,121.56911354881484,110.47645144924246,-6.47544875391759e-05,0.0923885703086853,0,0,0
10207,354149.9099958364,2010-11-20 14:08:03,2551.27568783579,7,31,-1.0997490882873535,3.536731004714966,30.456978360069066,30.283481078511137,121.56911354881484,110.50889717635206,-9.713172767078504e-05,0.0923885703086853,0,0,0
10208,354179.92345488264,2010-11-20 14:08:33,2581.289146897062,7,31,-1.0997490882873535,3.5328457355499268,30.456978360069066,30.292649385100813,121.56911354881484,110.5413049293265,-9.713172767078504e-05,0.0923885703086853,0,0,0
10209,354209.93881084886,2010-11-20 14:09:03,2611.304502863301,7,31,-1.0997490882873535,3.528960466384888,30.456978360069066,30.30181819360197,121.56911354881484,110.57367914590874,-9.713172767078504e-05,0.0923885703086853,0,0,0
10210,354239.9541653214,2010-11-20 14:09:33,2641.319857335812,7,31,-1.0997490882873535,3.5247514247894287,30.456978360069066,30.31098708008902,121.56911354881484,110.60601688730422,-0.0001295089750783,0.0923885703086853,0,0,0
10211,354269.9696669011,2010-11-20 14:10:03,2671.335358915524,7,31,-1.099568486213684,3.5205423831939697,30.456978360069066,30.320156003163635,121.56911354881484,110.6383161770411,-9.713172767078504e-05,0.0923885703086853,0,0,0
10212,354299.9849453489,2010-11-20 14:10:33,2701.3506373632645,7,31,-1.0997490882873535,3.516009569168091,30.456978360069066,30.329324803490938,121.56911354881484,110.67057543239088,-0.0001618862152099,0.0923885703086853,0,0,0
10213,354330.00023019256,2010-11-20 14:11:03,2731.3659222069705,7,31,-1.0997490882873535,3.511315107345581,30.456978360069066,30.33849367028252,121.56911354881484,110.70279291723348,-0.0001618385285837,0.0923885703086853,0,0,0
10214,354360.01559132163,2010-11-20 14:11:33,2761.3812833360967,7,31,-1.099568486213684,3.5064585208892822,30.456978360069066,30.347662500488003,121.56911354881484,110.73496584241344,-9.713172767078504e-05,0.0923885703086853,0,0,0
10215,354390.0309625861,2010-11-20 14:12:03,2791.396654600522,7,31,-1.099568486213684,3.501116275787353,30.456978360069066,30.35683137101684,121.56911354881484,110.76709093185076,-0.0001295089750783,0.0923885703086853,0,0,0
10216,354420.04630283307,2010-11-20 14:12:33,2821.411994852536,7,31,-1.0997490882873535,3.494964599609375,30.456978360069066,30.366000249744445,121.56911354881484,110.79916391631497,-0.0001942634553415,0.0923885703086853,0,0,0
10217,354450.06165926554,2010-11-20 14:13:03,2851.427351279925,7,31,-1.099568486213684,3.4883272647857666,30.456978360069066,30.37516914196167,121.56911354881484,110.83117904053752,-0.0001618862152099,0.0923885703086853,0,0,0
10218,354480.07701887086,2010-11-20 14:13:33,2881.4427108852483,7,31,-1.099568486213684,3.4807186126708984,30.456978360069066,30.38433802588751,121.56911354881484,110.86312892336773,-0.0002266406954731,0.0923885703086853,0,0,0
10219,354510.09243255114,2010-11-20 14:14:03,2911.45812456555,7,31,-1.099568486213684,3.4716529846191406,30.456978360069066,30.393506919494325,121.56911354881484,110.89500275472572,-0.0002590179501567,0.0923885703086853,0,0,0
10220,354540.10773359524,2010-11-20 14:14:33,2941.473425609695,7,31,-1.0997490882873535,3.460968494415283,30.456978360069066,30.402675823482088,121.56911354881484,110.9267870014718,-0.0003237724304199,0.0923885703086853,0,0,0
10221,354570.12322020263,2010-11-20 14:15:03,2971.4889122019963,7,31,-1.099568486213684,3.4478557109832764,30.456978360069066,30.411844745095973,121.56911354881484,110.95846245864593,-0.0003885269106831,0.0923885703086853,0,0,0
10222,354600.1384720139,2010-11-20 14:15:33,3001.504164013249,7,31,-1.099929690361023,3.4308578968048096,30.456978360069066,30.42101362089099,121.56911354881484,110.99000101627723,-0.0005179882282391,0.0923885703086853,0,0,0
10223,354630.1541109614,2010-11-20 14:16:03,3031.5198029608523,7,31,-1.099929690361023,3.408517599105835,30.456978360069066,30.430182594352225,121.56911354881484,111.02136206056548,-0.0006475448608398,0.0923885703086853,0,0,0
10224,354660.1691709589,2010-11-20 14:16:33,3061.534862973345,7,31,-1.099568486213684,3.3784067630767822,30.456978360069066,30.439351391181585,121.56911354881484,111.05248322230702,-0.0008741855854168,0.0923885703086853,0,0,0
10225,354690.1845231106,2010-11-20 14:17:03,3091.550215125062,7,31,-1.099568486213684,3.336154699325561,30.456978360069066,30.44852039118368,121.56911354881484,111.083276551542,-0.0012950897216796,0.0923885703086853,0,0,0
10226,354720.20005974284,2010-11-20 14:17:33,3121.5657517422337,7,31,-1.0997490882873535,3.2773900032043457,30.456978360069066,30.457689320784468,121.56911354881484,111.11361148802943,-0.0018131255637854,0.0923885703086853,0,0,0
10227,354750.2171448954,2010-11-20 14:18:03,3151.582836889775,7,31,-1.099568486213684,3.1927237510681152,30.456978360069066,30.46685871183087,121.56911354881484,111.14329890811294,-0.0026549338363111,0.0923885703086853,0,0,0
10228,354780.2308567878,2010-11-20 14:18:33,3181.596548787165,7,31,-1.099568486213684,3.063377141952514,30.456978360069066,30.47602707976331,121.56911354881484,111.17202460386116,-0.0042090415954589,0.0923885703086853,0,0,0
10229,354804.8554924418,2010-11-20 14:18:58,3206.221184486275,7,31,-1.0997490882873535,2.86328649520874,30.456978360069066,30.483549269319973,121.56911354881484,111.1944145514298,-0.0089036943390965,0.0923885703086853,0,0,0
10230,354817.15222259704,2010-11-20 14:19:10,3218.51791458641,7,31,-1.099568486213684,2.699781894683838,30.456978360069066,30.48730557912812,121.56911354881484,111.2048709548744,-0.0111053464934229,0.0923885703086853,0,0,0
10231,354877.1801667758,2010-11-20 14:20:10,60.01510104028903,8,31,0.0,3.2985970973968506,30.456978360069066,30.48730557912812,121.56911354881484,111.2048709548744,0.0012303352123126,0.0923885703086853,0,0,0
10232,354877.3791255195,2010-11-20 14:20:10,0.185519565376652,9,31,-1.9243103452026844e-05,3.2989208698272705,30.456978360069066,30.48730558011978,121.56911354881484,111.2048709581458,0.0,0.0925559401512146,0,0,0
10233,354882.207249229,2010-11-20 14:20:15,5.013643274943995,9,31,0.0007031940040178,3.3063676357269287,30.456979380675183,30.487305580287064,121.5691169201638,111.20487095869764,0.0010684489971026,0.0925559401512146,0,0,0
