Data_Point,Test_Time(s),Date_Time,Step_Time(s),Step_Index,Cycle_Index,Current(A),Voltage(V),Charge_Capacity(Ah),Discharge_Capacity(Ah),Charge_Energy(Wh),Discharge_Energy(Wh),dV/dt(V/s),Internal_Resistance(Ohm),Is_FC_Data,AC_Impedance(Ohm),ACI_Phase_Angle(Deg)
5013,173325.81897128772,2010-11-18 11:54:00,30.015313214523943,1,16,0.0,3.3567140102386475,14.89256140968037,14.924061474028106,59.41196034420846,54.534843599643885,0.0006799221155233,0.0946486890316009,0,0,0
5014,173355.83434044188,2010-11-18 11:54:30,60.03068236868182,1,16,0.0,3.379054307937622,14.89256140968037,14.924061474028106,59.41196034420846,54.534843599643885,0.0004532813909463,0.0946486890316009,0,0,0
5015,173385.8526170184,2010-11-18 11:55:00,90.04895905548851,1,16,0.0,3.396052360534668,14.89256140968037,14.924061474028106,59.41196034420846,54.534843599643885,0.0004209041653666,0.0946486890316009,0,0,0
5016,173415.81806809438,2010-11-18 11:55:30,120.01441004623078,1,16,0.0,3.4093270301818848,14.89256140968037,14.924061474028106,59.41196034420846,54.534843599643885,0.0003237724304199,0.0946486890316009,0,0,0
5017,173445.8396203142,2010-11-18 11:56:00,30.015336602904945,2,16,0.550297200679779,3.573317289352417,14.897148348736303,14.924061474028106,59.42817772748272,54.534843599643885,0.0017159938579425,0.0946486890316009,0,0,0
5018,173475.85492684704,2010-11-18 11:56:30,60.03064313575038,2,16,0.5501165986061096,3.6244730949401855,14.901735276246264,14.924061474028106,59.444692365994,54.534843599643885,0.0011979580158367,0.0946486890316009,0,0,0
5019,173505.87028720925,2010-11-18 11:57:00,90.04600352803729,2,16,0.550297200679779,3.661706924438477,14.906322181980045,14.924061474028106,59.46140650725298,54.534843599643885,0.0009065627818927,0.0946486890316009,0,0,0
5020,173535.8856911352,2010-11-18 11:57:30,120.06140742391584,2,16,0.550297200679779,3.691008090972901,14.910909087448532,14.924061474028106,59.47827188833624,54.534843599643885,0.0007122993702068,0.0946486890316009,0,0,0
5021,173565.90088110708,2010-11-18 11:58:00,150.07659740583227,2,16,0.5501165986061096,3.715129137039185,14.915495890660477,14.924061474028106,59.49525859529084,54.534843599643885,0.0005827903514727,0.0946486890316009,0,0,0
5022,173595.91619159983,2010-11-18 11:58:30,180.0919078935497,2,16,0.5501165986061096,3.7350411415100098,14.92008276566261,14.924061474028106,59.51234645691038,54.534843599643885,0.0004532813909463,0.0946486890316009,0,0,0
5023,173625.93150990206,2010-11-18 11:59:00,210.1072261907608,2,16,0.550297200679779,3.751553535461426,14.92466964007444,14.924061474028106,59.52951809327878,54.534843599643885,0.0004209041653666,0.0946486890316009,0,0,0
5024,173655.94683377817,2010-11-18 11:59:30,240.12255007191027,2,16,0.550297200679779,3.763532876968384,14.92925651711211,14.924061474028106,59.546755547503,54.534843599643885,0.0002590179501567,0.0946486890316009,0,0,0
5025,173685.96216387989,2010-11-18 12:00:00,270.1378801685746,2,16,0.5501165986061096,3.770817756652832,14.933843462900573,14.924061474028106,59.56403735150004,54.534843599643885,0.0001295089750783,0.0946486890316009,0,0,0
5026,173715.97754046755,2010-11-18 12:00:30,300.1532567562878,2,16,0.5499359965324402,3.775836229324341,14.93843034530008,14.924061474028106,59.5813461748674,54.534843599643885,0.0001295089750783,0.0946486890316009,0,0,0
5027,173745.99284385255,2010-11-18 12:01:00,330.1685611738532,2,16,0.5499359965324402,3.77988338470459,14.943017240534914,14.924061474028106,59.598674814996045,54.534843599643885,0.0001295089750783,0.0946486890316009,0,0,0
5028,173776.00823745775,2010-11-18 12:01:30,360.1839537464671,2,16,0.550297200679779,3.783606767654419,14.947604171434744,14.924061474028106,59.61602095914926,54.534843599643885,9.713172767078504e-05,0.0946486890316009,0,0,0
5029,173806.02342689832,2010-11-18 12:02:00,390.19914319705725,2,16,0.5501165986061096,3.787006378173828,14.952191100149228,14.924061474028106,59.63338347593383,54.534843599643885,0.0001295089750783,0.0946486890316009,0,0,0
5030,173836.03885489938,2010-11-18 12:02:30,420.214571188081,2,16,0.5501165986061096,3.7902441024780273,14.956777980795325,14.924061474028106,59.65076155448243,54.534843599643885,6.47544875391759e-05,0.0946486890316009,0,0,0
5031,173866.05404639506,2010-11-18 12:03:01,450.229762683776,2,16,0.5499359965324402,3.793643712997437,14.961364905198929,14.924061474028106,59.668155050468094,54.534843599643885,6.47544875391759e-05,0.0946486890316009,0,0,0
5032,173896.06936627624,2010-11-18 12:03:31,480.24508256494096,2,16,0.5501165986061096,3.796881437301636,14.965951807083904,14.924061474028106,59.68556336239781,54.534843599643885,9.713172767078504e-05,0.0946486890316009,0,0,0
5033,173926.08482260798,2010-11-18 12:04:01,510.26053890673256,2,16,0.5501165986061096,3.799957275390625,14.970538705913274,14.924061474028106,59.70298611960276,54.534843599643885,9.713172767078504e-05,0.0946486890316009,0,0,0
5034,173956.10002401844,2010-11-18 12:04:31,540.2757403272013,2,16,0.5501165986061096,3.802871227264404,14.975125625262148,14.924061474028106,59.72042313792702,54.534843599643885,3.237724376958795e-05,0.0946486890316009,0,0,0
5035,173986.11544971875,2010-11-18 12:05:01,570.291166017482,2,16,0.5501165986061096,3.8059470653533936,14.979712544004864,14.924061474028106,59.73787405021526,54.534843599643885,6.47544875391759e-05,0.0946486890316009,0,0,0
5036,174016.13063782596,2010-11-18 12:05:31,600.3063541146939,2,16,0.550297200679779,3.8091847896575928,14.984299431858233,14.924061474028106,59.75533854183888,54.534843599643885,9.713172767078504e-05,0.0946486890316009,0,0,0
5037,174046.14596639882,2010-11-18 12:06:01,630.3216826875547,2,16,0.5501165986061096,3.811936855316162,14.988886337349792,14.924061474028106,59.77281671132472,54.534843599643885,6.47544875391759e-05,0.0946486890316009,0,0,0
5038,174076.16139634975,2010-11-18 12:06:31,660.3371126384706,2,16,0.5501165986061096,3.814850807189941,14.993473324710225,14.924061474028106,59.79030900692996,54.534843599643885,3.237724376958795e-05,0.0946486890316009,0,0,0
5039,174106.17671482242,2010-11-18 12:07:01,690.3524311111197,2,16,0.5501165986061096,3.81792664527893,14.998060195351528,14.924061474028106,59.80781457180979,54.534843599643885,6.47544875391759e-05,0.0946486890316009,0,0,0
5040,174136.1919352503,2010-11-18 12:07:31,720.367651539034,2,16,0.550297200679779,3.82100248336792,15.002647061588936,14.924061474028106,59.8253339102038,54.534843599643885,9.713172767078504e-05,0.0946486890316009,0,0,0
5041,174166.20745537133,2010-11-18 12:08:01,750.3831716600283,2,16,0.5501165986061096,3.824240207672119,15.0072339894721,14.924061474028106,59.842867499677,54.534843599643885,9.713172767078504e-05,0.0946486890316009,0,0,0
5042,174196.22254913807,2010-11-18 12:08:31,780.3982654267768,2,16,0.5501165986061096,3.827316045761109,15.011820852025092,14.924061474028106,59.86041536903121,54.534843599643885,9.713172767078504e-05,0.0946486890316009,0,0,0
5043,174226.2378529792,2010-11-18 12:09:01,810.4135692679033,2,16,0.550297200679779,3.8307156562805176,15.016407760220384,14.924061474028106,59.87797832425411,54.534843599643885,0.0001295089750783,0.0946486890316009,0,0,0
5044,174256.25316570248,2010-11-18 12:09:31,840.4288819912009,2,16,0.5501165986061096,3.8339531421661377,15.020994721421134,14.924061474028106,59.89555674767705,54.534843599643885,9.713172767078504e-05,0.0946486890316009,0,0,0
5045,174286.26849611494,2010-11-18 12:10:01,870.4442124036538,2,16,0.550297200679779,3.837352752685547,15.02558160491202,14.924061474028106,59.913150311392656,54.534843599643885,9.713172767078504e-05,0.0946486890316009,0,0,0
5046,174316.2839220057,2010-11-18 12:10:31,900.4596382944351,2,16,0.5501165986061096,3.840752363204956,15.030168554566304,14.924061474028106,59.93075963879232,54.534843599643885,9.713172767078504e-05,0.0946486890316009,0,0,0
5047,174346.29914419804,2010-11-18 12:11:01,930.4748604867536,2,16,0.5501165986061096,3.844151973724365,15.034755470718045,14.924061474028106,59.94838431926349,54.534843599643885,9.713172767078504e-05,0.0946486890316009,0,0,0
5048,174376.31445224467,2010-11-18 12:11:31,960.49016855844,2,16,0.5501165986061096,3.847389698028565,15.039342338205374,14.924061474028106,59.966024111722845,54.534843599643885,9.713172767078504e-05,0.0946486890316009,0,0,0
5049,174406.32987924822,2010-11-18 12:12:01,990.5055955419488,2,16,0.550297200679779,3.8507893085479736,15.043929215638675,14.924061474028106,59.98367909771705,54.534843599643885,9.713172767078504e-05,0.0946486890316009,0,0,0
5050,174436.34505330538,2010-11-18 12:12:31,1020.520769594102,2,16,0.550297200679779,3.853865146636963,15.048516089410922,14.924061474028106,60.00134893987236,54.534843599643885,9.713172767078504e-05,0.0946486890316009,0,0,0
5051,174466.3603712868,2010-11-18 12:13:01,1050.536087575525,2,16,0.550297200679779,3.857102870941162,15.053102978789124,14.924061474028106,60.01903356087361,54.534843599643885,9.713172767078504e-05,0.0946486890316009,0,0,0
5052,174496.37581202466,2010-11-18 12:13:31,1080.5515283183793,2,16,0.5501165986061096,3.860016822814941,15.057689800535895,14.924061474028106,60.03673221445036,54.534843599643885,6.47544875391759e-05,0.0946486890316009,0,0,0
5053,174526.39100671833,2010-11-18 12:14:01,1110.5667230070446,2,16,0.5501165986061096,3.86309266090393,15.062276670000958,14.924061474028106,60.054445052374,54.534843599643885,9.713172767078504e-05,0.0946486890316009,0,0,0
5054,174556.40632282506,2010-11-18 12:14:31,1140.582039113788,2,16,0.5501165986061096,3.86600661277771,15.066863598612947,14.924061474028106,60.07217156373826,54.534843599643885,6.47544875391759e-05,0.0946486890316009,0,0,0
5055,174586.42164415983,2010-11-18 12:15:01,1170.5973604686317,2,16,0.5501165986061096,3.8687586784362793,15.071450513427886,14.924061474028106,60.08991097396114,54.534843599643885,6.47544875391759e-05,0.0946486890316009,0,0,0
5056,174616.4370648627,2010-11-18 12:15:31,1200.6127811514125,2,16,0.5499359965324402,3.871348857879639,15.076037414024553,14.924061474028106,60.10766268563656,54.534843599643885,6.47544875391759e-05,0.0946486890316009,0,0,0
5057,174646.4523921273,2010-11-18 12:16:01,1230.6281084160075,2,16,0.5501165986061096,3.873939037322998,15.080624386033998,14.924061474028106,60.12542656219695,54.534843599643885,9.713172767078504e-05,0.0946486890316009,0,0,0
5058,174676.46757390874,2010-11-18 12:16:31,1260.6432901974545,2,16,0.5501165986061096,3.8762054443359375,15.085211310703563,14.924061474028106,60.14320135403854,54.534843599643885,3.237724376958795e-05,0.0946486890316009,0,0,0
5059,174706.48291047156,2010-11-18 12:17:01,1290.6586267602593,2,16,0.5501165986061096,3.878633737564087,15.089798228314622,14.924061474028106,60.16098673510589,54.534843599643885,6.47544875391759e-05,0.0946486890316009,0,0,0
5060,174736.49833195133,2010-11-18 12:17:31,1320.6740482450425,2,16,0.550297200679779,3.8805763721466064,15.094385187892527,14.924061474028106,60.17878220027645,54.534843599643885,6.47544875391759e-05,0.0946486890316009,0,0,0
5061,174766.51353870006,2010-11-18 12:18:01,1350.689254988799,2,16,0.5501165986061096,3.882519006729126,15.098972096402417,14.924061474028106,60.19658674599867,54.534843599643885,6.47544875391759e-05,0.0946486890316009,0,0,0
5062,174796.52897818983,2010-11-18 12:18:31,1380.704694503588,2,16,0.5501165986061096,3.884299755096436,15.103558978458866,14.924061474028106,60.21439984686828,54.534843599643885,3.237724376958795e-05,0.0946486890316009,0,0,0
5063,174826.54414274826,2010-11-18 12:19:01,1410.7198590369806,2,16,0.5501165986061096,3.886080503463745,15.108145860115515,14.924061474028106,60.232220834888416,54.534843599643885,6.47544875391759e-05,0.0946486890316009,0,0,0
5064,174856.55991154502,2010-11-18 12:19:31,1440.7356279289456,2,16,0.5501165986061096,3.8876993656158447,15.11273281660127,14.924061474028106,60.25004965772772,54.534843599643885,9.713172767078504e-05,0.0946486890316009,0,0,0
5065,174886.57484785872,2010-11-18 12:20:01,1470.7505641724922,2,16,0.5501165986061096,3.8891563415527344,15.117319695828163,14.924061474028106,60.2678852579864,54.534843599643885,3.237724376958795e-05,0.0946486890316009,0,0,0
5066,174916.59008836173,2010-11-18 12:20:31,1500.7658046504544,2,16,0.5501165986061096,3.890451431274414,15.121906684490884,14.924061474028106,60.28572790349639,54.534843599643885,3.237724376958795e-05,0.0946486890316009,0,0,0
5067,174946.6057676751,2010-11-18 12:21:01,1530.7814840841177,2,16,0.5501165986061096,3.8920702934265137,15.12649371240052,14.924061474028106,60.30357704094071,54.534843599643885,6.47544875391759e-05,0.0946486890316009,0,0,0
5068,174976.62073038472,2010-11-18 12:21:31,1560.7964466734272,2,16,0.5501165986061096,3.893203496932984,15.13108064235482,14.924061474028106,60.32143195603917,54.534843599643885,3.237724376958795e-05,0.0946486890316009,0,0,0
5069,175006.63606543373,2010-11-18 12:22:01,1590.811781747516,2,16,0.550297200679779,3.894498586654663,15.135667640635273,14.924061474028106,60.33929320459545,54.534843599643885,3.237724376958795e-05,0.0946486890316009,0,0,0
5070,175036.65134459827,2010-11-18 12:22:31,1620.8270608869832,2,16,0.5501165986061096,3.895631790161133,15.14025466091557,14.924061474028106,60.35715991950831,54.534843599643885,3.237724376958795e-05,0.0946486890316009,0,0,0
5071,175066.66666244937,2010-11-18 12:23:01,1650.8423787380807,2,16,0.5501165986061096,3.896926879882813,15.144841586309452,14.924061474028106,60.37503212766836,54.534843599643885,3.237724376958795e-05,0.0946486890316009,0,0,0
5072,175096.68197520776,2010-11-18 12:23:31,1680.8576914964665,2,16,0.550297200679779,3.898383855819702,15.149428537514996,14.924061474028106,60.39291013061776,54.534843599643885,6.47544875391759e-05,0.0946486890316009,0,0,0
5073,175126.7003017941,2010-11-18 12:24:01,1710.8760181680427,2,16,0.550297200679779,3.899517059326172,15.15401595734077,14.924061474028106,60.410795695983005,54.534843599643885,6.47544875391759e-05,0.0946486890316009,0,0,0
5074,175156.7126490802,2010-11-18 12:24:31,1740.8883653689402,2,16,0.550297200679779,3.9006502628326416,15.158602482881276,14.924061474028106,60.42868340559376,54.534843599643885,6.47544875391759e-05,0.0946486890316009,0,0,0
5075,175186.72793191893,2010-11-18 12:25:01,1770.9036482076417,2,16,0.5501165986061096,3.901945352554321,15.16318941755029,14.924061474028106,60.44657838114092,54.534843599643885,3.237724376958795e-05,0.0946486890316009,0,0,0
5076,175216.74326433637,2010-11-18 12:25:31,1800.9189806551738,2,16,0.5499359965324402,3.903078556060791,15.167776393693371,14.924061474028106,60.46447924743675,54.534843599643885,3.237724376958795e-05,0.0946486890316009,0,0,0
5077,175246.75857821756,2010-11-18 12:26:01,1830.934294526337,2,16,0.5501165986061096,3.904373645782471,15.172363364560145,14.924061474028106,60.4823858707789,54.534843599643885,3.237724376958795e-05,0.0946486890316009,0,0,0
5078,175276.77387355248,2010-11-18 12:26:31,1860.9495898411808,2,16,0.5501165986061096,3.9056687355041504,15.176950376732464,14.924061474028106,60.50029833554912,54.534843599643885,6.47544875391759e-05,0.0946486890316009,0,0,0
5079,175306.7891868973,2010-11-18 12:27:01,1890.9649031860297,2,16,0.5501165986061096,3.90696382522583,15.181537338526123,14.924061474028106,60.51821640484334,54.534843599643885,3.237724376958795e-05,0.0946486890316009,0,0,0
5080,175336.80450182612,2010-11-18 12:27:31,1920.980218114833,2,16,0.5501165986061096,3.9082589149475098,15.186124313181312,14.924061474028106,60.53614036743205,54.534843599643885,6.47544875391759e-05,0.0946486890316009,0,0,0
5081,175366.8199587995,2010-11-18 12:28:01,1950.995675113264,2,16,0.5501165986061096,3.90939211845398,15.190711345983775,14.924061474028106,60.55407051653285,54.534843599643885,0.0,0.0946486890316009,0,0,0
5082,175396.83513366364,2010-11-18 12:28:31,1981.010849952381,2,16,0.550297200679779,3.910849094390869,15.195298258865389,14.924061474028106,60.57200608778481,54.534843599643885,3.237724376958795e-05,0.0946486890316009,0,0,0
5083,175426.85059010072,2010-11-18 12:29:01,2011.0263063894104,2,16,0.5499359965324402,3.911982297897339,15.199885211506016,14.924061474028106,60.58994780681028,54.534843599643885,0.0,0.0946486890316009,0,0,0
5084,175456.86589247317,2010-11-18 12:29:31,2041.041608761871,2,16,0.5501165986061096,3.9136011600494394,15.20447223784222,14.924061474028106,60.60789586482248,54.534843599643885,6.47544875391759e-05,0.0946486890316009,0,0,0
5085,175486.88109222444,2010-11-18 12:30:01,2071.0568085131736,2,16,0.550297200679779,3.914896011352539,15.20905926731408,14.924061474028106,60.625850089650655,54.534843599643885,6.47544875391759e-05,0.0946486890316009,0,0,0
5086,175516.89639589516,2010-11-18 12:30:31,2101.0721121838747,2,16,0.5501165986061096,3.9161911010742183,15.213646290334792,14.924061474028106,60.64381027270106,54.534843599643885,6.47544875391759e-05,0.0946486890316009,0,0,0
5087,175546.9117090295,2010-11-18 12:31:01,2131.0874253181983,2,16,0.550297200679779,3.9174861907958975,15.218233235867933,14.924061474028106,60.66177641388909,54.534843599643885,3.237724376958795e-05,0.0946486890316009,0,0,0
5088,175576.92715430364,2010-11-18 12:31:31,2161.1028706023885,2,16,0.550297200679779,3.918943166732788,15.222820166200282,14.924061474028106,60.67974872512846,54.534843599643885,6.47544875391759e-05,0.0946486890316009,0,0,0
5089,175606.9423601702,2010-11-18 12:32:01,2191.118076489005,2,16,0.5499359965324402,3.920238256454468,15.227406891072867,14.924061474028106,60.69772655907525,54.534843599643885,3.237724376958795e-05,0.0946486890316009,0,0,0
5090,175636.9576941666,2010-11-18 12:32:31,2221.1334104803914,2,16,0.5499359965324402,3.921533346176148,15.231993033454843,14.924061474028106,60.71570830727745,54.534843599643885,0.0,0.0946486890316009,0,0,0
5091,175666.97309831312,2010-11-18 12:33:01,2251.148814626896,2,16,0.5501165986061096,3.922990322113037,15.236579118228216,14.924061474028106,60.73369624804809,54.534843599643885,3.237724376958795e-05,0.0946486890316009,0,0,0
5092,175696.9885339382,2010-11-18 12:33:31,2281.164250246962,2,16,0.5499359965324402,3.924447298049927,15.241165190860022,14.924061474028106,60.75169062689434,54.534843599643885,3.237724376958795e-05,0.0946486890316009,0,0,0
5093,175727.00364817103,2010-11-18 12:34:01,2311.1793644898225,2,16,0.550297200679779,3.9257423877716064,15.245751417048282,14.924061474028106,60.76969217354042,54.534843599643885,3.237724376958795e-05,0.0946486890316009,0,0,0
5094,175757.01899459344,2010-11-18 12:34:31,2341.194710997452,2,16,0.5501165986061096,3.927199363708496,15.250338418778098,14.924061474028106,60.787703309000456,54.534843599643885,0.0,0.0946486890316009,0,0,0
5095,175787.03423671552,2010-11-18 12:35:02,2371.2099530042296,2,16,0.5501165986061096,3.928818225860596,15.25492530178019,14.924061474028106,60.80572060698192,54.534843599643885,6.47544875391759e-05,0.0946486890316009,0,0,0
5096,175817.04955514305,2010-11-18 12:35:32,2401.225271456829,2,16,0.5501165986061096,3.930275201797485,15.259512292101618,14.924061474028106,60.82374498873941,54.534843599643885,6.47544875391759e-05,0.0946486890316009,0,0,0
5097,175847.06502756497,2010-11-18 12:36:02,2431.240743848684,2,16,0.5501165986061096,3.931732177734375,15.264099336679095,14.924061474028106,60.84177631177227,54.534843599643885,3.237724376958795e-05,0.0946486890316009,0,0,0
5098,175877.08011584805,2010-11-18 12:36:32,2461.2558321568067,2,16,0.5501165986061096,3.933027267456055,15.268686264687062,14.924061474028106,60.859813866039104,54.534843599643885,3.237724376958795e-05,0.0946486890316009,0,0,0
5099,175907.0954799897,2010-11-18 12:37:02,2491.2711962733906,2,16,0.5501165986061096,3.9346461296081534,15.273273144986696,14.924061474028106,60.87785795903399,54.534843599643885,6.47544875391759e-05,0.0946486890316009,0,0,0
5100,175937.110750663,2010-11-18 12:37:32,2521.2864669717874,2,16,0.5501165986061096,3.935941219329834,15.277860052006767,14.924061474028106,60.89590893116051,54.534843599643885,0.0,0.0946486890316009,0,0,0
5101,175967.12619540087,2010-11-18 12:38:02,2551.3019116795385,2,16,0.5501165986061096,3.9375600814819336,15.282446949301123,14.924061474028106,60.913966432118826,54.534843599643885,3.237724376958795e-05,0.0946486890316009,0,0,0
5102,175997.14148283604,2010-11-18 12:38:32,2581.317199119726,2,16,0.550297200679779,3.9390170574188232,15.287033858478184,14.924061474028106,60.93203090536888,54.534843599643885,3.237724376958795e-05,0.0946486890316009,0,0,0
5103,176027.15679612075,2010-11-18 12:39:02,2611.332512404425,2,16,0.5501165986061096,3.940474033355713,15.291620812404664,14.924061474028106,60.950102444272645,54.534843599643885,6.47544875391759e-05,0.0946486890316009,0,0,0
5104,176057.17212859332,2010-11-18 12:39:32,2641.3478448720075,2,16,0.550297200679779,3.9419310092926025,15.296207815240596,14.924061474028106,60.9681811422035,54.534843599643885,3.237724376958795e-05,0.0946486890316009,0,0,0
5105,176087.18764251383,2010-11-18 12:40:02,2671.363358792524,2,16,0.5499359965324402,3.943711757659912,15.300794772050754,14.924061474028106,60.98626664502481,54.534843599643885,6.47544875391759e-05,0.0946486890316009,0,0,0
5106,176117.20281447077,2010-11-18 12:40:32,2701.378530749448,2,16,0.5499359965324402,3.945006847381592,15.305381670404918,14.924061474028106,61.00435893879013,54.534843599643885,0.0,0.0946486890316009,0,0,0
5107,176147.21810446732,2010-11-18 12:41:02,2731.3938207510287,2,16,0.5501165986061096,3.9466257095336914,15.30996862608358,14.924061474028106,61.02245860909067,54.534843599643885,3.237724376958795e-05,0.0946486890316009,0,0,0
5108,176177.2334041982,2010-11-18 12:41:32,2761.409120476883,2,16,0.550297200679779,3.948406457901001,15.314555584452611,14.924061474028106,61.040565325212654,54.534843599643885,9.713172767078504e-05,0.0946486890316009,0,0,0
5109,176207.24887322163,2010-11-18 12:42:02,2791.42458952038,2,16,0.550297200679779,3.9500253200531006,15.319142605024393,14.924061474028106,61.058679615274364,54.534843599643885,9.713172767078504e-05,0.0946486890316009,0,0,0
5110,176237.2640462061,2010-11-18 12:42:32,2821.439762494843,2,16,0.5501165986061096,3.9516441822052,15.323729504485735,14.924061474028106,61.076800832007805,54.534843599643885,6.47544875391759e-05,0.0946486890316009,0,0,0
5111,176267.27941510463,2010-11-18 12:43:02,2851.455131398375,2,16,0.5501165986061096,3.95293927192688,15.32831644811955,14.924061474028106,61.094929643117176,54.534843599643885,3.237724376958795e-05,0.0946486890316009,0,0,0
5112,176297.29473648957,2010-11-18 12:43:32,2881.470452778281,2,16,0.550297200679779,3.9547200202941895,15.332903363867088,14.924061474028106,61.113065889765394,54.534843599643885,3.237724376958795e-05,0.0946486890316009,0,0,0
5113,176327.31008182428,2010-11-18 12:44:02,2911.485798112982,2,16,0.5501165986061096,3.956662654876709,15.337490201440168,14.924061474028106,61.1312094224924,54.534843599643885,9.713172767078504e-05,0.0946486890316009,0,0,0
5114,176357.32540039215,2010-11-18 12:44:32,2941.501116685881,2,16,0.5501165986061096,3.958119630813599,15.342077079382012,14.924061474028106,61.14936066353716,54.534843599643885,3.237724376958795e-05,0.0946486890316009,0,0,0
5115,176387.34072185727,2010-11-18 12:45:02,2971.516438145988,2,16,0.550297200679779,3.959738492965698,15.346663992260131,14.924061474028106,61.16751981064482,54.534843599643885,3.237724376958795e-05,0.0946486890316009,0,0,0
5116,176417.3560486206,2010-11-18 12:45:32,3001.5317649093317,2,16,0.550297200679779,3.961519241333008,15.351250893646386,14.924061474028106,61.185686708232346,54.534843599643885,3.237724376958795e-05,0.0946486890316009,0,0,0
5117,176447.37139447662,2010-11-18 12:46:02,3031.5471107653334,2,16,0.5501165986061096,3.963299989700317,15.355837838052771,14.924061474028106,61.20386162750415,54.534843599643885,9.713172767078504e-05,0.0946486890316009,0,0,0
5118,176477.3867407637,2010-11-18 12:46:32,3061.5624570774744,2,16,0.550297200679779,3.964918851852417,15.360424757739906,14.924061474028106,61.2220444073266,54.534843599643885,6.47544875391759e-05,0.0946486890316009,0,0,0
5119,176507.4020396224,2010-11-18 12:47:02,3091.577755911101,2,16,0.5501165986061096,3.966699600219727,15.365011604041973,14.924061474028106,61.24023496934306,54.534843599643885,6.47544875391759e-05,0.0946486890316009,0,0,0
5120,176537.41736207498,2010-11-18 12:47:32,3121.593078363685,2,16,0.550297200679779,3.968480348587036,15.36959850999331,14.924061474028106,61.25843379186837,54.534843599643885,6.47544875391759e-05,0.0946486890316009,0,0,0
5121,176567.4327038909,2010-11-18 12:48:02,3151.608420179602,2,16,0.5499359965324402,3.970099210739136,15.374185430812458,14.924061474028106,61.276640844209965,54.534843599643885,0.0,0.0946486890316009,0,0,0
5122,176597.44802485977,2010-11-18 12:48:32,3181.6237411484826,2,16,0.5501165986061096,3.9720418453216553,15.378772405879928,14.924061474028106,61.29485647867025,54.534843599643885,3.237724376958795e-05,0.0946486890316009,0,0,0
5123,176627.46339300642,2010-11-18 12:49:02,3211.6391092951253,2,16,0.5501165986061096,3.973984479904175,15.383359320205733,14.924061474028106,61.31308023548578,54.534843599643885,3.237724376958795e-05,0.0946486890316009,0,0,0
5124,176657.478804391,2010-11-18 12:49:32,3241.6545206897217,2,16,0.550297200679779,3.9759271144866943,15.387946281431631,14.924061474028106,61.33131266666837,54.534843599643885,6.47544875391759e-05,0.0946486890316009,0,0,0
5125,176687.49403309455,2010-11-18 12:50:02,3271.669749408331,2,16,0.5499359965324402,3.977545976638794,15.392533187476694,14.924061474028106,61.34955348780664,54.534843599643885,3.237724376958795e-05,0.0946486890316009,0,0,0
5126,176717.5093372715,2010-11-18 12:50:32,3301.685053560233,2,16,0.550297200679779,3.979650497436523,15.397120065938743,14.924061474028106,61.36780248482122,54.534843599643885,6.47544875391759e-05,0.0946486890316009,0,0,0
5127,176747.5246759245,2010-11-18 12:51:02,3331.700392213256,2,16,0.5499359965324402,3.981269359588623,15.401706901587106,14.924061474028106,61.38606055518606,54.534843599643885,3.237724376958795e-05,0.0946486890316009,0,0,0
5128,176777.54001329438,2010-11-18 12:51:32,3361.715729588087,2,16,0.5501165986061096,3.983373880386353,15.40629378102876,14.924061474028106,61.40432768950932,54.534843599643885,3.237724376958795e-05,0.0946486890316009,0,0,0
5129,176807.55536250374,2010-11-18 12:52:02,3391.73107881751,2,16,0.5501165986061096,3.985478401184082,15.410880649994407,14.924061474028106,61.42260379776462,54.534843599643885,6.47544875391759e-05,0.0946486890316009,0,0,0
5130,176837.57065270582,2010-11-18 12:52:32,3421.7463689945284,2,16,0.5501165986061096,3.987259149551392,15.415467516521906,14.924061474028106,61.44088902882638,54.534843599643885,0.0,0.0946486890316009,0,0,0
5131,176867.58624801447,2010-11-18 12:53:02,3451.761964303203,2,16,0.5501165986061096,3.989525556564331,15.420054309556994,14.924061474028106,61.45918311306992,54.534843599643885,9.713172767078504e-05,0.0946486890316009,0,0,0
5132,176897.60131558083,2010-11-18 12:53:32,3481.777031869551,2,16,0.5501165986061096,3.991630077362061,15.424641079437166,14.924061474028106,61.47748648484704,54.534843599643885,9.713172767078504e-05,0.0946486890316009,0,0,0
5133,176927.6166405547,2010-11-18 12:54:02,3511.792356843428,2,16,0.5501165986061096,3.99357271194458,15.42922785389312,14.924061474028106,61.49579931591229,54.534843599643885,6.47544875391759e-05,0.0946486890316009,0,0,0
5134,176957.63207731262,2010-11-18 12:54:32,3541.807793621386,2,16,0.5501165986061096,3.995838880538941,15.43381471609319,14.924061474028106,61.51412213296194,54.534843599643885,6.47544875391759e-05,0.0946486890316009,0,0,0
5135,176987.64726917926,2010-11-18 12:55:02,3571.822985493019,2,16,0.5501165986061096,3.99794340133667,15.438401511773908,14.924061474028106,61.53245444559363,54.534843599643885,6.47544875391759e-05,0.0946486890316009,0,0,0
5136,177017.66259422328,2010-11-18 12:55:32,3601.8383105370717,2,16,0.5501165986061096,4.0000481605529785,15.442988345908834,14.924061474028106,61.5507966425819,54.534843599643885,9.71794142969884e-05,0.0946486890316009,0,0,0
5137,177047.68091917556,2010-11-18 12:56:02,3631.856635574569,2,16,0.5501165986061096,4.002152442932129,15.447575578547994,14.924061474028106,61.56915036170789,54.534843599643885,6.47544875391759e-05,0.0946486890316009,0,0,0
5138,177077.6933080004,2010-11-18 12:56:32,3661.869024374303,2,16,0.5501165986061096,4.004580974578857,15.45216192472924,14.924061474028106,61.5875104930005,54.534843599643885,9.71794142969884e-05,0.0946486890316009,0,0,0
5139,177107.7086154054,2010-11-18 12:57:02,3691.884331694114,2,16,0.550297200679779,4.006685256958008,15.45674873827571,14.924061474028106,61.60588262134228,54.534843599643885,9.70840483205393e-05,0.0946486890316009,0,0,0
5140,177137.7239288906,2010-11-18 12:57:32,3721.8996451793137,2,16,0.5501165986061096,4.008790016174316,15.461335624816636,14.924061474028106,61.62426531509744,54.534843599643885,9.71794142969884e-05,0.0946486890316009,0,0,0
5141,177167.73923906757,2010-11-18 12:58:02,3751.9149553562543,2,16,0.5501165986061096,4.010894298553467,15.465922496387032,14.924061474028106,61.642658156313246,54.534843599643885,3.23295607813634e-05,0.0946486890316009,0,0,0
5142,177197.75454092873,2010-11-18 12:58:32,3781.9302572174383,2,16,0.550297200679779,4.013322830200195,15.470509303672356,14.924061474028106,61.661061141744426,54.534843599643885,6.47544875391759e-05,0.0946486890316009,0,0,0
5143,177227.76986945648,2010-11-18 12:59:02,3811.945585745187,2,16,0.5501165986061096,4.015589237213135,15.475096130908948,14.924061474028106,61.67947465096776,54.534843599643885,3.24249267578125e-05,0.0946486890316009,0,0,0
5144,177257.78518410455,2010-11-18 12:59:32,3841.9609003932896,2,16,0.5501165986061096,4.017855644226074,15.479682923397688,14.924061474028106,61.697898624487166,54.534843599643885,6.47544875391759e-05,0.0946486890316009,0,0,0
5145,177287.80054133898,2010-11-18 13:00:02,3871.9762576276935,2,16,0.550297200679779,4.020122051239014,15.484269781873376,14.924061474028106,61.71633344448493,54.534843599643885,0.0,0.0946486890316009,0,0,0
5146,177317.81584707985,2010-11-18 13:00:32,3901.991563393625,2,16,0.5501165986061096,4.022550106048584,15.488856520328389,14.924061474028106,61.73477863348666,54.534843599643885,3.23295607813634e-05,0.0946486890316009,0,0,0
5147,177347.83128399815,2010-11-18 13:01:02,3932.0070002868697,2,16,0.5499359965324402,4.0249786376953125,15.493443270417488,14.924061474028106,61.75323477973024,54.534843599643885,9.71794142969884e-05,0.0946486890316009,0,0,0
5148,177377.8465899345,2010-11-18 13:01:32,3962.022306223226,2,16,0.5501165986061096,4.027406692504883,15.498030052949826,14.924061474028106,61.77170210513219,54.534843599643885,6.47544875391759e-05,0.0946486890316009,0,0,0
5149,177407.8618042121,2010-11-18 13:02:02,3992.037520500789,2,16,0.5501165986061096,4.029835224151611,15.50261689483985,14.924061474028106,61.79018077298236,54.534843599643885,6.47544875391759e-05,0.0946486890316009,0,0,0
5150,177437.87711420355,2010-11-18 13:02:32,4022.0528304922673,2,16,0.5501165986061096,4.032263278961182,15.507203668595375,14.924061474028106,61.808670278914285,54.534843599643885,9.70840483205393e-05,0.0946486890316009,0,0,0
5151,177467.89243077143,2010-11-18 13:03:02,4052.0681470601626,2,16,0.5501165986061096,4.034691333770752,15.511790467866671,14.924061474028106,61.82717116152507,54.534843599643885,3.23295607813634e-05,0.0946486890316009,0,0,0
5152,177497.90783050694,2010-11-18 13:03:32,4082.083546820717,2,16,0.5501165986061096,4.037281513214111,15.516377249131038,14.924061474028106,61.84568334479168,54.534843599643885,6.47544875391759e-05,0.0946486890316009,0,0,0
5153,177527.92309058382,2010-11-18 13:04:02,4112.09880687254,2,16,0.5501165986061096,4.039547920227051,15.520964092509432,14.924061474028106,61.86420729677344,54.534843599643885,6.47544875391759e-05,0.0946486890316009,0,0,0
5154,177557.9384113472,2010-11-18 13:04:32,4142.114127635907,2,16,0.5501165986061096,4.042300224304199,15.52555092877483,14.924061474028106,61.8827426888751,54.534843599643885,6.47544875391759e-05,0.0946486890316009,0,0,0
5155,177587.95372597524,2010-11-18 13:05:02,4172.129442263959,2,16,0.550297200679779,4.044890403747559,15.530137795357245,14.924061474028106,61.9012899087556,54.534843599643885,6.47544875391759e-05,0.0946486890316009,0,0,0
5156,177617.96916653763,2010-11-18 13:05:32,4202.144882831375,2,16,0.5499359965324402,4.047318458557129,15.534724665802084,14.924061474028106,61.91984887040524,54.534843599643885,3.23295607813634e-05,0.0946486890316009,0,0,0
5157,177647.98444065457,2010-11-18 13:06:02,4232.160157058581,2,16,0.5501165986061096,4.050070762634277,15.539311491963648,14.924061474028106,61.93841951510379,54.534843599643885,9.71794142969884e-05,0.0946486890316009,0,0,0
5158,177677.9996667416,2010-11-18 13:06:32,4262.175383030333,2,16,0.5501165986061096,4.052498817443848,15.54389828837636,14.924061474028106,61.95700191170379,54.534843599643885,6.47544875391759e-05,0.0946486890316009,0,0,0
5159,177708.01498806136,2010-11-18 13:07:03,4292.19070435009,2,16,0.5501165986061096,4.055251121520996,15.548485149184932,14.924061474028106,61.97559671743862,54.534843599643885,6.47544875391759e-05,0.0946486890316009,0,0,0
5160,177738.0303374462,2010-11-18 13:07:33,4322.206053759963,2,16,0.550297200679779,4.058002948760986,15.553071974132935,14.924061474028106,61.99420359354431,54.534843599643885,9.70840483205393e-05,0.0946486890316009,0,0,0
5161,177768.04562139264,2010-11-18 13:08:03,4352.221337681366,2,16,0.550297200679779,4.060593128204346,15.557658864019398,14.924061474028106,62.012823144938245,54.534843599643885,6.47544875391759e-05,0.0946486890316009,0,0,0
5162,177798.06092916356,2010-11-18 13:08:33,4382.236645452302,2,16,0.5499359965324402,4.063183307647705,15.562245662291938,14.924061474028106,62.031454319592406,54.534843599643885,6.47544875391759e-05,0.0946486890316009,0,0,0
5163,177828.0762504282,2010-11-18 13:09:03,4412.25196671692,2,16,0.5501165986061096,4.0659356117248535,15.566832471224815,14.924061474028106,62.05009827744619,54.534843599643885,3.24249267578125e-05,0.0946486890316009,0,0,0
5164,177858.0915768156,2010-11-18 13:09:33,4442.267293104325,2,16,0.5501165986061096,4.068849563598633,15.571419307982428,14.924061474028106,62.06875502952533,54.534843599643885,6.47544875391759e-05,0.0946486890316009,0,0,0
5165,177888.1069219448,2010-11-18 13:10:03,4472.282638233513,2,16,0.550297200679779,4.071763515472412,15.57600613022722,14.924061474028106,62.08742453034362,54.534843599643885,9.71794142969884e-05,0.0946486890316009,0,0,0
5166,177918.1222063474,2010-11-18 13:10:33,4502.2979226611815,2,16,0.550297200679779,4.074515342712402,15.580592806244988,14.924061474028106,62.106106280823255,54.534843599643885,9.70840483205393e-05,0.0946486890316009,0,0,0
5167,177948.1375370907,2010-11-18 13:11:03,4532.313253399448,2,16,0.550297200679779,4.077429294586182,15.585179510693392,14.924061474028106,62.12480121432118,54.534843599643885,9.70840483205393e-05,0.0946486890316009,0,0,0
5168,177978.15282358852,2010-11-18 13:11:33,4562.328539867208,2,16,0.5499359965324402,4.080019474029541,15.589766227902109,14.924061474028106,62.143509397010256,54.534843599643885,6.47544875391759e-05,0.0946486890316009,0,0,0
5169,178008.16816241696,2010-11-18 13:12:03,4592.343878710705,2,16,0.5499359965324402,4.083095550537109,15.594352984419263,14.924061474028106,62.16223093538743,54.534843599643885,6.47544875391759e-05,0.0946486890316009,0,0,0
5170,178038.1834730801,2010-11-18 13:12:33,4622.359189368848,2,16,0.5501165986061096,4.08617115020752,15.598939510849014,14.924061474028106,62.180964898620765,54.534843599643885,0.0001295089750783,0.0946486890316009,0,0,0
5171,178068.1987764651,2010-11-18 13:13:03,4652.374492753836,2,16,0.5501165986061096,4.088923454284668,15.603525502481142,14.924061474028106,62.199710003425366,54.534843599643885,6.47544875391759e-05,0.0946486890316009,0,0,0
5172,178098.21413011057,2010-11-18 13:13:33,4682.3898463892565,2,16,0.550297200679779,4.091999053955078,15.608111703617686,14.924061474028106,62.21846962922354,54.534843599643885,9.70840483205393e-05,0.0946486890316009,0,0,0
5173,178128.2294698062,2010-11-18 13:14:03,4712.4051860898935,2,16,0.5501165986061096,4.094751358032227,15.612698501855895,14.924061474028106,62.23724551580492,54.534843599643885,6.47544875391759e-05,0.0946486890316009,0,0,0
5174,178158.2447634218,2010-11-18 13:14:33,4742.4204797105085,2,16,0.5501165986061096,4.098150730133057,15.617285258717914,14.924061474028106,62.25603504545742,54.534843599643885,9.70840483205393e-05,0.0946486890316009,0,0,0
5175,178188.26012845067,2010-11-18 13:15:03,4772.435844739369,2,16,0.5499359965324402,4.100903034210205,15.621872045690637,14.924061474028106,62.274838575100894,54.534843599643885,6.47544875391759e-05,0.0946486890316009,0,0,0
5176,178218.2754105375,2010-11-18 13:15:33,4802.451126826193,2,16,0.5501165986061096,4.103978633880615,15.626458897273238,14.924061474028106,62.29365636926801,54.534843599643885,6.47544875391759e-05,0.0946486890316009,0,0,0
5177,178248.2907229901,2010-11-18 13:16:03,4832.466439283828,2,16,0.5499359965324402,4.107054710388184,15.631045720327046,14.924061474028106,62.31248824552841,54.534843599643885,6.47544875391759e-05,0.0946486890316009,0,0,0
5178,178278.30600846538,2010-11-18 13:16:33,4862.4817247490855,2,16,0.5501165986061096,4.110454082489014,15.635632518870864,14.924061474028106,62.33133423706061,54.534843599643885,0.0001295089750783,0.0946486890316009,0,0,0
5179,178308.32144504285,2010-11-18 13:17:03,4892.497161331555,2,16,0.550297200679779,4.113368034362793,15.640219385579154,14.924061474028106,62.35019493378096,54.534843599643885,6.47544875391759e-05,0.0946486890316009,0,0,0
5180,178338.33665236805,2010-11-18 13:17:33,4922.512368646737,2,16,0.5501165986061096,4.116605758666992,15.64480621804048,14.924061474028106,62.36907004874799,54.534843599643885,6.47544875391759e-05,0.0946486890316009,0,0,0
5181,178368.351975778,2010-11-18 13:18:03,4952.527692081773,2,16,0.5501165986061096,4.120005130767822,15.649393032342635,14.924061474028106,62.387959768598286,54.534843599643885,9.70840483205393e-05,0.0946486890316009,0,0,0
5182,178398.36738710746,2010-11-18 13:18:33,4982.5431033961695,2,16,0.5501165986061096,4.1232428550720215,15.653979856752343,14.924061474028106,62.40686421129756,54.534843599643885,0.0001295089750783,0.0946486890316009,0,0,0
5183,178428.38257359565,2010-11-18 13:19:03,5012.558289884365,2,16,0.5501165986061096,4.12631893157959,15.658566665770552,14.924061474028106,62.42578347166573,54.534843599643885,9.71794142969884e-05,0.0946486890316009,0,0,0
5184,178458.397890354,2010-11-18 13:19:33,5042.573606637723,2,16,0.5501165986061096,4.129556655883789,15.663153473600744,14.924061474028106,62.44471774801136,54.534843599643885,6.47544875391759e-05,0.0946486890316009,0,0,0
5185,178488.41321721263,2010-11-18 13:20:03,5072.588933496304,2,16,0.5501165986061096,4.132956027984619,15.667740311355487,14.924061474028106,62.46366733248659,54.534843599643885,9.70840483205393e-05,0.0946486890316009,0,0,0
5186,178518.42851785573,2010-11-18 13:20:33,5102.604234144461,2,16,0.550297200679779,4.136355876922607,15.6723271569164,14.924061474028106,62.482631997826125,54.534843599643885,0.0001295089750783,0.0946486890316009,0,0,0
5187,178548.44395707978,2010-11-18 13:21:03,5132.619673368524,2,16,0.5501165986061096,4.139593601226807,15.676914036838996,14.924061474028106,62.50161214150347,54.534843599643885,6.47544875391759e-05,0.0946486890316009,0,0,0
5188,178578.4592802993,2010-11-18 13:21:33,5162.634996613085,2,16,0.550297200679779,4.142992973327637,15.6815009947512,14.924061474028106,62.520608084540726,54.534843599643885,6.47544875391759e-05,0.0946486890316009,0,0,0
5189,178608.47447607067,2010-11-18 13:22:03,5192.65019235939,2,16,0.5499359965324402,4.146554470062256,15.686088456207408,14.924061474028106,62.53962184995155,54.534843599643885,0.0001295089750783,0.0946486890316009,0,0,0
5190,178638.48977735543,2010-11-18 13:22:33,5222.665493644136,2,16,0.550297200679779,4.149954319000244,15.690675947104191,14.924061474028106,62.55865162501138,54.534843599643885,9.71794142969884e-05,0.0946486890316009,0,0,0
5191,178668.5052193464,2010-11-18 13:23:03,5252.680935635105,2,16,0.550297200679779,4.153515815734863,15.695263407649218,14.924061474028106,62.57769707053141,54.534843599643885,0.0001295089750783,0.0946486890316009,0,0,0
5192,178698.5203815289,2010-11-18 13:23:33,5282.696097837679,2,16,0.5499359965324402,4.156591415405273,15.699850774705466,14.924061474028106,62.596757982649,54.534843599643885,3.23295607813634e-05,0.0946486890316009,0,0,0
5193,178728.53574282845,2010-11-18 13:24:03,5312.711459132219,2,16,0.5501165986061096,4.160152912139893,15.704437516096778,14.924061474028106,62.615832304454365,54.534843599643885,3.23295607813634e-05,0.0946486890316009,0,0,0
5194,178758.55103107565,2010-11-18 13:24:33,5342.72674735937,2,16,0.550297200679779,4.164038181304932,15.709024284854332,14.924061474028106,62.6349227960523,54.534843599643885,9.70840483205393e-05,0.0946486890316009,0,0,0
5195,178788.56676346652,2010-11-18 13:25:03,5372.74247976526,2,16,0.5501165986061096,4.16743803024292,15.713611140083437,14.924061474028106,62.65402973511692,54.534843599643885,0.0001295089750783,0.0946486890316009,0,0,0
5196,178818.58166047712,2010-11-18 13:25:33,5402.7573767859,2,16,0.5501165986061096,4.17083740234375,15.718197769365016,14.924061474028106,62.67315205470479,54.534843599643885,6.47544875391759e-05,0.0946486890316009,0,0,0
5197,178848.59699014277,2010-11-18 13:26:03,5432.772706446476,2,16,0.5501165986061096,4.174561023712158,15.722784524809192,14.924061474028106,62.69229143120948,54.534843599643885,6.47544875391759e-05,0.0946486890316009,0,0,0
5198,178878.6122839037,2010-11-18 13:26:33,5462.788000212453,2,16,0.5499359965324402,4.178122520446777,15.727371239127711,14.924061474028106,62.71144718089398,54.534843599643885,9.71794142969884e-05,0.0946486890316009,0,0,0
5199,178908.62759378488,2010-11-18 13:27:03,5492.803310103682,2,16,0.5501165986061096,4.181845664978027,15.731958025247126,14.924061474028106,62.73061996695739,54.534843599643885,9.70840483205393e-05,0.0946486890316009,0,0,0
5200,178938.64291131016,2010-11-18 13:27:33,5522.818627618942,2,16,0.5501165986061096,4.185569286346436,15.736544769258083,14.924061474028106,62.74980937094305,54.534843599643885,0.0001295089750783,0.0946486890316009,0,0,0
5201,178968.65901542894,2010-11-18 13:28:03,5552.834731827909,2,16,0.5501165986061096,4.189130783081055,15.74113164265928,14.924061474028106,62.76901636812059,54.534843599643885,6.47544875391759e-05,0.0946486890316009,0,0,0
5202,178998.66088068526,2010-11-18 13:28:33,5582.836596973985,2,16,0.550297200679779,4.192853927612305,15.745716354812595,14.924061474028106,62.788231367773086,54.534843599643885,9.70840483205393e-05,0.0946486890316009,0,0,0
5203,179028.6732625026,2010-11-18 13:29:03,5612.84897881134,2,16,0.5499359965324402,4.196577072143555,15.750302604324904,14.924061474028106,62.80746989999904,54.534843599643885,6.47544875391759e-05,0.0946486890316009,0,0,0
5204,179054.8136996954,2010-11-18 13:29:29,5638.989415994154,2,16,0.5501165986061096,4.200138568878174,15.754297178205924,14.924061474028106,62.82424034755971,54.534843599643885,0.0001618385285837,0.0946486890316009,0,0,0
5205,179084.83020375852,2010-11-18 13:29:59,30.01530804161156,3,16,0.0,4.116119861602783,15.754297178205924,14.924061474028106,62.82424034755971,54.534843599643885,-0.0004209518374409,0.0946486890316009,0,0,0
5206,179114.84562306284,2010-11-18 13:30:29,60.03072734595201,3,16,0.0,4.106083393096924,15.754297178205924,14.924061474028106,62.82424034755971,54.534843599643885,-0.0002265930233988,0.0946486890316009,0,0,0
5207,179144.86083085425,2010-11-18 13:30:59,90.0459351172735,3,16,0.0,4.100255489349365,15.754297178205924,14.924061474028106,62.82424034755971,54.534843599643885,-9.70840483205393e-05,0.0946486890316009,0,0,0
5208,179174.82938846457,2010-11-18 13:31:29,120.01449272260372,3,16,0.0,4.096370220184326,15.754297178205924,14.924061474028106,62.82424034755971,54.534843599643885,-6.47544875391759e-05,0.0946486890316009,0,0,0
5209,179174.83181232444,2010-11-18 13:31:30,2.701743969e-06,4,16,0.9828564524650574,4.199814796447754,15.754297178943542,14.924061474028106,62.824240350657576,54.534843599643885,0.0,0.0946486890316009,0,0,0
5210,179175.75381543103,2010-11-18 13:31:31,0.922005828394724,4,16,0.9322858452796936,4.199653148651123,15.754540810066729,14.924061474028106,62.82526353851587,54.534843599643885,-3.23295607813634e-05,0.0946486890316009,0,0,0
5211,179177.92552899217,2010-11-18 13:31:33,3.09371940459069,4,16,0.8820764422416687,4.199814796447754,15.755086925506852,14.924061474028106,62.8275570684792,54.534843599643885,0.0,0.0946486890316009,0,0,0
5212,179181.2223784005,2010-11-18 13:31:36,6.390568787858925,4,16,0.832047700881958,4.199814796447754,15.755870619687103,14.924061474028106,62.83084837295476,54.534843599643885,0.0,0.0946486890316009,0,0,0
5213,179185.73798381636,2010-11-18 13:31:41,10.906174228747911,4,16,0.7818382978439331,4.199653148651123,15.756881613515466,14.924061474028106,62.83509426258638,54.534843599643885,0.0,0.0946486890316009,0,0,0
5214,179191.72225851667,2010-11-18 13:31:47,16.89044889898246,4,16,0.7318095564842224,4.199814796447754,15.758138124219908,14.924061474028106,62.84037128842624,54.534843599643885,3.23295607813634e-05,0.0946486890316009,0,0,0
5215,179199.4721798125,2010-11-18 13:31:54,24.640370194832485,4,16,0.6816001534461975,4.199814796447754,15.75965723991118,14.924061474028106,62.84675119836966,54.534843599643885,0.0,0.0946486890316009,0,0,0
5216,179209.80019121288,2010-11-18 13:32:05,34.96838160022518,4,16,0.6315714120864868,4.199491024017334,15.76153849932707,14.924061474028106,62.85465202172735,54.534843599643885,-6.47544875391759e-05,0.0946486890316009,0,0,0
5217,179224.64380186872,2010-11-18 13:32:19,49.8119922811171,4,16,0.5815426111221313,4.199814796447754,15.764034598054613,14.924061474028106,62.865135017775465,54.534843599643885,3.23295607813634e-05,0.0946486890316009,0,0,0
5218,179247.5342487808,2010-11-18 13:32:42,72.70243928344213,4,16,0.5315138697624207,4.199814796447754,15.767560585815213,14.924061474028106,62.8799433006313,54.534843599643885,3.23295607813634e-05,0.0946486890316009,0,0,0
5219,179286.98689314077,2010-11-18 13:33:22,112.1550835281144,4,16,0.4813044667243957,4.199653148651123,15.773088305627134,14.924061474028106,62.90315836267639,54.534843599643885,0.0,0.0946486890316009,0,0,0
5220,179358.0329967355,2010-11-18 13:34:33,183.20118714791923,4,16,0.4312756955623626,4.199814796447754,15.782059595933037,14.924061474028106,62.94083556607988,54.534843599643885,0.0,0.0946486890316009,0,0,0
5221,179460.0162741657,2010-11-18 13:36:15,285.1844645580699,4,16,0.381246954202652,4.199814796447754,15.793546086123824,14.924061474028106,62.98907603562555,54.534843599643885,3.23295607813634e-05,0.0946486890316009,0,0,0
5222,179585.90563535385,2010-11-18 13:38:21,411.0738257662396,4,16,0.3312181830406189,4.199653148651123,15.805986662039269,14.924061474028106,63.041323444586624,54.534843599643885,-3.23295607813634e-05,0.0946486890316009,0,0,0
5223,179736.62281844008,2010-11-18 13:40:51,561.7910088224066,4,16,0.2811894118785858,4.199814796447754,15.818785775407957,14.924061474028106,63.09507658949624,54.534843599643885,0.0,0.0946486890316009,0,0,0
5224,179918.60524915444,2010-11-18 13:43:53,743.7734395417793,4,16,0.2311606258153915,4.199653148651123,15.831710968926446,14.924061474028106,63.14935920059006,54.534843599643885,0.0,0.0946486890316009,0,0,0
5225,180148.2122181532,2010-11-18 13:47:43,973.380408545562,4,16,0.1811318546533584,4.199653148651123,15.844810586929556,14.924061474028106,63.2043743503095,54.534843599643885,-6.47544875391759e-05,0.0946486890316009,0,0,0
5226,180456.7246311094,2010-11-18 13:52:52,1281.8928215017486,4,16,0.1311030983924865,4.199653148651123,15.858085481128454,14.924061474028106,63.26012553448517,54.534843599643885,-6.47544875391759e-05,0.0946486890316009,0,0,0
5227,180936.25080791497,2010-11-18 14:00:51,1761.4189983073134,4,16,0.0810743197798729,4.199814796447754,15.871958166393073,14.924061474028106,63.31838736651815,54.534843599643885,3.23295607813634e-05,0.0946486890316009,0,0,0
5228,181462.21402470648,2010-11-18 14:09:37,2287.382215138943,4,16,0.0498289167881011,4.199814796447754,15.881371811304549,14.924061474028106,63.35792233575432,54.534843599643885,0.0,0.0946486890316009,0,0,0
5229,181492.22484737297,2010-11-18 14:10:07,30.01546739438059,5,16,0.0,4.191882610321045,15.881371811304549,14.924061474028106,63.35792233575432,54.534843599643885,-9.71794142969884e-05,0.0946486890316009,0,0,0
5230,181522.2243613652,2010-11-18 14:10:37,60.01498139664008,5,16,0.0,4.190911293029785,15.881371811304549,14.924061474028106,63.35792233575432,54.534843599643885,0.0,0.0946486890316009,0,0,0
5231,181522.40796186344,2010-11-18 14:10:37,0.187601416998585,6,16,-1.9243103452026844e-05,4.190911293029785,15.881371811304549,14.924061475030893,63.35792233575432,54.53484360384648,0.0,0.0954576581716537,0,0,0
5232,181527.23588961887,2010-11-18 14:10:42,5.015529172434269,6,16,0.0008838032954372,4.190911293029785,15.881372727084036,14.924061475113964,63.35792617371196,54.53484360419462,-3.24249267578125e-05,0.0954576581716537,0,0,0
5233,181557.24725667905,2010-11-18 14:11:12,30.015319580414182,7,16,-1.099568486213684,4.018179416656494,15.881372727084036,14.933230412986608,63.35792617371196,54.57187575824874,-0.0008418083307333,0.0954576581716537,0,0,0
5234,181587.26258101137,2010-11-18 14:11:42,60.03064393775232,7,16,-1.099929690361023,3.99260139465332,15.881372727084036,14.942399353557038,63.35792617371196,54.6085920569073,-0.0005503654247149,0.0954576581716537,0,0,0
5235,181617.27790652652,2010-11-18 14:12:12,90.04596943794317,7,16,-1.0997490882873535,3.975441455841065,15.881372727084036,14.9515682079237,63.35792617371196,54.64511630563385,-0.0003561496851034,0.0954576581716537,0,0,0
5236,181647.29316317991,2010-11-18 14:12:42,120.06122610631924,7,16,-1.0997490882873535,3.9616811275482178,15.881372727084036,14.96073695627,63.35792617371196,54.68150053356508,-0.0003561496851034,0.0954576581716537,0,0,0
5237,181677.30860731623,2010-11-18 14:13:12,150.0766702225941,7,16,-1.0997490882873535,3.950187206268311,15.881372727084036,14.969905814504695,63.35792617371196,54.71777109410922,-0.0002913951757363,0.0954576581716537,0,0,0
5238,181707.32379959887,2010-11-18 14:13:42,180.091862500241,7,16,-1.0997490882873535,3.939988374710083,15.881372727084036,14.97907459018516,63.35792617371196,54.75394120256831,-0.0002590179501567,0.0954576581716537,0,0,0
5239,181737.33910060796,2010-11-18 14:14:12,210.10716353436075,7,16,-1.0997490882873535,3.9301133155822754,15.881372727084036,14.98824338396123,63.35792617371196,54.79001954162193,-0.0002590179501567,0.0954576581716537,0,0,0
5240,181767.35441251425,2010-11-18 14:14:43,240.1224754155565,7,16,-1.0997490882873535,3.9207239151000977,15.881372727084036,14.997412236822544,63.35792617371196,54.8260109496601,-0.0002590179501567,0.0954576581716537,0,0,0
5241,181797.36972297184,2010-11-18 14:15:13,270.1377858982614,7,16,-1.0997490882873535,3.911820411682129,15.881372727084036,15.006581079943391,63.35792617371196,54.86191934645683,-0.0002266406954731,0.0954576581716537,0,0,0
5242,181827.38502685307,2010-11-18 14:15:43,300.15308974440046,7,16,-1.099568486213684,3.903240442276001,15.881372727084036,15.015749924473358,63.35792617371196,54.89774655232392,-0.0001942634553415,0.0954576581716537,0,0,0
5243,181857.4003147845,2010-11-18 14:16:13,330.1683776858389,7,16,-1.0993878841400146,3.894822359085083,15.881372727084036,15.02491881289254,63.35792617371196,54.933494430492416,-0.0001942634553415,0.0954576581716537,0,0,0
5244,181887.41574993337,2010-11-18 14:16:43,360.18381285477983,7,16,-1.0997490882873535,3.886080503463745,15.881372727084036,15.03408763026462,63.35792617371196,54.969165464687535,-0.0002913951757363,0.0954576581716537,0,0,0
5245,181917.4309078052,2010-11-18 14:17:13,390.1989707064943,7,16,-1.099568486213684,3.877986192703247,15.881372727084036,15.043256372372928,63.35792617371196,55.00475915103952,-0.0001942634553415,0.0954576581716537,0,0,0
5246,181947.4462211199,2010-11-18 14:17:43,420.214284046331,7,16,-1.0997490882873535,3.869568109512329,15.881372727084036,15.052425125039568,63.35792617371196,55.04027732190834,-0.0002590179501567,0.0954576581716537,0,0,0
5247,181977.46157236936,2010-11-18 14:18:13,450.2296352707335,7,16,-1.099568486213684,3.861635684967041,15.881372727084036,15.061593307706971,63.35792617371196,55.07571900147126,-0.0002266406954731,0.0954576581716537,0,0,0
5248,182007.4769053382,2010-11-18 14:18:43,480.2449682846798,7,16,-1.099568486213684,3.853703260421753,15.881372727084036,15.070761502301515,63.35792617371196,55.1110869919713,-0.0002266406954731,0.0954576581716537,0,0,0
5249,182037.49222062287,2010-11-18 14:19:13,510.26028352927113,7,16,-1.099568486213684,3.845932722091675,15.881372727084036,15.079930395639124,63.35792617371196,55.14638569622368,-0.0002266406954731,0.0954576581716537,0,0,0
5250,182067.50786488372,2010-11-18 14:19:43,540.2759277851252,7,16,-1.0997490882873535,3.8381621837615967,15.881372727084036,15.089099454801488,63.35792617371196,55.18161424334311,-0.0002266406954731,0.0954576581716537,0,0,0
5251,182097.5229681342,2010-11-18 14:20:13,570.2910310405589,7,16,-1.0997490882873535,3.8307156562805176,15.881372727084036,15.098268317065411,63.35792617371196,55.21677231620106,-0.0001618862152099,0.0954576581716537,0,0,0
5252,182127.53812878288,2010-11-18 14:20:43,600.3061916942676,7,16,-1.099568486213684,3.8231070041656494,15.881372727084036,15.107437234489693,63.35792617371196,55.25186126425515,-0.0002266406954731,0.0954576581716537,0,0,0
5253,182157.5535716761,2010-11-18 14:21:13,630.3216346075396,7,16,-1.099568486213684,3.815660238265991,15.881372727084036,15.116606157004693,63.35792617371196,55.28688131120656,-0.0001942634553415,0.0954576581716537,0,0,0
5254,182187.56875901643,2010-11-18 14:21:43,660.3368219177871,7,16,-1.0997490882873535,3.808375358581543,15.881372727084036,15.125775005951484,63.35792617371196,55.321833118271776,-0.0001942634553415,0.0954576581716537,0,0,0
5255,182217.5840672786,2010-11-18 14:22:13,690.3521301799492,7,16,-1.099568486213684,3.801090478897095,15.881372727084036,15.134943896580914,63.35792617371196,55.35671861590127,-0.0002266406954731,0.0954576581716537,0,0,0
5256,182247.5994815353,2010-11-18 14:22:43,720.367544446715,7,16,-1.099568486213684,3.7944531440734863,15.881372727084036,15.144112901693358,63.35792617371196,55.39154025517442,-0.0001618862152099,0.0954576581716537,0,0,0
5257,182277.61480002804,2010-11-18 14:23:13,750.3828629594642,7,16,-1.099568486213684,3.787653923034668,15.881372727084036,15.153281899310322,63.35792617371196,55.4262992476948,-0.0001942634553415,0.0954576581716537,0,0,0
5258,182307.62999919787,2010-11-18 14:23:43,780.39806209924,7,16,-1.099568486213684,3.78101658821106,15.881372727084036,15.1624508186432,63.35792617371196,55.46099670233472,-0.0001618862152099,0.0954576581716537,0,0,0
5259,182337.64535025184,2010-11-18 14:24:13,810.4134131582296,7,16,-1.099568486213684,3.774217367172241,15.881372727084036,15.171619730212972,63.35792617371196,55.49563368639719,-0.0001942634553415,0.0954576581716537,0,0,0
5260,182367.66059678493,2010-11-18 14:24:43,840.428659716369,7,16,-1.099929690361023,3.7677419185638423,15.881372727084036,15.180788742750591,63.35792617371196,55.53021095351254,-0.0001618862152099,0.0954576581716537,0,0,0
5261,182397.6759482048,2010-11-18 14:25:13,870.4440111011717,7,16,-1.0997490882873535,3.761590242385864,15.881372727084036,15.189957791126702,63.35792617371196,55.564729732058375,-0.0001618862152099,0.0954576581716537,0,0,0
5262,182427.69123534427,2010-11-18 14:25:43,900.4592982706833,7,16,-1.099568486213684,3.7554385662078857,15.881372727084036,15.19912684233848,63.35792617371196,55.599191304954935,-0.0001295089750783,0.0954576581716537,0,0,0
5263,182457.70651998743,2010-11-18 14:26:13,930.4745828888264,7,16,-1.099568486213684,3.749449014663696,15.881372727084036,15.208295854356868,63.35792617371196,55.6335966150694,-0.0001295089750783,0.0954576581716537,0,0,0
5264,182487.72181168327,2010-11-18 14:26:43,960.4898746046864,7,16,-1.0997490882873535,3.7432973384857178,15.881372727084036,15.217464843937089,63.35792617371196,55.66794691902774,-0.0001942634553415,0.0954576581716537,0,0,0
5265,182517.73713015596,2010-11-18 14:27:13,990.5051930723228,7,16,-1.0997490882873535,3.737469434738159,15.881372727084036,15.226633868066136,63.35792617371196,55.70224323154888,-0.0001942634553415,0.0954576581716537,0,0,0
5266,182547.75244157092,2010-11-18 14:27:43,1020.52050449738,7,16,-1.0997490882873535,3.7318034172058105,15.881372727084036,15.235802853041225,63.35792617371196,55.73648616494129,-0.0001295089750783,0.0954576581716537,0,0,0
5267,182577.76772848985,2010-11-18 14:28:13,1050.535791396216,7,16,-1.099568486213684,3.726299285888672,15.881372727084036,15.244971798157028,63.35792617371196,55.770677239712384,-0.0001618862152099,0.0954576581716537,0,0,0
5268,182607.78303591497,2010-11-18 14:28:43,1080.551098816276,7,16,-1.099929690361023,3.7206332683563232,15.881372727084036,15.254140790473931,63.35792617371196,55.80481760009904,-0.0001295089750783,0.0954576581716537,0,0,0
5269,182637.79863801057,2010-11-18 14:29:13,1110.566700916904,7,16,-1.0997490882873535,3.715129137039185,15.881372727084036,15.263309886005707,63.35792617371196,55.838907655113175,-0.0001618862152099,0.0954576581716537,0,0,0
5270,182667.8137923184,2010-11-18 14:29:43,1140.5818552247729,7,16,-1.099568486213684,3.709948778152466,15.881372727084036,15.272478888234572,63.35792617371196,55.87294708098525,-9.713172767078504e-05,0.0954576581716537,0,0,0
5271,182697.8289617841,2010-11-18 14:30:13,1170.5970246904774,7,16,-1.099929690361023,3.704444646835327,15.881372727084036,15.281647806725932,63.35792617371196,55.90693694608581,-0.0001295089750783,0.0954576581716537,0,0,0
5272,182727.84427903368,2010-11-18 14:30:43,1200.612341945086,7,16,-1.099568486213684,3.6991024017333984,15.881372727084036,15.29081680612374,63.35792617371196,55.94087876783495,-0.0001618862152099,0.0954576581716537,0,0,0
5273,182757.85958532093,2010-11-18 14:31:13,1230.6276482222931,7,16,-1.0997490882873535,3.69392204284668,15.881372727084036,15.299985775777204,63.35792617371196,55.974772495610885,-0.0001618862152099,0.0954576581716537,0,0,0
5274,182787.87502946728,2010-11-18 14:31:43,1260.6430923686432,7,16,-1.099568486213684,3.688903570175171,15.881372727084036,15.309154818600318,63.35792617371196,56.00861928247734,-0.0001618862152099,0.0954576581716537,0,0,0
5275,182817.8903193937,2010-11-18 14:32:13,1290.6583822950363,7,16,-1.099568486213684,3.683885097503662,15.881372727084036,15.31832379499222,63.35792617371196,56.04241912385713,-0.0001295089750783,0.0954576581716537,0,0,0
5276,182847.90580814137,2010-11-18 14:32:43,1320.6738710878308,7,16,-1.099568486213684,3.679190397262573,15.881372727084036,15.327492908195635,63.35792617371196,56.07617416514934,-6.47544875391759e-05,0.0954576581716537,0,0,0
5277,182877.9209388403,2010-11-18 14:33:13,1350.6890017416551,7,16,-1.099929690361023,3.6740100383758554,15.881372727084036,15.33666185318194,63.35792617371196,56.10988377314743,-9.713172767078504e-05,0.0954576581716537,0,0,0
5278,182907.9363259092,2010-11-18 14:33:43,1380.7043888456185,7,16,-1.099929690361023,3.669153690338135,15.881372727084036,15.3458309237374,63.35792617371196,56.14354921483518,-9.713172767078504e-05,0.0954576581716537,0,0,0
5279,182937.95142856817,2010-11-18 14:34:13,1410.719491479501,7,16,-1.099568486213684,3.664458990097046,15.881372727084036,15.354999907893994,63.35792617371196,56.17717003402255,-0.0001295089750783,0.0954576581716537,0,0,0
5280,182967.96672923636,2010-11-18 14:34:43,1440.7347921376822,7,16,-1.0997490882873535,3.659602403640747,15.881372727084036,15.364168966149323,63.35792617371196,56.21074742041641,-0.0001618862152099,0.0954576581716537,0,0,0
5281,182997.9820434634,2010-11-18 14:35:13,1470.7501063647337,7,16,-1.099929690361023,3.654907703399658,15.881372727084036,15.373338055351894,63.35792617371196,56.24428173015246,-0.0001295089750783,0.0954576581716537,0,0,0
5282,183028.0003739244,2010-11-18 14:35:43,1500.768436936044,7,16,-1.099568486213684,3.6503748893737793,15.881372727084036,15.382508025029232,63.35792617371196,56.27777637039719,-0.0001618862152099,0.0954576581716537,0,0,0
5283,183058.01274297485,2010-11-18 14:36:13,1530.7808059614192,7,16,-1.0997490882873535,3.645842075347901,15.881372727084036,15.3916761978175,63.35792617371196,56.311222407465394,-9.713172767078504e-05,0.0954576581716537,0,0,0
5284,183088.0284036266,2010-11-18 14:36:43,1560.796466578112,7,16,-1.099929690361023,3.641147375106812,15.881372727084036,15.400845252010631,63.35792617371196,56.34463087328613,-0.0001618862152099,0.0954576581716537,0,0,0
5285,183118.04328438663,2010-11-18 14:37:13,1590.8113472880382,7,16,-1.0997490882873535,3.6371002197265625,15.881372727084036,15.410014133402418,63.35792617371196,56.377998540562416,-9.713172767078504e-05,0.0954576581716537,0,0,0
5286,183148.05861219263,2010-11-18 14:37:43,1620.8266751040096,7,16,-1.0997490882873535,3.632891178131104,15.881372727084036,15.41918313036456,63.35792617371196,56.41132740205763,-9.713172767078504e-05,0.0954576581716537,0,0,0
5287,183178.07388581836,2010-11-18 14:38:13,1650.8419487247013,7,16,-1.099929690361023,3.6285202503204346,15.881372727084036,15.428352171420968,63.35792617371196,56.44461786068855,-0.0001295089750783,0.0954576581716537,0,0,0
5288,183208.08927214536,2010-11-18 14:38:43,1680.8573350717754,7,16,-1.0997490882873535,3.624634981155396,15.881372727084036,15.437521200839091,63.35792617371196,56.477870585056415,-9.713172767078504e-05,0.0954576581716537,0,0,0
5289,183238.10451376616,2010-11-18 14:39:13,1710.8725766775528,7,16,-1.099568486213684,3.620749711990357,15.881372727084036,15.44669029309068,63.35792617371196,56.51108701331749,-9.713172767078504e-05,0.0954576581716537,0,0,0
5290,183268.11984844424,2010-11-18 14:39:43,1740.8879113706907,7,16,-1.099568486213684,3.616864442825317,15.881372727084036,15.455859306155745,63.35792617371196,56.54426726280854,-6.47544875391759e-05,0.0954576581716537,0,0,0
5291,183298.13525986896,2010-11-18 14:40:13,1770.9033227702996,7,16,-1.0997490882873535,3.6129791736602783,15.881372727084036,15.465028383426112,63.35792617371196,56.57741282706533,-0.0001295089750783,0.0954576581716537,0,0,0
5292,183328.15057956465,2010-11-18 14:40:43,1800.9186424660018,7,16,-1.099568486213684,3.609255790710449,15.881372727084036,15.474197458188756,63.35792617371196,56.61052399138923,-0.0001295089750783,0.0954576581716537,0,0,0
5293,183358.1658591252,2010-11-18 14:41:13,1830.93392202652,7,16,-1.099929690361023,3.60569429397583,15.881372727084036,15.483366490273902,63.35792617371196,56.64360142767568,-9.713172767078504e-05,0.0954576581716537,0,0,0
5294,183388.18106040527,2010-11-18 14:41:43,1860.949123311651,7,16,-1.0997490882873535,3.602132797241211,15.881372727084036,15.492535451254987,63.35792617371196,56.67664566144108,-0.0001295089750783,0.0954576581716537,0,0,0
5295,183418.19635858727,2010-11-18 14:42:13,1890.964421488639,7,16,-1.099929690361023,3.5987331867218018,15.881372727084036,15.501704468847272,63.35792617371196,56.70965835069927,-6.47544875391759e-05,0.0954576581716537,0,0,0
5296,183448.2116647291,2010-11-18 14:42:43,1920.9797276305085,7,16,-1.099568486213684,3.5954954624176025,15.881372727084036,15.51087348173326,63.35792617371196,56.74264023610674,-6.47544875391759e-05,0.0954576581716537,0,0,0
5297,183478.2269894925,2010-11-18 14:43:13,1950.9950524239352,7,16,-1.099929690361023,3.5920960903167725,15.881372727084036,15.520042464384597,63.35792617371196,56.77559172871493,-0.0001294612884521,0.0954576581716537,0,0,0
5298,183508.24230841128,2010-11-18 14:43:43,1981.0103713326723,7,16,-1.0997490882873535,3.588858366012573,15.881372727084036,15.529211449929242,63.35792617371196,56.80851363152655,-9.713172767078504e-05,0.0954576581716537,0,0,0
5299,183538.2577265828,2010-11-18 14:44:13,2011.025789489148,7,16,-1.0997490882873535,3.585944414138794,15.881372727084036,15.538380476638537,63.35792617371196,56.84140681165727,-6.47544875391759e-05,0.0954576581716537,0,0,0
5300,183568.2728666501,2010-11-18 14:44:43,2041.040929551457,7,16,-1.099568486213684,3.5828685760498047,15.881372727084036,15.547549301032332,63.35792617371196,56.87427085757268,-6.47544875391759e-05,0.0954576581716537,0,0,0
5301,183598.2884302196,2010-11-18 14:45:13,2071.056493125918,7,16,-1.099568486213684,3.5797927379608154,15.881372727084036,15.556718221675178,63.35792617371196,56.90710742547435,-6.47544875391759e-05,0.0954576581716537,0,0,0
5302,183628.30365870256,2010-11-18 14:45:43,2101.071721644026,7,16,-1.0997490882873535,3.576716899871826,15.881372727084036,15.565887107607276,63.35792617371196,56.93991639359861,-9.713172767078504e-05,0.0954576581716537,0,0,0
5303,183658.31882339137,2010-11-18 14:46:13,2131.08688631777,7,16,-1.0997490882873535,3.573802947998047,15.881372727084036,15.57505593955286,63.35792617371196,56.972698285118746,-6.47544875391759e-05,0.0954576581716537,0,0,0
5304,183688.3342806755,2010-11-18 14:46:44,2161.1023435818643,7,16,-1.099929690361023,3.570888996124268,15.881372727084036,15.584224954514056,63.35792617371196,57.00545406877671,-9.713172767078504e-05,0.0954576581716537,0,0,0
5305,183718.3494167679,2010-11-18 14:47:14,2191.117479669252,7,16,-1.0997490882873535,3.5681369304656982,15.881372727084036,15.593393903216628,63.35792617371196,57.03818352337103,-6.47544875391759e-05,0.0954576581716537,0,0,0
5306,183748.3648779167,2010-11-18 14:47:44,2221.1329408180422,7,16,-1.0997490882873535,3.565384864807129,15.881372727084036,15.602562904316803,63.35792617371196,57.07088695663324,-3.237724376958795e-05,0.0954576581716537,0,0,0
5307,183778.38016312127,2010-11-18 14:48:14,2251.148226037686,7,16,-1.099568486213684,3.5624709129333496,15.881372727084036,15.611731845250276,63.35792617371196,57.10356373705578,-6.47544875391759e-05,0.0954576581716537,0,0,0
5308,183808.39534338395,2010-11-18 14:48:44,2281.1634062953294,7,16,-1.099568486213684,3.5595569610595703,15.881372727084036,15.62090076992917,63.35792617371196,57.13621424564244,-9.713172767078504e-05,0.0954576581716537,0,0,0
5309,183838.4107334904,2010-11-18 14:49:14,2311.1787965070503,7,16,-1.0997490882873535,3.556481122970581,15.881372727084036,15.630069796587645,63.35792617371196,57.16883782870247,-6.47544875391759e-05,0.0954576581716537,0,0,0
5310,183868.42598134177,2010-11-18 14:49:44,2341.19404424313,7,16,-1.099568486213684,3.5535671710968018,15.881372727084036,15.639238754438065,63.35792617371196,57.20143386924944,-9.713172767078504e-05,0.0954576581716537,0,0,0
5311,183898.44129062147,2010-11-18 14:50:14,2371.209353552907,7,16,-1.0997490882873535,3.5506532192230225,15.881372727084036,15.648407769172044,63.35792617371196,57.2340025896668,-6.47544875391759e-05,0.0954576581716537,0,0,0
5312,183928.4567091539,2010-11-18 14:50:44,2401.224772055245,7,16,-1.0997490882873535,3.5474154949188232,15.881372727084036,15.657576833920018,63.35792617371196,57.26654322865762,-9.713172767078504e-05,0.0954576581716537,0,0,0
5313,183958.47188220857,2010-11-18 14:51:14,2431.239945109909,7,16,-1.099568486213684,3.544177770614624,15.881372727084036,15.666745858610184,63.35792617371196,57.29905458941664,-9.713172767078504e-05,0.0954576581716537,0,0,0
5314,183988.48740851,2010-11-18 14:51:44,2461.2554714113307,7,16,-1.099568486213684,3.540940046310425,15.881372727084036,15.675914961766878,63.35792617371196,57.3315366992587,-0.0001295089750783,0.0954576581716537,0,0,0
5315,184018.5025219458,2010-11-18 14:52:14,2491.270584857202,7,16,-1.0997490882873535,3.537540435791016,15.881372727084036,15.68508398279913,63.35792617371196,57.36398771450294,-6.47544875391759e-05,0.0954576581716537,0,0,0
5316,184048.5178120577,2010-11-18 14:52:44,2521.2858749590323,7,16,-1.099929690361023,3.5339789390563965,15.881372727084036,15.69425300514934,63.35792617371196,57.396407258478845,-9.713172767078504e-05,0.0954576581716537,0,0,0
5317,184078.5332093771,2010-11-18 14:53:14,2551.301272393783,7,16,-1.0997490882873535,3.5304174423217773,15.881372727084036,15.703422076597276,63.35792617371196,57.42879467062598,-9.713172767078504e-05,0.0954576581716537,0,0,0
5318,184108.54845050676,2010-11-18 14:53:44,2581.3165134331466,7,16,-1.0997490882873535,3.526694059371948,15.881372727084036,15.712591078181466,63.35792617371196,57.46114801294467,-0.0001295089750783,0.0954576581716537,0,0,0
5319,184138.56374529024,2010-11-18 14:54:14,2611.331808196614,7,16,-1.0997490882873535,3.522970676422119,15.881372727084036,15.721760158172836,63.35792617371196,57.49346725680447,-9.713172767078504e-05,0.0954576581716537,0,0,0
5320,184168.58013534773,2010-11-18 14:54:44,2641.348198394453,7,16,-1.0997490882873535,3.51876163482666,15.881372727084036,15.73092957520422,63.35792617371196,57.5257516165032,-0.0001295089750783,0.0954576581716537,0,0,0
5321,184198.59446059616,2010-11-18 14:55:14,2671.3625236127878,7,16,-1.0997490882873535,3.514714479446411,15.881372727084036,15.740098310036684,63.35792617371196,57.55799663410281,-0.0001295089750783,0.0954576581716537,0,0,0
5322,184228.60968731475,2010-11-18 14:55:44,2701.377750241179,7,16,-1.099568486213684,3.5105056762695312,15.881372727084036,15.74926734473084,63.35792617371196,57.590203686233885,-9.713172767078504e-05,0.0954576581716537,0,0,0
5323,184258.6250931254,2010-11-18 14:56:14,2731.3931560518367,7,16,-1.0997490882873535,3.5058109760284424,15.881372727084036,15.75843645760462,63.35792617371196,57.62236986468007,-9.713172767078504e-05,0.0954576581716537,0,0,0
5324,184288.6402864908,2010-11-18 14:56:44,2761.4083493921366,7,16,-1.099568486213684,3.500954389572144,15.881372727084036,15.76760543604748,63.35792617371196,57.65449184346424,-9.713172767078504e-05,0.0954576581716537,0,0,0
5325,184318.6557718099,2010-11-18 14:57:14,2791.42383471126,7,16,-1.0997490882873535,3.495612144470215,15.881372727084036,15.77677455040438,63.35792617371196,57.68656795098666,-0.0001295089750783,0.0954576581716537,0,0,0
5326,184348.670907792,2010-11-18 14:57:44,2821.438970693385,7,16,-1.0997490882873535,3.489946126937866,15.881372727084036,15.785943587599531,63.35792617371196,57.71859295330068,-0.0001618862152099,0.0954576581716537,0,0,0
5327,184378.6862088462,2010-11-18 14:58:14,2851.454271752567,7,16,-1.0997490882873535,3.483308792114258,15.881372727084036,15.795112609748031,63.35792617371196,57.75056273929981,-0.0002590179501567,0.0954576581716537,0,0,0
5328,184408.70141459245,2010-11-18 14:58:44,2881.469477503846,7,16,-1.0997490882873535,3.476347684860229,15.881372727084036,15.804281581505965,63.35792617371196,57.78247079935688,-0.0001942634553415,0.0954576581716537,0,0,0
5329,184438.7167971902,2010-11-18 14:59:14,2911.4848601165986,7,16,-1.0997490882873535,3.4682533740997314,15.881372727084036,15.813450678948032,63.35792617371196,57.81430967519206,-0.0001942634553415,0.0954576581716537,0,0,0
5330,184468.7321136127,2010-11-18 14:59:44,2941.500176544143,7,16,-1.0997490882873535,3.458540201187134,15.881372727084036,15.822619732478548,63.35792617371196,57.84606637211097,-0.0002590179501567,0.0954576581716537,0,0,0
5331,184498.74742250144,2010-11-18 15:00:14,2971.515485427856,7,16,-1.099929690361023,3.4465606212615967,15.881372727084036,15.831788939875592,63.35792617371196,57.8777252979143,-0.0003561496851034,0.0954576581716537,0,0,0
5332,184528.7626318166,2010-11-18 15:00:44,3001.5306947179693,7,16,-1.0997490882873535,3.4318289756774902,15.881372727084036,15.840958741804004,63.35792617371196,57.90926437609392,-0.0003885269106831,0.0954576581716537,0,0,0
5333,184558.7780587149,2010-11-18 15:01:14,3031.5461216463405,7,16,-1.099929690361023,3.412240982055664,15.881372727084036,15.850128471227404,63.35792617371196,57.94064769279224,-0.0005827903514727,0.0954576581716537,0,0,0
5334,184588.7933282404,2010-11-18 15:01:44,3061.5613911417345,7,16,-1.099929690361023,3.38698673248291,15.881372727084036,15.859298380053684,63.35792617371196,57.971827999938526,-0.0007446765666827,0.0954576581716537,0,0,0
5335,184618.80862773565,2010-11-18 15:02:14,3091.5766906570634,7,16,-1.099929690361023,3.3525049686431885,15.881372727084036,15.86846828811151,63.35792617371196,58.002736275128406,-0.0010684489971026,0.0954576581716537,0,0,0
5336,184648.82405043347,2010-11-18 15:02:44,3121.5921133548745,7,16,-1.0997490882873535,3.304910659790039,15.881372727084036,15.877638229965706,63.35792617371196,58.03327146015901,-0.0014245987404137,0.0954576581716537,0,0,0
5337,184678.8391490122,2010-11-18 15:03:14,3151.6072119386467,7,16,-1.099568486213684,3.2380518913269043,15.881372727084036,15.886808000192373,63.35792617371196,58.06328772158297,-0.0020397664047777,0.0954576581716537,0,0,0
5338,184708.8546992484,2010-11-18 15:03:44,3181.622762174813,7,16,-1.099929690361023,3.139787197113037,15.881372727084036,15.89597702336794,63.35792617371196,58.09255765426409,-0.0031405924819409,0.0954576581716537,0,0,0
5339,184738.8700042925,2010-11-18 15:04:14,3211.638067203905,7,16,-1.099929690361023,2.979520320892334,15.881372727084036,15.90514600574898,63.35792617371196,58.12068983106632,-0.0056983949616551,0.0954576581716537,0,0,0
5340,184758.32278432924,2010-11-18 15:04:34,3231.0908472305878,7,16,-1.099568486213684,2.7792677879333496,15.881372727084036,15.911088406624623,63.35792617371196,58.1378566481489,-0.0100692752748727,0.0954576581716537,0,0,0
5341,184764.1821039825,2010-11-18 15:04:39,3236.950166883876,7,16,-1.0997490882873535,2.699943780899048,15.881372727084036,15.912878294428854,63.35792617371196,58.14276106175587,-0.0109110828489065,0.0954576581716537,0,0,0
5342,184824.1960912662,2010-11-18 15:05:39,60.01497368739662,8,16,0.0,3.3147857189178467,15.881372727084036,15.912878294428854,63.35792617371196,58.14276106175587,0.0011655807029455,0.0954576581716537,0,0,0
5343,184824.3831667448,2010-11-18 15:05:40,0.187422766058353,9,16,-1.9243103452026844e-05,3.315271377563477,15.881372727084036,15.912878295430684,63.35792617371196,58.14276106507722,0.0,0.0947341993451118,0,0,0
5344,184829.21135555187,2010-11-18 15:05:45,5.01561158314408,9,16,0.0003419754502829,3.3227181434631348,15.881373545228112,15.912878295597665,63.35792888984633,58.14276106563097,0.0010360718006268,0.0947341993451118,0,0,0
