Data_Point,Test_Time(s),Date_Time,Step_Time(s),Step_Index,Cycle_Index,Current(A),Voltage(V),Charge_Capacity(Ah),Discharge_Capacity(Ah),Charge_Energy(Wh),Discharge_Energy(Wh),dV/dt(V/s),Internal_Resistance(Ohm),Is_FC_Data,AC_Impedance(Ohm),ACI_Phase_Angle(Deg)
10234,354912.2515768571,2010-11-20 14:20:45,30.015338768310126,1,32,0.0,3.33987808227539,30.456979380675183,30.487305580287064,121.5691169201638,111.20487095869764,0.0008094310760498,0.0925559401512146,0,0,0
10235,354942.2669524573,2010-11-20 14:21:15,60.03071436855844,1,32,0.0,3.363027572631836,30.456979380675183,30.487305580287064,121.5691169201638,111.20487095869764,0.0006151676061563,0.0925559401512146,0,0,0
10236,354972.2823448545,2010-11-20 14:21:45,90.04610676573446,1,32,0.0,3.3803493976593018,30.456979380675183,30.487305580287064,121.5691169201638,111.20487095869764,0.0003885269106831,0.0925559401512146,0,0,0
10237,355002.25081772835,2010-11-20 14:22:15,120.01457964457435,1,32,0.0,3.3944334983825684,30.456979380675183,30.487305580287064,121.5691169201638,111.20487095869764,0.0003237724304199,0.0925559401512146,0,0,0
10238,355032.2669854596,2010-11-20 14:22:46,30.01724769328053,2,32,0.550297200679779,3.557452440261841,30.461567324821367,30.487305580287064,121.585260303302,111.20487095869764,0.0017807483673095,0.0925559401512146,0,0,0
10239,355062.2804521249,2010-11-20 14:23:16,60.03071437357095,2,32,0.550297200679779,3.609903335571289,30.466154562783792,30.487305580287064,121.6017062886386,111.20487095869764,0.0011979580158367,0.0925559401512146,0,0,0
10240,355092.2958158054,2010-11-20 14:23:46,90.04607807411577,2,32,0.550297200679779,3.64875602722168,30.4707421758865,30.487305580287064,121.6183598103954,111.20487095869764,0.0009389400365762,0.0925559401512146,0,0,0
10241,355122.3111720573,2010-11-20 14:24:16,120.06143432105524,2,32,0.5504778623580933,3.679352283477783,30.47532978753553,30.487305580287064,121.63517110734315,111.20487095869764,0.0007770538213662,0.0925559401512146,0,0,0
10242,355152.3265827652,2010-11-20 14:24:46,150.07684503395015,2,32,0.550297200679779,3.704444646835327,30.479917338124345,30.487305580287064,121.6521095661288,111.20487095869764,0.0006151676061563,0.0925559401512146,0,0,0
10243,355182.3418873632,2010-11-20 14:25:16,180.09214962695344,2,32,0.5501165986061096,3.725651741027832,30.48450489625175,30.487305580287064,121.66915400049425,111.20487095869764,0.0005180359003134,0.0925559401512146,0,0,0
10244,355212.3572402819,2010-11-20 14:25:46,210.10750255059745,2,32,0.550297200679779,3.743135452270508,30.489092471111466,30.487305580287064,121.6862868205582,111.20487095869764,0.0004532813909463,0.0925559401512146,0,0,0
10245,355242.3726025789,2010-11-20 14:26:16,240.1228648426264,2,32,0.550297200679779,3.756247997283936,30.493680032884445,30.487305580287064,121.70349054869314,111.20487095869764,0.0002590179501567,0.0925559401512146,0,0,0
10246,355272.38797645486,2010-11-20 14:26:46,270.13823871857056,2,32,0.5501165986061096,3.7646660804748535,30.49826756778914,30.487305580287064,121.72074362953263,111.20487095869764,0.0001942634553415,0.0925559401512146,0,0,0
10247,355302.40332806023,2010-11-20 14:27:16,300.153590323924,2,32,0.5501165986061096,3.770170211791992,30.50285509237224,30.487305580287064,121.73802736268954,111.20487095869764,0.0001295089750783,0.0925559401512146,0,0,0
10248,355332.41867963044,2010-11-20 14:27:46,330.16894189418974,2,32,0.550297200679779,3.774379253387451,30.507442684022628,30.487305580287064,121.75533264344284,111.20487095869764,0.0001295089750783,0.0925559401512146,0,0,0
10249,355362.43421389174,2010-11-20 14:28:16,360.1844761454554,2,32,0.5501165986061096,3.77810263633728,30.51203021993188,30.487305580287064,121.77265595707613,111.20487095869764,9.713172767078504e-05,0.0925559401512146,0,0,0
10250,355392.4494056932,2010-11-20 14:28:46,390.1996679569387,2,32,0.5501165986061096,3.7816641330718994,30.516617768439843,30.487305580287064,121.7899963389556,111.20487095869764,9.713172767078504e-05,0.0925559401512146,0,0,0
10251,355422.46488539834,2010-11-20 14:29:16,420.2151476470112,2,32,0.5501165986061096,3.7850637435913086,30.52120533379716,30.487305580287064,121.8073529487532,111.20487095869764,6.47544875391759e-05,0.0925559401512146,0,0,0
10252,355452.48025190085,2010-11-20 14:29:46,450.23051416458776,2,32,0.5501165986061096,3.788301467895508,30.52579292006333,30.487305580287064,121.824725236479,111.20487095869764,6.47544875391759e-05,0.0925559401512146,0,0,0
10253,355482.4954833463,2010-11-20 14:30:16,480.2457456100034,2,32,0.5501165986061096,3.791701078414917,30.530380495528327,30.487305580287064,121.84211249756076,111.20487095869764,9.713172767078504e-05,0.0925559401512146,0,0,0
10254,355512.5108508914,2010-11-20 14:30:46,510.261113155145,2,32,0.550297200679779,3.794938802719116,30.534968110945243,30.487305580287064,121.85951449966078,111.20487095869764,9.713172767078504e-05,0.0925559401512146,0,0,0
10255,355542.5263341554,2010-11-20 14:31:16,540.276596404101,2,32,0.5501165986061096,3.797852754592896,30.53955574697696,30.487305580287064,121.87693085555829,111.20487095869764,6.47544875391759e-05,0.0925559401512146,0,0,0
10256,355572.5416020168,2010-11-20 14:31:46,570.2918642804539,2,32,0.5501165986061096,3.8009285926818848,30.54414338070032,30.487305580287064,121.89436125312916,111.20487095869764,6.47544875391759e-05,0.0925559401512146,0,0,0
10257,355602.5569269154,2010-11-20 14:32:16,600.3071891791433,2,32,0.5501165986061096,3.804004430770874,30.5487310440054,30.487305580287064,121.91180556356946,111.20487095869764,6.47544875391759e-05,0.0925559401512146,0,0,0
10258,355632.57417642826,2010-11-20 14:32:46,630.3244386669032,2,32,0.550297200679779,3.806918382644653,30.553318867322613,30.487305580287064,121.92926414531875,111.20487095869764,9.713172767078504e-05,0.0925559401512146,0,0,0
10259,355662.5877770379,2010-11-20 14:33:16,660.3380393015643,2,32,0.5501165986061096,3.8098323345184326,30.557905462505865,30.487305580287064,121.9467315979444,111.20487095869764,3.237724376958795e-05,0.0925559401512146,0,0,0
10260,355692.60301780154,2010-11-20 14:33:46,690.3532800652398,2,32,0.5501165986061096,3.812908172607422,30.56249233995577,30.487305580287064,121.96421397353446,111.20487095869764,6.47544875391759e-05,0.0925559401512146,0,0,0
10261,355722.618368284,2010-11-20 14:34:16,720.368630552803,2,32,0.5501165986061096,3.815984010696411,30.567079165664605,30.487305580287064,121.9817106300648,111.20487095869764,6.47544875391759e-05,0.0925559401512146,0,0,0
10262,355752.6338581395,2010-11-20 14:34:46,750.3841203881998,2,32,0.5501165986061096,3.81938362121582,30.57166617702745,30.487305580287064,121.99922254778498,111.20487095869764,6.47544875391759e-05,0.0925559401512146,0,0,0
10263,355782.6491235196,2010-11-20 14:35:16,780.3993857883719,2,32,0.5501165986061096,3.8224594593048096,30.576253795584197,30.487305580287064,122.01675182880854,111.20487095869764,6.47544875391759e-05,0.0925559401512146,0,0,0
10264,355812.66457201686,2010-11-20 14:35:46,810.4148342805696,2,32,0.550297200679779,3.8260209560394287,30.58084146205886,30.487305580287064,122.0342966208876,111.20487095869764,6.47544875391759e-05,0.0925559401512146,0,0,0
10265,355842.67993801314,2010-11-20 14:36:16,840.4302002618072,2,32,0.550297200679779,3.829582452774048,30.58542912519785,30.487305580287064,122.0518571111444,111.20487095869764,0.0001295089750783,0.0925559401512146,0,0,0
10266,355872.69541283103,2010-11-20 14:36:46,870.4456750897432,2,32,0.550297200679779,3.832982063293457,30.59001675639825,30.487305580287064,122.06943326950469,111.20487095869764,0.0001295089750783,0.0925559401512146,0,0,0
10267,355902.71051396616,2010-11-20 14:37:16,900.460776229897,2,32,0.5501165986061096,3.836219549179077,30.59460431714149,30.487305580287064,122.08702500690706,111.20487095869764,6.47544875391759e-05,0.0925559401512146,0,0,0
10268,355932.7258764086,2010-11-20 14:37:46,930.4761386723012,2,32,0.5504778623580933,3.839942932128906,30.59919192748378,30.487305580287064,122.10463276781384,111.20487095869764,0.0001295089750783,0.0925559401512146,0,0,0
10269,355962.74136001844,2010-11-20 14:38:16,960.491622282158,2,32,0.5501165986061096,3.8431806564331055,30.603779514264403,30.487305580287064,122.12225613261754,111.20487095869764,6.47544875391759e-05,0.0925559401512146,0,0,0
10270,355992.7567556336,2010-11-20 14:38:46,990.5070178973668,2,32,0.550297200679779,3.8467421531677246,30.608367124658308,30.487305580287064,122.13989496936703,111.20487095869764,9.713172767078504e-05,0.0925559401512146,0,0,0
10271,356022.7721318805,2010-11-20 14:39:16,1020.5223941492418,2,32,0.550297200679779,3.849817991256714,30.6129547105988,30.487305580287064,122.15754900750672,111.20487095869764,9.713172767078504e-05,0.0925559401512146,0,0,0
10272,356052.7872941783,2010-11-20 14:39:46,1050.5375564270043,2,32,0.550297200679779,3.853217601776123,30.61754226474493,30.487305580287064,122.17521793971116,111.20487095869764,9.713172767078504e-05,0.0925559401512146,0,0,0
10273,356082.8027841691,2010-11-20 14:40:16,1080.5530464328267,2,32,0.550297200679779,3.856293439865112,30.62212993004084,30.487305580287064,122.192901826296,111.20487095869764,9.713172767078504e-05,0.0925559401512146,0,0,0
10274,356112.81806761934,2010-11-20 14:40:46,1110.568329883054,2,32,0.550297200679779,3.8593692779541016,30.62671754860317,30.487305580287064,122.21059976935526,111.20487095869764,0.0001295089750783,0.0925559401512146,0,0,0
10275,356142.83354063774,2010-11-20 14:41:16,1140.5838029014733,2,32,0.5501165986061096,3.862283229827881,30.63130518277892,30.487305580287064,122.22831146868604,111.20487095869764,9.713172767078504e-05,0.0925559401512146,0,0,0
10276,356172.8487762786,2010-11-20 14:41:46,1170.5990385423615,2,32,0.5501165986061096,3.86503529548645,30.63589279808481,30.487305580287064,122.24603617018624,111.20487095869764,9.713172767078504e-05,0.0925559401512146,0,0,0
10277,356202.8641646658,2010-11-20 14:42:16,1200.6144269144902,2,32,0.5504778623580933,3.86778736114502,30.640480367262924,30.487305580287064,122.26377327617142,111.20487095869764,6.47544875391759e-05,0.0925559401512146,0,0,0
10278,356232.88252333726,2010-11-20 14:42:46,1230.6327857212814,2,32,0.550297200679779,3.870377540588379,30.6450684338301,30.487305580287064,122.28152434697888,111.20487095869764,9.713172767078504e-05,0.0925559401512146,0,0,0
10279,356262.8948854504,2010-11-20 14:43:16,1260.6451476990642,2,32,0.550297200679779,3.8726439476013184,30.6496555923746,30.487305580287064,122.29928335658192,111.20487095869764,6.47544875391759e-05,0.0925559401512146,0,0,0
10280,356292.91024910583,2010-11-20 14:43:46,1290.6605113544963,2,32,0.550297200679779,3.874748468399048,30.65424323706549,30.487305580287064,122.31705497794503,111.20487095869764,3.237724376958795e-05,0.0925559401512146,0,0,0
10281,356322.9255839593,2010-11-20 14:44:16,1320.6758462080347,2,32,0.550297200679779,3.8770148754119873,30.658830809060145,30.487305580287064,122.33483636731935,111.20487095869764,3.237724376958795e-05,0.0925559401512146,0,0,0
10282,356352.9409464268,2010-11-20 14:44:46,1350.691208680514,2,32,0.5501165986061096,3.878957509994507,30.66341836800404,30.487305580287064,122.3526271840957,111.20487095869764,3.237724376958795e-05,0.0925559401512146,0,0,0
10283,356382.95641714946,2010-11-20 14:45:16,1380.70667939819,2,32,0.550297200679779,3.8809001445770255,30.66800599202867,30.487305580287064,122.37042703820208,111.20487095869764,6.47544875391759e-05,0.0925559401512146,0,0,0
10284,356412.9717166498,2010-11-20 14:45:46,1410.7219789185312,2,32,0.550297200679779,3.882519006729126,30.672593622886957,30.487305580287064,122.38823519600028,111.20487095869764,3.237724376958795e-05,0.0925559401512146,0,0,0
10285,356442.98701358365,2010-11-20 14:46:16,1440.737275832366,2,32,0.5501165986061096,3.8841378688812256,30.677181210778425,30.487305580287064,122.40605095722736,111.20487095869764,0.0,0.0925559401512146,0,0,0
10286,356473.0025111233,2010-11-20 14:46:46,1470.752773371994,2,32,0.5501165986061096,3.885756731033325,30.681768861998737,30.487305580287064,122.42387424755472,111.20487095869764,3.237724376958795e-05,0.0925559401512146,0,0,0
10287,356503.0177319472,2010-11-20 14:47:16,1500.7679941958966,2,32,0.550297200679779,3.887375593185425,30.68635643400148,30.487305580287064,122.4417042955856,111.20487095869764,3.237724376958795e-05,0.0925559401512146,0,0,0
10288,356533.03321379266,2010-11-20 14:47:46,1530.783476041349,2,32,0.550297200679779,3.8888325691223145,30.690944006557764,30.487305580287064,122.4595410773,111.20487095869764,3.237724376958795e-05,0.0925559401512146,0,0,0
10289,356563.04845144856,2010-11-20 14:48:16,1560.79871370228,2,32,0.5499359965324402,3.889965772628784,30.69553162772628,30.487305580287064,122.47738463252414,111.20487095869764,-3.237724376958795e-05,0.0925559401512146,0,0,0
10290,356593.06384353,2010-11-20 14:48:46,1590.8141057936923,2,32,0.550297200679779,3.8917465209960938,30.700119218135043,30.487305580287064,122.49523445309562,111.20487095869764,6.47544875391759e-05,0.0925559401512146,0,0,0
10291,356623.0791912205,2010-11-20 14:49:16,1620.8294534842742,2,32,0.5501165986061096,3.893041610717773,30.704706841587456,30.487305580287064,122.51309068874971,111.20487095869764,6.47544875391759e-05,0.0925559401512146,0,0,0
10292,356653.0946490461,2010-11-20 14:49:46,1650.8449113097697,2,32,0.5504778623580933,3.894498586654663,30.709294375993643,30.487305580287064,122.53095275525384,111.20487095869764,6.47544875391759e-05,0.0925559401512146,0,0,0
10293,356683.1098918698,2010-11-20 14:50:16,1680.8601541335877,2,32,0.550297200679779,3.895469903945923,30.713882044642908,30.487305580287064,122.54882108929417,111.20487095869764,0.0,0.0925559401512146,0,0,0
10294,356713.12527371064,2010-11-20 14:50:46,1710.8755359643878,2,32,0.550297200679779,3.896926879882813,30.71846958193969,30.487305580287064,122.56669502958356,111.20487095869764,3.237724376958795e-05,0.0925559401512146,0,0,0
10295,356743.1405998524,2010-11-20 14:51:16,1740.8908621162054,2,32,0.550297200679779,3.898383855819702,30.72305708223428,30.487305580287064,122.58457490650036,111.20487095869764,9.713172767078504e-05,0.0925559401512146,0,0,0
10296,356773.1560943495,2010-11-20 14:51:46,1770.9063566032137,2,32,0.550297200679779,3.899517059326172,30.727644677037496,30.487305580287064,122.60246128914308,111.20487095869764,6.47544875391759e-05,0.0925559401512146,0,0,0
10297,356803.1715314132,2010-11-20 14:52:16,1800.9217936618716,2,32,0.550297200679779,3.901135921478272,30.73223231751801,30.487305580287064,122.62035396473864,111.20487095869764,6.47544875391759e-05,0.0925559401512146,0,0,0
10298,356833.18860626,2010-11-20 14:52:46,1830.938868503688,2,32,0.5501165986061096,3.902269124984741,30.736820160073943,30.487305580287064,122.63825357737424,111.20487095869764,6.47544875391759e-05,0.0925559401512146,0,0,0
10299,356863.2020845342,2010-11-20 14:53:17,1860.9523467979689,2,32,0.550297200679779,3.903564214706421,30.74140743627559,30.487305580287064,122.65615712122064,111.20487095869764,3.237724376958795e-05,0.0925559401512146,0,0,0
10300,356893.2174051923,2010-11-20 14:53:47,1890.967667441036,2,32,0.5501165986061096,3.90469741821289,30.745995013840137,30.487305580287064,122.67406806863612,111.20487095869764,0.0,0.0925559401512146,0,0,0
10301,356923.2327791084,2010-11-20 14:54:17,1920.9830413721177,2,32,0.5501165986061096,3.90615439414978,30.750582638626597,30.487305580287064,122.69198526799268,111.20487095869764,3.237724376958795e-05,0.0925559401512146,0,0,0
10302,356953.2481381573,2010-11-20 14:54:47,1950.9984004060136,2,32,0.550297200679779,3.90761137008667,30.7551702095466,30.487305580287064,122.70990854830336,111.20487095869764,3.237724376958795e-05,0.0925559401512146,0,0,0
10303,356983.26349480025,2010-11-20 14:55:17,1981.0137570489417,2,32,0.5501165986061096,3.9089064598083496,30.759757750471035,30.487305580287064,122.72783791491923,111.20487095869764,0.0,0.0925559401512146,0,0,0
10304,357013.27884419006,2010-11-20 14:55:47,2011.029106453802,2,32,0.550297200679779,3.9103634357452393,30.76434527705244,30.487305580287064,122.74577358969614,111.20487095869764,0.0,0.0925559401512146,0,0,0
10305,357043.2942594593,2010-11-20 14:56:17,2041.0445217130448,2,32,0.5501165986061096,3.911658525466919,30.76893283899153,30.487305580287064,122.76371567872872,111.20487095869764,3.237724376958795e-05,0.0925559401512146,0,0,0
10306,357073.3095783129,2010-11-20 14:56:47,2071.05984057667,2,32,0.550297200679779,3.9131155014038086,30.773520404749835,30.487305580287064,122.78166424960602,111.20487095869764,3.237724376958795e-05,0.0925559401512146,0,0,0
10307,357103.32501215354,2010-11-20 14:57:17,2101.075274522558,2,32,0.550297200679779,3.914410352706909,30.77810799483815,30.487305580287064,122.7996193702716,111.20487095869764,3.237724376958795e-05,0.0925559401512146,0,0,0
10308,357133.3404124856,2010-11-20 14:57:47,2131.0906747492786,2,32,0.5501165986061096,3.915705442428589,30.782695600345857,30.487305580287064,122.81758094871796,111.20487095869764,3.237724376958795e-05,0.0925559401512146,0,0,0
10309,357163.3556450387,2010-11-20 14:58:17,2161.105907302459,2,32,0.550297200679779,3.9174861907958975,30.78728314013029,30.487305580287064,122.83554876363738,111.20487095869764,6.47544875391759e-05,0.0925559401512146,0,0,0
10310,357193.3710223432,2010-11-20 14:58:47,2191.121284606961,2,32,0.550297200679779,3.918781280517578,30.7918707119968,30.487305580287064,122.8535232866805,111.20487095869764,3.237724376958795e-05,0.0925559401512146,0,0,0
10311,357223.3863730814,2010-11-20 14:59:17,2221.1366353501626,2,32,0.550297200679779,3.9204001426696777,30.796458267837025,30.487305580287064,122.8715043996784,111.20487095869764,3.237724376958795e-05,0.0925559401512146,0,0,0
10312,357253.4017648771,2010-11-20 14:59:47,2251.152027125787,2,32,0.5501165986061096,3.921695232391357,30.801045849057445,30.487305580287064,122.8894921584196,111.20487095869764,6.47544875391759e-05,0.0925559401512146,0,0,0
10313,357283.4170939813,2010-11-20 15:00:17,2281.167356245011,2,32,0.550297200679779,3.923314094543457,30.80563339093541,30.487305580287064,122.90748645782864,111.20487095869764,9.713172767078504e-05,0.0925559401512146,0,0,0
10314,357313.4324546744,2010-11-20 15:00:47,2311.182716943062,2,32,0.550297200679779,3.9247710704803462,30.810220977984635,30.487305580287064,122.92548766960104,111.20487095869764,9.713172767078504e-05,0.0925559401512146,0,0,0
10315,357343.44781011925,2010-11-20 15:01:17,2341.1980723829865,2,32,0.5501165986061096,3.9260661602020255,30.814808548352616,30.487305580287064,122.94349558995492,111.20487095869764,0.0,0.0925559401512146,0,0,0
10316,357373.4632954584,2010-11-20 15:01:47,2371.213557707123,2,32,0.550297200679779,3.927523136138916,30.81939611471284,30.487305580287064,122.96151019753356,111.20487095869764,3.237724376958795e-05,0.0925559401512146,0,0,0
10317,357403.47852955543,2010-11-20 15:02:17,2401.228791804157,2,32,0.550297200679779,3.929141998291016,30.823983693775432,30.487305580287064,122.97953180084588,111.20487095869764,6.47544875391759e-05,0.0925559401512146,0,0,0
10318,357433.49577715347,2010-11-20 15:02:47,2431.246039487413,2,32,0.550297200679779,3.9307608604431152,30.828571508495465,30.487305580287064,122.99756122456994,111.20487095869764,9.713172767078504e-05,0.0925559401512146,0,0,0
10319,357463.5093018436,2010-11-20 15:03:17,2461.259564092292,2,32,0.550297200679779,3.932217836380005,30.833158833422537,30.487305580287064,123.01559567208338,111.20487095869764,6.47544875391759e-05,0.0925559401512146,0,0,0
10320,357493.52473725314,2010-11-20 15:03:47,2491.274999506846,2,32,0.550297200679779,3.9336748123168954,30.83774636061997,30.487305580287064,123.03363788411104,111.20487095869764,3.237724376958795e-05,0.0925559401512146,0,0,0
10321,357523.54000328487,2010-11-20 15:04:17,2521.290265538594,2,32,0.550297200679779,3.935293674468994,30.842333940855912,30.487305580287064,123.0516872620526,111.20487095869764,3.237724376958795e-05,0.0925559401512146,0,0,0
10322,357553.5553585344,2010-11-20 15:04:47,2551.305620783032,2,32,0.550297200679779,3.936588764190674,30.84692155638369,30.487305580287064,123.0697437708877,111.20487095869764,3.237724376958795e-05,0.0925559401512146,0,0,0
10323,357583.57081919187,2010-11-20 15:05:17,2581.321081440596,2,32,0.550297200679779,3.938369512557984,30.85150919033171,30.487305580287064,123.08780759219434,111.20487095869764,3.237724376958795e-05,0.0925559401512146,0,0,0
10324,357613.586185133,2010-11-20 15:05:47,2611.3364473817333,2,32,0.550297200679779,3.939826488494873,30.85609677247764,30.487305580287064,123.10587832938972,111.20487095869764,3.237724376958795e-05,0.0925559401512146,0,0,0
10325,357643.6014153604,2010-11-20 15:06:17,2641.3516776241463,2,32,0.550297200679779,3.9414453506469727,30.86068434866532,30.487305580287064,123.1239563321218,111.20487095869764,3.237724376958795e-05,0.0925559401512146,0,0,0
10326,357673.6169656868,2010-11-20 15:06:47,2671.3672279355005,2,32,0.550297200679779,3.943064212799072,30.865271966688773,30.487305580287064,123.1420417026174,111.20487095869764,6.47544875391759e-05,0.0925559401512146,0,0,0
10327,357703.632128927,2010-11-20 15:07:17,2701.382391190703,2,32,0.550297200679779,3.944683074951172,30.86985953013733,30.487305580287064,123.160134259586,111.20487095869764,6.47544875391759e-05,0.0925559401512146,0,0,0
10328,357733.6476233538,2010-11-20 15:07:47,2731.397885617561,2,32,0.550297200679779,3.946301937103272,30.874447125030304,30.487305580287064,123.178234340779,111.20487095869764,6.47544875391759e-05,0.0925559401512146,0,0,0
10329,357763.66286216263,2010-11-20 15:08:17,2761.413124411319,2,32,0.550297200679779,3.947920799255371,30.87903470813569,30.487305580287064,123.19634173580717,111.20487095869764,3.237724376958795e-05,0.0925559401512146,0,0,0
10330,357793.67825052975,2010-11-20 15:08:47,2791.428512778436,2,32,0.5501165986061096,3.9493777751922607,30.883622236160747,30.487305580287064,123.21445648122106,111.20487095869764,0.0,0.0925559401512146,0,0,0
10331,357823.69372137776,2010-11-20 15:09:17,2821.4439836464867,2,32,0.550297200679779,3.95132040977478,30.88820975281407,30.487305580287064,123.23257879621384,111.20487095869764,9.713172767078504e-05,0.0925559401512146,0,0,0
10332,357853.7090876497,2010-11-20 15:09:47,2851.459349913438,2,32,0.5501165986061096,3.95277738571167,30.892797388130585,30.487305580287064,123.25070924402829,111.20487095869764,3.237724376958795e-05,0.0925559401512146,0,0,0
10333,357883.72432831314,2010-11-20 15:10:17,2881.4745905768627,2,32,0.550297200679779,3.9543962478637695,30.89738485787732,30.487305580287064,123.268846705083,111.20487095869764,0.0,0.0925559401512146,0,0,0
10334,357913.7396756128,2010-11-20 15:10:47,2911.4899378764685,2,32,0.5501165986061096,3.956338882446289,30.901972446836183,30.487305580287064,123.28699243124495,111.20487095869764,6.47544875391759e-05,0.0925559401512146,0,0,0
10335,357943.7552591971,2010-11-20 15:11:17,2941.5055214709023,2,32,0.5501165986061096,3.9579577445983887,30.90656011269019,30.487305580287064,123.305146199206,111.20487095869764,3.237724376958795e-05,0.0925559401512146,0,0,0
10336,357973.7703823372,2010-11-20 15:11:47,2971.520644600946,2,32,0.5501165986061096,3.959576606750488,30.911147605614225,30.487305580287064,123.32330719371863,111.20487095869764,3.237724376958795e-05,0.0925559401512146,0,0,0
10337,358003.78575868934,2010-11-20 15:12:17,3001.536020943046,2,32,0.5504778623580933,3.961519241333008,30.91573518594071,30.487305580287064,123.341476525313,111.20487095869764,6.47544875391759e-05,0.0925559401512146,0,0,0
10338,358033.8029774003,2010-11-20 15:12:47,3031.5532396640074,2,32,0.5499359965324402,3.9631381034851074,30.92032239373458,30.487305580287064,123.35965223749098,111.20487095869764,3.237724376958795e-05,0.0925559401512146,0,0,0
10339,358063.8164915741,2010-11-20 15:13:17,3061.5667539230617,2,32,0.5501165986061096,3.964918851852417,30.92490893752485,30.487305580287064,123.37783339097928,111.20487095869764,3.237724376958795e-05,0.0925559401512146,0,0,0
10340,358093.8320163818,2010-11-20 15:13:47,3091.5822786305043,2,32,0.550297200679779,3.966699600219727,30.929496514808204,30.487305580287064,123.39602700320832,111.20487095869764,0.0,0.0925559401512146,0,0,0
10341,358123.84718951664,2010-11-20 15:14:17,3121.597451765368,2,32,0.5501165986061096,3.968480348587036,30.934084119195088,30.487305580287064,123.4142289389565,111.20487095869764,6.47544875391759e-05,0.0925559401512146,0,0,0
10342,358153.86543285026,2010-11-20 15:14:47,3151.61569519917,2,32,0.5501165986061096,3.970422983169556,30.93867215991052,30.487305580287064,123.43244099052173,111.20487095869764,6.47544875391759e-05,0.0925559401512146,0,0,0
10343,358183.8779164014,2010-11-20 15:15:17,3181.628178650169,2,32,0.550297200679779,3.972527503967285,30.94325932254907,30.487305580287064,123.45065810782232,111.20487095869764,9.713172767078504e-05,0.0925559401512146,0,0,0
10344,358213.8933075054,2010-11-20 15:15:47,3211.643569769155,2,32,0.5501165986061096,3.973984479904175,30.9478469332502,30.487305580287064,123.46888556464243,111.20487095869764,3.237724376958795e-05,0.0925559401512146,0,0,0
10345,358243.9086393364,2010-11-20 15:16:17,3241.6589015901227,2,32,0.5504778623580933,3.976089000701904,30.95243452360634,30.487305580287064,123.48712162384948,111.20487095869764,3.237724376958795e-05,0.0925559401512146,0,0,0
10346,358273.92400185904,2010-11-20 15:16:47,3271.674264107715,2,32,0.550297200679779,3.977707862854004,30.95702213652863,30.487305580287064,123.50536650211572,111.20487095869764,0.0,0.0925559401512146,0,0,0
10347,358303.9394133739,2010-11-20 15:17:17,3301.689675622612,2,32,0.550297200679779,3.979974269866944,30.96160977089904,30.487305580287064,123.52362016360676,111.20487095869764,6.47544875391759e-05,0.0925559401512146,0,0,0
10348,358333.9547143028,2010-11-20 15:17:47,3331.7049765665065,2,32,0.5501165986061096,3.981755018234253,30.9661973247683,30.487305580287064,123.5418828680262,111.20487095869764,3.237724376958795e-05,0.0925559401512146,0,0,0
10349,358363.9702016419,2010-11-20 15:18:17,3361.720463905672,2,32,0.5501165986061096,3.9838595390319824,30.970784840939405,30.487305580287064,123.56015450433644,111.20487095869764,3.237724376958795e-05,0.0925559401512146,0,0,0
10350,358393.9855705104,2010-11-20 15:18:47,3391.735832774117,2,32,0.5501165986061096,3.985802173614502,30.975372318773896,30.487305580287064,123.57843520061382,111.20487095869764,3.237724376958795e-05,0.0925559401512146,0,0,0
10351,358424.00094533875,2010-11-20 15:19:17,3421.7512076024386,2,32,0.550297200679779,3.9880685806274414,30.979959832691588,30.487305580287064,123.59672540290596,111.20487095869764,9.713172767078504e-05,0.0925559401512146,0,0,0
10352,358454.01629734505,2010-11-20 15:19:47,3451.7665596087927,2,32,0.5499359965324402,3.989849328994751,30.984547361638302,30.487305580287064,123.61502494797804,111.20487095869764,3.237724376958795e-05,0.0925559401512146,0,0,0
10353,358484.0315273669,2010-11-20 15:20:17,3481.781789630655,2,32,0.550297200679779,3.9921157360076895,30.98913485146887,30.487305580287064,123.63333384392018,111.20487095869764,6.47544875391759e-05,0.0925559401512146,0,0,0
10354,358514.0469999092,2010-11-20 15:20:47,3511.7972622029606,2,32,0.5501165986061096,3.994220018386841,30.99372244620523,30.487305580287064,123.651652795646,111.20487095869764,3.237724376958795e-05,0.0925559401512146,0,0,0
10355,358544.0623758202,2010-11-20 15:21:17,3541.812638068872,2,32,0.5501165986061096,3.9963245391845694,30.99830999429801,30.487305580287064,123.66998120080532,111.20487095869764,6.47544875391759e-05,0.0925559401512146,0,0,0
10356,358574.0776192104,2010-11-20 15:21:47,3571.827881474141,2,32,0.550297200679779,3.9984290599823,31.00289745975157,30.487305580287064,123.68831904907957,111.20487095869764,6.47544875391759e-05,0.0925559401512146,0,0,0
10357,358604.09298282576,2010-11-20 15:22:17,3601.843245074436,2,32,0.550297200679779,4.000695705413818,31.00748502039116,30.487305580287064,123.70666712254616,111.20487095869764,6.47544875391759e-05,0.0925559401512146,0,0,0
10358,358634.1102488548,2010-11-20 15:22:47,3631.8605111084976,2,32,0.5501165986061096,4.002799987792969,31.01207278371596,30.487305580287064,123.72502608185496,111.20487095869764,6.47544875391759e-05,0.0925559401512146,0,0,0
10359,358664.1237151792,2010-11-20 15:23:17,3661.8739774329,2,32,0.550297200679779,4.005228519439697,31.016660035755653,30.487305580287064,123.74339316126223,111.20487095869764,9.71794142969884e-05,0.0925559401512146,0,0,0
10360,358694.1391898267,2010-11-20 15:23:47,3691.8894520954223,2,32,0.5501165986061096,4.007332801818848,31.02124749610895,30.487305580287064,123.76177134117997,111.20487095869764,9.70840483205393e-05,0.0925559401512146,0,0,0
10361,358724.15448140213,2010-11-20 15:24:17,3721.904743650882,2,32,0.5501165986061096,4.009437561035156,31.025834999838796,30.487305580287064,123.7801600135078,111.20487095869764,3.24249267578125e-05,0.0925559401512146,0,0,0
10362,358754.1697929676,2010-11-20 15:24:47,3751.9200552162906,2,32,0.5501165986061096,4.011703968048096,31.030422496124302,30.487305580287064,123.79855898694056,111.20487095869764,3.24249267578125e-05,0.0925559401512146,0,0,0
10363,358784.185271585,2010-11-20 15:25:18,3781.9355338386977,2,32,0.5504778623580933,4.014132022857666,31.035010025059385,30.487305580287064,123.8169685674756,111.20487095869764,3.23295607813634e-05,0.0925559401512146,0,0,0
10364,358814.2005170655,2010-11-20 15:25:48,3811.9507793141343,2,32,0.550297200679779,4.0163984298706055,31.03959753132609,30.487305580287064,123.8353886160382,111.20487095869764,9.70840483205393e-05,0.0925559401512146,0,0,0
10365,358844.2158989313,2010-11-20 15:26:18,3841.966161195059,2,32,0.5501165986061096,4.018826961517334,31.044185054295177,30.487305580287064,123.85381943204882,111.20487095869764,3.24249267578125e-05,0.0925559401512146,0,0,0
10366,358874.2312423262,2010-11-20 15:26:48,3871.981504574881,2,32,0.550297200679779,4.021255016326904,31.04877264229014,30.487305580287064,123.87226122272976,111.20487095869764,0.0001295089750783,0.0925559401512146,0,0,0
10367,358904.2467235852,2010-11-20 15:27:18,3901.996985848907,2,32,0.5501165986061096,4.023521423339844,31.053360182070826,30.487305580287064,123.89071371771146,111.20487095869764,6.47544875391759e-05,0.0925559401512146,0,0,0
10368,358934.26203065435,2010-11-20 15:27:48,3932.012292918091,2,32,0.550297200679779,4.025949954986572,31.05794772775758,30.487305580287064,123.90917715231588,111.20487095869764,6.47544875391759e-05,0.0925559401512146,0,0,0
10369,358964.27732718724,2010-11-20 15:28:18,3962.027589450976,2,32,0.5501165986061096,4.028216361999512,31.062535280285072,30.487305580287064,123.92765171843048,111.20487095869764,3.24249267578125e-05,0.0925559401512146,0,0,0
10370,358994.29269043164,2010-11-20 15:28:48,3992.0429526953817,2,32,0.550297200679779,4.030806541442871,31.067122803645397,30.487305580287064,123.9461373567068,111.20487095869764,6.47544875391759e-05,0.0925559401512146,0,0,0
10371,359024.308044844,2010-11-20 15:29:18,4022.058307107743,2,32,0.550297200679779,4.033234596252441,31.071710354812115,30.487305580287064,123.9646344462806,111.20487095869764,6.47544875391759e-05,0.0925559401512146,0,0,0
10372,359054.3235433109,2010-11-20 15:29:48,4052.073805559646,2,32,0.5501165986061096,4.035662651062012,31.076297929567087,30.487305580287064,123.98314300760474,111.20487095869764,6.47544875391759e-05,0.0925559401512146,0,0,0
10373,359084.33877402457,2010-11-20 15:30:18,4082.0890362882737,2,32,0.550297200679779,4.03841495513916,31.080885453968527,30.487305580287064,124.00166288950356,111.20487095869764,6.47544875391759e-05,0.0925559401512146,0,0,0
10374,359114.3543611979,2010-11-20 15:30:48,4112.104623466654,2,32,0.550297200679779,4.0406813621521,31.085472994269363,30.487305580287064,124.02019433916838,111.20487095869764,3.24249267578125e-05,0.0925559401512146,0,0,0
10375,359144.3695487537,2010-11-20 15:31:18,4142.119811002464,2,32,0.5501165986061096,4.04343318939209,31.090060432466576,30.487305580287064,124.0387370175274,111.20487095869764,9.70840483205393e-05,0.0925559401512146,0,0,0
10376,359174.3848324195,2010-11-20 15:31:48,4172.135094683267,2,32,0.5501165986061096,4.045861721038818,31.094647921943924,30.487305580287064,124.05729168790776,111.20487095869764,6.47544875391759e-05,0.0925559401512146,0,0,0
10377,359204.400197689,2010-11-20 15:32:18,4202.150459952728,2,32,0.550297200679779,4.048451900482178,31.09923542834701,30.487305580287064,124.07585824308288,111.20487095869764,6.47544875391759e-05,0.0925559401512146,0,0,0
10378,359234.4174584649,2010-11-20 15:32:48,4232.167720728665,2,32,0.5501165986061096,4.051042079925537,31.10382326552716,30.487305580287064,124.09443813746093,111.20487095869764,3.24249267578125e-05,0.0925559401512146,0,0,0
10379,359264.43096933555,2010-11-20 15:33:18,4262.181231584224,2,32,0.550297200679779,4.053793907165527,31.10841047087821,30.487305580287064,124.11302755508328,111.20487095869764,9.70840483205393e-05,0.0925559401512146,0,0,0
10380,359294.4462899335,2010-11-20 15:33:48,4292.196552197215,2,32,0.550297200679779,4.056546211242676,31.112998007760226,30.487305580287064,124.13163053132068,111.20487095869764,0.0001295089750783,0.0925559401512146,0,0,0
10381,359324.4616701452,2010-11-20 15:34:18,4322.211932494188,2,32,0.5499359965324402,4.059136390686035,31.11758555249492,30.487305580287064,124.15024580012924,111.20487095869764,6.47544875391759e-05,0.0925559401512146,0,0,0
10382,359354.47719421104,2010-11-20 15:34:48,4352.227456474817,2,32,0.5499359965324402,4.0617265701293945,31.122173134002,30.487305580287064,124.1688733002488,111.20487095869764,6.47544875391759e-05,0.0925559401512146,0,0,0
10383,359384.4923744938,2010-11-20 15:35:18,4382.242636742484,2,32,0.550297200679779,4.064478397369385,31.12676058481133,30.487305580287064,124.18751260975044,111.20487095869764,9.70840483205393e-05,0.0925559401512146,0,0,0
10384,359414.5077889761,2010-11-20 15:35:48,4412.258051244839,2,32,0.5501165986061096,4.067230701446533,31.13134805442336,30.487305580287064,124.2061645942296,111.20487095869764,9.71794142969884e-05,0.0925559401512146,0,0,0
10385,359444.5233304504,2010-11-20 15:36:18,4442.273592699084,2,32,0.5501165986061096,4.069982528686523,31.135935566799883,30.487305580287064,124.224829503078,111.20487095869764,6.47544875391759e-05,0.0925559401512146,0,0,0
10386,359474.538519926,2010-11-20 15:36:48,4472.288782189773,2,32,0.550297200679779,4.072896480560303,31.140523039838257,30.487305580287064,124.24350712876642,111.20487095869764,6.47544875391759e-05,0.0925559401512146,0,0,0
10387,359504.553831286,2010-11-20 15:37:18,4502.304093549667,2,32,0.550297200679779,4.075810432434082,31.145110540686385,30.487305580287064,124.26219786354118,111.20487095869764,9.70840483205393e-05,0.0925559401512146,0,0,0
10388,359534.56931629934,2010-11-20 15:37:48,4532.319578547991,2,32,0.550297200679779,4.078562736511231,31.14969805638863,30.487305580287064,124.280901695515,111.20487095869764,9.71794142969884e-05,0.0925559401512146,0,0,0
10389,359564.58457751904,2010-11-20 15:38:18,4562.334839782765,2,32,0.550297200679779,4.08147668838501,31.154285568274133,30.487305580287064,124.2996186781242,111.20487095869764,9.71794142969884e-05,0.0925559401512146,0,0,0
10390,359594.5999462121,2010-11-20 15:38:48,4592.350208495822,2,32,0.5501165986061096,4.084390640258789,31.158873056887707,30.487305580287064,124.31834874261646,111.20487095869764,9.71794142969884e-05,0.0925559401512146,0,0,0
10391,359624.6152838325,2010-11-20 15:39:18,4622.3655461012295,2,32,0.550297200679779,4.087304592132568,31.163460564102312,30.487305580287064,124.3370923640226,111.20487095869764,9.71794142969884e-05,0.0925559401512146,0,0,0
10392,359654.6307735927,2010-11-20 15:39:48,4652.381035861439,2,32,0.5501165986061096,4.090218544006348,31.168048042482056,30.487305580287064,124.35584938901526,111.20487095869764,9.71794142969884e-05,0.0925559401512146,0,0,0
10393,359684.6460050732,2010-11-20 15:40:18,4682.39626733693,2,32,0.550297200679779,4.093294143676758,31.17263556631593,30.487305580287064,124.37462023484116,111.20487095869764,9.70840483205393e-05,0.0925559401512146,0,0,0
10394,359714.66152736964,2010-11-20 15:40:48,4712.411789618316,2,32,0.550297200679779,4.096370220184326,31.17722311657157,30.487305580287064,124.39340507070064,111.20487095869764,0.0001295089750783,0.0925559401512146,0,0,0
10395,359744.6767246097,2010-11-20 15:41:18,4742.426986873387,2,32,0.5501165986061096,4.0992841720581055,31.181810658284043,30.487305580287064,124.41220377630351,111.20487095869764,6.47544875391759e-05,0.0925559401512146,0,0,0
10396,359774.6921229667,2010-11-20 15:41:48,4772.442385230441,2,32,0.550297200679779,4.102198123931885,31.186398193574973,30.487305580287064,124.43101629695248,111.20487095869764,6.47544875391759e-05,0.0925559401512146,0,0,0
10397,359804.70747177507,2010-11-20 15:42:18,4802.457734038812,2,32,0.5501165986061096,4.105273723602295,31.190985730998477,30.487305580287064,124.44984289850908,111.20487095869764,6.47544875391759e-05,0.0925559401512146,0,0,0
10398,359834.72473355854,2010-11-20 15:42:48,4832.474995807227,2,32,0.550297200679779,4.108511447906494,31.19557360265053,30.487305580287064,124.46868512985792,111.20487095869764,6.47544875391759e-05,0.0925559401512146,0,0,0
10399,359864.7384403281,2010-11-20 15:43:18,4862.488702576817,2,32,0.5501165986061096,4.111587524414063,31.200160881645477,30.487305580287064,124.48753927297535,111.20487095869764,9.71794142969884e-05,0.0925559401512146,0,0,0
10400,359894.7535394633,2010-11-20 15:43:48,4892.503801727004,2,32,0.5501165986061096,4.114663124084473,31.204748297519817,30.487305580287064,124.50640844151224,111.20487095869764,0.0,0.0925559401512146,0,0,0
10401,359924.7689655395,2010-11-20 15:44:18,4922.519227803247,2,32,0.550297200679779,4.118062496185303,31.209335791260383,30.487305580287064,124.52529251826157,111.20487095869764,0.0001295089750783,0.0925559401512146,0,0,0
10402,359954.78427595703,2010-11-20 15:44:48,4952.53453822079,2,32,0.5499359965324402,4.121300220489502,31.21392333664572,30.487305580287064,124.54419155176524,111.20487095869764,9.70840483205393e-05,0.0925559401512146,0,0,0
10403,359984.7996947953,2010-11-20 15:45:18,4982.549957043929,2,32,0.5499359965324402,4.12437629699707,31.218510914110823,30.487305580287064,124.56310564447004,111.20487095869764,6.47544875391759e-05,0.0925559401512146,0,0,0
10404,360014.8149928419,2010-11-20 15:45:48,5012.565255110642,2,32,0.5501165986061096,4.1277756690979,31.223098437283305,30.487305580287064,124.5820344976657,111.20487095869764,9.70840483205393e-05,0.0925559401512146,0,0,0
10405,360044.83035942464,2010-11-20 15:46:18,5042.580621688368,2,32,0.550297200679779,4.131175518035889,31.22768605139732,30.487305580287064,124.60097871091872,111.20487095869764,9.71794142969884e-05,0.0925559401512146,0,0,0
10406,360074.84880082763,2010-11-20 15:46:48,5072.59906310637,2,32,0.5501165986061096,4.134251117706299,31.232274100058277,30.487305580287064,124.61993987287238,111.20487095869764,3.23295607813634e-05,0.0925559401512146,0,0,0
10407,360104.8610983094,2010-11-20 15:47:18,5102.611360578136,2,32,0.5499359965324402,4.137488842010498,31.236861198717065,30.487305580287064,124.6389123831088,111.20487095869764,0.0,0.0925559401512146,0,0,0
10408,360134.87645718287,2010-11-20 15:47:48,5132.626719431581,2,32,0.550297200679779,4.141050338745117,31.241448766113795,30.487305580287064,124.65790225267568,111.20487095869764,6.47544875391759e-05,0.0925559401512146,0,0,0
10409,360164.8918142318,2010-11-20 15:48:18,5162.64207649556,2,32,0.550297200679779,4.1444501876831055,31.246036378424755,30.487305580287064,124.6769078287682,111.20487095869764,6.47544875391759e-05,0.0925559401512146,0,0,0
10410,360194.90725140576,2010-11-20 15:48:48,5192.6575136695055,2,32,0.5501165986061096,4.148011684417725,31.25062391981469,30.487305580287064,124.69592905779948,111.20487095869764,9.71794142969884e-05,0.0925559401512146,0,0,0
10411,360224.92265824403,2010-11-20 15:49:18,5222.6729204926905,2,32,0.5501165986061096,4.151249408721924,31.2552114357692,30.487305580287064,124.71496588100078,111.20487095869764,6.47544875391759e-05,0.0925559401512146,0,0,0
10412,360254.9379071329,2010-11-20 15:49:48,5252.688169386662,2,32,0.550297200679779,4.154972553253174,31.25979900022901,30.487305580287064,124.73401872286536,111.20487095869764,9.70840483205393e-05,0.0925559401512146,0,0,0
10413,360284.95341031166,2010-11-20 15:50:18,5282.70367257539,2,32,0.550297200679779,4.158372402191162,31.264386561283228,30.487305580287064,124.7530875254854,111.20487095869764,9.71794142969884e-05,0.0925559401512146,0,0,0
10414,360314.9686469551,2010-11-20 15:50:48,5312.718909208756,2,32,0.550297200679779,4.161933898925781,31.2689740932826,30.487305580287064,124.77217225259126,111.20487095869764,0.0001295089750783,0.0925559401512146,0,0,0
10415,360344.9840088562,2010-11-20 15:51:18,5342.734271104796,2,32,0.5501165986061096,4.165333271026611,31.27356165045678,30.487305580287064,124.79127315431415,111.20487095869764,9.70840483205393e-05,0.0925559401512146,0,0,0
10416,360374.99948072166,2010-11-20 15:51:48,5372.749742985376,2,32,0.5501165986061096,4.1687331199646,31.27814923060004,30.487305580287064,124.8103903612768,111.20487095869764,6.47544875391759e-05,0.0925559401512146,0,0,0
10417,360405.01490962994,2010-11-20 15:52:18,5402.765171878651,2,32,0.550297200679779,4.17245626449585,31.28273672140089,30.487305580287064,124.8295233689113,111.20487095869764,9.70840483205393e-05,0.0925559401512146,0,0,0
10418,360435.0319616347,2010-11-20 15:52:48,5432.782223983713,2,32,0.5501165986061096,4.176017761230469,31.287324566824047,30.487305580287064,124.848674233049,111.20487095869764,9.70840483205393e-05,0.0925559401512146,0,0,0
10419,360465.0455809811,2010-11-20 15:53:18,5462.795843229831,2,32,0.5501165986061096,4.179741382598877,31.29191175510083,30.487305580287064,124.86783885427828,111.20487095869764,0.0001295089750783,0.0925559401512146,0,0,0
10420,360495.0609653132,2010-11-20 15:53:48,5492.811227566888,2,32,0.550297200679779,4.183302879333496,31.29649935245479,30.487305580287064,124.8870218855218,111.20487095869764,9.71794142969884e-05,0.0925559401512146,0,0,0
10421,360525.0761788288,2010-11-20 15:54:18,5522.826441092573,2,32,0.550297200679779,4.187026023864746,31.301086832274184,30.487305580287064,124.9062211037398,111.20487095869764,9.70840483205393e-05,0.0925559401512146,0,0,0
10422,360555.0917039473,2010-11-20 15:54:48,5552.841966196004,2,32,0.550297200679779,4.190587520599365,31.305674387733315,30.487305580287064,124.92543749485417,111.20487095869764,6.47544875391759e-05,0.0925559401512146,0,0,0
10423,360585.1069048666,2010-11-20 15:55:18,5582.85716713026,2,32,0.550297200679779,4.194311141967773,31.310261943123745,30.487305580287064,124.9446707934934,111.20487095869764,9.71794142969884e-05,0.0925559401512146,0,0,0
10424,360615.1224862956,2010-11-20 15:55:48,5612.8727485442505,2,32,0.550297200679779,4.198034286499023,31.31484952311508,30.487305580287064,124.96392118357126,111.20487095869764,0.0001295089750783,0.0925559401512146,0,0,0
10425,360630.184689507,2010-11-20 15:56:04,5627.934951770767,2,32,0.5504778623580933,4.200138568878174,31.31715161029844,30.487305580287064,124.97358767883632,111.20487095869764,0.0001295089750783,0.0925559401512146,0,0,0
10426,360660.2015269835,2010-11-20 15:56:34,30.015390316983545,3,32,0.0,4.117738723754883,31.31715161029844,30.487305580287064,124.97358767883632,111.20487095869764,-0.0004209518374409,0.0925559401512146,0,0,0
10427,360690.2170157162,2010-11-20 15:57:04,60.03087915489048,3,32,0.0,4.107863903045654,31.31715161029844,30.487305580287064,124.97358767883632,111.20487095869764,-0.0002590179501567,0.0925559401512146,0,0,0
10428,360720.23223652,2010-11-20 15:57:34,90.04609980335529,3,32,0.0,4.102198123931885,31.31715161029844,30.487305580287064,124.97358767883632,111.20487095869764,-0.0001618385285837,0.0925559401512146,0,0,0
10429,360750.2006020308,2010-11-20 15:58:04,120.01446533925068,3,32,0.0,4.098636627197266,31.31715161029844,30.487305580287064,124.97358767883632,111.20487095869764,-9.70840483205393e-05,0.0925559401512146,0,0,0
10430,360750.203104484,2010-11-20 15:58:04,0.015599518798848,4,32,0.9812309741973876,4.199653148651123,31.317155862168008,30.487305580287064,124.97360553521374,111.20487095869764,0.0,0.0925559401512146,0,0,0
10431,360751.1886613205,2010-11-20 15:58:05,1.001156305161731,4,32,0.9308409690856934,4.199653148651123,31.317416055447858,30.487305580287064,124.97469826549684,111.20487095869764,0.0,0.0925559401512146,0,0,0
10432,360753.32803541736,2010-11-20 15:58:07,3.14053040204202,4,32,0.8808122277259827,4.199653148651123,31.31795324196961,30.487305580287064,124.97695428786992,111.20487095869764,0.0,0.0925559401512146,0,0,0
10433,360756.6267571143,2010-11-20 15:58:10,6.439252098893006,4,32,0.8304222226142883,4.199653148651123,31.31873599283901,30.487305580287064,124.980241609021,111.20487095869764,0.0,0.0925559401512146,0,0,0
10434,360761.10965524765,2010-11-20 15:58:15,10.922150237323166,4,32,0.7803934216499329,4.199653148651123,31.31973762088898,30.487305580287064,124.98444815520288,111.20487095869764,3.24249267578125e-05,0.0925559401512146,0,0,0
10435,360767.031037639,2010-11-20 15:58:21,16.84353264379162,4,32,0.7303646802902222,4.199814796447754,31.32097848032908,30.487305580287064,124.98965942789212,111.20487095869764,0.0,0.0925559401512146,0,0,0
10436,360774.7654508494,2010-11-20 15:58:28,24.577945823999137,4,32,0.6801552772521973,4.199814796447754,31.32249145079308,30.487305580287064,124.99601348059308,111.20487095869764,0.0,0.0925559401512146,0,0,0
10437,360785.202761728,2010-11-20 15:58:39,35.015256727755045,4,32,0.6301265358924866,4.199814796447754,31.324387424118697,30.487305580287064,125.00397605907924,111.20487095869764,0.0,0.0925559401512146,0,0,0
10438,360800.01519605296,2010-11-20 15:58:54,49.82769104264106,4,32,0.5800977349281311,4.199814796447754,31.326871077587512,30.487305580287064,125.01440673969545,111.20487095869764,0.0,0.0925559401512146,0,0,0
10439,360822.7963029004,2010-11-20 15:59:16,72.60879790014305,4,32,0.5300689935684204,4.199814796447754,31.33037212063989,30.487305580287064,125.0291101963023,111.20487095869764,3.23295607813634e-05,0.0925559401512146,0,0,0
10440,360862.38970736926,2010-11-20 15:59:56,112.20220236899029,4,32,0.4800402224063873,4.199653148651123,31.335903288591723,30.487305580287064,125.05233962845222,111.20487095869764,0.0,0.0925559401512146,0,0,0
10441,360932.2502739664,2010-11-20 16:01:06,182.06276894594583,4,32,0.4300114512443542,4.199814796447754,31.344698469674945,30.487305580287064,125.08927701737616,111.20487095869764,3.23295607813634e-05,0.0925559401512146,0,0,0
10442,361031.6069241007,2010-11-20 16:02:45,281.4194191003698,4,32,0.3799826800823211,4.199491024017334,31.35585580058736,30.487305580287064,125.13613484162882,111.20487095869764,-3.24249267578125e-05,0.0925559401512146,0,0,0
10443,361154.5745875668,2010-11-20 16:04:48,404.3870825514457,4,32,0.3299539089202881,4.199653148651123,31.3679673975411,30.487305580287064,125.18700039463856,111.20487095869764,-3.23295607813634e-05,0.0925559401512146,0,0,0
10444,361299.3390461418,2010-11-20 16:07:13,549.1515411315168,4,32,0.279925137758255,4.199653148651123,31.3802173392962,30.487305580287064,125.23844695660156,111.20487095869764,0.0,0.0925559401512146,0,0,0
10445,361474.8375245587,2010-11-20 16:10:08,724.6500195433988,4,32,0.2298963665962219,4.199653148651123,31.39262471886692,30.487305580287064,125.29055469030656,111.20487095869764,0.0,0.0925559401512146,0,0,0
10446,361696.8825201636,2010-11-20 16:13:51,946.6950151481968,4,32,0.1796869933605194,4.199653148651123,31.405209421975243,30.487305580287064,125.34340707977977,111.20487095869764,-3.23295607813634e-05,0.0925559401512146,0,0,0
10447,361998.2235817936,2010-11-20 16:18:52,1248.0360768283138,4,32,0.1296582221984863,4.199491024017334,31.41805926554447,30.487305580287064,125.3973730455948,111.20487095869764,-3.24249267578125e-05,0.0925559401512146,0,0,0
10448,362476.7818456695,2010-11-20 16:26:50,1726.5943406742217,4,32,0.0796294510364532,4.199491024017334,31.431719693062327,30.487305580287064,125.45474322973008,111.20487095869764,-3.24249267578125e-05,0.0925559401512146,0,0,0
10449,362980.30886417336,2010-11-20 16:35:14,2230.121359158052,4,32,0.0498289167881011,4.199653148651123,31.44064635321867,30.487305580287064,125.49223285114726,111.20487095869764,-3.23295607813634e-05,0.0925559401512146,0,0,0
10450,363010.3305435904,2010-11-20 16:35:44,30.01558432124804,5,32,0.0,4.192206382751465,31.440646356598936,30.487305580287064,125.4922328653432,111.20487095869764,-3.24249267578125e-05,0.0925559401512146,0,0,0
10451,363040.33034314046,2010-11-20 16:36:14,60.01538386626618,5,32,0.0,4.191235065460205,31.440646356598936,30.487305580287064,125.4922328653432,111.20487095869764,3.23295607813634e-05,0.0925559401512146,0,0,0
10452,363040.5242979048,2010-11-20 16:36:14,0.187513036386981,6,32,-1.9243103452026844e-05,4.190911293029785,31.440646360300384,30.487305580287064,125.49223288085624,111.20487095869764,-6.47544875391759e-05,0.0931989923119545,0,0,0
10453,363045.3525049372,2010-11-20 16:36:19,5.015720068941318,6,32,0.0007031940040178,4.191073417663574,31.44064732923268,30.48730558045401,125.49223694177314,111.20487095939728,-6.47544875391759e-05,0.0931989923119545,0,0,0
10454,363075.35893675534,2010-11-20 16:36:49,30.015419389553152,7,32,-1.0997490882873535,4.022388458251953,31.44064732923268,30.496474681134256,125.49223694177314,111.24193984641192,-0.0008741378551349,0.0931989923119545,0,0,0
10455,363105.3741895992,2010-11-20 16:37:19,60.030672248420096,7,32,-1.099929690361023,3.99761962890625,31.44064732923268,30.50564380204804,125.49223694177314,111.27869944018131,-0.0005504608270712,0.0931989923119545,0,0,0
10456,363135.3895612797,2010-11-20 16:37:49,90.04604392888403,7,32,-1.0997490882873535,3.980459928512573,31.44064732923268,30.514812879530485,125.49223694177314,111.31527133305018,-0.0004209041653666,0.0931989923119545,0,0,0
10457,363165.4049155666,2010-11-20 16:38:19,120.06139821593132,7,32,-1.099568486213684,3.9670233726501465,31.44064732923268,30.52398181210883,125.49223694177314,111.35170406866632,-0.0003237724304199,0.0931989923119545,0,0,0
10458,363195.42028719705,2010-11-20 16:38:49,150.07676985128262,7,32,-1.0997490882873535,3.9555294513702393,31.44064732923268,30.53315075087157,125.49223694177314,111.38802350511313,-0.0002913951757363,0.0931989923119545,0,0,0
10459,363225.4356468725,2010-11-20 16:39:19,180.0921295217678,7,32,-1.099568486213684,3.945006847381592,31.44064732923268,30.54231975874112,125.49223694177314,111.42424316271097,-0.0002913951757363,0.0931989923119545,0,0,0
10460,363255.4510657758,2010-11-20 16:39:49,210.10754843011972,7,32,-1.099568486213684,3.935293674468994,31.44064732923268,30.551488773788822,125.49223694177314,111.46037013639786,-0.0002266406954731,0.0931989923119545,0,0,0
10461,363285.4663861884,2010-11-20 16:40:19,240.12286884261096,7,32,-1.099568486213684,3.9257423877716064,31.44064732923268,30.560657749396537,125.49223694177314,111.49640860548904,-0.0002590179501567,0.0931989923119545,0,0,0
10462,363315.4818835325,2010-11-20 16:40:49,270.13836618173826,7,32,-1.099929690361023,3.9166767597198486,31.44064732923268,30.569826780226567,125.49223694177314,111.532362901538,-0.0002590179501567,0.0931989923119545,0,0,0
10463,363345.4971169128,2010-11-20 16:41:19,300.1535995619835,7,32,-1.099568486213684,3.9080970287323,31.44064732923268,30.57899577676868,125.49223694177314,111.56823542240863,-0.0001942634553415,0.0931989923119545,0,0,0
10464,363375.5124986182,2010-11-20 16:41:49,330.1689812674715,7,32,-1.099929690361023,3.899355173110962,31.44064732923268,30.58816484361025,125.49223694177314,111.60402907388512,-0.0002590179501567,0.0931989923119545,0,0,0
10465,363405.52785018354,2010-11-20 16:42:20,360.1843328327248,7,32,-1.0997490882873535,3.891260862350464,31.44064732923268,30.597333847228665,125.49223694177314,111.63974561129498,-0.0002266406954731,0.0931989923119545,0,0,0
10466,363435.5433390465,2010-11-20 16:42:50,390.1998216956943,7,32,-1.0993878841400146,3.883004665374756,31.44064732923268,30.60650291903445,125.49223694177314,111.67538642817802,-0.0001942634553415,0.0931989923119545,0,0,0
10467,363465.55861594033,2010-11-20 16:43:20,420.21509858955625,7,32,-1.099929690361023,3.874748468399048,31.44064732923268,30.615671977952964,125.49223694177314,111.71095192796318,-0.0002266406954731,0.0931989923119545,0,0,0
10468,363495.5739586083,2010-11-20 16:43:50,450.2304412576007,7,32,-1.0997490882873535,3.86665415763855,31.44064732923268,30.62484098319153,125.49223694177314,111.74644262072208,-0.0002590179501567,0.0931989923119545,0,0,0
10469,363525.5893163992,2010-11-20 16:44:20,480.24579904839385,7,32,-1.0997490882873535,3.858559846878052,31.44064732923268,30.63401005617971,125.49223694177314,111.78186013831596,-0.0002590179501567,0.0931989923119545,0,0,0
10470,363555.604673804,2010-11-20 16:44:50,510.2611564532236,7,32,-1.0997490882873535,3.850951194763184,31.44064732923268,30.6431791175312,125.49223694177314,111.81720526437506,-0.0001618862152099,0.0931989923119545,0,0,0
10471,363585.6201772684,2010-11-20 16:45:20,540.2766599176406,7,32,-1.0997490882873535,3.8431806564331055,31.44064732923268,30.652348203636787,125.49223694177314,111.85247908886733,-0.0001942634553415,0.0931989923119545,0,0,0
10472,363615.6373056138,2010-11-20 16:45:50,570.2937882479729,7,32,-1.0997490882873535,3.835572004318237,31.44064732923268,30.661517836303283,125.49223694177314,111.88768497395372,-0.0001942634553415,0.0931989923119545,0,0,0
10473,363645.6509071207,2010-11-20 16:46:20,600.3073897598235,7,32,-1.0997490882873535,3.827963590621948,31.44064732923268,30.670686342522465,125.49223694177314,111.92281685840614,-0.0002266406954731,0.0931989923119545,0,0,0
10474,363675.66619989416,2010-11-20 16:46:50,630.3226825433486,7,32,-1.0997490882873535,3.8206787109375,31.44064732923268,30.679855366529384,125.49223694177314,111.95788254928397,-0.0001942634553415,0.0931989923119545,0,0,0
10475,363705.6815366173,2010-11-20 16:47:20,660.3380192715663,7,32,-1.099568486213684,3.813393831253052,31.44064732923268,30.689024393988145,125.49223694177314,111.99288154699828,-0.0001942634553415,0.0931989923119545,0,0,0
10476,363735.6972032541,2010-11-20 16:47:50,690.353685903274,7,32,-1.0997490882873535,3.806432723999024,31.44064732923268,30.69819352201068,125.49223694177314,112.02781510247486,-0.0001618862152099,0.0931989923119545,0,0,0
10477,363765.7122911662,2010-11-20 16:48:20,720.3687738154084,7,32,-1.0997490882873535,3.799471616744995,31.44064732923268,30.70736249209892,125.49223694177314,112.06268416451393,-0.0001942634553415,0.0931989923119545,0,0,0
10478,363795.7276031225,2010-11-20 16:48:50,750.3840857717919,7,32,-1.099929690361023,3.7926723957061768,31.44064732923268,30.716531579164453,125.49223694177314,112.09749089521075,-0.0001618862152099,0.0931989923119545,0,0,0
10479,363825.7429801664,2010-11-20 16:49:20,780.3994628156437,7,32,-1.0997490882873535,3.786035060882568,31.44064732923268,30.725700739290435,125.49223694177314,112.13223597337304,-0.0001618862152099,0.0931989923119545,0,0,0
10480,363855.75835979165,2010-11-20 16:49:50,810.4148424459516,7,32,-1.099568486213684,3.77955961227417,31.44064732923268,30.73486985645892,125.49223694177314,112.16692004380786,-0.0001618862152099,0.0931989923119545,0,0,0
10481,363885.7737595723,2010-11-20 16:50:20,840.4302422215453,7,32,-1.099568486213684,3.773246049880981,31.44064732923268,30.744038970996257,125.49223694177314,112.20154548400902,-0.0001618862152099,0.0931989923119545,0,0,0
10482,363915.7890707919,2010-11-20 16:50:50,870.4455534410895,7,32,-1.0997490882873535,3.766932487487793,31.44064732923268,30.75320805732326,125.49223694177314,112.23611363162836,-0.0001942634553415,0.0931989923119545,0,0,0
10483,363945.8044324824,2010-11-20 16:51:20,900.460915131617,7,32,-1.099929690361023,3.760618925094605,31.44064732923268,30.762377205396938,125.49223694177314,112.27062528935171,-0.0001942634553415,0.0931989923119545,0,0,0
10484,363975.8198247693,2010-11-20 16:51:50,930.4763074034802,7,32,-1.099568486213684,3.754791021347046,31.44064732923268,30.77154630820771,125.49223694177314,112.30508071067476,-0.0001942634553415,0.0931989923119545,0,0,0
10485,364005.8351409662,2010-11-20 16:52:20,960.4916236154864,7,32,-1.0997490882873535,3.748801469802856,31.44064732923268,30.780715421112724,125.49223694177314,112.33948093122956,-0.0001618862152099,0.0931989923119545,0,0,0
10486,364035.8505069124,2010-11-20 16:52:50,990.506989546599,7,32,-1.0997490882873535,3.743135452270508,31.44064732923268,30.789884573161903,125.49223694177314,112.3738281099377,-0.0001295089750783,0.0931989923119545,0,0,0
10487,364065.8658720314,2010-11-20 16:53:20,1020.5223546857349,7,32,-1.0997490882873535,3.737307548522949,31.44064732923268,30.79905367756356,125.49223694177314,112.40812259258443,-0.0001618862152099,0.0931989923119545,0,0,0
10488,364095.8812945188,2010-11-20 16:53:50,1050.5377771529702,7,32,-1.099568486213684,3.7318034172058105,31.44064732923268,30.808222742416493,125.49223694177314,112.4423645534562,-0.0001295089750783,0.0931989923119545,0,0,0
10489,364125.8966018436,2010-11-20 16:54:20,1080.5530844978427,7,32,-1.0997490882873535,3.726299285888672,31.44064732923268,30.81739178890353,125.49223694177314,112.47655606335036,-0.0001295089750783,0.0931989923119545,0,0,0
10490,364155.9120922705,2010-11-20 16:54:50,1110.568574904666,7,32,-1.0997490882873535,3.720795154571533,31.44064732923268,30.826560989051785,125.49223694177314,112.51069816750432,-0.0001618862152099,0.0931989923119545,0,0,0
10491,364185.927331375,2010-11-20 16:55:20,1140.58381402925,7,32,-1.0997490882873535,3.715452909469605,31.44064732923268,30.835730038163096,125.49223694177314,112.54479015620544,-0.0001295089750783,0.0931989923119545,0,0,0
10492,364215.9446023614,2010-11-20 16:55:50,1170.6010849906113,7,32,-1.0997490882873535,3.7102725505828857,31.44064732923268,30.844899704362756,125.49223694177314,112.57883591097992,-0.0001295089750783,0.0931989923119545,0,0,0
10493,364245.9580641796,2010-11-20 16:56:20,1200.6145468338275,7,32,-1.099568486213684,3.705254077911377,31.44064732923268,30.85406818021887,125.49223694177314,112.61282947209254,-9.713172767078504e-05,0.0931989923119545,0,0,0
10494,364275.97355981945,2010-11-20 16:56:50,1230.6300424687008,7,32,-1.0997490882873535,3.699911832809448,31.44064732923268,30.863237306597423,125.49223694177314,112.64677828576598,-0.0001618862152099,0.0931989923119545,0,0,0
10495,364305.9888507583,2010-11-20 16:57:20,1260.6453333925838,7,32,-1.099568486213684,3.695055246353149,31.44064732923268,30.87240635998566,125.49223694177314,112.68068035908728,-9.713172767078504e-05,0.0931989923119545,0,0,0
10496,364336.004297005,2010-11-20 16:57:50,1290.6607796391763,7,32,-1.0997490882873535,3.6900367736816406,31.44064732923268,30.88157548701504,125.49223694177314,112.71453661869364,-9.713172767078504e-05,0.0931989923119545,0,0,0
10497,364366.01953200926,2010-11-20 16:58:20,1320.6760146585127,7,32,-1.099929690361023,3.684856414794922,31.44064732923268,30.89074453949635,125.49223694177314,112.748347600459,-0.0001618862152099,0.0931989923119545,0,0,0
10498,364396.0350094387,2010-11-20 16:58:50,1350.691492072905,7,32,-1.099568486213684,3.680323600769043,31.44064732923268,30.899913682434143,125.49223694177314,112.78211409778731,-9.713172767078504e-05,0.0931989923119545,0,0,0
10499,364426.050262894,2010-11-20 16:59:20,1380.706745548311,7,32,-1.099929690361023,3.675467014312744,31.44064732923268,30.90908268509584,125.49223694177314,112.81583594891912,-9.713172767078504e-05,0.0931989923119545,0,0,0
10500,364456.0656360582,2010-11-20 16:59:50,1410.722118707466,7,32,-1.099929690361023,3.6704487800598153,31.44064732923268,30.91825180266359,125.49223694177314,112.84951460189338,-0.0001618862152099,0.0931989923119545,0,0,0
10501,364486.08130989794,2010-11-20 17:00:20,1440.7377925471658,7,32,-1.0997490882873535,3.6660778522491455,31.44064732923268,30.92742111390352,125.49223694177314,112.88315096967968,-0.0001295089750783,0.0931989923119545,0,0,0
10502,364516.0965104613,2010-11-20 17:00:50,1470.7529931104953,7,32,-1.099929690361023,3.6613831520080566,31.44064732923268,30.93659091970657,125.49223694177314,112.91674690925464,-0.0001295089750783,0.0931989923119545,0,0,0
10503,364546.1116794208,2010-11-20 17:01:20,1500.7681620749486,7,32,-1.099929690361023,3.6568503379821777,31.44064732923268,30.945760545352552,125.49223694177314,112.95030038582334,-0.0001618862152099,0.0931989923119545,0,0,0
10504,364576.1270801487,2010-11-20 17:01:50,1530.7835628029195,7,32,-1.0997490882873535,3.652479410171509,31.44064732923268,30.95493034148496,125.49223694177314,112.98381355110222,-0.0001295089750783,0.0931989923119545,0,0,0
10505,364606.1424184709,2010-11-20 17:02:20,1560.7989011201037,7,32,-1.0997490882873535,3.64810848236084,31.44064732923268,30.96410011366123,125.49223694177314,113.01728644008108,-0.0001295089750783,0.0931989923119545,0,0,0
10506,364636.15778354486,2010-11-20 17:02:50,1590.8142661940767,7,32,-1.099929690361023,3.643737554550171,31.44064732923268,30.973269891763664,125.49223694177314,113.05071961518787,-0.0001295089750783,0.0931989923119545,0,0,0
10507,364666.17315739073,2010-11-20 17:03:20,1620.8296400399458,7,32,-1.0997490882873535,3.639690399169922,31.44064732923268,30.982439613600736,125.49223694177314,113.08411373489236,-9.713172767078504e-05,0.0931989923119545,0,0,0
10508,364696.1902513201,2010-11-20 17:03:50,1650.846734089709,7,32,-1.0997490882873535,3.635643243789673,31.44064732923268,30.991609098898856,125.49223694177314,113.1174692727612,-6.47544875391759e-05,0.0931989923119545,0,0,0
10509,364726.2039796536,2010-11-20 17:04:20,1680.860462362975,7,32,-1.0997490882873535,3.631596088409424,31.44064732923268,31.000777577896123,125.49223694177314,113.15078399677463,-9.713172767078504e-05,0.0931989923119545,0,0,0
10510,364756.2192686927,2010-11-20 17:04:50,1710.8757513319788,7,32,-1.0993878841400146,3.6280345916748047,31.44064732923268,31.00994652154315,125.49223694177314,113.18406428403787,-3.237724376958795e-05,0.0931989923119545,0,0,0
10511,364786.234613867,2010-11-20 17:05:20,1740.8910965163043,7,32,-1.0997490882873535,3.623987436294556,31.44064732923268,31.01911550170576,125.49223694177314,113.2173093961208,-9.713172767078504e-05,0.0931989923119545,0,0,0
10512,364816.2517922874,2010-11-20 17:05:50,1770.9082749366687,7,32,-1.099929690361023,3.6201021671295166,31.44064732923268,31.028285046368488,125.49223694177314,113.25052222389635,-9.713172767078504e-05,0.0931989923119545,0,0,0
10513,364846.26549051073,2010-11-20 17:06:20,1800.921973159926,7,32,-1.0997490882873535,3.6165406703948975,31.44064732923268,31.037453565219668,125.49223694177314,113.28369765006548,-9.713172767078504e-05,0.0931989923119545,0,0,0
10514,364876.2807113496,2010-11-20 17:06:50,1830.9371939988664,7,32,-1.0997490882873535,3.6129791736602783,31.44064732923268,31.04662250103487,125.49223694177314,113.31684173771822,-0.0001295089750783,0.0931989923119545,0,0,0
10515,364906.2962079369,2010-11-20 17:07:20,1860.9526905911296,7,32,-1.0997490882873535,3.609579563140869,31.44064732923268,31.055791523373788,125.49223694177314,113.34995414321642,-0.0001295089750783,0.0931989923119545,0,0,0
10516,364936.3115152366,2010-11-20 17:07:50,1890.967997870839,7,32,-1.099568486213684,3.60634183883667,31.44064732923268,31.06496052246329,125.49223694177314,113.38303535069352,-6.47544875391759e-05,0.0931989923119545,0,0,0
10517,364966.32693395455,2010-11-20 17:08:20,1920.9834166087653,7,32,-1.0997490882873535,3.603104114532471,31.44064732923268,31.07412954309982,125.49223694177314,113.41608630943786,-6.47544875391759e-05,0.0931989923119545,0,0,0
10518,364996.3422855348,2010-11-20 17:08:50,1950.998768184044,7,32,-1.099568486213684,3.5998663902282715,31.44064732923268,31.08329854457807,125.49223694177314,113.4491078112673,-6.47544875391759e-05,0.0931989923119545,0,0,0
10519,365026.35753153154,2010-11-20 17:09:20,1981.014014180782,7,32,-1.0997490882873535,3.5967905521392822,31.44064732923268,31.09246752891887,125.49223694177314,113.48210035902277,-6.47544875391759e-05,0.0931989923119545,0,0,0
10520,365056.3730331864,2010-11-20 17:09:50,2011.0295158406943,7,32,-1.099568486213684,3.593876600265503,31.44064732923268,31.10163655446169,125.49223694177314,113.5150650169391,-6.47544875391759e-05,0.0931989923119545,0,0,0
10521,365086.38826666697,2010-11-20 17:10:20,2041.0447493211905,7,32,-1.0997490882873535,3.5908010005950928,31.44064732923268,31.110805550034005,125.49223694177314,113.54800227026122,-3.237724376958795e-05,0.0931989923119545,0,0,0
10522,365116.4036279264,2010-11-20 17:10:50,2071.060110575629,7,32,-1.0997490882873535,3.587887048721313,31.44064732923268,31.119974621526616,125.49223694177314,113.58091254841052,-6.47544875391759e-05,0.0931989923119545,0,0,0
10523,365146.41902973206,2010-11-20 17:11:20,2101.07551238129,7,32,-1.0997490882873535,3.584973096847534,31.44064732923268,31.1291437196001,125.49223694177314,113.61379631044348,-9.713172767078504e-05,0.0931989923119545,0,0,0
10524,365176.4344177232,2010-11-20 17:11:50,2131.090900372468,7,32,-1.0997490882873535,3.582221031188965,31.44064732923268,31.138312757392544,125.49223694177314,113.646653712814,-6.47544875391759e-05,0.0931989923119545,0,0,0
10525,365206.4497236847,2010-11-20 17:12:20,2161.1062063388995,7,32,-1.0997490882873535,3.5794689655303955,31.44064732923268,31.14748174616709,125.49223694177314,113.67948485472805,-3.237724376958795e-05,0.0931989923119545,0,0,0
10526,365236.46519507904,2010-11-20 17:12:50,2191.1216777282525,7,32,-1.0997490882873535,3.576555013656616,31.44064732923268,31.156650842917312,125.49223694177314,113.71229035068146,-6.47544875391759e-05,0.0931989923119545,0,0,0
10527,365266.4805630101,2010-11-20 17:13:20,2221.137045659357,7,32,-1.0997490882873535,3.573479175567627,31.44064732923268,31.16581986234039,125.49223694177314,113.7450692804504,-6.47544875391759e-05,0.0931989923119545,0,0,0
10528,365296.4959379286,2010-11-20 17:13:50,2251.152420577904,7,32,-1.0997490882873535,3.5707271099090576,31.44064732923268,31.174988840600584,125.49223694177314,113.77782202603906,-3.237724376958795e-05,0.0931989923119545,0,0,0
10529,365326.51116214605,2010-11-20 17:14:21,2281.1676447952777,7,32,-1.0997490882873535,3.5678131580352783,31.44064732923268,31.18415786848892,125.49223694177314,113.81054832862397,-6.47544875391759e-05,0.0931989923119545,0,0,0
10530,365356.52657479374,2010-11-20 17:14:51,2311.183057443002,7,32,-1.0997490882873535,3.564737319946289,31.44064732923268,31.19332690792025,125.49223694177314,113.84324765152832,-9.713172767078504e-05,0.0931989923119545,0,0,0
10531,365386.5418971361,2010-11-20 17:15:21,2341.1983797853104,7,32,-1.0997490882873535,3.5618233680725098,31.44064732923268,31.202495812619265,125.49223694177314,113.87591907582956,-6.47544875391759e-05,0.0931989923119545,0,0,0
10532,365416.5591625435,2010-11-20 17:15:51,2371.215645177771,7,32,-1.0997490882873535,3.5587475299835205,31.44064732923268,31.21166528767965,125.49223694177314,113.90856470448529,-9.713172767078504e-05,0.0931989923119545,0,0,0
10533,365446.572656126,2010-11-20 17:16:21,2401.2291387752502,7,32,-1.099568486213684,3.5555098056793213,31.44064732923268,31.22083363409301,125.49223694177314,113.94117725733648,-9.713172767078504e-05,0.0931989923119545,0,0,0
10534,365476.58799217246,2010-11-20 17:16:51,2431.2444748217667,7,32,-1.0997490882873535,3.552110195159912,31.44064732923268,31.23000254546868,125.49223694177314,113.97376229807824,-9.713172767078504e-05,0.0931989923119545,0,0,0
10535,365506.6033599883,2010-11-20 17:17:21,2461.2598426425966,7,32,-1.099929690361023,3.548710584640503,31.44064732923268,31.239171479452093,125.49223694177314,114.00631739410574,-0.0001295089750783,0.0931989923119545,0,0,0
10536,365536.618734145,2010-11-20 17:17:51,2491.2752167942285,7,32,-1.0997490882873535,3.545472860336304,31.44064732923268,31.24834044968569,125.49223694177314,114.03884141196568,-9.713172767078504e-05,0.0931989923119545,0,0,0
10537,365566.6341460659,2010-11-20 17:18:21,2521.290628715139,7,32,-1.099568486213684,3.541911363601685,31.44064732923268,31.257509418279405,125.49223694177314,114.0713330949836,-9.713172767078504e-05,0.0931989923119545,0,0,0
10538,365596.6494567492,2010-11-20 17:18:51,2551.305939398344,7,32,-1.0997490882873535,3.5381879806518555,31.44064732923268,31.26667834189284,125.49223694177314,114.1037912334612,-9.713172767078504e-05,0.0931989923119545,0,0,0
10539,365626.6648224747,2010-11-20 17:19:21,2581.321305123944,7,32,-1.0997490882873535,3.5341408252716064,31.44064732923268,31.27584730041191,125.49223694177314,114.13621455981932,-0.0001295089750783,0.0931989923119545,0,0,0
10540,365656.6803923298,2010-11-20 17:19:51,2611.3368749790825,7,32,-1.0997490882873535,3.5302555561065674,31.44064732923268,31.28501630928384,125.49223694177314,114.16860215376776,-0.0001295089750783,0.0931989923119545,0,0,0
10541,365686.6955540311,2010-11-20 17:20:21,2641.352036680406,7,32,-1.099568486213684,3.5263702869415283,31.44064732923268,31.294185238097704,125.49223694177314,114.20095246521552,-3.237724376958795e-05,0.0931989923119545,0,0,0
10542,365716.710931812,2010-11-20 17:20:51,2671.36741444606,7,32,-1.0997490882873535,3.5218374729156494,31.44064732923268,31.303354272161062,125.49223694177314,114.2332646936566,-0.0001295089750783,0.0931989923119545,0,0,0
10543,365746.7265073061,2010-11-20 17:21:21,2701.382989940274,7,32,-1.099568486213684,3.5174665451049805,31.44064732923268,31.31252330111964,125.49223694177314,114.26553710286852,-9.713172767078504e-05,0.0931989923119545,0,0,0
10544,365776.7416955085,2010-11-20 17:21:51,2731.3981781627986,7,32,-1.0997490882873535,3.512771844863892,31.44064732923268,31.32169222076239,125.49223694177314,114.29776740768078,-0.0001618862152099,0.0931989923119545,0,0,0
10545,365806.75701467285,2010-11-20 17:22:21,2761.4134973271744,7,32,-1.0997490882873535,3.507915496826172,31.44064732923268,31.330861145319865,125.49223694177314,114.32995334149378,-0.0001295089750783,0.0931989923119545,0,0,0
10546,365836.7725014106,2010-11-20 17:22:51,2791.4289840447886,7,32,-1.099929690361023,3.5022494792938232,31.44064732923268,31.34003011163396,125.49223694177314,114.3620917809741,-0.0001942634553415,0.0931989923119545,0,0,0
10547,365866.7877462344,2010-11-20 17:23:21,2821.444228868599,7,32,-1.099568486213684,3.4964215755462646,31.44064732923268,31.349198969977916,125.49223694177314,114.39417781973388,-0.0001618862152099,0.0931989923119545,0,0,0
10548,365896.8033252976,2010-11-20 17:23:51,2851.459807946759,7,32,-1.099568486213684,3.489946126937866,31.44064732923268,31.35836796129821,125.49223694177314,114.42620679184884,-0.0001618862152099,0.0931989923119545,0,0,0
10549,365926.818475851,2010-11-20 17:24:21,2881.4749585002564,7,32,-1.0997490882873535,3.482337474822998,31.44064732923268,31.367536830082653,125.49223694177314,114.45817053324976,-0.0001942634553415,0.0931989923119545,0,0,0
10550,365956.833841732,2010-11-20 17:24:51,2911.490324381244,7,32,-1.0997490882873535,3.47327184677124,31.44064732923268,31.376705764449785,125.49223694177314,114.4900594057644,-0.0002913951757363,0.0931989923119545,0,0,0
10551,365986.8492828508,2010-11-20 17:25:21,2941.505765505049,7,32,-1.0997490882873535,3.4629111289978027,31.44064732923268,31.38587464087056,125.49223694177314,114.52185976951152,-0.0003237724304199,0.0931989923119545,0,0,0
10552,366016.86648020847,2010-11-20 17:25:51,2971.522962832609,7,32,-1.099568486213684,3.449798345565796,31.44064732923268,31.395044135510684,125.49223694177314,114.55355467216302,-0.0003885269106831,0.0931989923119545,0,0,0
10553,366046.88008832175,2010-11-20 17:26:21,3001.5365709509506,7,32,-1.0997490882873535,3.43312406539917,31.44064732923268,31.404212512949577,125.49223694177314,114.58511086660772,-0.0005180359003134,0.0931989923119545,0,0,0
10554,366076.89542679937,2010-11-20 17:26:51,3031.5519094335477,7,32,-1.0997490882873535,3.4112696647644043,31.44064732923268,31.413381464070863,125.49223694177314,114.61649364880968,-0.0006151676061563,0.0931989923119545,0,0,0
10555,366106.9106739339,2010-11-20 17:27:21,3061.5671565831635,7,32,-1.0997490882873535,3.381320714950561,31.44064732923268,31.422550372731973,125.49223694177314,114.64764092280129,-0.0009065627818927,0.0931989923119545,0,0,0
10556,366136.9260476043,2010-11-20 17:27:51,3091.5825302535945,7,32,-1.0997490882873535,3.33987808227539,31.44064732923268,31.431719293098745,125.49223694177314,114.67846500149962,-0.0012950897216796,0.0931989923119545,0,0,0
10557,366166.9413963927,2010-11-20 17:28:21,3121.5978790419163,7,32,-1.0997490882873535,3.2820847034454346,31.44064732923268,31.44088817774198,125.49223694177314,114.70883851938562,-0.0017483711708337,0.0931989923119545,0,0,0
10558,366196.9569364935,2010-11-20 17:28:51,3151.613419142783,7,32,-1.0997490882873535,3.1991991996765137,31.44064732923268,31.45005715306548,125.49223694177314,114.73857578958292,-0.0025578022468835,0.0931989923119545,0,0,0
10559,366226.9721265506,2010-11-20 17:29:21,3181.6286092049,7,32,-1.099568486213684,3.0730903148651123,31.44064732923268,31.45922603385596,125.49223694177314,114.76737595936372,-0.004047155380249,0.0931989923119545,0,0,0
10560,366252.45640860434,2010-11-20 17:29:46,3207.112891258565,7,32,-1.0997490882873535,2.872837543487549,31.44064732923268,31.46701085078574,125.49223694177314,114.79062527728462,-0.0087094781920313,0.0931989923119545,0,0,0
10561,366265.4874310861,2010-11-20 17:29:59,3220.14391373544,7,32,-1.1001102924346924,2.699943780899048,31.44064732923268,31.470991510542973,125.49223694177314,114.80172754564202,-0.0111053464934229,0.0931989923119545,0,0,0
10562,366325.4903410706,2010-11-20 17:31:00,60.01510569190016,8,32,0.0,3.296978235244751,31.44064732923268,31.470991510542973,125.49223694177314,114.80172754564202,0.0011979580158367,0.0931989923119545,0,0,0
10563,366325.6818106303,2010-11-20 17:31:00,0.187510941156965,9,32,-1.9243103452026844e-05,3.297140121459961,31.44064732923268,31.470991511545275,125.49223694177314,114.80172754894676,0.0,0.0945633500814437,0,0,0
10564,366330.50992667576,2010-11-20 17:31:05,5.015626831205586,9,32,0.0007031940040178,3.304910659790039,31.440648361771064,31.47099151163,125.49224035086309,114.8017275492261,0.0011008263099938,0.0945633500814437,0,0,0
