Data_Point,Test_Time(s),Date_Time,Step_Time(s),Step_Index,Cycle_Index,Current(A),Voltage(V),Charge_Capacity(Ah),Discharge_Capacity(Ah),Charge_Energy(Wh),Discharge_Energy(Wh),dV/dt(V/s),Internal_Resistance(Ohm),Is_FC_Data,AC_Impedance(Ohm),ACI_Phase_Angle(Deg)
10896,377802.6778080186,2010-11-20 20:42:18,30.015599042995785,1,34,0.0,3.337449789047241,32.42457452541307,32.45469914315822,129.4157287677843,118.39923588509912,0.0007446765666827,0.0923051163554191,0,0,0
10897,377832.68024214497,2010-11-20 20:42:48,60.01803325454693,1,34,0.0,3.360437393188477,32.42457452541307,32.45469914315822,129.4157287677843,118.39923588509912,0.0005180359003134,0.0923051163554191,0,0,0
10898,377862.69273930514,2010-11-20 20:43:18,90.03053039972855,1,34,0.0,3.3780829906463623,32.42457452541307,32.45469914315822,129.4157287677843,118.39923588509912,0.0004209041653666,0.0923051163554191,0,0,0
10899,377892.67982797686,2010-11-20 20:43:48,120.01761912157656,1,34,0.0,3.392005205154419,32.42457452541307,32.45469914315822,129.4157287677843,118.39923588509912,0.0003237724304199,0.0923051163554191,0,0,0
10900,377922.6853376641,2010-11-20 20:44:18,30.015356402327345,2,34,0.550297200679779,3.5550241470336914,32.42916211938357,32.45469914315822,129.43185937550956,118.39923588509912,0.0017483711708337,0.0923051163554191,0,0,0
10901,377952.7024776936,2010-11-20 20:44:48,60.032496411812566,2,34,0.550297200679779,3.6076369285583496,32.43375005399223,32.45469914315822,129.44829748804213,118.39923588509912,0.0011979580158367,0.0923051163554191,0,0,0
10902,377982.7159632811,2010-11-20 20:45:18,90.04598201433578,2,34,0.5501165986061096,3.64648962020874,32.438337375527475,32.45469914315822,129.464940453678,118.39923588509912,0.0009065627818927,0.0923051163554191,0,0,0
10903,378012.731330741,2010-11-20 20:45:48,120.0613494742646,2,34,0.5501165986061096,3.677409648895264,32.44292502454797,32.45469914315822,129.48174338679738,118.39923588509912,0.0007446765666827,0.0923051163554191,0,0,0
10904,378042.74671027606,2010-11-20 20:46:18,150.07672900933483,2,34,0.5501165986061096,3.702825784683228,32.447512658755585,32.45469914315822,129.49867438761808,118.39923588509912,0.0006151676061563,0.0923051163554191,0,0,0
10905,378072.7623095797,2010-11-20 20:46:48,180.0923282979437,2,34,0.550297200679779,3.724032878875733,32.45210026783353,32.45469914315822,129.51571184030433,118.39923588509912,0.0005180359003134,0.0923051163554191,0,0,0
10906,378102.7774537072,2010-11-20 20:47:18,210.10747244043785,2,34,0.5501165986061096,3.741840362548828,32.456687842497864,32.45469914315822,129.53283816332896,118.39923588509912,0.0004532813909463,0.0923051163554191,0,0,0
10907,378132.79295409896,2010-11-20 20:47:48,240.12297283218496,2,34,0.550297200679779,3.755114793777466,32.46127548334884,32.45469914315822,129.5500364887889,118.39923588509912,0.0002913951757363,0.0923051163554191,0,0,0
10908,378162.8081926872,2010-11-20 20:48:18,270.1382114204302,2,34,0.550297200679779,3.763856649398804,32.465863091127105,32.45469914315822,129.56728513421396,118.39923588509912,0.0001942634553415,0.0923051163554191,0,0,0
10909,378192.8235710244,2010-11-20 20:48:48,300.15358975751013,2,34,0.550297200679779,3.769198894500733,32.470450744917905,32.45469914315822,129.58456532517155,118.39923588509912,9.713172767078504e-05,0.0923051163554191,0,0,0
10910,378222.83894277486,2010-11-20 20:49:19,330.16896150814915,2,34,0.5501165986061096,3.773407936096192,32.475038377063385,32.45469914315822,129.60186696338664,118.39923588509912,6.47544875391759e-05,0.0923051163554191,0,0,0
10911,378252.8543079291,2010-11-20 20:49:49,360.18432666733503,2,34,0.550297200679779,3.7772932052612314,32.4796259879437,32.45469914315822,129.61918681430004,118.39923588509912,9.713172767078504e-05,0.0923051163554191,0,0,0
10912,378282.869711384,2010-11-20 20:50:19,390.1997301171,2,34,0.550297200679779,3.7808547019958496,32.48421365071802,32.45469914315822,129.63652390016304,118.39923588509912,0.0001295089750783,0.0923051163554191,0,0,0
10913,378312.88519941975,2010-11-20 20:50:49,420.215218153005,2,34,0.550297200679779,3.784254312515259,32.48880131031947,32.45469914315822,129.65387702648712,118.39923588509912,9.713172767078504e-05,0.0923051163554191,0,0,0
10914,378342.90042038914,2010-11-20 20:51:19,450.2304391222706,2,34,0.550297200679779,3.787653923034668,32.49338899824477,32.45469914315822,129.67124581077513,118.39923588509912,9.713172767078504e-05,0.0923051163554191,0,0,0
10915,378372.91578996927,2010-11-20 20:51:49,480.245808702492,2,34,0.5504778623580933,3.790891647338867,32.49797666481741,32.45469914315822,129.68862951724142,118.39923588509912,9.713172767078504e-05,0.0923051163554191,0,0,0
10916,378402.9311717849,2010-11-20 20:52:19,510.26119052326766,2,34,0.5501165986061096,3.793967485427856,32.50256430151645,32.45469914315822,129.70602761641763,118.39923588509912,6.47544875391759e-05,0.0923051163554191,0,0,0
10917,378432.94654857327,2010-11-20 20:52:49,540.2765673114814,2,34,0.5501165986061096,3.796881437301636,32.50715194687603,32.45469914315822,129.72343994987293,118.39923588509912,6.47544875391759e-05,0.0923051163554191,0,0,0
10918,378462.9619127751,2010-11-20 20:53:19,570.2919315082648,2,34,0.5504778623580933,3.800119161605835,32.511739560471376,32.45469914315822,129.74086608862444,118.39923588509912,9.713172767078504e-05,0.0923051163554191,0,0,0
10919,378492.9773279641,2010-11-20 20:53:49,600.3073467023454,2,34,0.550297200679779,3.8030331134796143,32.51632717771859,32.45469914315822,129.75830592684957,118.39923588509912,6.47544875391759e-05,0.0923051163554191,0,0,0
10920,378522.9926586472,2010-11-20 20:54:19,630.3226773804613,2,34,0.550297200679779,3.8059470653533936,32.52091479565608,32.45469914315822,129.7757593684595,118.39923588509912,9.713172767078504e-05,0.0923051163554191,0,0,0
10921,378553.0101443947,2010-11-20 20:54:49,660.3401632131745,2,34,0.550297200679779,3.808861017227173,32.52550279598633,32.45469914315822,129.79322789845028,118.39923588509912,9.713172767078504e-05,0.0923051163554191,0,0,0
10922,378583.0234068552,2010-11-20 20:55:19,690.3534255734506,2,34,0.5501165986061096,3.811936855316162,32.53009014866172,32.45469914315822,129.81070780603878,118.39923588509912,6.47544875391759e-05,0.0923051163554191,0,0,0
10923,378613.03877977387,2010-11-20 20:55:49,720.3687985070426,2,34,0.550297200679779,3.815174579620361,32.53467779739212,32.45469914315822,129.82820307491946,118.39923588509912,9.713172767078504e-05,0.0923051163554191,0,0,0
10924,378643.0541564768,2010-11-20 20:56:19,750.3841752100435,2,34,0.5501165986061096,3.818250417709351,32.5392654199714,32.45469914315822,129.8457128328147,118.39923588509912,9.713172767078504e-05,0.0923051163554191,0,0,0
10925,378673.0695379267,2010-11-20 20:56:49,780.3995566598934,2,34,0.5501165986061096,3.82148814201355,32.5438530824602,32.45469914315822,129.8632376378361,118.39923588509912,3.237724376958795e-05,0.0923051163554191,0,0,0
10926,378703.08495564206,2010-11-20 20:57:19,810.4149743752675,2,34,0.5501165986061096,3.824887752532959,32.54844070995318,32.45469914315822,129.88077752780737,118.39923588509912,9.713172767078504e-05,0.0923051163554191,0,0,0
10927,378733.10028431006,2010-11-20 20:57:49,840.4303030433659,2,34,0.550297200679779,3.828611135482788,32.55302830224413,32.45469914315822,129.89833294258796,118.39923588509912,0.0001295089750783,0.0923051163554191,0,0,0
10928,378763.1158025765,2010-11-20 20:58:19,870.4458213097308,2,34,0.5501165986061096,3.8318488597869873,32.557615987377794,32.45469914315822,129.91590451179366,118.39923588509912,9.713172767078504e-05,0.0923051163554191,0,0,0
10929,378793.1310291648,2010-11-20 20:58:49,900.4610478980223,2,34,0.5501165986061096,3.8354101181030273,32.562203574271194,32.45469914315822,129.93349154235034,118.39923588509912,9.713172767078504e-05,0.0923051163554191,0,0,0
10930,378823.1463858679,2010-11-20 20:59:19,930.4764046011004,2,34,0.5501165986061096,3.838809728622437,32.56679119634567,32.45469914315822,129.9510945597575,118.39923588509912,9.713172767078504e-05,0.0923051163554191,0,0,0
10931,378853.1617652976,2010-11-20 20:59:49,960.491784030908,2,34,0.550297200679779,3.8422093391418457,32.57137878220393,32.45469914315822,129.96871305780297,118.39923588509912,9.713172767078504e-05,0.0923051163554191,0,0,0
10932,378883.1771531234,2010-11-20 21:00:19,990.5071718566728,2,34,0.550297200679779,3.845447063446045,32.57596640727864,32.45469914315822,129.98634711971576,118.39923588509912,6.47544875391759e-05,0.0923051163554191,0,0,0
10933,378913.1925505281,2010-11-20 21:00:49,1020.5225692663612,2,34,0.550297200679779,3.848846673965454,32.58055410223355,32.45469914315822,130.0039967464929,118.39923588509912,9.713172767078504e-05,0.0923051163554191,0,0,0
10934,378943.2078640384,2010-11-20 21:01:19,1050.5378827716108,2,34,0.5504778623580933,3.852084398269653,32.585141786928126,32.45469914315822,130.02166127576,118.39923588509912,6.47544875391759e-05,0.0923051163554191,0,0,0
10935,378973.2233646908,2010-11-20 21:01:49,1080.5533834290209,2,34,0.550297200679779,3.8551602363586426,32.58972946165019,32.45469914315822,130.03934025524865,118.39923588509912,9.713172767078504e-05,0.0923051163554191,0,0,0
10936,379003.23861614615,2010-11-20 21:02:19,1110.5686348843844,2,34,0.550297200679779,3.858074188232422,32.594317080396024,32.45469914315822,130.05703322842876,118.39923588509912,3.237724376958795e-05,0.0923051163554191,0,0,0
10937,379033.2541300165,2010-11-20 21:02:49,1140.584148749764,2,34,0.550297200679779,3.860988140106201,32.59890477033184,32.45469914315822,130.07474014032397,118.39923588509912,6.47544875391759e-05,0.0923051163554191,0,0,0
10938,379063.26937600825,2010-11-20 21:03:19,1170.5993947414893,2,34,0.550297200679779,3.863902091979981,32.60349235541733,32.45469914315822,130.09245972075843,118.39923588509912,9.713172767078504e-05,0.0923051163554191,0,0,0
10939,379093.2848683048,2010-11-20 21:03:49,1200.614887022992,2,34,0.5504778623580933,3.86665415763855,32.60807997243093,32.45469914315822,130.11019198144538,118.39923588509912,9.713172767078504e-05,0.0923051163554191,0,0,0
10940,379123.300156131,2010-11-20 21:04:19,1230.6301748641802,2,34,0.5501165986061096,3.869082450866699,32.61266762595818,32.45469914315822,130.1279364248085,118.39923588509912,6.47544875391759e-05,0.0923051163554191,0,0,0
10941,379153.3173778394,2010-11-20 21:04:49,1260.6473965575608,2,34,0.5501165986061096,3.871348857879639,32.61725550761005,32.45469914315822,130.14569308858702,118.39923588509912,3.237724376958795e-05,0.0923051163554191,0,0,0
10942,379183.33085528656,2010-11-20 21:05:19,1290.6608740197648,2,34,0.5501165986061096,3.873777151107788,32.62184289832303,32.45469914315822,130.1634586257542,118.39923588509912,6.47544875391759e-05,0.0923051163554191,0,0,0
10943,379213.3462199445,2010-11-20 21:05:49,1320.6762386776993,2,34,0.5501165986061096,3.8758816719055176,32.62643059735011,32.45469914315822,130.1812353156514,118.39923588509912,6.47544875391759e-05,0.0923051163554191,0,0,0
10944,379243.3617192234,2010-11-20 21:06:19,1350.6917379416311,2,34,0.5501165986061096,3.877986192703247,32.63101820788013,32.45469914315822,130.1990211291185,118.39923588509912,6.47544875391759e-05,0.0923051163554191,0,0,0
10945,379273.3769808893,2010-11-20 21:06:49,1380.706999622519,2,34,0.5499359965324402,3.8797669410705566,32.635605884164825,32.45469914315822,130.21681611050397,118.39923588509912,6.47544875391759e-05,0.0923051163554191,0,0,0
10946,379303.3925383334,2010-11-20 21:07:19,1410.7225570516405,2,34,0.5501165986061096,3.881547689437866,32.64019350956196,32.45469914315822,130.23461911720523,118.39923588509912,3.237724376958795e-05,0.0923051163554191,0,0,0
10947,379333.4077783552,2010-11-20 21:07:49,1440.7377970885018,2,34,0.5501165986061096,3.883166551589966,32.64478106948463,32.45469914315822,130.25242965293208,118.39923588509912,3.237724376958795e-05,0.0923051163554191,0,0,0
10948,379363.4231090384,2010-11-20 21:08:19,1470.75312777163,2,34,0.550297200679779,3.8847854137420654,32.649368712143485,32.45469914315822,130.27024786265812,118.39923588509912,9.713172767078504e-05,0.0923051163554191,0,0,0
10949,379393.4384994205,2010-11-20 21:08:49,1500.768518153776,2,34,0.5501165986061096,3.886242389678955,32.653956404891275,32.45469914315822,130.28807330673212,118.39923588509912,6.47544875391759e-05,0.0923051163554191,0,0,0
10950,379423.4538556625,2010-11-20 21:09:19,1530.7838743957032,2,34,0.550297200679779,3.887861251831055,32.658544126428815,32.45469914315822,130.30590567114686,118.39923588509912,3.237724376958795e-05,0.0923051163554191,0,0,0
10951,379453.46922462113,2010-11-20 21:09:49,1560.7992433543732,2,34,0.550297200679779,3.8891563415527344,32.663131801580114,32.45469914315822,130.32374441746907,118.39923588509912,0.0,0.0923051163554191,0,0,0
10952,379483.4846087928,2010-11-20 21:10:19,1590.814627515992,2,34,0.550297200679779,3.890613317489624,32.66771950251914,32.45469914315822,130.34158963718895,118.39923588509912,6.47544875391759e-05,0.0923051163554191,0,0,0
10953,379513.50273092376,2010-11-20 21:10:49,1620.8327497272037,2,34,0.5504778623580933,3.891908407211304,32.67230755177955,32.45469914315822,130.35944249357493,118.39923588509912,3.237724376958795e-05,0.0923051163554191,0,0,0
10954,379543.5155440326,2010-11-20 21:11:19,1650.845562755879,2,34,0.550297200679779,3.893203496932984,32.676894875296696,32.45469914315822,130.37729872236432,118.39923588509912,3.237724376958795e-05,0.0923051163554191,0,0,0
10955,379573.5307152378,2010-11-20 21:11:49,1680.8607339709506,2,34,0.550297200679779,3.894498586654663,32.68148250107767,32.45469914315822,130.39516231586987,118.39923588509912,3.237724376958795e-05,0.0923051163554191,0,0,0
10956,379603.5462164816,2010-11-20 21:12:19,1710.8762352148249,2,34,0.5501165986061096,3.895631790161133,32.68607024751549,32.45469914315822,130.41303198334523,118.39923588509912,3.237724376958795e-05,0.0923051163554191,0,0,0
10957,379633.5614737565,2010-11-20 21:12:49,1740.891492489715,2,34,0.550297200679779,3.8970887660980233,32.69065789506986,32.45469914315822,130.43090741907722,118.39923588509912,3.237724376958795e-05,0.0923051163554191,0,0,0
10958,379663.5768604445,2010-11-20 21:13:19,1770.906879162602,2,34,0.5504778623580933,3.898383855819702,32.69524552645706,32.45469914315822,130.44878876847878,118.39923588509912,3.237724376958795e-05,0.0923051163554191,0,0,0
10959,379693.5922197189,2010-11-20 21:13:49,1800.9222384370987,2,34,0.5501165986061096,3.899678945541382,32.69983321180191,32.45469914315822,130.46667646002916,118.39923588509912,3.237724376958795e-05,0.0923051163554191,0,0,0
10960,379723.60758550966,2010-11-20 21:14:19,1830.937604227861,2,34,0.550297200679779,3.901135921478272,32.704420898535496,32.45469914315822,130.48457015356257,118.39923588509912,3.237724376958795e-05,0.0923051163554191,0,0,0
10961,379753.62484263646,2010-11-20 21:14:49,1860.954861354689,2,34,0.550297200679779,3.902431011199951,32.70900885869501,32.45469914315822,130.50247102846413,118.39923588509912,6.47544875391759e-05,0.0923051163554191,0,0,0
10962,379783.638335016,2010-11-20 21:15:19,1890.9683537491665,2,34,0.5501165986061096,3.903726100921631,32.71359616716021,32.45469914315822,130.52037547793947,118.39923588509912,3.237724376958795e-05,0.0923051163554191,0,0,0
10963,379813.6538306257,2010-11-20 21:15:49,1920.9838493439397,2,34,0.5501165986061096,3.905021190643311,32.7181838854545,32.45469914315822,130.5382877502045,118.39923588509912,0.0,0.0923051163554191,0,0,0
10964,379843.6691112339,2010-11-20 21:16:19,1950.9991299570847,2,34,0.5504778623580933,3.9064781665802,32.72277158207543,32.45469914315822,130.5562059901657,118.39923588509912,6.47544875391759e-05,0.0923051163554191,0,0,0
10965,379873.6844850798,2010-11-20 21:16:49,1981.014503797942,2,34,0.5501165986061096,3.90761137008667,32.727359219173536,32.45469914315822,130.5741303011674,118.39923588509912,3.237724376958795e-05,0.0923051163554191,0,0,0
10966,379903.6998240986,2010-11-20 21:17:19,2011.0298428168776,2,34,0.5499359965324402,3.9092302322387695,32.7319468765736,32.45469914315822,130.59206093423273,118.39923588509912,0.0,0.0923051163554191,0,0,0
10967,379933.71519194456,2010-11-20 21:17:49,2041.0452106778075,2,34,0.550297200679779,3.910525321960449,32.73653460444648,32.45469914315822,130.60999823113158,118.39923588509912,3.237724376958795e-05,0.0923051163554191,0,0,0
10968,379963.7306266925,2010-11-20 21:18:19,2071.060645425697,2,34,0.5501165986061096,3.911982297897339,32.741122229205,32.45469914315822,130.62794145811694,118.39923588509912,3.237724376958795e-05,0.0923051163554191,0,0,0
10969,379993.7459924431,2010-11-20 21:18:49,2101.0760111763598,2,34,0.550297200679779,3.9132773876190186,32.745709905465986,32.45469914315822,130.64589134285018,118.39923588509912,9.713172767078504e-05,0.0923051163554191,0,0,0
10970,380023.7613112065,2010-11-20 21:19:19,2131.091329929709,2,34,0.5501165986061096,3.914734125137329,32.75029760517471,32.45469914315822,130.66384782038463,118.39923588509912,0.0,0.0923051163554191,0,0,0
10971,380053.7768273626,2010-11-20 21:19:49,2161.1068460858064,2,34,0.550297200679779,3.9163529872894287,32.75488532209876,32.45469914315822,130.68181081171068,118.39923588509912,6.47544875391759e-05,0.0923051163554191,0,0,0
10972,380083.79207055736,2010-11-20 21:20:19,2191.122089275538,2,34,0.550297200679779,3.917648077011109,32.75947295307372,32.45469914315822,130.6997800761045,118.39923588509912,3.237724376958795e-05,0.0923051163554191,0,0,0
10973,380113.807460729,2010-11-20 21:20:49,2221.137479462196,2,34,0.5501165986061096,3.918943166732788,32.76406064854523,32.45469914315822,130.71775619383996,118.39923588509912,3.237724376958795e-05,0.0923051163554191,0,0,0
10974,380143.822803392,2010-11-20 21:21:20,2251.1528221252283,2,34,0.5501165986061096,3.920562028884888,32.76864826623236,32.45469914315822,130.73573867433657,118.39923588509912,3.237724376958795e-05,0.0923051163554191,0,0,0
10975,380173.8383863698,2010-11-20 21:21:50,2281.168405088086,2,34,0.5501165986061096,3.921857118606568,32.77323599565931,32.45469914315822,130.7537282406343,118.39923588509912,0.0,0.0923051163554191,0,0,0
10976,380203.853576021,2010-11-20 21:22:20,2311.183594739176,2,34,0.5501165986061096,3.923475980758667,32.77782357724603,32.45469914315822,130.77172400561608,118.39923588509912,6.47544875391759e-05,0.0923051163554191,0,0,0
10977,380233.86894927535,2010-11-20 21:22:50,2341.1989680136185,2,34,0.5501165986061096,3.9249329566955566,32.78241121700157,32.45469914315822,130.7897267458967,118.39923588509912,3.237724376958795e-05,0.0923051163554191,0,0,0
10978,380263.8842947905,2010-11-20 21:23:20,2371.214313523757,2,34,0.550297200679779,3.9263899326324463,32.78699888598796,32.45469914315822,130.80773640963017,118.39923588509912,3.237724376958795e-05,0.0923051163554191,0,0,0
10979,380293.8996718093,2010-11-20 21:23:50,2401.229690547559,2,34,0.550297200679779,3.928008794784546,32.79158648861513,32.45469914315822,130.8257526535557,118.39923588509912,6.47544875391759e-05,0.0923051163554191,0,0,0
10980,380323.9150723218,2010-11-20 21:24:20,2431.245091039942,2,34,0.5501165986061096,3.9293038845062256,32.796174167328545,32.45469914315822,130.84377614012894,118.39923588509912,0.0,0.0923051163554191,0,0,0
10981,380353.91649063246,2010-11-20 21:24:50,2461.246509110048,2,34,0.550297200679779,3.930922746658325,32.80075969532779,32.45469914315822,130.8617981619262,118.39923588509912,3.237724376958795e-05,0.0923051163554191,0,0,0
10982,380383.9320615202,2010-11-20 21:25:20,2491.262080238364,2,34,0.550297200679779,3.932379722595215,32.80534737650347,32.45469914315822,130.87983555833966,118.39923588509912,3.237724376958795e-05,0.0923051163554191,0,0,0
10983,380413.9455605513,2010-11-20 21:25:50,2521.2755792844446,2,34,0.550297200679779,3.9339985847473145,32.80993479327869,32.45469914315822,130.89787895542335,118.39923588509912,3.237724376958795e-05,0.0923051163554191,0,0,0
10984,380443.9609353845,2010-11-20 21:26:20,2551.290954122791,2,34,0.5501165986061096,3.935455560684204,32.81452252714726,32.45469914315822,130.915930708493,118.39923588509912,3.237724376958795e-05,0.0923051163554191,0,0,0
10985,380473.9763699871,2010-11-20 21:26:50,2581.3063887353437,2,34,0.550297200679779,3.9372363090515137,32.81911025699919,32.45469914315822,130.93398945458637,118.39923588509912,9.713172767078504e-05,0.0923051163554191,0,0,0
10986,380503.99193004274,2010-11-20 21:27:20,2611.321948775983,2,34,0.5501165986061096,3.9386932849884033,32.823697998084285,32.45469914315822,130.9520555354686,118.39923588509912,3.237724376958795e-05,0.0923051163554191,0,0,0
10987,380534.0070806714,2010-11-20 21:27:50,2641.3370993896306,2,34,0.550297200679779,3.940150260925293,32.82828564892067,32.45469914315822,130.97012845563637,118.39923588509912,3.237724376958795e-05,0.0923051163554191,0,0,0
10988,380564.0224047882,2010-11-20 21:28:20,2671.3524235214054,2,34,0.550297200679779,3.942092895507813,32.832873299610014,32.45469914315822,130.98820868015935,118.39923588509912,9.713172767078504e-05,0.0923051163554191,0,0,0
10989,380594.0377863182,2010-11-20 21:28:50,2701.3678050414305,2,34,0.5501165986061096,3.943387985229492,32.83746096727472,32.45469914315822,131.00629632997433,118.39923588509912,3.237724376958795e-05,0.0923051163554191,0,0,0
10990,380624.0531661891,2010-11-20 21:29:20,2731.383184922364,2,34,0.5504778623580933,3.945330619812012,32.84204868242501,32.45469914315822,131.02439158557775,118.39923588509912,9.713172767078504e-05,0.0923051163554191,0,0,0
10991,380654.0685358496,2010-11-20 21:29:50,2761.398554582785,2,34,0.550297200679779,3.946787595748901,32.846636325082315,32.45469914315822,131.0424940602745,118.39923588509912,6.47544875391759e-05,0.0923051163554191,0,0,0
10992,380684.0839094448,2010-11-20 21:30:20,2791.413928178029,2,34,0.5501165986061096,3.948406457901001,32.85122400855301,32.45469914315822,131.06060406841692,118.39923588509912,3.237724376958795e-05,0.0923051163554191,0,0,0
10993,380714.0992744888,2010-11-20 21:30:50,2821.4292932219278,2,34,0.550297200679779,3.9500253200531006,32.85581175347368,32.45469914315822,131.07872197895014,118.39923588509912,3.237724376958795e-05,0.0923051163554191,0,0,0
10994,380744.1148330255,2010-11-20 21:31:20,2851.444851743776,2,34,0.5501165986061096,3.9516441822052,32.86039939597042,32.45469914315822,131.09684713185035,118.39923588509912,3.237724376958795e-05,0.0923051163554191,0,0,0
10995,380774.1300217994,2010-11-20 21:31:50,2881.4600405176766,2,34,0.550297200679779,3.9534249305725098,32.864986995391256,32.45469914315822,131.114979724328,118.39923588509912,6.47544875391759e-05,0.0923051163554191,0,0,0
10996,380804.1453957857,2010-11-20 21:32:20,2911.475414503896,2,34,0.550297200679779,3.95504379272461,32.86957466493682,32.45469914315822,131.1331203328531,118.39923588509912,6.47544875391759e-05,0.0923051163554191,0,0,0
10997,380834.1607708496,2010-11-20 21:32:50,2941.4907895828437,2,34,0.550297200679779,3.956824541091919,32.87416234815418,32.45469914315822,131.1512688309409,118.39923588509912,6.47544875391759e-05,0.0923051163554191,0,0,0
10998,380864.17615335714,2010-11-20 21:33:20,2971.506172090333,2,34,0.550297200679779,3.958605289459229,32.87875007067106,32.45469914315822,131.16942521421643,118.39923588509912,9.713172767078504e-05,0.0923051163554191,0,0,0
10999,380894.19152115285,2010-11-20 21:33:50,3001.5215398710625,2,34,0.550297200679779,3.960224151611328,32.883337774805725,32.45469914315822,131.18758953641537,118.39923588509912,6.47544875391759e-05,0.0923051163554191,0,0,0
11000,380924.2069086529,2010-11-20 21:34:20,3031.5369273710144,2,34,0.5501165986061096,3.961843013763428,32.88792545229805,32.45469914315822,131.20576182020014,118.39923588509912,0.0,0.0923051163554191,0,0,0
11001,380954.2223187492,2010-11-20 21:34:50,3061.5523374673708,2,34,0.550297200679779,3.9637856483459473,32.892513116862574,32.45469914315822,131.22394205824855,118.39923588509912,6.47544875391759e-05,0.0923051163554191,0,0,0
11002,380984.2396969632,2010-11-20 21:35:20,3091.569715681451,2,34,0.550297200679779,3.965728282928467,32.89710113182183,32.45469914315822,131.24213191139617,118.39923588509912,9.713172767078504e-05,0.0923051163554191,0,0,0
11003,381014.2530228771,2010-11-20 21:35:50,3121.583041595367,2,34,0.5504778623580933,3.9673471450805664,32.90168850289129,32.45469914315822,131.26032750960326,118.39923588509912,3.237724376958795e-05,0.0923051163554191,0,0,0
11004,381044.26852425135,2010-11-20 21:36:20,3151.598542984604,2,34,0.5501165986061096,3.969127893447876,32.906276250383115,32.45469914315822,131.27853286958145,118.39923588509912,3.237724376958795e-05,0.0923051163554191,0,0,0
11005,381074.2838937414,2010-11-20 21:36:50,3181.6139124595625,2,34,0.550297200679779,3.9709086418151855,32.91086392141465,32.45469914315822,131.2967463997509,118.39923588509912,3.237724376958795e-05,0.0923051163554191,0,0,0
11006,381104.29915354255,2010-11-20 21:37:20,3211.629172275796,2,34,0.550297200679779,3.972851276397705,32.91545157180383,32.45469914315822,131.31496838294035,118.39923588509912,6.47544875391759e-05,0.0923051163554191,0,0,0
11007,381134.3145034888,2010-11-20 21:37:50,3241.644522222008,2,34,0.5501165986061096,3.9747939109802246,32.92003931338753,32.45469914315822,131.33319941113913,118.39923588509912,6.47544875391759e-05,0.0923051163554191,0,0,0
11008,381164.3299361013,2010-11-20 21:38:20,3271.659954834568,2,34,0.5501165986061096,3.976574659347534,32.924627044148544,32.45469914315822,131.35143914640742,118.39923588509912,3.237724376958795e-05,0.0923051163554191,0,0,0
11009,381194.345252158,2010-11-20 21:38:50,3301.6752708911854,2,34,0.550297200679779,3.9785172939300537,32.929214782595665,32.45469914315822,131.36968737975482,118.39923588509912,0.0001295089750783,0.0923051163554191,0,0,0
11010,381224.360762304,2010-11-20 21:39:20,3331.690781037282,2,34,0.5504778623580933,3.980783700942993,32.933802389404434,32.45469914315822,131.38794446392131,118.39923588509912,6.47544875391759e-05,0.0923051163554191,0,0,0
11011,381254.3762282448,2010-11-20 21:39:50,3361.7062469629964,2,34,0.550297200679779,3.9827263355255127,32.93839001310922,32.45469914315822,131.40621076952667,118.39923588509912,6.47544875391759e-05,0.0923051163554191,0,0,0
11012,381284.39150458726,2010-11-20 21:40:20,3391.721523325532,2,34,0.550297200679779,3.984668970108032,32.94297762115662,32.45469914315822,131.42448613793175,118.39923588509912,6.47544875391759e-05,0.0923051163554191,0,0,0
11013,381314.4068895308,2010-11-20 21:40:50,3421.7369082640894,2,34,0.550297200679779,3.9867734909057617,32.9475652786632,32.45469914315822,131.4427710671765,118.39923588509912,6.47544875391759e-05,0.0923051163554191,0,0,0
11014,381344.42213702126,2010-11-20 21:41:20,3451.7521557545565,2,34,0.550297200679779,3.988716125488281,32.952152944411374,32.45469914315822,131.4610654226092,118.39923588509912,6.47544875391759e-05,0.0923051163554191,0,0,0
11015,381374.4375345062,2010-11-20 21:41:50,3481.7675532394323,2,34,0.550297200679779,3.9909825325012207,32.95674051673429,32.45469914315822,131.4793688942128,118.39923588509912,9.713172767078504e-05,0.0923051163554191,0,0,0
11016,381404.4528864224,2010-11-20 21:42:20,3511.7829051605736,2,34,0.5501165986061096,3.99292516708374,32.96132814695614,32.45469914315822,131.49768235064104,118.39923588509912,3.237724376958795e-05,0.0923051163554191,0,0,0
11017,381434.4682724987,2010-11-20 21:42:50,3541.798291221935,2,34,0.550297200679779,3.99502944946289,32.9659158273445,32.45469914315822,131.516005712149,118.39923588509912,3.237724376958795e-05,0.0923051163554191,0,0,0
11018,381464.4852381981,2010-11-20 21:43:20,3571.81525693134,2,34,0.550297200679779,3.99745774269104,32.97050375270426,32.45469914315822,131.53433991471124,118.39923588509912,9.713172767078504e-05,0.0923051163554191,0,0,0
11019,381494.4990478495,2010-11-20 21:43:50,3601.829066667952,2,34,0.5501165986061096,3.99940037727356,32.97509114302868,32.45469914315822,131.55268182496357,118.39923588509912,6.47544875391759e-05,0.0923051163554191,0,0,0
11020,381524.514371856,2010-11-20 21:44:20,3631.844390589202,2,34,0.550297200679779,4.001504898071289,32.9796787748565,32.45469914315822,131.57103469021183,118.39923588509912,6.47544875391759e-05,0.0923051163554191,0,0,0
11021,381554.5297429048,2010-11-20 21:44:50,3661.859761638089,2,34,0.5499359965324402,4.0037713050842285,32.98426636405748,32.45469914315822,131.58939744911262,118.39923588509912,6.47544875391759e-05,0.0923051163554191,0,0,0
11022,381584.54694974615,2010-11-20 21:45:20,3691.876968459346,2,34,0.550297200679779,4.006199836730957,32.988854270730634,32.45469914315822,131.6077716004259,118.39923588509912,6.47544875391759e-05,0.0923051163554191,0,0,0
11023,381614.5604917796,2010-11-20 21:45:50,3721.890510497743,2,34,0.5501165986061096,4.008304119110107,32.99344166380861,32.45469914315822,131.62615399199402,118.39923588509912,6.47544875391759e-05,0.0923051163554191,0,0,0
11024,381644.57586735976,2010-11-20 21:46:20,3751.9058860929786,2,34,0.550297200679779,4.010570526123047,32.998029294111966,32.45469914315822,131.64454760126512,118.39923588509912,6.47544875391759e-05,0.0923051163554191,0,0,0
11025,381674.5912322533,2010-11-20 21:46:50,3781.921250986501,2,34,0.550297200679779,4.012999057769775,33.00261687154793,32.45469914315822,131.6629515322334,118.39923588509912,9.71794142969884e-05,0.0923051163554191,0,0,0
11026,381704.6066298735,2010-11-20 21:47:20,3811.93664859669,2,34,0.550297200679779,4.015103340148926,33.00720448970867,32.45469914315822,131.68136631225855,118.39923588509912,6.47544875391759e-05,0.0923051163554191,0,0,0
11027,381734.62212240056,2010-11-20 21:47:50,3841.952141118793,2,34,0.5501165986061096,4.017531871795654,33.011792095650506,32.45469914315822,131.6997916852977,118.39923588509912,6.47544875391759e-05,0.0923051163554191,0,0,0
11028,381764.6374835448,2010-11-20 21:48:20,3871.967502267969,2,34,0.550297200679779,4.019959926605225,33.01637973889573,32.45469914315822,131.7182279301904,118.39923588509912,6.47544875391759e-05,0.0923051163554191,0,0,0
11029,381794.6530897305,2010-11-20 21:48:50,3901.98310858412,2,34,0.5501165986061096,4.022064685821533,33.02096735567504,32.45469914315822,131.7366749133331,118.39923588509912,3.24249267578125e-05,0.0923051163554191,0,0,0
11030,381824.6682199834,2010-11-20 21:49:20,3931.9982387166433,2,34,0.5501165986061096,4.024492740631104,33.02555488879724,32.45469914315822,131.7551325092917,118.39923588509912,3.23295607813634e-05,0.0923051163554191,0,0,0
11031,381854.68350281205,2010-11-20 21:49:50,3962.0135215453183,2,34,0.5501165986061096,4.026921272277832,33.03014218418939,32.45469914315822,131.77360013280875,118.39923588509912,3.24249267578125e-05,0.0923051163554191,0,0,0
11032,381884.69890006137,2010-11-20 21:50:20,3992.0289187946064,2,34,0.5499359965324402,4.029349327087402,33.034728976785686,32.45469914315822,131.79207676708776,118.39923588509912,0.0,0.0923051163554191,0,0,0
11033,381914.7142463886,2010-11-20 21:50:50,4022.044265121785,2,34,0.5501165986061096,4.031939506530762,33.03931581500512,32.45469914315822,131.81056477464452,118.39923588509912,9.70840483205393e-05,0.0923051163554191,0,0,0
11034,381944.7296724848,2010-11-20 21:51:20,4052.059691218079,2,34,0.5501165986061096,4.034367561340332,33.043902644774704,32.45469914315822,131.82906414055535,118.39923588509912,0.0,0.0923051163554191,0,0,0
11035,381974.7451322101,2010-11-20 21:51:50,4082.0751509332913,2,34,0.550297200679779,4.036957740783691,33.04848971806795,32.45469914315822,131.84757604949385,118.39923588509912,6.47544875391759e-05,0.0923051163554191,0,0,0
11036,382004.760549329,2010-11-20 21:52:20,4112.090568052176,2,34,0.550297200679779,4.039547920227051,33.05307729523397,32.45469914315822,131.86610175678584,118.39923588509912,6.47544875391759e-05,0.0923051163554191,0,0,0
11037,382034.77574947634,2010-11-20 21:52:50,4142.105768194455,2,34,0.550297200679779,4.04213809967041,33.0576648779952,32.45469914315822,131.8846391050557,118.39923588509912,9.70840483205393e-05,0.0923051163554191,0,0,0
11038,382064.7911233623,2010-11-20 21:53:20,4172.121142095461,2,34,0.5501165986061096,4.0447282791137695,33.062252404770945,32.45469914315822,131.90318804316814,118.39923588509912,6.47544875391759e-05,0.0923051163554191,0,0,0
11039,382094.8064845314,2010-11-20 21:53:51,4202.136503264688,2,34,0.550297200679779,4.047318458557129,33.06684000100222,32.45469914315822,131.92174912391278,118.39923588509912,6.47544875391759e-05,0.0923051163554191,0,0,0
11040,382124.82186680834,2010-11-20 21:54:21,4232.151885526564,2,34,0.5501165986061096,4.049908638000488,33.07142760860509,32.45469914315822,131.94032224607494,118.39923588509912,6.47544875391759e-05,0.0923051163554191,0,0,0
11041,382154.83723964175,2010-11-20 21:54:51,4262.167258359907,2,34,0.5501165986061096,4.052498817443848,33.07601523999768,32.45469914315822,131.95890746347885,118.39923588509912,3.23295607813634e-05,0.0923051163554191,0,0,0
11042,382184.8545149539,2010-11-20 21:55:21,4292.184533672128,2,34,0.5501165986061096,4.055088996887207,33.080603094772826,32.45469914315822,131.97750579164062,118.39923588509912,3.23295607813634e-05,0.0923051163554191,0,0,0
11043,382214.8681747312,2010-11-20 21:55:51,4322.198193449418,2,34,0.5504778623580933,4.058002948760986,33.085190431360324,32.45469914315822,131.9961143050449,118.39923588509912,9.70840483205393e-05,0.0923051163554191,0,0,0
11044,382244.883497279,2010-11-20 21:56:21,4352.21351599724,2,34,0.550297200679779,4.060593128204346,33.08977809534234,32.45469914315822,132.01473661715832,118.39923588509912,6.47544875391759e-05,0.0923051163554191,0,0,0
11045,382274.8987420427,2010-11-20 21:56:51,4382.228760780949,2,34,0.550297200679779,4.063345432281494,33.0943656750358,32.45469914315822,132.03337071852724,118.39923588509912,9.71794142969884e-05,0.0923051163554191,0,0,0
11046,382304.9141774072,2010-11-20 21:57:21,4412.244196140366,2,34,0.5501165986061096,4.0659356117248535,33.098953270999814,32.45469914315822,132.05201773043487,118.39923588509912,6.47544875391759e-05,0.0923051163554191,0,0,0
11047,382334.929478722,2010-11-20 21:57:51,4442.259497455187,2,34,0.550297200679779,4.069011211395264,33.10354074403251,32.45469914315822,132.07067707455988,118.39923588509912,9.70840483205393e-05,0.0923051163554191,0,0,0
11048,382364.94485390617,2010-11-20 21:58:21,4472.274872639397,2,34,0.550297200679779,4.071763515472412,33.108128289168775,32.45469914315822,132.0893496086083,118.39923588509912,9.71794142969884e-05,0.0923051163554191,0,0,0
11049,382394.96024449886,2010-11-20 21:58:51,4502.29026321703,2,34,0.5504778623580933,4.074515342712402,33.11271586518323,32.45469914315822,132.10803518737163,118.39923588509912,6.47544875391759e-05,0.0923051163554191,0,0,0
11050,382424.9759685138,2010-11-20 21:59:21,4532.305987247012,2,34,0.550297200679779,4.077591419219971,33.11730351098406,32.45469914315822,132.12673413059602,118.39923588509912,9.71794142969884e-05,0.0923051163554191,0,0,0
11051,382454.9909532032,2010-11-20 21:59:51,4562.320971926463,2,34,0.550297200679779,4.08018159866333,33.12189099772872,32.45469914315822,132.14544553116858,118.39923588509912,3.24249267578125e-05,0.0923051163554191,0,0,0
11052,382485.0063225579,2010-11-20 22:00:21,4592.336341276108,2,34,0.550297200679779,4.083095550537109,33.126478611082504,32.45469914315822,132.16417064324693,118.39923588509912,6.47544875391759e-05,0.0923051163554191,0,0,0
11053,382515.0218285738,2010-11-20 22:00:51,4622.351847306932,2,34,0.550297200679779,4.08617115020752,33.13106618353657,32.45469914315822,132.1829089508604,118.39923588509912,9.70840483205393e-05,0.0923051163554191,0,0,0
11054,382545.0370735228,2010-11-20 22:01:21,4652.367092256054,2,34,0.5501165986061096,4.089085102081299,33.13565367863875,32.45469914315822,132.20166049279476,118.39923588509912,9.70840483205393e-05,0.0923051163554191,0,0,0
11055,382575.0524550328,2010-11-20 22:01:51,4682.382473766055,2,34,0.5501165986061096,4.091837406158447,33.14024128938063,32.45469914315822,132.22042627907197,118.39923588509912,3.24249267578125e-05,0.0923051163554191,0,0,0
11056,382605.06781896896,2010-11-20 22:02:21,4712.397837702188,2,34,0.550297200679779,4.095075130462647,33.14482888185352,32.45469914315822,132.23920568753454,118.39923588509912,9.71794142969884e-05,0.0923051163554191,0,0,0
11057,382635.0832425289,2010-11-20 22:02:51,4742.4132612421,2,34,0.5501165986061096,4.097989082336426,33.14941648746564,32.45469914315822,132.25799901223445,118.39923588509912,3.24249267578125e-05,0.0923051163554191,0,0,0
11058,382665.0985895428,2010-11-20 22:03:21,4772.428608281056,2,34,0.550297200679779,4.101226806640625,33.15400409424808,32.45469914315822,132.27680633842516,118.39923588509912,9.71794142969884e-05,0.0923051163554191,0,0,0
11059,382695.1141107114,2010-11-20 22:03:51,4802.444129419589,2,34,0.550297200679779,4.104302406311035,33.15859177358341,32.45469914315822,132.2956280726753,118.39923588509912,9.70840483205393e-05,0.0923051163554191,0,0,0
11060,382725.1293213448,2010-11-20 22:04:21,4832.459340078119,2,34,0.550297200679779,4.107378482818604,33.163179362349304,32.45469914315822,132.31446379401095,118.39923588509912,6.47544875391759e-05,0.0923051163554191,0,0,0
11061,382755.144706073,2010-11-20 22:04:51,4862.47472480615,2,34,0.550297200679779,4.110616207122803,33.16776693030075,32.45469914315822,132.33331382605627,118.39923588509912,9.71794142969884e-05,0.0923051163554191,0,0,0
11062,382785.1619787886,2010-11-20 22:05:21,4892.491997506853,2,34,0.550297200679779,4.113530158996582,33.17235485216646,32.45469914315822,132.35217990034482,118.39923588509912,6.47544875391759e-05,0.0923051163554191,0,0,0
11063,382815.17548331845,2010-11-20 22:05:51,4922.505502056672,2,34,0.550297200679779,4.116929531097412,33.1769421541858,32.45469914315822,132.3710580843744,118.39923588509912,9.71794142969884e-05,0.0923051163554191,0,0,0
11064,382845.1909081215,2010-11-20 22:06:21,4952.520926859738,2,34,0.5501165986061096,4.120167255401611,33.18152978609912,32.45469914315822,132.38995235257127,118.39923588509912,9.71794142969884e-05,0.0923051163554191,0,0,0
11065,382875.2062060178,2010-11-20 22:06:51,4982.536224751013,2,34,0.5501165986061096,4.1234049797058105,33.18611741717649,32.45469914315822,132.4088613829033,118.39923588509912,0.0001295089750783,0.0923051163554191,0,0,0
11066,382905.2217230861,2010-11-20 22:07:21,5012.551741819388,2,34,0.550297200679779,4.12664270401001,33.190705023107185,32.45469914315822,132.4277851534231,118.39923588509912,0.0001295089750783,0.0923051163554191,0,0,0
11067,382935.2370732729,2010-11-20 22:07:51,5042.567091996175,2,34,0.5501165986061096,4.129880428314209,33.1952926465324,32.45469914315822,132.44672404715112,118.39923588509912,9.71794142969884e-05,0.0923051163554191,0,0,0
11068,382965.2525658452,2010-11-20 22:08:21,5072.582584563392,2,34,0.5501165986061096,4.133118152618408,33.19988030757965,32.45469914315822,132.46567826199575,118.39923588509912,6.47544875391759e-05,0.0923051163554191,0,0,0
11069,382995.267957691,2010-11-20 22:08:51,5102.597976409191,2,34,0.5501165986061096,4.136517524719238,33.204467903300326,32.45469914315822,132.48464737684472,118.39923588509912,0.0001295089750783,0.0923051163554191,0,0,0
11070,383025.2832218831,2010-11-20 22:09:21,5132.613240616385,2,34,0.550297200679779,4.1397552490234375,33.20905552314286,32.45469914315822,132.50363200093605,118.39923588509912,6.47544875391759e-05,0.0923051163554191,0,0,0
11071,383055.29848349385,2010-11-20 22:09:51,5162.628502227098,2,34,0.5501165986061096,4.143316745758057,33.21364314468601,32.45469914315822,132.5226321962633,118.39923588509912,9.70840483205393e-05,0.0923051163554191,0,0,0
11072,383085.3138243925,2010-11-20 22:10:21,5192.643843125725,2,34,0.5501165986061096,4.146716594696045,33.21823071894447,32.45469914315822,132.5416478824494,118.39923588509912,9.71794142969884e-05,0.0923051163554191,0,0,0
11073,383115.3291936419,2010-11-20 22:10:51,5222.659212360083,2,34,0.5501165986061096,4.150115966796875,33.22281832745074,32.45469914315822,132.5606794946046,118.39923588509912,6.47544875391759e-05,0.0923051163554191,0,0,0
11074,383145.34458027466,2010-11-20 22:11:21,5252.674599007908,2,34,0.550297200679779,4.153677463531494,33.22740591004692,32.45469914315822,132.5797267806986,118.39923588509912,9.70840483205393e-05,0.0923051163554191,0,0,0
11075,383175.3601657739,2010-11-20 22:11:51,5282.690184492059,2,34,0.550297200679779,4.157077312469482,33.23199347100919,32.45469914315822,132.59878975641877,118.39923588509912,9.71794142969884e-05,0.0923051163554191,0,0,0
11076,383205.3753274301,2010-11-20 22:12:21,5312.705346163308,2,34,0.5501165986061096,4.160638809204102,33.23658100158628,32.45469914315822,132.61786872790395,118.39923588509912,9.71794142969884e-05,0.0923051163554191,0,0,0
11077,383235.3907068849,2010-11-20 22:12:51,5342.720725618178,2,34,0.5501165986061096,4.164200305938721,33.24116855285771,32.45469914315822,132.63696388472306,118.39923588509912,0.0001295089750783,0.0923051163554191,0,0,0
11078,383265.4061534223,2010-11-20 22:13:21,5372.736172140459,2,34,0.550297200679779,4.167599678039551,33.24575616807746,32.45469914315822,132.65607541638812,118.39923588509912,6.47544875391759e-05,0.0923051163554191,0,0,0
11079,383295.4214887469,2010-11-20 22:13:51,5402.75150750026,2,34,0.5501165986061096,4.171323299407959,33.250343770530115,32.45469914315822,132.67520328772417,118.39923588509912,9.71794142969884e-05,0.0923051163554191,0,0,0
11080,383325.43681789626,2010-11-20 22:14:21,5432.76683662951,2,34,0.5501165986061096,4.174722671508789,33.25493130299052,32.45469914315822,132.69434726477448,118.39923588509912,9.70840483205393e-05,0.0923051163554191,0,0,0
11081,383355.4521944439,2010-11-20 22:14:51,5462.782213177123,2,34,0.550297200679779,4.178446292877197,33.25951885153909,32.45469914315822,132.71350784216466,118.39923588509912,6.47544875391759e-05,0.0923051163554191,0,0,0
11082,383385.4705633909,2010-11-20 22:15:21,5492.800582209438,2,34,0.5501165986061096,4.182007789611816,33.26410685975203,32.45469914315822,132.73268696735352,118.39923588509912,9.71794142969884e-05,0.0923051163554191,0,0,0
11083,383415.4829777044,2010-11-20 22:15:51,5522.812996437647,2,34,0.550297200679779,4.185730934143066,33.268694037278685,32.45469914315822,132.75187935206637,118.39923588509912,0.0001295089750783,0.0923051163554191,0,0,0
11084,383445.4983214201,2010-11-20 22:16:21,5552.828340153305,2,34,0.5501165986061096,4.1892924308776855,33.27328160830535,32.45469914315822,132.77109031956414,118.39923588509912,6.47544875391759e-05,0.0923051163554191,0,0,0
11085,383475.5137675764,2010-11-20 22:16:51,5582.843786309673,2,34,0.550297200679779,4.193177700042725,33.277869237985755,32.45469914315822,132.79031847592205,118.39923588509912,9.70840483205393e-05,0.0923051163554191,0,0,0
11086,383505.5290846205,2010-11-20 22:17:21,5612.859103343731,2,34,0.550297200679779,4.196900844573975,33.28245676616902,32.45469914315822,132.8095631943799,118.39923588509912,9.70840483205393e-05,0.0923051163554191,0,0,0
11087,383530.1696207195,2010-11-20 22:17:46,5637.499639422636,2,34,0.550297200679779,4.200138568878174,33.28622282657018,32.45469914315822,132.82537470961077,118.39923588509912,0.0001295089750783,0.0923051163554191,0,0,0
11088,383560.17836691,2010-11-20 22:18:16,30.0153593496844,3,34,0.0,4.118386268615723,33.28622282657018,32.45469914315822,132.82537470961077,118.39923588509912,-0.0003561973571777,0.0923051163554191,0,0,0
11089,383590.19374552777,2010-11-20 22:18:46,60.030737962452434,3,34,0.0,4.108511447906494,33.28622282657018,32.45469914315822,132.82537470961077,118.39923588509912,-0.0002266883820993,0.0923051163554191,0,0,0
11090,383620.2091486016,2010-11-20 22:19:16,90.04614103627902,3,34,0.0,4.102683544158936,33.28622282657018,32.45469914315822,132.82537470961077,118.39923588509912,-0.0001619339018361,0.0923051163554191,0,0,0
11091,383650.17766426224,2010-11-20 22:19:46,120.01465669690882,3,34,0.0,4.0989603996276855,33.28622282657018,32.45469914315822,132.82537470961077,118.39923588509912,-0.0001295089750783,0.0923051163554191,0,0,0
11092,383650.190731051,2010-11-20 22:19:46,0.018597251601112,4,34,0.9790636301040648,4.199814796447754,33.286227909046204,32.45469914315822,132.82539605465672,118.39923588509912,3.23295607813634e-05,0.0923051163554191,0,0,0
11093,383651.20360605785,2010-11-20 22:19:47,1.031472378745407,4,34,0.9283124208450316,4.199653148651123,33.28649471234331,32.45469914315822,132.82651653782273,118.39923588509912,0.0,0.0923051163554191,0,0,0
11094,383653.375250677,2010-11-20 22:19:49,3.203116892551022,4,34,0.878283679485321,4.199653148651123,33.28703853791765,32.45469914315822,132.8288004356522,118.39923588509912,0.0,0.0923051163554191,0,0,0
11095,383656.7033377744,2010-11-20 22:19:53,6.531203989959553,4,34,0.8278936743736267,4.199814796447754,33.28782596980619,32.45469914315822,132.83210741095368,118.39923588509912,3.23295607813634e-05,0.0923051163554191,0,0,0
11096,383661.2501785736,2010-11-20 22:19:57,11.078044789108196,4,34,0.777864933013916,4.199653148651123,33.28883861288808,32.45469914315822,132.83636022369146,118.39923588509912,-3.23295607813634e-05,0.0923051163554191,0,0,0
11097,383667.2033052235,2010-11-20 22:20:03,17.0311715243049,4,34,0.7276555299758911,4.199653148651123,33.29008171921081,32.45469914315822,132.8415809161942,118.39923588509912,-3.23295607813634e-05,0.0923051163554191,0,0,0
11098,383675.0469248348,2010-11-20 22:20:11,24.87479105035261,4,34,0.6776267886161804,4.199491024017334,33.291610283893355,32.45469914315822,132.84800046969545,118.39923588509912,-3.24249267578125e-05,0.0923051163554191,0,0,0
11099,383685.640603281,2010-11-20 22:20:22,35.46846949655101,4,34,0.6274173855781555,4.199653148651123,33.29352674587646,32.45469914315822,132.8560490626982,118.39923588509912,0.0,0.0923051163554191,0,0,0
11100,383700.7029639455,2010-11-20 22:20:37,50.53083014601834,4,34,0.5773886442184448,4.199653148651123,33.29604095384003,32.45469914315822,132.8666080205662,118.39923588509912,3.24249267578125e-05,0.0923051163554191,0,0,0
11101,383724.20278125984,2010-11-20 22:21:00,74.03064756064175,4,34,0.5273598432540894,4.199653148651123,33.29963375367882,32.45469914315822,132.88169678527,118.39923588509912,0.0,0.0923051163554191,0,0,0
11102,383764.9368525186,2010-11-20 22:21:41,114.76471873407084,4,34,0.4771504700183868,4.199814796447754,33.30529098729089,32.45469914315822,132.9054555771547,118.39923588509912,0.0,0.0923051163554191,0,0,0
11103,383836.3894012077,2010-11-20 22:22:52,186.21726742329892,4,34,0.4271216988563537,4.199814796447754,33.31422844759817,32.45469914315822,132.94299048349433,118.39923588509912,0.0,0.0923051163554191,0,0,0
11104,383936.23226912646,2010-11-20 22:24:32,286.0601353470779,4,34,0.3770929276943207,4.199653148651123,33.3253574085232,32.45469914315822,132.98972900264076,118.39923588509912,0.0,0.0923051163554191,0,0,0
11105,384059.04372970114,2010-11-20 22:26:35,408.8715959167306,4,34,0.3270641565322876,4.199653148651123,33.337353656392786,32.45469914315822,133.0401099673826,118.39923588509912,0.0,0.0923051163554191,0,0,0
11106,384203.40190163226,2010-11-20 22:28:59,553.2297678478202,4,34,0.2770353853702545,4.199814796447754,33.349447746147,32.45469914315822,133.09090182313074,118.39923588509912,6.47544875391759e-05,0.0923051163554191,0,0,0
11107,384379.1846392689,2010-11-20 22:31:55,729.0125054844593,4,34,0.2270066142082214,4.199653148651123,33.36172004634819,32.45469914315822,133.14244181566102,118.39923588509912,-3.23295607813634e-05,0.0923051163554191,0,0,0
11108,384600.648530588,2010-11-20 22:35:37,950.476396788522,4,34,0.1767972409725189,4.199814796447754,33.37409350860263,32.45469914315822,133.19440699942393,118.39923588509912,3.23295607813634e-05,0.0923051163554191,0,0,0
11109,384905.9742189092,2010-11-20 22:40:42,1255.8020851247925,4,34,0.1267684698104858,4.199814796447754,33.38687293591721,32.45469914315822,133.24807708658915,118.39923588509912,6.47544875391759e-05,0.0923051163554191,0,0,0
11110,385396.84523195634,2010-11-20 22:48:53,1746.6730981719754,4,34,0.0763784795999527,4.199653148651123,33.40046931459724,32.45469914315822,133.3051781396087,118.39923588509912,0.0,0.0923051163554191,0,0,0
11111,385861.2788994268,2010-11-20 22:56:37,2211.1067656423147,4,34,0.0496483072638511,4.199491024017334,33.40852511915279,32.45469914315822,133.33901031267834,118.39923588509912,-3.24249267578125e-05,0.0923051163554191,0,0,0
11112,385891.30702119647,2010-11-20 22:57:07,30.01537188096441,5,34,0.0,4.192206382751465,33.40852511915279,32.45469914315822,133.33901031267834,118.39923588509912,-3.24249267578125e-05,0.0923051163554191,0,0,0
11113,385921.30677628046,2010-11-20 22:57:37,60.015126959988585,5,34,0.0,4.191073417663574,33.40852511915279,32.45469914315822,133.33901031267834,118.39923588509912,-3.23295607813634e-05,0.0923051163554191,0,0,0
11114,385921.5096294572,2010-11-20 22:57:38,0.189481078923929,6,34,0.0016062404029071,4.191558837890625,33.40852520369506,32.45469914315822,133.33901066704223,118.39923588509912,0.0,0.0931148082017898,0,0,0
11115,385926.3358169838,2010-11-20 22:57:43,5.015668535305435,6,34,0.0007031940040178,4.190911293029785,33.408526234593154,32.45469914315822,133.339014987794,118.39923588509912,-6.47544875391759e-05,0.0931148082017898,0,0,0
11116,385956.3644133052,2010-11-20 22:58:13,30.015306432595207,7,34,-1.0997490882873535,4.023521423339844,33.408526234593154,32.46386828135154,133.339014987794,118.43631367353704,-0.0008742332574911,0.0931148082017898,0,0,0
11117,385986.3800137516,2010-11-20 22:58:43,60.03090687408184,7,34,-1.0997490882873535,3.9985909461975098,33.408526234593154,32.47303750816609,133.339014987794,118.47308406592448,-0.0006152152782306,0.0931148082017898,0,0,0
11118,386016.39517293166,2010-11-20 22:59:13,90.046066054112,7,34,-1.0997490882873535,3.981755018234253,33.408526234593154,32.482206598107425,133.339014987794,118.50966763333048,-0.0004532813909463,0.0931148082017898,0,0,0
11119,386046.41054626624,2010-11-20 22:59:43,120.06143937366735,7,34,-1.099568486213684,3.968480348587036,33.408526234593154,32.49137568532093,133.339014987794,118.54611414772418,-0.0003237724304199,0.0931148082017898,0,0,0
11120,386076.425926899,2010-11-20 23:00:13,150.07682001149024,7,34,-1.0997490882873535,3.956986427307129,33.408526234593154,32.50054479906172,133.339014987794,118.58244794925491,-0.0002913951757363,0.0931148082017898,0,0,0
11121,386106.44320012606,2010-11-20 23:00:43,180.09409322848185,7,34,-1.0997490882873535,3.9464638233184814,33.408526234593154,32.50971450031179,133.339014987794,118.61868394561704,-0.0002913951757363,0.0931148082017898,0,0,0
11122,386136.4568511967,2010-11-20 23:01:13,210.10774430405127,7,34,-1.099568486213684,3.936588764190674,33.408526234593154,32.51888303276952,133.339014987794,118.65482272321782,-0.0002913951757363,0.0931148082017898,0,0,0
11123,386166.47215837607,2010-11-20 23:01:43,240.1230514985483,7,34,-1.0997490882873535,3.927361249923706,33.408526234593154,32.52805195705671,133.339014987794,118.69087536940864,-0.0002266406954731,0.0931148082017898,0,0,0
11124,386196.4874704128,2010-11-20 23:02:13,270.138363535132,7,34,-1.0997490882873535,3.918457508087158,33.408526234593154,32.53722094849859,133.339014987794,118.7268438261051,-0.0001618862152099,0.0931148082017898,0,0,0
11125,386226.5028477022,2010-11-20 23:02:43,300.1537408095592,7,34,-1.099568486213684,3.9095540046691895,33.408526234593154,32.54638998849684,133.339014987794,118.76273108535044,-0.0002590179501567,0.0931148082017898,0,0,0
11126,386256.5182183952,2010-11-20 23:03:13,330.1691115175958,7,34,-1.0997490882873535,3.9009740352630615,33.408526234593154,32.55555905764352,133.339014987794,118.79853833668966,-0.0002266406954731,0.0931148082017898,0,0,0
11127,386286.5337206315,2010-11-20 23:03:43,360.18461374392234,7,34,-1.099568486213684,3.892555952072144,33.408526234593154,32.56472812979867,133.339014987794,118.83426765276602,-0.0002266406954731,0.0931148082017898,0,0,0
11128,386316.5489576408,2010-11-20 23:04:13,390.1998507632513,7,34,-1.099568486213684,3.8844616413116455,33.408526234593154,32.57389712962498,133.339014987794,118.86992062403182,-0.0001942634553415,0.0931148082017898,0,0,0
11129,386346.5643990253,2010-11-20 23:04:43,420.2152921477072,7,34,-1.099568486213684,3.876043558120728,33.408526234593154,32.58306626083582,133.339014987794,118.90549881252656,-0.0002266406954731,0.0931148082017898,0,0,0
11130,386376.5798380939,2010-11-20 23:05:13,450.2307312013449,7,34,-1.099929690361023,3.8679492473602295,33.408526234593154,32.59223536937004,133.339014987794,118.941002236199,-0.0002590179501567,0.0931148082017898,0,0,0
11131,386406.59508459695,2010-11-20 23:05:43,480.24597771938414,7,34,-1.0997490882873535,3.860016822814941,33.408526234593154,32.60140443800401,133.339014987794,118.97643173289023,-0.0002266406954731,0.0931148082017898,0,0,0
11132,386436.6104634554,2010-11-20 23:06:13,510.2613565777653,7,34,-1.099568486213684,3.8522462844848633,33.408526234593154,32.61057355780814,133.339014987794,119.01178847154873,-0.0002266406954731,0.0931148082017898,0,0,0
11133,386466.6258637723,2010-11-20 23:06:43,540.2767568947103,7,34,-1.099929690361023,3.844313859939575,33.408526234593154,32.619742696794454,133.339014987794,119.04707404681125,-0.0002266406954731,0.0931148082017898,0,0,0
11134,386496.6412293425,2010-11-20 23:07:13,570.292122464922,7,34,-1.0997490882873535,3.836867094039917,33.408526234593154,32.62891186182141,133.339014987794,119.08228934401934,-0.0001942634553415,0.0931148082017898,0,0,0
11135,386526.65672351874,2010-11-20 23:07:43,600.3076166261167,7,34,-1.099568486213684,3.829420566558838,33.408526234593154,32.638081081566206,133.339014987794,119.11743548573368,-0.0001618862152099,0.0931148082017898,0,0,0
11136,386556.67204148014,2010-11-20 23:08:13,630.3229345874896,7,34,-1.099568486213684,3.8221356868743896,33.408526234593154,32.64725021668883,133.339014987794,119.1525131314106,-0.0001618862152099,0.0931148082017898,0,0,0
11137,386586.6874901527,2010-11-20 23:08:43,660.3383832751754,7,34,-1.0997490882873535,3.814850807189941,33.408526234593154,32.65641933497821,133.339014987794,119.18752488000968,-0.0001942634553415,0.0931148082017898,0,0,0
11138,386616.7028509661,2010-11-20 23:09:13,690.3537440734757,7,34,-1.0997490882873535,3.807727813720703,33.408526234593154,32.66558843616592,133.339014987794,119.22247097370472,-0.0001942634553415,0.0931148082017898,0,0,0
11139,386646.718106271,2010-11-20 23:09:43,720.3689993934861,7,34,-1.0997490882873535,3.800766706466675,33.408526234593154,32.67475754157986,133.339014987794,119.25735206649688,-0.0001618862152099,0.0931148082017898,0,0,0
11140,386676.7334956306,2010-11-20 23:10:13,750.3843887530799,7,34,-1.0997490882873535,3.7938055992126474,33.408526234593154,32.68392666442419,133.339014987794,119.29216955147692,-0.0002266406954731,0.0931148082017898,0,0,0
11141,386706.75089086726,2010-11-20 23:10:43,780.4017839746134,7,34,-1.099929690361023,3.787006378173828,33.408526234593154,32.693096421089486,133.339014987794,119.32692788851988,-0.0002266406954731,0.0931148082017898,0,0,0
11142,386736.7644587402,2010-11-20 23:11:13,810.4153518525086,7,34,-1.0997490882873535,3.78069281578064,33.408526234593154,32.70226500274142,133.339014987794,119.36162132896048,-0.0001618862152099,0.0931148082017898,0,0,0
11143,386766.7796617797,2010-11-20 23:11:43,840.4305548870065,7,34,-1.099568486213684,3.774541139602661,33.408526234593154,32.71143406970043,133.339014987794,119.39625766759931,-9.713172767078504e-05,0.0931148082017898,0,0,0
11144,386796.7949795304,2010-11-20 23:12:13,870.4458726528912,7,34,-1.0997490882873535,3.7679038047790527,33.408526234593154,32.72060325376037,133.339014987794,119.43083658525696,-0.0001618862152099,0.0931148082017898,0,0,0
11145,386826.81037261937,2010-11-20 23:12:43,900.4612657468064,7,34,-1.099568486213684,3.761914014816284,33.408526234593154,32.729772465198984,133.339014987794,119.46535847432224,-0.0001618862152099,0.0931148082017898,0,0,0
11146,386856.8257433825,2010-11-20 23:13:13,930.4766365049682,7,34,-1.0997490882873535,3.7557623386383057,33.408526234593154,32.73894163304418,133.339014987794,119.49982476951122,-0.0001618862152099,0.0931148082017898,0,0,0
11147,386886.84111728845,2010-11-20 23:13:43,960.4920104109874,7,34,-1.0997490882873535,3.749934673309326,33.408526234593154,32.74811080232253,133.339014987794,119.53423614908873,-0.0001618862152099,0.0931148082017898,0,0,0
11148,386916.8566160261,2010-11-20 23:14:13,990.507509133568,7,34,-1.099568486213684,3.744430541992188,33.408526234593154,32.757280033644456,133.339014987794,119.56859418465883,-9.713172767078504e-05,0.0931148082017898,0,0,0
11149,386946.874767716,2010-11-20 23:14:43,1020.5256609236131,7,34,-1.0997490882873535,3.738602638244629,33.408526234593154,32.76645007897311,133.339014987794,119.60290292754922,-0.0001618862152099,0.0931148082017898,0,0,0
11150,386976.8873478784,2010-11-20 23:15:13,1050.538241070981,7,34,-1.0997490882873535,3.73293662071228,33.408526234593154,32.77561842129504,133.339014987794,119.63715351841005,-0.0001295089750783,0.0931148082017898,0,0,0
11151,387006.90277374914,2010-11-20 23:15:43,1080.5536668564994,7,34,-1.0997490882873535,3.7274324893951416,33.408526234593154,32.784787568614384,133.339014987794,119.67135595627283,-0.0001618862152099,0.0931148082017898,0,0,0
11152,387036.9180036206,2010-11-20 23:16:13,1110.568896743024,7,34,-1.0997490882873535,3.721928358078003,33.408526234593154,32.793956711263576,133.339014987794,119.70550786475772,-0.0001295089750783,0.0931148082017898,0,0,0
11153,387066.9333846294,2010-11-20 23:16:43,1140.584277736735,7,34,-1.0997490882873535,3.716424226760864,33.408526234593154,32.80312590232641,133.339014987794,119.73961024652075,-0.0001942634553415,0.0931148082017898,0,0,0
11154,387096.9487422448,2010-11-20 23:17:13,1170.5996353671278,7,34,-1.099929690361023,3.711081981658936,33.408526234593154,32.812295062791534,133.339014987794,119.77366345087584,-0.0001618862152099,0.0931148082017898,0,0,0
11155,387126.9641217548,2010-11-20 23:17:43,1200.6150148771355,7,34,-1.099568486213684,3.705901622772217,33.408526234593154,32.82146423542304,133.339014987794,119.80766792406614,-0.0001295089750783,0.0931148082017898,0,0,0
11156,387156.9794936608,2010-11-20 23:18:13,1230.6303867831623,7,34,-1.0997490882873535,3.700721263885498,33.408526234593154,32.83063338967074,133.339014987794,119.84162432568284,-0.0001295089750783,0.0931148082017898,0,0,0
11157,387186.99492117553,2010-11-20 23:18:43,1260.6458142979975,7,34,-1.0997490882873535,3.6955409049987793,33.408526234593154,32.83980255638242,133.339014987794,119.8755336953194,-0.0001618862152099,0.0931148082017898,0,0,0
11158,387217.0103783144,2010-11-20 23:19:13,1290.6612714367789,7,34,-1.0997490882873535,3.690684318542481,33.408526234593154,32.848971801826,133.339014987794,119.9093970932434,-0.0001295089750783,0.0931148082017898,0,0,0
11159,387247.025749268,2010-11-20 23:19:43,1320.6766423904282,7,34,-1.0997490882873535,3.685665845870972,33.408526234593154,32.85814099877976,133.339014987794,119.94321466819362,-0.0001618862152099,0.0931148082017898,0,0,0
11160,387277.04113436193,2010-11-20 23:20:13,1350.6920274843744,7,34,-1.0997490882873535,3.680809259414673,33.408526234593154,32.867310180784806,133.339014987794,119.97698731350212,-0.0001618862152099,0.0931148082017898,0,0,0
11161,387307.05826627125,2010-11-20 23:20:43,1380.7091593735902,7,34,-1.0997490882873535,3.676114559173584,33.408526234593154,32.87647994056777,133.339014987794,120.01071745154532,-0.0001295089750783,0.0931148082017898,0,0,0
11162,387337.0717633424,2010-11-20 23:21:13,1410.7226564497532,7,34,-1.0997490882873535,3.671258211135864,33.408526234593154,32.88564856616688,133.339014987794,120.04439973210609,-0.0001295089750783,0.0931148082017898,0,0,0
11163,387367.0871365667,2010-11-20 23:21:43,1440.7380296891083,7,34,-1.0997490882873535,3.666725397109986,33.408526234593154,32.89481784566566,133.339014987794,120.07804146736738,-9.713172767078504e-05,0.0931148082017898,0,0,0
11164,387397.1025587633,2010-11-20 23:22:13,1470.7534518856685,7,34,-1.0997490882873535,3.662030696868897,33.408526234593154,32.903987023388424,133.339014987794,120.11164093133844,-0.0001295089750783,0.0931148082017898,0,0,0
11165,387427.1179015766,2010-11-20 23:22:43,1500.768794699076,7,34,-1.0997490882873535,3.6578216552734375,33.408526234593154,32.9131562168391,133.339014987794,120.1451988481855,-6.47544875391759e-05,0.0931148082017898,0,0,0
11166,387457.13325452537,2010-11-20 23:23:13,1530.7841476477824,7,34,-1.0997490882873535,3.6531269550323486,33.408526234593154,32.92232539354005,133.339014987794,120.17871607821112,-0.0001295089750783,0.0931148082017898,0,0,0
11167,387487.1488911873,2010-11-20 23:23:43,1560.7997842996556,7,34,-1.099929690361023,3.64875602722168,33.408526234593154,32.931494705406514,133.339014987794,120.21219356756632,-0.0001295089750783,0.0931148082017898,0,0,0
11168,387517.1640174,2010-11-20 23:24:13,1590.814910507382,7,34,-1.099929690361023,3.6443850994110103,33.408526234593154,32.94066381392468,133.339014987794,120.2456304028744,-0.0001295089750783,0.0931148082017898,0,0,0
11169,387547.1798594395,2010-11-20 23:24:43,1620.8307525469345,7,34,-1.0997490882873535,3.6403379440307617,33.408526234593154,32.949833096877136,133.339014987794,120.27902895422028,-9.713172767078504e-05,0.0931148082017898,0,0,0
11170,387577.1948972115,2010-11-20 23:25:14,1650.845790333949,7,34,-1.099568486213684,3.636452674865722,33.408526234593154,32.95900217987801,133.339014987794,120.31238895336926,-6.47544875391759e-05,0.0931148082017898,0,0,0
11171,387607.21011301794,2010-11-20 23:25:44,1680.8610061403274,7,34,-1.0997490882873535,3.632243633270264,33.408526234593154,32.96817126862427,133.339014987794,120.34571175684896,-9.713172767078504e-05,0.0931148082017898,0,0,0
11172,387637.22552114434,2010-11-20 23:26:14,1710.8764142667658,7,34,-1.0997490882873535,3.6283583641052246,33.408526234593154,32.97734041797808,133.339014987794,120.37899826261322,-9.713172767078504e-05,0.0931148082017898,0,0,0
11173,387667.240918494,2010-11-20 23:26:44,1740.8918116213165,7,34,-1.0997490882873535,3.624634981155396,33.408526234593154,32.98650953463432,133.339014987794,120.4122491050912,-6.47544875391759e-05,0.0931148082017898,0,0,0
11174,387697.25638268027,2010-11-20 23:27:14,1770.9072758026766,7,34,-1.0997490882873535,3.620749711990357,33.408526234593154,32.99567870458124,133.339014987794,120.44546558874316,-9.713172767078504e-05,0.0931148082017898,0,0,0
11175,387727.2715796195,2010-11-20 23:27:44,1800.9224727419598,7,34,-1.099929690361023,3.6170263290405273,33.408526234593154,33.00484782108606,133.339014987794,120.47864825619538,-0.0001295089750783,0.0931148082017898,0,0,0
11176,387757.28711274295,2010-11-20 23:28:14,1830.9380059857103,7,34,-1.0997490882873535,3.613464832305908,33.408526234593154,33.01401706387833,133.339014987794,120.51179858554066,-0.0001295089750783,0.0931148082017898,0,0,0
11177,387787.3023971255,2010-11-20 23:28:44,1860.9532902479648,7,34,-1.0997490882873535,3.610227108001709,33.408526234593154,33.023186266902606,133.339014987794,120.5449168428149,-9.713172767078504e-05,0.0931148082017898,0,0,0
11178,387817.3177966856,2010-11-20 23:29:14,1890.9686898080208,7,34,-1.099929690361023,3.60666561126709,33.408526234593154,33.03235543699968,133.339014987794,120.57800362930358,-0.0001295089750783,0.0931148082017898,0,0,0
11179,387847.333134682,2010-11-20 23:29:44,1920.9840278094168,7,34,-1.0997490882873535,3.6035897731781006,33.408526234593154,33.04152455117335,133.339014987794,120.6110597416383,-9.713172767078504e-05,0.0931148082017898,0,0,0
11180,387877.3485190291,2010-11-20 23:30:14,1950.999412151486,7,34,-1.099568486213684,3.6006758213043213,33.408526234593154,33.05069370056938,133.339014987794,120.64408646918632,-3.237724376958795e-05,0.0931148082017898,0,0,0
11181,387907.3660145159,2010-11-20 23:30:44,1981.01690762326,7,34,-1.099568486213684,3.597276210784912,33.408526234593154,33.0598635282446,133.339014987794,120.67708668122634,-9.713172767078504e-05,0.0931148082017898,0,0,0
11182,387937.37926617946,2010-11-20 23:31:14,2011.0301593068853,7,34,-1.0997490882873535,3.594200372695923,33.408526234593154,33.06903206913896,133.339014987794,120.71005388012904,-3.237724376958795e-05,0.0931148082017898,0,0,0
11183,387967.3946394088,2010-11-20 23:31:44,2041.045532531203,7,34,-1.0997490882873535,3.5912866592407227,33.408526234593154,33.07820127638486,133.339014987794,120.74299602330125,-6.47544875391759e-05,0.0931148082017898,0,0,0
11184,387997.410010202,2010-11-20 23:32:14,2071.0609033244523,7,34,-1.099929690361023,3.5880489349365234,33.408526234593154,33.08737044832395,133.339014987794,120.77591090905682,-0.0001295089750783,0.0931148082017898,0,0,0
11185,388027.4255731048,2010-11-20 23:32:44,2101.076466227237,7,34,-1.0997490882873535,3.585296869277954,33.408526234593154,33.09653967730864,133.339014987794,120.80879922352182,-9.713172767078504e-05,0.0931148082017898,0,0,0
11186,388057.4407585504,2010-11-20 23:33:14,2131.09165167283,7,34,-1.0997490882873535,3.5825448036193848,33.408526234593154,33.105708775189505,133.339014987794,120.84166058160322,-9.713172767078504e-05,0.0931148082017898,0,0,0
11187,388087.4561308624,2010-11-20 23:33:44,2161.10702398487,7,34,-1.0997490882873535,3.579630851745605,33.408526234593154,33.114877942212416,133.339014987794,120.87449584920188,-6.47544875391759e-05,0.0931148082017898,0,0,0
11188,388117.471510598,2010-11-20 23:34:14,2191.1224037204406,7,34,-1.0997490882873535,3.576716899871826,33.408526234593154,33.1240471569639,133.339014987794,120.90730488062351,-6.47544875391759e-05,0.0931148082017898,0,0,0
11189,388147.4870277866,2010-11-20 23:34:44,2221.137920909116,7,34,-1.0997490882873535,3.573802947998047,33.408526234593154,33.13321635674788,133.339014987794,120.9400874324035,-9.713172767078504e-05,0.0931148082017898,0,0,0
11190,388177.5022591619,2010-11-20 23:35:14,2251.153152269318,7,34,-1.0997490882873535,3.570888996124268,33.408526234593154,33.14238553096758,133.339014987794,120.97284325277248,-6.47544875391759e-05,0.0931148082017898,0,0,0
11191,388207.5176350128,2010-11-20 23:35:44,2281.1685281352297,7,34,-1.0997490882873535,3.5679750442504883,33.408526234593154,33.15155474217856,133.339014987794,121.00557225833708,-6.47544875391759e-05,0.0931148082017898,0,0,0
11192,388237.53308277816,2010-11-20 23:36:14,2311.183975905626,7,34,-1.0997490882873535,3.565061092376709,33.408526234593154,33.16072393345913,133.339014987794,121.03827408042076,-9.713172767078504e-05,0.0931148082017898,0,0,0
11193,388267.5484183786,2010-11-20 23:36:44,2341.199311501016,7,34,-1.0997490882873535,3.56198525428772,33.408526234593154,33.16989309075546,133.339014987794,121.07094814946856,-6.47544875391759e-05,0.0931148082017898,0,0,0
11194,388297.56388121657,2010-11-20 23:37:14,2371.214774339023,7,34,-1.099568486213684,3.5589094161987305,33.408526234593154,33.179062330095,133.339014987794,121.10359466758344,-6.47544875391759e-05,0.0931148082017898,0,0,0
11195,388327.5791297446,2010-11-20 23:37:44,2401.2300228720924,7,34,-1.099929690361023,3.5556716918945312,33.408526234593154,33.18823143888545,133.339014987794,121.1362118022982,-6.47544875391759e-05,0.0931148082017898,0,0,0
11196,388357.5945027083,2010-11-20 23:38:14,2431.245395835759,7,34,-1.0997490882873535,3.552433967590332,33.408526234593154,33.19740062106495,133.339014987794,121.16879937006348,-6.47544875391759e-05,0.0931148082017898,0,0,0
11197,388387.609893672,2010-11-20 23:38:44,2461.2607867943443,7,34,-1.0997490882873535,3.549034357070923,33.408526234593154,33.206569817696725,133.339014987794,121.201356575955,-6.47544875391759e-05,0.0931148082017898,0,0,0
11198,388417.6253948757,2010-11-20 23:39:14,2491.2762879830807,7,34,-1.0997490882873535,3.545472860336304,33.408526234593154,33.21573899993781,133.339014987794,121.23388211716116,-6.47544875391759e-05,0.0931148082017898,0,0,0
11199,388447.6408148216,2010-11-20 23:39:44,2521.2917079440604,7,34,-1.0997490882873535,3.541911363601685,33.408526234593154,33.22490820786065,133.339014987794,121.266375051103,-6.47544875391759e-05,0.0931148082017898,0,0,0
11200,388477.6561657603,2010-11-20 23:40:14,2551.307058882749,7,34,-1.099568486213684,3.5381879806518555,33.408526234593154,33.23407738658586,133.339014987794,121.29883429823836,-9.713172767078504e-05,0.0931148082017898,0,0,0
11201,388507.6732776245,2010-11-20 23:40:44,2581.3241707319426,7,34,-1.0997490882873535,3.5343027114868164,33.408526234593154,33.24324714403708,133.339014987794,121.33126068108812,-9.713172767078504e-05,0.0931148082017898,0,0,0
11202,388537.6868350314,2010-11-20 23:41:14,2611.3377281387,7,34,-1.0997490882873535,3.5302555561065674,33.408526234593154,33.25241578103665,133.339014987794,121.36364679421008,-0.0001295089750783,0.0931148082017898,0,0,0
11203,388567.7021177698,2010-11-20 23:41:44,2641.3530108921886,7,34,-1.0997490882873535,3.5260465145111084,33.408526234593154,33.26158494108549,133.339014987794,121.39599745110668,-0.0001295089750783,0.0931148082017898,0,0,0
11204,388597.7174959013,2010-11-20 23:42:14,2671.368389023756,7,34,-1.099568486213684,3.5218374729156494,33.408526234593154,33.2707541785669,133.339014987794,121.42830969006108,-9.713172767078504e-05,0.0931148082017898,0,0,0
11205,388627.7328980779,2010-11-20 23:42:44,2701.383791170268,7,34,-1.099929690361023,3.5173046588897705,33.408526234593154,33.27992340020609,133.339014987794,121.46058164692258,-0.0001295089750783,0.0931148082017898,0,0,0
11206,388657.74854321097,2010-11-20 23:43:14,2731.3994363183488,7,34,-1.099929690361023,3.512448072433472,33.408526234593154,33.28909269954024,133.339014987794,121.49281160764475,-0.0001295089750783,0.0931148082017898,0,0,0
11207,388687.7636231482,2010-11-20 23:43:44,2761.4145162706136,7,34,-1.099568486213684,3.507591724395752,33.408526234593154,33.29826188045458,133.339014987794,121.52499621189202,-0.0001295089750783,0.0931148082017898,0,0,0
11208,388717.7789910642,2010-11-20 23:44:14,2791.429884191694,7,34,-1.0997490882873535,3.5020875930786133,33.408526234593154,33.30743109536519,133.339014987794,121.55713266892286,-0.0001618862152099,0.0931148082017898,0,0,0
11209,388747.79437491513,2010-11-20 23:44:44,2821.4452680174745,7,34,-1.0997490882873535,3.4959359169006348,33.408526234593154,33.31660027410859,133.339014987794,121.5892163098039,-0.0002266406954731,0.0931148082017898,0,0,0
11210,388777.8097434126,2010-11-20 23:45:14,2851.4606365350432,7,34,-1.0997490882873535,3.4891366958618164,33.408526234593154,33.325769491487506,133.339014987794,121.62124166926938,-0.0002266406954731,0.0931148082017898,0,0,0
11211,388807.8251151232,2010-11-20 23:45:44,2881.4760082455823,7,34,-1.0997490882873535,3.481528043746948,33.408526234593154,33.33493869046839,133.339014987794,121.6532010152018,-0.0002266406954731,0.0931148082017898,0,0,0
11212,388837.8404825229,2010-11-20 23:46:14,2911.491375645361,7,34,-1.099568486213684,3.4726243019104004,33.408526234593154,33.3441078248726,133.339014987794,121.68508367558854,-0.0002590179501567,0.0931148082017898,0,0,0
11213,388867.8587955655,2010-11-20 23:46:44,2941.5096887580926,7,34,-1.099929690361023,3.461777925491333,33.408526234593154,33.35327787616467,133.339014987794,121.71687989422506,-0.0003561496851034,0.0931148082017898,0,0,0
11214,388897.87121644034,2010-11-20 23:47:14,2971.522109547679,7,34,-1.0997490882873535,3.448665142059326,33.408526234593154,33.36244617847659,133.339014987794,121.74856078915484,-0.0003885269106831,0.0931148082017898,0,0,0
11215,388927.8866179452,2010-11-20 23:47:44,3001.537511052589,7,34,-1.099929690361023,3.4316670894622803,33.408526234593154,33.371615381816255,133.339014987794,121.78010785983916,-0.0005180359003134,0.0931148082017898,0,0,0
11216,388957.9019580368,2010-11-20 23:48:14,3031.55285115924,7,34,-1.0997490882873535,3.4094889163970947,33.408526234593154,33.38078463450519,133.339014987794,121.81147671261164,-0.0006475448608398,0.0931148082017898,0,0,0
11217,388987.9173617172,2010-11-20 23:48:44,3061.5682548395807,7,34,-1.0997490882873535,3.379054307937622,33.408526234593154,33.389953853943325,133.339014987794,121.84260598790304,-0.0009065627818927,0.0931148082017898,0,0,0
11218,389017.9328617279,2010-11-20 23:49:14,3091.583754835339,7,34,-1.0997490882873535,3.3369641304016118,33.408526234593154,33.399122988786495,133.339014987794,121.87340641311684,-0.0012950897216796,0.0931148082017898,0,0,0
11219,389047.948087379,2010-11-20 23:49:44,3121.598980506341,7,34,-1.099568486213684,3.278037548065185,33.408526234593154,33.40829199640959,133.339014987794,121.90374811971007,-0.0017807483673095,0.0931148082017898,0,0,0
11220,389077.9635234601,2010-11-20 23:50:14,3151.6144165825467,7,34,-1.0997490882873535,3.193533182144165,33.408526234593154,33.41746108289312,133.339014987794,121.93344173409524,-0.0026225566398352,0.0931148082017898,0,0,0
11221,389107.9807071486,2010-11-20 23:50:44,3181.631600356274,7,34,-1.099929690361023,3.0643484592437744,33.408526234593154,33.42663069328412,133.339014987794,121.9621801084582,-0.0042414190247654,0.0931148082017898,0,0,0
11222,389132.6680811572,2010-11-20 23:51:09,3206.318974369869,7,34,-1.0997490882873535,2.8642578125,33.408526234593154,33.43417220578379,133.339014987794,121.98463601120602,-0.00887131690979,0.0931148082017898,0,0,0
11223,389145.0254306176,2010-11-20 23:51:21,3218.676323740028,7,34,-1.0997490882873535,2.699781894683838,33.408526234593154,33.437947163398725,133.339014987794,121.99514629955044,-0.0111053464934229,0.0931148082017898,0,0,0
11224,389205.0492655624,2010-11-20 23:52:21,60.01493363241322,8,34,0.0,3.2982733249664307,33.408526234593154,33.437947163398725,133.339014987794,121.99514629955044,0.0012303352123126,0.0931148082017898,0,0,0
11225,389205.2482356822,2010-11-20 23:52:22,0.189535584979429,9,34,-1.9243103452026844e-05,3.2982733249664307,33.408526234593154,33.43794716441185,133.339014987794,121.99514630289198,0.0,0.0931989923119545,0,0,0
11226,389210.0744514242,2010-11-20 23:52:27,5.015751316941134,9,34,0.0003419754502829,3.306043863296509,33.40852721832537,33.43794716448501,133.33901823686713,121.99514630313328,0.0010684489971026,0.0931989923119545,0,0,0
