Data_Point,Test_Time(s),Date_Time,Step_Time(s),Step_Index,Cycle_Index,Current(A),Voltage(V),Charge_Capacity(Ah),Discharge_Capacity(Ah),Charge_Energy(Wh),Discharge_Energy(Wh),dV/dt(V/s),Internal_Resistance(Ohm),Is_FC_Data,AC_Impedance(Ohm),ACI_Phase_Angle(Deg)
1333,46124.82269849155,2010-11-17 00:33:46,30.01550859221673,1,5,0.0,3.337935447692871,3.94844404235464,3.985434775194384,15.76602719558981,14.571026780167909,0.0007770538213662,0.0914128422737121,0,0,0
1334,46154.83793405224,2010-11-17 00:34:16,60.030744142879726,1,5,0.0,3.362380027770996,3.94844404235464,3.985434775194384,15.76602719558981,14.571026780167909,0.0005504131549969,0.0914128422737121,0,0,0
1335,46184.85343631866,2010-11-17 00:34:46,90.0462464093063,1,5,0.0,3.381158828735352,3.94844404235464,3.985434775194384,15.76602719558981,14.571026780167909,0.0004856586456298,0.0914128422737121,0,0,0
1336,46214.82183336822,2010-11-17 00:35:16,120.01464346888966,1,5,0.0,3.395890474319458,3.94844404235464,3.985434775194384,15.76602719558981,14.571026780167909,0.0003237724304199,0.0914128422737121,0,0,0
1337,46244.83620336429,2010-11-17 00:35:46,30.01537775562847,2,5,0.5499359965324402,3.5556716918945312,3.953030942677232,3.985434775194384,15.782160359547596,14.571026780167909,0.0016836166614666,0.0914128422737121,0,0,0
1338,46274.8516034256,2010-11-17 00:36:16,60.03077781693534,2,5,0.5501165986061096,3.6082844734191895,3.957617800735795,3.985434775194384,15.798597857015189,14.571026780167909,0.0012303352123126,0.0914128422737121,0,0,0
1339,46304.86701384276,2010-11-17 00:36:46,90.04618823910454,2,5,0.550297200679779,3.6463277339935294,3.96220467633107,3.985434775194384,15.815239939529397,14.571026780167909,0.0008741855854168,0.0914128422737121,0,0,0
1340,46334.882345809085,2010-11-17 00:37:16,120.06152020042336,2,5,0.5501165986061096,3.676438331604004,3.966791497209685,3.985434775194384,15.832036916543736,14.571026780167909,0.0007446765666827,0.0914128422737121,0,0,0
1341,46364.89800345336,2010-11-17 00:37:46,150.0771778597345,2,5,0.5501165986061096,3.701045036315918,3.97137824774038,3.985434775194384,15.848957757565268,14.571026780167909,0.0006151676061563,0.0914128422737121,0,0,0
1342,46394.91310531031,2010-11-17 00:38:16,180.09227970163988,2,5,0.5499359965324402,3.721280813217163,3.975964985779086,3.985434775194384,15.865981276172263,14.571026780167909,0.0005180359003134,0.0914128422737121,0,0,0
1343,46424.92847456972,2010-11-17 00:38:46,210.10764896106053,2,5,0.5501165986061096,3.738440752029419,3.98055181640059,3.985434775194384,15.88309080380868,14.571026780167909,0.0004209041653666,0.0914128422737121,0,0,0
1344,46454.94385036045,2010-11-17 00:39:17,240.12302478185933,2,5,0.5501165986061096,3.7518773078918457,3.985138569380647,3.985434775194384,15.90027002701212,14.571026780167909,0.0003237724304199,0.0914128422737121,0,0,0
1345,46484.95923510853,2010-11-17 00:39:47,270.138409499867,2,5,0.550297200679779,3.7607808113098153,3.989725309534955,3.985434775194384,15.917500617777051,14.571026780167909,0.0001942634553415,0.0914128422737121,0,0,0
1346,46514.97475286863,2010-11-17 00:40:17,300.1539272599681,2,5,0.5501165986061096,3.765961170196533,3.99431210913582,3.985434775194384,15.934763176359628,14.571026780167909,9.713172767078504e-05,0.0914128422737121,0,0,0
1347,46544.98999454959,2010-11-17 00:40:47,330.16916894594584,2,5,0.550297200679779,3.769846439361572,3.998898880134615,3.985434775194384,15.95204594950544,14.571026780167909,9.713172767078504e-05,0.0914128422737121,0,0,0
1348,46575.00540836023,2010-11-17 00:41:17,360.1845827766232,2,5,0.5499359965324402,3.773084163665772,4.003485754539418,3.985434775194384,15.969345315184114,14.571026780167909,6.47544875391759e-05,0.0914128422737121,0,0,0
1349,46605.02106437042,2010-11-17 00:41:47,390.20023888706805,2,5,0.5501165986061096,3.7763218879699703,4.008072559351698,3.985434775194384,15.9866595269568,14.571026780167909,3.237724376958795e-05,0.0914128422737121,0,0,0
1350,46635.03613871368,2010-11-17 00:42:17,420.2153131050199,2,5,0.5501165986061096,3.77939772605896,4.012659303555024,3.985434775194384,16.00398811503831,14.571026780167909,6.47544875391759e-05,0.0914128422737121,0,0,0
1351,46665.05152419861,2010-11-17 00:42:47,450.2306985899418,2,5,0.550297200679779,3.782473564147949,4.017245998510608,3.985434775194384,16.021330638680777,14.571026780167909,6.47544875391759e-05,0.0914128422737121,0,0,0
1352,46695.06689431517,2010-11-17 00:43:17,480.24606871151445,2,5,0.5501165986061096,3.7855494022369385,4.021832741922782,3.985434775194384,16.038687132657476,14.571026780167909,9.713172767078504e-05,0.0914128422737121,0,0,0
1353,46725.08226722369,2010-11-17 00:43:47,510.2614416150314,2,5,0.5501165986061096,3.7884633541107178,4.026419541309358,3.985434775194384,16.056057349212267,14.571026780167909,9.713172767078504e-05,0.0914128422737121,0,0,0
1354,46755.09804342891,2010-11-17 00:44:17,540.2772178453139,2,5,0.5501165986061096,3.791215419769287,4.031006431507936,3.985434775194384,16.073441220199946,14.571026780167909,6.47544875391759e-05,0.0914128422737121,0,0,0
1355,46785.11304798297,2010-11-17 00:44:47,570.2922224043864,2,5,0.5499359965324402,3.7941293716430655,4.035593156280599,3.985434775194384,16.090837393206638,14.571026780167909,6.47544875391759e-05,0.0914128422737121,0,0,0
1356,46815.12840754318,2010-11-17 00:45:17,600.3075819345212,2,5,0.550297200679779,3.7970433235168457,4.040179980224632,3.985434775194384,16.108246889840377,14.571026780167909,9.713172767078504e-05,0.0914128422737121,0,0,0
1357,46845.1437004821,2010-11-17 00:45:47,630.3228748734341,2,5,0.5499359965324402,3.799633502960205,4.044766707944284,3.985434775194384,16.12566871881948,14.571026780167909,6.47544875391759e-05,0.0914128422737121,0,0,0
1358,46875.15915219233,2010-11-17 00:46:17,660.3383265836646,2,5,0.5501165986061096,3.8023855686187744,4.049353423172183,3.985434775194384,16.143103203133535,14.571026780167909,3.237724376958795e-05,0.0914128422737121,0,0,0
1359,46905.17447901582,2010-11-17 00:46:47,690.3536534071587,2,5,0.5501165986061096,3.8052995204925537,4.053940153025722,3.985434775194384,16.16055056982614,14.571026780167909,6.47544875391759e-05,0.0914128422737121,0,0,0
1360,46935.18994511196,2010-11-17 00:47:17,720.3691195032986,2,5,0.5501165986061096,3.808051586151123,4.058526953927828,3.985434775194384,16.178011288108756,14.571026780167909,3.237724376958795e-05,0.0914128422737121,0,0,0
1361,46965.20545283701,2010-11-17 00:47:47,750.3846272333632,2,5,0.5501165986061096,3.811127424240112,4.063113816334151,3.985434775194384,16.195485594994306,14.571026780167909,9.713172767078504e-05,0.0914128422737121,0,0,0
1362,46995.22072709429,2010-11-17 00:48:17,780.3999014856315,2,5,0.5501165986061096,3.814365148544312,4.067700663321186,3.985434775194384,16.21297373514265,14.571026780167909,9.713172767078504e-05,0.0914128422737121,0,0,0
1363,47025.23608653922,2010-11-17 00:48:47,810.4152609305536,2,5,0.550297200679779,3.817440986633301,4.072287462069832,3.985434775194384,16.230476191297598,14.571026780167909,9.713172767078504e-05,0.0914128422737121,0,0,0
1364,47055.251497277175,2010-11-17 00:49:17,840.4306717186362,2,5,0.5501165986061096,3.8206787109375,4.076874267467934,3.985434775194384,16.247993423873655,14.571026780167909,9.713172767078504e-05,0.0914128422737121,0,0,0
1365,47085.26686756416,2010-11-17 00:49:47,870.4460419554966,2,5,0.5499359965324402,3.824078321456909,4.081461017294874,3.985434775194384,16.26552565101706,14.571026780167909,9.713172767078504e-05,0.0914128422737121,0,0,0
1366,47115.282236703286,2010-11-17 00:50:17,900.461411094617,2,5,0.5499359965324402,3.8274779319763184,4.086047782225055,3.985434775194384,16.283073497355815,14.571026780167909,9.713172767078504e-05,0.0914128422737121,0,0,0
1367,47145.29760695017,2010-11-17 00:50:47,930.4767813415026,2,5,0.5501165986061096,3.8310394287109375,4.090634518266537,3.985434775194384,16.30063691674825,14.571026780167909,9.713172767078504e-05,0.0914128422737121,0,0,0
1368,47175.31298118701,2010-11-17 00:51:17,960.4921555783476,2,5,0.5501165986061096,3.834438800811768,4.095221270978676,3.985434775194384,16.31821613129409,14.571026780167909,0.0001295089750783,0.0914128422737121,0,0,0
1369,47205.32840010037,2010-11-17 00:51:47,990.5075745267995,2,5,0.5501165986061096,3.837676525115967,4.099808044223797,3.985434775194384,16.335811125496914,14.571026780167909,6.47544875391759e-05,0.0914128422737121,0,0,0
1370,47235.34381678318,2010-11-17 00:52:17,1020.5229911745088,2,5,0.5501165986061096,3.841076135635376,4.104394820359564,3.985434775194384,16.353421638193485,14.571026780167909,9.713172767078504e-05,0.0914128422737121,0,0,0
1371,47265.359125125535,2010-11-17 00:52:47,1050.538299516871,2,5,0.550297200679779,3.844475746154785,4.108981559215309,3.985434775194384,16.37104732275179,14.571026780167909,9.713172767078504e-05,0.0914128422737121,0,0,0
1372,47295.37451045507,2010-11-17 00:53:17,1080.5536848564302,2,5,0.5501165986061096,3.847713470458984,4.113568333940654,3.985434775194384,16.3886882251579,14.571026780167909,9.713172767078504e-05,0.0914128422737121,0,0,0
1373,47325.39000933805,2010-11-17 00:53:47,1110.5691837394113,2,5,0.5501165986061096,3.8507893085479736,4.118155164039795,3.985434775194384,16.40634414746188,14.571026780167909,6.47544875391759e-05,0.0914128422737121,0,0,0
1374,47355.405270437484,2010-11-17 00:54:17,1140.5844448288228,2,5,0.5499359965324402,3.854027032852173,4.122741936824212,3.985434775194384,16.424014295029576,14.571026780167909,0.0001295089750783,0.0914128422737121,0,0,0
1375,47385.42064479964,2010-11-17 00:54:47,1170.5998191909807,2,5,0.5501165986061096,3.856940984725952,4.127328633787427,3.985434775194384,16.44169818389278,14.571026780167909,6.47544875391759e-05,0.0914128422737121,0,0,0
1376,47415.436045703056,2010-11-17 00:55:17,1200.6152201144396,2,5,0.5501165986061096,3.859854936599731,4.131915440518504,3.985434775194384,16.459396077281838,14.571026780167909,6.47544875391759e-05,0.0914128422737121,0,0,0
1377,47445.45141266675,2010-11-17 00:55:47,1230.6305870781296,2,5,0.5501165986061096,3.862607002258301,4.136502167503995,3.985434775194384,16.477106649511207,14.571026780167909,6.47544875391759e-05,0.0914128422737121,0,0,0
1378,47475.46678949004,2010-11-17 00:56:17,1260.6459638813808,2,5,0.5501165986061096,3.86519718170166,4.141088923987331,3.985434775194384,16.494829720849076,14.571026780167909,3.237724376958795e-05,0.0914128422737121,0,0,0
1379,47505.48216139608,2010-11-17 00:56:47,1290.661335797433,2,5,0.5501165986061096,3.86778736114502,4.145675690481447,3.985434775194384,16.512564746046547,14.571026780167909,6.47544875391759e-05,0.0914128422737121,0,0,0
1380,47535.497940689,2010-11-17 00:57:17,1320.6771150853476,2,5,0.550297200679779,3.870215654373169,4.150262475921053,3.985434775194384,16.530311071401883,14.571026780167909,6.47544875391759e-05,0.0914128422737121,0,0,0
1381,47565.51304846071,2010-11-17 00:57:47,1350.6922228821174,2,5,0.5501165986061096,3.872482061386109,4.154849145668732,3.985434775194384,16.548067558270773,14.571026780167909,9.713172767078504e-05,0.0914128422737121,0,0,0
1382,47595.528316126525,2010-11-17 00:58:17,1380.7074905178697,2,5,0.5501165986061096,3.874586582183838,4.159435899802317,3.985434775194384,16.565834332644805,14.571026780167909,6.47544875391759e-05,0.0914128422737121,0,0,0
1383,47625.54382287916,2010-11-17 00:58:47,1410.7229972704945,2,5,0.5501165986061096,3.876529216766357,4.164022696602247,3.985434775194384,16.58361063969889,14.571026780167909,3.237724376958795e-05,0.0914128422737121,0,0,0
1384,47655.55907314154,2010-11-17 00:59:17,1440.738247537893,2,5,0.550297200679779,3.878471851348877,4.168609410144052,3.985434775194384,16.60139535180846,14.571026780167909,6.47544875391759e-05,0.0914128422737121,0,0,0
1385,47685.57445835078,2010-11-17 00:59:47,1470.753632742114,2,5,0.550297200679779,3.880090713500977,4.173196216930495,3.985434775194384,16.61918860908132,14.571026780167909,3.237724376958795e-05,0.0914128422737121,0,0,0
1386,47715.5907932957,2010-11-17 01:00:17,1500.7699677471842,2,5,0.5501165986061096,3.881709575653076,4.17778310561305,3.985434775194384,16.63698983270255,14.571026780167909,6.47544875391759e-05,0.0914128422737121,0,0,0
1387,47745.59266517859,2010-11-17 01:00:47,1530.7718396551393,2,5,0.5501165986061096,3.883328437805176,4.182367805674308,3.985434775194384,16.654789770040892,14.571026780167909,3.237724376958795e-05,0.0914128422737121,0,0,0
1388,47775.60502100602,2010-11-17 01:01:17,1560.7841954274325,2,5,0.5501165986061096,3.884623527526856,4.186954119773421,3.985434775194384,16.672602813101964,14.571026780167909,3.237724376958795e-05,0.0914128422737121,0,0,0
1389,47805.620345062605,2010-11-17 01:01:47,1590.7995194639695,2,5,0.5501165986061096,3.886080503463745,4.191540897817007,3.985434775194384,16.690424147469646,14.571026780167909,3.237724376958795e-05,0.0914128422737121,0,0,0
1390,47835.63574333445,2010-11-17 01:02:17,1620.8149177458347,2,5,0.5501165986061096,3.887375593185425,4.196127669940918,3.985434775194384,16.70825179423991,14.571026780167909,3.237724376958795e-05,0.0914128422737121,0,0,0
1391,47865.65113118026,2010-11-17 01:02:47,1650.8303055816248,2,5,0.5501165986061096,3.8888325691223145,4.200714407932186,3.985434775194384,16.726085469154686,14.571026780167909,3.237724376958795e-05,0.0914128422737121,0,0,0
1392,47895.66661211845,2010-11-17 01:03:17,1680.8457865097878,2,5,0.5504778623580933,3.890127658843994,4.205301225868643,3.985434775194384,16.743925469325212,14.571026780167909,3.237724376958795e-05,0.0914128422737121,0,0,0
1393,47925.68186714774,2010-11-17 01:03:47,1710.8610415490975,2,5,0.5501165986061096,3.891260862350464,4.209888005894483,3.985434775194384,16.761771211691283,14.571026780167909,0.0,0.0914128422737121,0,0,0
1394,47955.69737683268,2010-11-17 01:04:17,1740.8765512240168,2,5,0.5501165986061096,3.892555952072144,4.214474873170667,3.985434775194384,16.779623066126042,14.571026780167909,3.237724376958795e-05,0.0914128422737121,0,0,0
1395,47985.71282918451,2010-11-17 01:04:47,1770.8920035808617,2,5,0.5499359965324402,3.8938510417938232,4.21906167853898,3.985434775194384,16.797480449125782,14.571026780167909,3.237724376958795e-05,0.0914128422737121,0,0,0
1396,48015.728016950896,2010-11-17 01:05:17,1800.9071913472474,2,5,0.5499359965324402,3.894984245300293,4.223648458749723,3.985434775194384,16.815343426260593,14.571026780167909,3.237724376958795e-05,0.0914128422737121,0,0,0
1397,48045.74339244087,2010-11-17 01:05:47,1830.922566832208,2,5,0.550297200679779,3.8962793350219727,4.228235254350202,3.985434775194384,16.83321178024506,14.571026780167909,3.237724376958795e-05,0.0914128422737121,0,0,0
1398,48075.75890218597,2010-11-17 01:06:17,1860.9380765773024,2,5,0.550297200679779,3.897574424743652,4.232822037636593,3.985434775194384,16.851086004106975,14.571026780167909,3.237724376958795e-05,0.0914128422737121,0,0,0
1399,48105.77416395206,2010-11-17 01:06:47,1890.953338348416,2,5,0.5501165986061096,3.898707628250122,4.237408743035308,3.985434775194384,16.868965636313845,14.571026780167909,3.237724376958795e-05,0.0914128422737121,0,0,0
1400,48135.78965827366,2010-11-17 01:07:17,1920.9688326950736,2,5,0.5499359965324402,3.9000027179718018,4.241995478277151,3.985434775194384,16.886851210457422,14.571026780167909,3.237724376958795e-05,0.0914128422737121,0,0,0
1401,48165.80492379915,2010-11-17 01:07:47,1950.984098195496,2,5,0.5501165986061096,3.901135921478272,4.246582239210525,3.985434775194384,16.904742568138154,14.571026780167909,0.0,0.0914128422737121,0,0,0
1402,48195.82044548906,2010-11-17 01:08:17,1980.9996199104687,2,5,0.5501165986061096,3.902592897415161,4.251168982874984,3.985434775194384,16.922639720065302,14.571026780167909,6.47544875391759e-05,0.0914128422737121,0,0,0
1403,48225.8356877615,2010-11-17 01:08:47,2011.0148621528351,2,5,0.550297200679779,3.904049873352051,4.255755686590298,3.985434775194384,16.94054258584365,14.571026780167909,3.237724376958795e-05,0.0914128422737121,0,0,0
1404,48255.851087958144,2010-11-17 01:09:17,2041.03026234948,2,5,0.5501165986061096,3.905183076858521,4.260342529515898,3.985434775194384,16.958452009079252,14.571026780167909,3.237724376958795e-05,0.0914128422737121,0,0,0
1405,48285.86643924772,2010-11-17 01:09:47,2071.045613644057,2,5,0.5501165986061096,3.9064781665802,4.264929339314606,3.985434775194384,16.976367105661208,14.571026780167909,6.47544875391759e-05,0.0914128422737121,0,0,0
1406,48315.881957489015,2010-11-17 01:10:17,2101.061131880348,2,5,0.5501165986061096,3.90793514251709,4.269516106841509,3.985434775194384,16.994288119741682,14.571026780167909,6.47544875391759e-05,0.0914128422737121,0,0,0
1407,48345.89721784659,2010-11-17 01:10:47,2131.0763922379324,2,5,0.550297200679779,3.9092302322387695,4.274102819210033,3.985434775194384,17.012214892142882,14.571026780167909,6.47544875391759e-05,0.0914128422737121,0,0,0
1408,48375.91256614871,2010-11-17 01:11:17,2161.0917405600903,2,5,0.5501165986061096,3.9103634357452393,4.278689631626513,3.985434775194384,17.030148197889446,14.571026780167909,3.237724376958795e-05,0.0914128422737121,0,0,0
1409,48405.92796256591,2010-11-17 01:11:48,2191.107136977301,2,5,0.5501165986061096,3.911658525466919,4.283276458304223,3.985434775194384,17.048087635693257,14.571026780167909,6.47544875391759e-05,0.0914128422737121,0,0,0
1410,48435.943329354166,2010-11-17 01:12:18,2221.122503765553,2,5,0.5501165986061096,3.912953615188599,4.287863234511979,3.985434775194384,17.066033080386063,14.571026780167909,0.0,0.0914128422737121,0,0,0
1411,48465.958721716255,2010-11-17 01:12:48,2251.137896127642,2,5,0.550297200679779,3.914572238922119,4.292450016198906,3.985434775194384,17.08398482042778,14.571026780167909,6.47544875391759e-05,0.0914128422737121,0,0,0
1412,48495.97408765238,2010-11-17 01:13:18,2281.153262073792,2,5,0.5501165986061096,3.915705442428589,4.297036843524169,3.985434775194384,17.101943000649438,14.571026780167909,3.237724376958795e-05,0.0914128422737121,0,0,0
1413,48525.98946526766,2010-11-17 01:13:48,2311.1686396840573,2,5,0.5501165986061096,3.917324304580689,4.301623603799593,3.985434775194384,17.11990719651405,14.571026780167909,6.47544875391759e-05,0.0914128422737121,0,0,0
1414,48556.00500584471,2010-11-17 01:14:18,2341.184180241063,2,5,0.5501165986061096,3.918619394302368,4.306210490859494,3.985434775194384,17.137878320301393,14.571026780167909,3.237724376958795e-05,0.0914128422737121,0,0,0
1415,48586.02024369111,2010-11-17 01:14:48,2371.199418107507,2,5,0.5501165986061096,3.919914484024048,4.310797240594479,3.985434775194384,17.155855350860378,14.571026780167909,-3.237724376958795e-05,0.0914128422737121,0,0,0
1416,48616.0356012012,2010-11-17 01:15:18,2401.2147755925366,2,5,0.5501165986061096,3.9213714599609375,4.315384941833995,3.985434775194384,17.173842686905886,14.571026780167909,0.0,0.0914128422737121,0,0,0
1417,48646.05097419494,2010-11-17 01:15:48,2431.2301485862786,2,5,0.5501165986061096,3.922990322113037,4.319972613590618,3.985434775194384,17.191836504955404,14.571026780167909,3.237724376958795e-05,0.0914128422737121,0,0,0
1418,48676.06635852197,2010-11-17 01:16:18,2461.2455329133104,2,5,0.5501165986061096,3.924447298049927,4.324560102388067,3.985434775194384,17.209836172093624,14.571026780167909,3.237724376958795e-05,0.0914128422737121,0,0,0
1419,48706.08197902855,2010-11-17 01:16:48,2491.2611534198827,2,5,0.550297200679779,3.925904273986816,4.32914780702608,3.985434775194384,17.22784340934777,14.571026780167909,6.47544875391759e-05,0.0914128422737121,0,0,0
1420,48736.09716078994,2010-11-17 01:17:18,2521.27633518128,2,5,0.5501165986061096,3.927199363708496,4.333735463041396,3.985434775194384,17.245857087882957,14.571026780167909,3.237724376958795e-05,0.0914128422737121,0,0,0
1421,48766.11250846048,2010-11-17 01:17:48,2551.291682851811,2,5,0.5504778623580933,3.9289801120758057,4.338323079549443,3.985434775194384,17.263877395889946,14.571026780167909,9.713172767078504e-05,0.0914128422737121,0,0,0
1422,48796.127900266176,2010-11-17 01:18:18,2581.3070746575104,2,5,0.550297200679779,3.930275201797485,4.342910172417374,3.985434775194384,17.281902380879757,14.571026780167909,3.237724376958795e-05,0.0914128422737121,0,0,0
1423,48826.14330282872,2010-11-17 01:18:48,2611.3224772250733,2,5,0.5501165986061096,3.931732177734375,4.347497178252545,3.985434775194384,17.29993387118309,14.571026780167909,0.0,0.0914128422737121,0,0,0
1424,48856.15879045862,2010-11-17 01:19:18,2641.3379648499526,2,5,0.5501165986061096,3.9331891536712646,4.352084157839098,3.985434775194384,17.31797211968733,14.571026780167909,0.0,0.0914128422737121,0,0,0
1425,48886.17407235497,2010-11-17 01:19:48,2671.353246746301,2,5,0.5499359965324402,3.934808015823364,4.356671175351279,3.985434775194384,17.33601744116583,14.571026780167909,6.47544875391759e-05,0.0914128422737121,0,0,0
1426,48916.189420541785,2010-11-17 01:20:18,2701.3685949331216,2,5,0.5501165986061096,3.936264991760254,4.361258128412854,3.985434775194384,17.35406952477089,14.571026780167909,6.47544875391759e-05,0.0914128422737121,0,0,0
1427,48946.204861049046,2010-11-17 01:20:48,2731.384035555676,2,5,0.550297200679779,3.937721967697144,4.365845225222889,3.985434775194384,17.37212901706167,14.571026780167909,3.237724376958795e-05,0.0914128422737121,0,0,0
1428,48976.22018739636,2010-11-17 01:21:18,2761.399361787693,2,5,0.5499359965324402,3.939340829849243,4.370432208932053,3.985434775194384,17.390195241797947,14.571026780167909,3.237724376958795e-05,0.0914128422737121,0,0,0
1429,49006.23569390337,2010-11-17 01:21:48,2791.414868299717,2,5,0.550297200679779,3.940959692001343,4.375019235859242,3.985434775194384,17.408268808571464,14.571026780167909,3.237724376958795e-05,0.0914128422737121,0,0,0
1430,49036.25097332354,2010-11-17 01:22:18,2821.430147739936,2,5,0.550297200679779,3.9425785541534415,4.37960625257625,3.985434775194384,17.426349469959398,14.571026780167909,6.47544875391759e-05,0.0914128422737121,0,0,0
1431,49066.26634760048,2010-11-17 01:22:48,2851.4455219918186,2,5,0.550297200679779,3.944035530090332,4.38419325744785,3.985434775194384,17.444437315718567,14.571026780167909,3.237724376958795e-05,0.0914128422737121,0,0,0
1432,49096.28171949648,2010-11-17 01:23:18,2881.46089388782,2,5,0.550297200679779,3.9458162784576416,4.388780288072469,3.985434775194384,17.462532512945256,14.571026780167909,6.47544875391759e-05,0.0914128422737121,0,0,0
1433,49126.29709901652,2010-11-17 01:23:48,2911.4762734078527,2,5,0.5501165986061096,3.947111368179321,4.393367327896226,3.985434775194384,17.48063508349337,14.571026780167909,0.0,0.0914128422737121,0,0,0
1434,49156.31248934854,2010-11-17 01:24:18,2941.4916637398737,2,5,0.550297200679779,3.948892116546631,4.397954410143362,3.985434775194384,17.49874522835294,14.571026780167909,3.237724376958795e-05,0.0914128422737121,0,0,0
1435,49186.32790326444,2010-11-17 01:24:48,2971.507077655764,2,5,0.5499359965324402,3.950349092483521,4.402541397700027,3.985434775194384,17.51686248715221,14.571026780167909,3.237724376958795e-05,0.0914128422737121,0,0,0
1436,49216.3432592457,2010-11-17 01:25:18,3001.522433647065,2,5,0.550297200679779,3.95212984085083,4.407128403955016,3.985434775194384,17.53498744223574,14.571026780167909,0.0,0.0914128422737121,0,0,0
1437,49246.3586452018,2010-11-17 01:25:48,3031.537819608176,2,5,0.550297200679779,3.95391058921814,4.411715381323754,3.985434775194384,17.553119880949872,14.571026780167909,6.47544875391759e-05,0.0914128422737121,0,0,0
1438,49276.37427187376,2010-11-17 01:26:18,3061.553446260088,2,5,0.5499359965324402,3.9555294513702393,4.416302339301503,3.985434775194384,17.57125994395192,14.571026780167909,6.47544875391759e-05,0.0914128422737121,0,0,0
1439,49306.38953026644,2010-11-17 01:26:48,3091.568704682843,2,5,0.5501165986061096,3.957472085952759,4.420889302644364,3.985434775194384,17.589407833570746,14.571026780167909,9.713172767078504e-05,0.0914128422737121,0,0,0
1440,49336.40490700454,2010-11-17 01:27:18,3121.5840814209314,2,5,0.550297200679779,3.958929061889648,4.425476243093637,3.985434775194384,17.607563494572556,14.571026780167909,3.237724376958795e-05,0.0914128422737121,0,0,0
1441,49366.420169868376,2010-11-17 01:27:48,3151.5993442597096,2,5,0.5501165986061096,3.960709810256958,4.43006322786384,3.985434775194384,17.62572734549966,14.571026780167909,3.237724376958795e-05,0.0914128422737121,0,0,0
1442,49396.4356730571,2010-11-17 01:28:18,3181.614847453451,2,5,0.5501165986061096,3.962490558624268,4.434650305638487,3.985434775194384,17.643899642294535,14.571026780167909,6.47544875391759e-05,0.0914128422737121,0,0,0
1443,49426.45093799613,2010-11-17 01:28:48,3211.630112387459,2,5,0.5501165986061096,3.964433193206787,4.439237291827147,3.985434775194384,17.662079714890254,14.571026780167909,6.47544875391759e-05,0.0914128422737121,0,0,0
1444,49456.46633123039,2010-11-17 01:29:18,3241.645505646788,2,5,0.550297200679779,3.9662139415740967,4.443824283135531,3.985434775194384,17.680267976358085,14.571026780167909,6.47544875391759e-05,0.0914128422737121,0,0,0
1445,49486.48198530576,2010-11-17 01:29:48,3271.6611596970906,2,5,0.550297200679779,3.9679946899414062,4.448411342751957,3.985434775194384,17.698464767948348,14.571026780167909,9.713172767078504e-05,0.0914128422737121,0,0,0
1446,49516.49721734264,2010-11-17 01:30:18,3301.676391733982,2,5,0.5501165986061096,3.969613552093506,4.452998405706626,3.985434775194384,17.716669989598802,14.571026780167909,0.0,0.0914128422737121,0,0,0
1447,49546.51247371528,2010-11-17 01:30:48,3331.69164810662,2,5,0.5501165986061096,3.9717180728912354,4.457585422664928,3.985434775194384,17.734883544731574,14.571026780167909,6.47544875391759e-05,0.0914128422737121,0,0,0
1448,49576.52784587695,2010-11-17 01:31:18,3361.7070202682853,2,5,0.550297200679779,3.973498821258545,4.462172514582417,3.985434775194384,17.753106076728592,14.571026780167909,3.237724376958795e-05,0.0914128422737121,0,0,0
1449,49606.54324077537,2010-11-17 01:31:48,3391.7224151667046,2,5,0.550297200679779,3.975441455841065,4.466759534783724,3.985434775194384,17.771337065217207,14.571026780167909,6.47544875391759e-05,0.0914128422737121,0,0,0
1450,49636.55863431539,2010-11-17 01:32:18,3421.737808711746,2,5,0.550297200679779,3.977384090423584,4.471346599946299,3.985434775194384,17.78957711664677,14.571026780167909,6.47544875391759e-05,0.0914128422737121,0,0,0
1451,49666.57700277127,2010-11-17 01:32:48,3451.756177272885,2,5,0.5501165986061096,3.979326725006104,4.475934103284282,3.985434775194384,17.80782754373982,14.571026780167909,3.237724376958795e-05,0.0914128422737121,0,0,0
1452,49696.589399821605,2010-11-17 01:33:18,3481.768574217952,2,5,0.5501165986061096,3.981269359588623,4.480520596832792,3.985434775194384,17.826083489788036,14.571026780167909,0.0,0.0914128422737121,0,0,0
1453,49726.60477061986,2010-11-17 01:33:48,3511.7839450162137,2,5,0.5499359965324402,3.983373880386353,4.485107504642286,3.985434775194384,17.84435028118388,14.571026780167909,3.237724376958795e-05,0.0914128422737121,0,0,0
1454,49756.62014374894,2010-11-17 01:34:18,3541.799318145293,2,5,0.550297200679779,3.985316514968872,4.489694414852794,3.985434775194384,17.8626264534013,14.571026780167909,6.47544875391759e-05,0.0914128422737121,0,0,0
1455,49786.63555611597,2010-11-17 01:34:48,3571.814730507305,2,5,0.5501165986061096,3.9874210357666016,4.494281441838734,3.985434775194384,17.880912524936445,14.571026780167909,3.237724376958795e-05,0.0914128422737121,0,0,0
1456,49816.65091762103,2010-11-17 01:35:18,3601.8300920123697,2,5,0.5501165986061096,3.989687442779541,4.498868441829868,3.985434775194384,17.899207852425775,14.571026780167909,9.713172767078504e-05,0.0914128422737121,0,0,0
1457,49846.66633817348,2010-11-17 01:35:48,3631.8455125648256,2,5,0.5501165986061096,3.9914681911468506,4.503455378415724,3.985434775194384,17.91751260868107,14.571026780167909,3.237724376958795e-05,0.0914128422737121,0,0,0
1458,49876.681712219855,2010-11-17 01:36:18,3661.8608866362574,2,5,0.5499359965324402,3.99373459815979,4.508042342758062,3.985434775194384,17.935827247165452,14.571026780167909,3.237724376958795e-05,0.0914128422737121,0,0,0
1459,49906.69723676189,2010-11-17 01:36:48,3691.8764111532246,2,5,0.5501165986061096,3.995838880538941,4.512629275889937,3.985434775194384,17.954151535879483,14.571026780167909,0.0,0.0914128422737121,0,0,0
1460,49936.71245695923,2010-11-17 01:37:18,3721.8916313505633,2,5,0.550297200679779,3.99826717376709,4.5172162382315,3.985434775194384,17.9724858649162,14.571026780167909,6.47544875391759e-05,0.0914128422737121,0,0,0
1461,49966.72783007828,2010-11-17 01:37:48,3751.907004469618,2,5,0.5501165986061096,4.000209808349609,4.521803236867363,3.985434775194384,17.99083031605204,14.571026780167909,3.23295607813634e-05,0.0914128422737121,0,0,0
1462,49996.74334249003,2010-11-17 01:38:18,3781.9225168813687,2,5,0.5501165986061096,4.002638339996338,4.526390201126474,3.985434775194384,18.009184807296425,14.571026780167909,6.47544875391759e-05,0.0914128422737121,0,0,0
1463,50026.75861253179,2010-11-17 01:38:48,3811.93778692814,2,5,0.5501165986061096,4.004742622375488,4.530977113988025,3.985434775194384,18.027549342330676,14.571026780167909,3.23295607813634e-05,0.0914128422737121,0,0,0
1464,50056.77401906425,2010-11-17 01:39:18,3841.953193455587,2,5,0.5499359965324402,4.006847381591797,4.535564066315969,3.985434775194384,18.04592433950699,14.571026780167909,3.24249267578125e-05,0.0914128422737121,0,0,0
1465,50086.78951149112,2010-11-17 01:39:48,3871.9686858874657,2,5,0.550297200679779,4.009437561035156,4.540151074975547,3.985434775194384,18.06430984227299,14.571026780167909,9.71794142969884e-05,0.0914128422737121,0,0,0
1466,50116.80482557782,2010-11-17 01:40:18,3901.9840000543663,2,5,0.550297200679779,4.011541843414307,4.54473799477002,3.985434775194384,18.08270544157101,14.571026780167909,6.47544875391759e-05,0.0914128422737121,0,0,0
1467,50146.82027320285,2010-11-17 01:40:48,3931.9994475891754,2,5,0.550297200679779,4.013970375061035,4.54932495565357,3.985434775194384,18.101111838960225,14.571026780167909,9.71794142969884e-05,0.0914128422737121,0,0,0
1468,50176.8355296206,2010-11-17 01:41:18,3962.01470401695,2,5,0.550297200679779,4.016236782073975,4.553911898188966,3.985434775194384,18.119528829970083,14.571026780167909,6.47544875391759e-05,0.0914128422737121,0,0,0
1469,50206.85090801783,2010-11-17 01:41:48,3992.030082409168,2,5,0.5501165986061096,4.018664836883545,4.55849887879019,3.985434775194384,18.137956792486644,14.571026780167909,6.47544875391759e-05,0.0914128422737121,0,0,0
1470,50236.866336058985,2010-11-17 01:42:18,4022.0455104503167,2,5,0.5501165986061096,4.021093368530273,4.563085857615397,3.985434775194384,18.156395636216192,14.571026780167909,6.47544875391759e-05,0.0914128422737121,0,0,0
1471,50266.88171400508,2010-11-17 01:42:48,4052.060888391408,2,5,0.5501165986061096,4.023359775543213,4.567672786677359,3.985434775194384,18.174845348532248,14.571026780167909,3.24249267578125e-05,0.0914128422737121,0,0,0
1472,50296.89705358041,2010-11-17 01:43:18,4082.07622796172,2,5,0.5501165986061096,4.025949954986572,4.572259757318581,3.985434775194384,18.19330635272135,14.571026780167909,6.47544875391759e-05,0.0914128422737121,0,0,0
1473,50326.91241913558,2010-11-17 01:43:49,4112.091593531932,2,5,0.550297200679779,4.028378009796143,4.576846648062512,3.985434775194384,18.211778280030337,14.571026780167909,6.47544875391759e-05,0.0914128422737121,0,0,0
1474,50356.9277720041,2010-11-17 01:44:19,4142.10694724254,2,5,0.5499359965324402,4.030644416809082,4.581433631674044,3.985434775194384,18.230261909812697,14.571026780167909,3.23295607813634e-05,0.0914128422737121,0,0,0
1475,50386.94347275597,2010-11-17 01:44:49,4172.12264726259,2,5,0.550297200679779,4.033396720886231,4.586020616685718,3.985434775194384,18.248756936720927,14.571026780167909,6.47544875391759e-05,0.0914128422737121,0,0,0
1476,50416.958573429954,2010-11-17 01:45:19,4202.137747821293,2,5,0.5501165986061096,4.035986423492432,4.590607513876329,3.985434775194384,18.26726322997956,14.571026780167909,9.70840483205393e-05,0.0914128422737121,0,0,0
1477,50446.97396830832,2010-11-17 01:45:49,4232.153142699662,2,5,0.550297200679779,4.03841495513916,4.595194478378914,3.985434775194384,18.285781447444737,14.571026780167909,6.47544875391759e-05,0.0914128422737121,0,0,0
1478,50476.98934743237,2010-11-17 01:46:19,4262.168521823706,2,5,0.5501165986061096,4.0408430099487305,4.599781483211159,3.985434775194384,18.304311537351683,14.571026780167909,3.23295607813634e-05,0.0914128422737121,0,0,0
1479,50507.00475691219,2010-11-17 01:46:49,4292.183931323573,2,5,0.5501165986061096,4.04343318939209,4.604368440075121,3.985434775194384,18.32285319507871,14.571026780167909,3.23295607813634e-05,0.0914128422737121,0,0,0
1480,50537.02011584583,2010-11-17 01:47:19,4322.199290232156,2,5,0.5501165986061096,4.046023368835449,4.608955352315704,3.985434775194384,18.34140657785535,14.571026780167909,0.0,0.0914128422737121,0,0,0
1481,50567.03549611272,2010-11-17 01:47:49,4352.214670504066,2,5,0.5501165986061096,4.048775672912598,4.613542308475251,3.985434775194384,18.359972106425744,14.571026780167909,9.71794142969884e-05,0.0914128422737121,0,0,0
1482,50597.05088968284,2010-11-17 01:48:19,4382.230064069157,2,5,0.5501165986061096,4.051203727722168,4.618129319414318,3.985434775194384,18.37854991940564,14.571026780167909,0.0,0.0914128422737121,0,0,0
1483,50627.066650925706,2010-11-17 01:48:49,4412.245825337091,2,5,0.5501165986061096,4.054117679595947,4.622716314332902,3.985434775194384,18.397139795932524,14.571026780167909,6.47544875391759e-05,0.0914128422737121,0,0,0
1484,50657.08165997599,2010-11-17 01:49:19,4442.260834367325,2,5,0.5501165986061096,4.056707859039307,4.627303252160516,3.985434775194384,18.4157419021498,14.571026780167909,6.47544875391759e-05,0.0914128422737121,0,0,0
1485,50687.097161716105,2010-11-17 01:49:49,4472.276336102425,2,5,0.550297200679779,4.059621810913086,4.631890244144468,3.985434775194384,18.434356679062866,14.571026780167909,9.70840483205393e-05,0.0914128422737121,0,0,0
1486,50717.11257026861,2010-11-17 01:50:19,4502.291744664953,2,5,0.5501165986061096,4.062211990356445,4.636477281547148,3.985434775194384,18.452983830184436,14.571026780167909,9.70840483205393e-05,0.0914128422737121,0,0,0
1487,50747.12781049594,2010-11-17 01:50:49,4532.3069848872765,2,5,0.5501165986061096,4.064964294433594,4.641064185827043,3.985434775194384,18.47162296281205,14.571026780167909,9.71794142969884e-05,0.0914128422737121,0,0,0
1488,50777.14320029162,2010-11-17 01:51:19,4562.322374703009,2,5,0.5501165986061096,4.067716121673584,4.645651163577346,3.985434775194384,18.49027507382552,14.571026780167909,6.47544875391759e-05,0.0914128422737121,0,0,0
1489,50807.15857379163,2010-11-17 01:51:49,4592.337748182965,2,5,0.550297200679779,4.070468425750732,4.650238158079628,3.985434775194384,18.508940012704485,14.571026780167909,6.47544875391759e-05,0.0914128422737121,0,0,0
1490,50837.17396353218,2010-11-17 01:52:19,4622.353137923509,2,5,0.5501165986061096,4.073382377624512,4.654825156720506,3.985434775194384,18.527617874230664,14.571026780167909,6.47544875391759e-05,0.0914128422737121,0,0,0
1491,50867.18935147323,2010-11-17 01:52:49,4652.368525864562,2,5,0.5501165986061096,4.076134204864502,4.659412154666353,3.985434775194384,18.546308718744505,14.571026780167909,3.23295607813634e-05,0.0914128422737121,0,0,0
1492,50897.20473235666,2010-11-17 01:53:19,4682.383906747998,2,5,0.550297200679779,4.079048156738281,4.66399911984862,3.985434775194384,18.56501242052585,14.571026780167909,9.70840483205393e-05,0.0914128422737121,0,0,0
1493,50927.220159706085,2010-11-17 01:53:49,4712.399334122482,2,5,0.5501165986061096,4.08180046081543,4.668586136622663,3.985434775194384,18.583729477935137,14.571026780167909,6.47544875391759e-05,0.0914128422737121,0,0,0
1494,50957.235510454295,2010-11-17 01:54:19,4742.414684845634,2,5,0.550297200679779,4.08487606048584,4.673173024485752,3.985434775194384,18.60245919416376,14.571026780167909,9.70840483205393e-05,0.0914128422737121,0,0,0
1495,50987.25089977379,2010-11-17 01:54:49,4772.430074165127,2,5,0.5501165986061096,4.087628364562988,4.677760030095683,3.985434775194384,18.62120282874189,14.571026780167909,6.47544875391759e-05,0.0914128422737121,0,0,0
1496,51017.266393914935,2010-11-17 01:55:19,4802.445568306272,2,5,0.5501165986061096,4.090866088867188,4.682347026436168,3.985434775194384,18.63996000276716,14.571026780167909,0.0001295089750783,0.0914128422737121,0,0,0
1497,51047.281655044455,2010-11-17 01:55:49,4832.460829440797,2,5,0.550297200679779,4.093780040740967,4.686934094344193,3.985434775194384,18.658731235947062,14.571026780167909,0.0001295089750783,0.0914128422737121,0,0,0
1498,51077.2970422637,2010-11-17 01:56:19,4862.476216655035,2,5,0.5501165986061096,4.096855640411377,4.691521091516765,3.985434775194384,18.67751611500431,14.571026780167909,9.70840483205393e-05,0.0914128422737121,0,0,0
1499,51107.31244138266,2010-11-17 01:56:49,4892.49161577399,2,5,0.550297200679779,4.099931716918945,4.696108177299579,3.985434775194384,18.696315347980725,14.571026780167909,9.71794142969884e-05,0.0914128422737121,0,0,0
1500,51137.32788575958,2010-11-17 01:57:19,4922.507060175978,2,5,0.550297200679779,4.103007316589356,4.700695296889803,3.985434775194384,18.715128848417955,14.571026780167909,9.70840483205393e-05,0.0914128422737121,0,0,0
1501,51167.34320396155,2010-11-17 01:57:49,4952.522378372938,2,5,0.5501165986061096,4.106083393096924,4.705282344416129,3.985434775194384,18.73395638353477,14.571026780167909,6.47544875391759e-05,0.0914128422737121,0,0,0
1502,51197.35871523547,2010-11-17 01:58:19,4982.537889631812,2,5,0.5499359965324402,4.108997344970703,4.709869408993155,3.985434775194384,18.752798232407585,14.571026780167909,6.47544875391759e-05,0.0914128422737121,0,0,0
1503,51227.37399110677,2010-11-17 01:58:49,5012.553165498109,2,5,0.550297200679779,4.112235069274902,4.714456467334807,3.985434775194384,18.771654382980007,14.571026780167909,9.71794142969884e-05,0.0914128422737121,0,0,0
1504,51257.38935373965,2010-11-17 01:59:19,5042.568528130989,2,5,0.5501165986061096,4.115472316741943,4.71904350877316,3.985434775194384,18.790524824008298,14.571026780167909,6.47544875391759e-05,0.0914128422737121,0,0,0
1505,51287.40475320948,2010-11-17 01:59:49,5072.583927600818,2,5,0.5501165986061096,4.118710041046143,4.723630542652303,3.985434775194384,18.809409889007387,14.571026780167909,6.47544875391759e-05,0.0914128422737121,0,0,0
1506,51317.42013843376,2010-11-17 02:00:19,5102.599312820078,2,5,0.550297200679779,4.121947765350342,4.728217616933194,3.985434775194384,18.828309799799108,14.571026780167909,9.70840483205393e-05,0.0914128422737121,0,0,0
1507,51347.43545329238,2010-11-17 02:00:49,5132.614627703768,2,5,0.5501165986061096,4.125185489654541,4.732804681310893,3.985434775194384,18.847224511408644,14.571026780167909,9.70840483205393e-05,0.0914128422737121,0,0,0
1508,51377.45087848141,2010-11-17 02:01:19,5162.630052892798,2,5,0.5501165986061096,4.12842321395874,4.737391722896633,3.985434775194384,18.866154123072526,14.571026780167909,9.70840483205393e-05,0.0914128422737121,0,0,0
1509,51407.46661851635,2010-11-17 02:01:49,5192.645792912694,2,5,0.5501165986061096,4.131499290466309,4.741978757701231,3.985434775194384,18.8850987233356,14.571026780167909,6.47544875391759e-05,0.0914128422737121,0,0,0
1510,51437.48170528062,2010-11-17 02:02:19,5222.660879666938,2,5,0.5501165986061096,4.135060787200928,4.746565733837149,3.985434775194384,18.904058226961883,14.571026780167909,9.71794142969884e-05,0.0914128422737121,0,0,0
1511,51467.49709619911,2010-11-17 02:02:49,5252.676270590436,2,5,0.5499359965324402,4.138298511505127,4.751152790491937,3.985434775194384,18.923033437989435,14.571026780167909,6.47544875391759e-05,0.0914128422737121,0,0,0
1512,51497.512596515655,2010-11-17 02:03:19,5282.6917708969695,2,5,0.5501165986061096,4.141697883605957,4.755739886189885,3.985434775194384,18.94202431144389,14.571026780167909,9.70840483205393e-05,0.0914128422737121,0,0,0
1513,51527.52785482814,2010-11-17 02:03:49,5312.707029219475,2,5,0.5501165986061096,4.145097732543945,4.760326927754582,3.985434775194384,18.96103062535373,14.571026780167909,3.24249267578125e-05,0.0914128422737121,0,0,0
1514,51557.543257686426,2010-11-17 02:04:19,5342.722432102825,2,5,0.5501165986061096,4.1486592292785645,4.764913956271555,3.985434775194384,18.980052921362013,14.571026780167909,6.47544875391759e-05,0.0914128422737121,0,0,0
1515,51587.56278764158,2010-11-17 02:04:49,5372.74196211312,2,5,0.5501165986061096,4.152220726013184,4.769501642191631,3.985434775194384,18.99909369806065,14.571026780167909,9.71794142969884e-05,0.0914128422737121,0,0,0
1516,51617.574140726014,2010-11-17 02:05:19,5402.753315202564,2,5,0.5499359965324402,4.155458450317383,4.774088086651523,3.985434775194384,19.018145254693717,14.571026780167909,6.47544875391759e-05,0.0914128422737121,0,0,0
1517,51647.58942178527,2010-11-17 02:05:49,5432.768596171598,2,5,0.5501165986061096,4.159181594848633,4.778675060112533,3.985434775194384,19.037215083697163,14.571026780167909,9.70840483205393e-05,0.0914128422737121,0,0,0
1518,51677.60492799655,2010-11-17 02:06:19,5462.784102392896,2,5,0.5501165986061096,4.162743091583252,4.7832621074841,3.985434775194384,19.056301388815733,14.571026780167909,0.0001295089750783,0.0914128422737121,0,0,0
1519,51707.62019480022,2010-11-17 02:06:49,5492.799369186547,2,5,0.5499359965324402,4.165980815887451,4.787849154115738,3.985434775194384,19.075403875682845,14.571026780167909,6.47544875391759e-05,0.0914128422737121,0,0,0
1520,51737.635691026575,2010-11-17 02:07:19,5522.814865407883,2,5,0.5501165986061096,4.16954231262207,4.792436184241912,3.985434775194384,19.09452257260956,14.571026780167909,6.47544875391759e-05,0.0914128422737121,0,0,0
1521,51767.65110478707,2010-11-17 02:07:49,5552.830279178411,2,5,0.550297200679779,4.173427581787109,4.79702312638824,3.985434775194384,19.1136573503554,14.571026780167909,0.0001618385285837,0.0914128422737121,0,0,0
1522,51797.66633553575,2010-11-17 02:08:19,5582.8455099321,2,5,0.5501165986061096,4.176827430725098,4.801610126398932,3.985434775194384,19.13280887050279,14.571026780167909,6.47544875391759e-05,0.0914128422737121,0,0,0
1523,51827.68177668964,2010-11-17 02:08:49,5612.860951070943,2,5,0.5501165986061096,4.180388927459717,4.806197167979747,3.985434775194384,19.151977131786904,14.571026780167909,0.0,0.0914128422737121,0,0,0
1524,51857.69711056072,2010-11-17 02:09:19,5642.876284942028,2,5,0.5501165986061096,4.184274196624756,4.8107841920738,3.985434775194384,19.171162088080298,14.571026780167909,9.71794142969884e-05,0.0914128422737121,0,0,0
1525,51887.712511719765,2010-11-17 02:09:49,5672.891686106088,2,5,0.5501165986061096,4.187835693359375,4.815371231037529,3.985434775194384,19.190363863623123,14.571026780167909,6.47544875391759e-05,0.0914128422737121,0,0,0
1526,51917.727992632885,2010-11-17 02:10:19,5702.907167044275,2,5,0.550297200679779,4.191720962524414,4.819958299634509,3.985434775194384,19.209582638200825,14.571026780167909,0.0001295089750783,0.0914128422737121,0,0,0
1527,51947.74326004308,2010-11-17 02:10:49,5732.922434434415,2,5,0.5501165986061096,4.195281982421875,4.824545355323084,3.985434775194384,19.228818377259408,14.571026780167909,6.47544875391759e-05,0.0914128422737121,0,0,0
1528,51977.758700966384,2010-11-17 02:11:19,5762.937875377769,2,5,0.550297200679779,4.199167251586914,4.829132453536445,3.985434775194384,19.24807135229897,14.571026780167909,0.0001295089750783,0.0914128422737121,0,0,0
1529,51984.19613328784,2010-11-17 02:11:26,5769.375307679168,2,5,0.5501165986061096,4.200138568878174,4.830116228183115,3.985434775194384,19.252202706386157,14.571026780167909,0.0001618385285837,0.0914128422737121,0,0,0
1530,52014.21020395928,2010-11-17 02:11:56,30.015359495047253,3,5,0.0,4.119843482971191,4.830116228183115,3.985434775194384,19.252202706386157,14.571026780167909,-0.0003885269106831,0.0914128422737121,0,0,0
1531,52044.225593564486,2010-11-17 02:12:26,60.0307491002541,3,5,0.0,4.110616207122803,4.830116228183115,3.985434775194384,19.252202706386157,14.571026780167909,-0.0001618385285837,0.0914128422737121,0,0,0
1532,52074.24111445741,2010-11-17 02:12:56,90.04626999317526,3,5,0.0,4.105112075805664,4.830116228183115,3.985434775194384,19.252202706386157,14.571026780167909,-0.0001618385285837,0.0914128422737121,0,0,0
1533,52104.20951938663,2010-11-17 02:13:26,120.01467492741496,3,5,0.0,4.101874351501465,4.830116228183115,3.985434775194384,19.252202706386157,14.571026780167909,-3.23295607813634e-05,0.0914128422737121,0,0,0
1534,52104.22483295139,2010-11-17 02:13:26,0.01567437064056,4,5,0.9655179381370544,4.199653148651123,4.830120452489727,3.985434775194384,19.25222044700872,14.571026780167909,0.0,0.0914128422737121,0,0,0
1535,52105.33415265403,2010-11-17 02:13:27,1.124994058245389,4,5,0.9145861268043518,4.199653148651123,4.83040850431558,3.985434775194384,19.253430175981837,14.571026780167909,0.0,0.0914128422737121,0,0,0
1536,52107.709126113165,2010-11-17 02:13:30,3.499967512367409,4,5,0.8636543154716492,4.199491024017334,4.830994081693739,3.985434775194384,19.255889410480357,14.571026780167909,-3.24249267578125e-05,0.0914128422737121,0,0,0
1537,52111.34987077696,2010-11-17 02:13:33,7.140712176162807,4,5,0.8130837082862854,4.199653148651123,4.831840890745815,3.985434775194384,19.25944576070794,14.571026780167909,3.24249267578125e-05,0.0914128422737121,0,0,0
1538,52116.19370261644,2010-11-17 02:13:38,11.98454402566406,4,5,0.7630549669265747,4.199814796447754,4.832899919323267,3.985434775194384,19.26389338245077,14.571026780167909,0.0,0.0914128422737121,0,0,0
1539,52122.58425945447,2010-11-17 02:13:44,18.37510087873191,4,5,0.7130261659622192,4.199814796447754,4.834208176682385,3.985434775194384,19.269387702575862,14.571026780167909,3.23295607813634e-05,0.0914128422737121,0,0,0
1540,52130.943324526896,2010-11-17 02:13:53,26.73416592610015,4,5,0.6626362204551697,4.199653148651123,4.835803056744987,3.985434775194384,19.27608575085712,14.571026780167909,0.0,0.0914128422737121,0,0,0
1541,52142.427621413735,2010-11-17 02:14:04,38.21846284301969,4,5,0.6126074194908142,4.199814796447754,4.837833569824414,3.985434775194384,19.28461336742757,14.571026780167909,0.0,0.0914128422737121,0,0,0
1542,52158.91185145296,2010-11-17 02:14:21,54.7026928571704,4,5,0.5625786781311035,4.199814796447754,4.840516800012015,3.985434775194384,19.295882231475087,14.571026780167909,3.23295607813634e-05,0.0914128422737121,0,0,0
1543,52185.56787687333,2010-11-17 02:14:47,81.3587182725341,4,5,0.5123692750930786,4.199814796447754,4.844481523170822,3.985434775194384,19.312533008261276,14.571026780167909,0.0,0.0914128422737121,0,0,0
1544,52232.38000273134,2010-11-17 02:15:34,128.17084413054124,4,5,0.4623405039310455,4.199653148651123,4.850790373149524,3.985434775194384,19.33902845736097,14.571026780167909,-3.23295607813634e-05,0.0914128422737121,0,0,0
1545,52310.457642401896,2010-11-17 02:16:52,206.2484838011035,4,5,0.4123117327690124,4.199653148651123,4.86024434646929,3.985434775194384,19.37873262079609,14.571026780167909,0.0,0.0914128422737121,0,0,0
1546,52414.425414360754,2010-11-17 02:18:36,310.2162557850172,4,5,0.3622829616069793,4.199653148651123,4.871418459471096,3.985434775194384,19.425660816713503,14.571026780167909,-3.23295607813634e-05,0.0914128422737121,0,0,0
1547,52540.98694221026,2010-11-17 02:20:43,436.77778362952137,4,5,0.3120735883712768,4.199491024017334,4.88326895687241,3.985434775194384,19.47542908768087,14.571026780167909,0.0,0.0914128422737121,0,0,0
1548,52694.68884470534,2010-11-17 02:23:17,590.4796861045456,4,5,0.2620448172092438,4.199653148651123,4.895514637076193,3.985434775194384,19.526857495336436,14.571026780167909,-3.23295607813634e-05,0.0914128422737121,0,0,0
1549,52879.65626740894,2010-11-17 02:26:22,775.4471088131529,4,5,0.2120160460472107,4.199653148651123,4.907663771016052,3.985434775194384,19.577880642320025,14.571026780167909,-6.47544875391759e-05,0.0914128422737121,0,0,0
1550,53118.623064092586,2010-11-17 02:30:21,1014.413905516848,4,5,0.1616260558366775,4.199653148651123,4.920021645507736,3.985434775194384,19.629780529864757,14.571026780167909,-3.23295607813634e-05,0.0914128422737121,0,0,0
1551,53456.90157903874,2010-11-17 02:35:59,1352.6924204379393,4,5,0.111597292125225,4.199491024017334,4.932750212436867,3.985434775194384,19.683237111493742,14.571026780167909,-6.47544875391759e-05,0.0914128422737121,0,0,0
1552,54033.22513319508,2010-11-17 02:45:35,1929.015974594276,4,5,0.0615685209631919,4.199653148651123,4.946233756727654,3.985434775194384,19.73986445138807,14.571026780167909,-3.23295607813634e-05,0.0914128422737121,0,0,0
1553,54254.848380706746,2010-11-17 02:49:17,2150.6392220858997,4,5,0.0498289167881011,4.199814796447754,4.949673947203224,3.985434775194384,19.75431234756125,14.571026780167909,0.0,0.0914128422737121,0,0,0
1554,54284.86485347494,2010-11-17 02:49:47,30.015408071301056,5,5,0.0,4.192368507385254,4.949673947203224,3.985434775194384,19.75431234756125,14.571026780167909,-3.23295607813634e-05,0.0914128422737121,0,0,0
1555,54314.8646046041,2010-11-17 02:50:17,60.01515920046578,5,5,0.0,4.191397190093994,4.949673947203224,3.985434775194384,19.75431234756125,14.571026780167909,-3.23295607813634e-05,0.0914128422737121,0,0,0
1556,54315.05380291273,2010-11-17 02:50:17,0.187674835261865,6,5,-1.9243103452026844e-05,4.191235065460205,4.949673947203224,3.985434776197564,19.75431234756125,14.571026784372467,0.0,0.0906857252120971,0,0,0
1557,54319.88169946028,2010-11-17 02:50:22,5.015571382797829,6,5,0.0005225847125984,4.191235065460205,4.949675050042902,3.98543477636371,19.75431696999079,14.571026785068826,-3.24249267578125e-05,0.0906857252120971,0,0,0
1558,54349.89863667912,2010-11-17 02:50:52,30.01536966042159,7,5,-1.0997490882873535,4.027568817138672,4.949675050042902,3.994603904150825,19.75431696999079,14.608134492978802,-0.0008418083307333,0.0906857252120971,0,0,0
1559,54379.914030424654,2010-11-17 02:51:22,60.03076343102591,7,5,-1.1001102924346924,4.0042572021484375,4.949675050042902,4.003773498253039,19.75431696999079,14.644951126145743,-0.0005180359003134,0.0906857252120971,0,0,0
1560,54409.9294005362,2010-11-17 02:51:52,90.04613351751101,7,5,-1.099568486213684,3.9885542392730713,4.949675050042902,4.012943209021892,19.75431696999079,14.681592909586582,-0.0003237724304199,0.0906857252120971,0,0,0
1561,54439.94479286822,2010-11-17 02:52:22,120.06152587959946,7,5,-1.0997490882873535,3.975765228271485,4.949675050042902,4.02211284798485,19.75431696999079,14.718105501444493,-0.0003561496851034,0.0906857252120971,0,0,0
1562,54469.963110637575,2010-11-17 02:52:52,150.0798437291547,7,5,-1.0997490882873535,3.964918851852417,4.949675050042902,4.031283368609711,19.75431696999079,14.754515274382108,-0.0002913951757363,0.0906857252120971,0,0,0
1563,54499.97560390307,2010-11-17 02:53:22,180.09233688437678,7,5,-1.0997490882873535,3.95504379272461,4.949675050042902,4.040452142594915,19.75431696999079,14.79082331012267,-0.0002590179501567,0.0906857252120971,0,0,0
1564,54529.99096722266,2010-11-17 02:53:52,210.10770023404572,7,5,-1.0997490882873535,3.945654392242432,4.949675050042902,4.049621843188241,19.75431696999079,14.827046342101864,-0.0001942634553415,0.0906857252120971,0,0,0
1565,54560.00635726396,2010-11-17 02:54:22,240.12309027032865,7,5,-1.0997490882873535,3.936588764190674,4.949675050042902,4.058791501318321,19.75431696999079,14.86318536159296,-0.0002266406954731,0.0906857252120971,0,0,0
1566,54590.02180261833,2010-11-17 02:54:52,270.13853562970644,7,5,-1.099929690361023,3.927846908569336,4.949675050042902,4.067961246852216,19.75431696999079,14.899243552934523,-0.0002590179501567,0.0906857252120971,0,0,0
1567,54620.03713594806,2010-11-17 02:55:22,300.153868929366,7,5,-1.0997490882873535,3.919590711593628,4.949675050042902,4.077130934450076,19.75431696999079,14.935223323497992,-0.0001942634553415,0.0906857252120971,0,0,0
1568,54650.052517984375,2010-11-17 02:55:52,330.1692509907423,7,5,-1.099929690361023,3.911172866821289,4.949675050042902,4.086300574148934,19.75431696999079,14.971125654551004,-0.0002266406954731,0.0906857252120971,0,0,0
1569,54680.0679075946,2010-11-17 02:56:22,360.18464060096164,7,5,-1.0997490882873535,3.902916669845581,4.949675050042902,4.095470309064178,19.75431696999079,15.006952173705749,-0.0002266406954731,0.0906857252120971,0,0,0
1570,54710.08335089382,2010-11-17 02:56:52,390.200083900197,7,5,-1.0997490882873535,3.894822359085083,4.949675050042902,4.104639996529236,19.75431696999079,15.042704207217016,-0.0002590179501567,0.0906857252120971,0,0,0
1571,54740.09869716086,2010-11-17 02:57:22,420.2154301421626,7,5,-1.0997490882873535,3.887051820755005,4.949675050042902,4.1138097369223,19.75431696999079,15.078383541479162,-0.0001942634553415,0.0906857252120971,0,0,0
1572,54770.11409524221,2010-11-17 02:57:52,450.2308282235272,7,5,-1.0997490882873535,3.879119396209717,4.949675050042902,4.122979490123523,19.75431696999079,15.113989700132388,-0.0001942634553415,0.0906857252120971,0,0,0
1573,54800.12960848605,2010-11-17 02:58:22,480.2463414874051,7,5,-1.0997490882873535,3.871348857879639,4.949675050042902,4.132149274635242,19.75431696999079,15.149523502463094,-0.0001942634553415,0.0906857252120971,0,0,0
1574,54830.144864362446,2010-11-17 02:58:52,510.26159737382926,7,5,-1.0997490882873535,3.863578319549561,4.949675050042902,4.141318960159802,19.75431696999079,15.184985810434478,-0.0001942634553415,0.0906857252120971,0,0,0
1575,54860.16024710051,2010-11-17 02:59:22,540.2769800818196,7,5,-1.0997490882873535,3.8558077812194815,4.949675050042902,4.150488697272821,19.75431696999079,15.220378082251314,-0.0002266406954731,0.0906857252120971,0,0,0
1576,54890.175628816025,2010-11-17 02:59:52,570.2923617973325,7,5,-1.099568486213684,3.848522901535034,4.949675050042902,4.159658394147312,19.75431696999079,15.255700748743374,-0.0001618862152099,0.0906857252120971,0,0,0
1577,54920.19115230042,2010-11-17 03:00:22,600.307885306785,7,5,-1.1001102924346924,3.840752363204956,4.949675050042902,4.168828213762986,19.75431696999079,15.290955432278722,-0.0002266406954731,0.0906857252120971,0,0,0
1578,54950.20641236226,2010-11-17 03:00:52,630.3231453435691,7,5,-1.099929690361023,3.833467483520508,4.949675050042902,4.177997995695006,19.75431696999079,15.326142430538408,-0.0002266406954731,0.0906857252120971,0,0,0
1579,54980.22181698496,2010-11-17 03:01:22,660.3385499963371,7,5,-1.0997490882873535,3.8265066146850586,4.949675050042902,4.18716772046193,19.75431696999079,15.361263385978775,-0.0002266406954731,0.0906857252120971,0,0,0
1580,55010.23719660023,2010-11-17 03:01:52,690.3539296015824,7,5,-1.099568486213684,3.81938362121582,4.949675050042902,4.196337465467971,19.75431696999079,15.396318599541251,-0.0002266406954731,0.0906857252120971,0,0,0
1581,55040.2526853028,2010-11-17 03:02:22,720.3694182941265,7,5,-1.099568486213684,3.812098741531372,4.949675050042902,4.205507211716351,19.75431696999079,15.431308612029811,-0.0002266406954731,0.0906857252120971,0,0,0
1582,55070.26794976564,2010-11-17 03:02:52,750.3846827669837,7,5,-1.0997490882873535,3.805461406707764,4.949675050042902,4.214676730212722,19.75431696999079,15.466234315957417,-0.0001942634553415,0.0906857252120971,0,0,0
1583,55100.28332921548,2010-11-17 03:03:22,780.4000622218538,7,5,-1.0997490882873535,3.7988240718841553,4.949675050042902,4.223846322677768,19.75431696999079,15.50109876779426,-0.0001942634553415,0.0906857252120971,0,0,0
1584,55130.29872455501,2010-11-17 03:03:53,810.4154575613744,7,5,-1.099929690361023,3.792348623275757,4.949675050042902,4.233015963079329,19.75431696999079,15.5359027006485,-0.0001618862152099,0.0906857252120971,0,0,0
1585,55160.31410796976,2010-11-17 03:04:23,840.4308409761288,7,5,-1.0997490882873535,3.7858731746673584,4.949675050042902,4.242185672365421,19.75431696999079,15.570647253603225,-0.0001618862152099,0.0906857252120971,0,0,0
1586,55190.329511980926,2010-11-17 03:04:53,870.4462449872952,7,5,-1.099929690361023,3.77939772605896,4.949675050042902,4.251355391569657,19.75431696999079,15.605333280177817,-0.0001942634553415,0.0906857252120971,0,0,0
1587,55220.34489942073,2010-11-17 03:05:23,900.4616324020344,7,5,-1.0997490882873535,3.773246049880981,4.949675050042902,4.260525180204433,19.75431696999079,15.639962067392712,-0.0001618862152099,0.0906857252120971,0,0,0
1588,55250.36028520139,2010-11-17 03:05:53,930.4770181826945,7,5,-1.0997490882873535,3.767418146133423,4.949675050042902,4.26969496512117,19.75431696999079,15.674535094478063,-0.0001295089750783,0.0906857252120971,0,0,0
1589,55280.375804244686,2010-11-17 03:06:23,960.4925372560738,7,5,-1.099929690361023,3.761266469955444,4.949675050042902,4.278864814060776,19.75431696999079,15.70905384924052,-0.0001942634553415,0.0906857252120971,0,0,0
1590,55310.3910846022,2010-11-17 03:06:53,990.5078175885192,7,5,-1.099929690361023,3.755600452423096,4.949675050042902,4.288034571086032,19.75431696999079,15.743518253536152,-0.0001618862152099,0.0906857252120971,0,0,0
1591,55340.40656662811,2010-11-17 03:07:23,1020.5232996344722,7,5,-1.099929690361023,3.749772787094116,4.949675050042902,4.297204387016463,19.75431696999079,15.777929854636552,-0.0001618862152099,0.0906857252120971,0,0,0
1592,55370.421959501466,2010-11-17 03:07:53,1050.5386925128494,7,5,-1.099929690361023,3.7439448833465576,4.949675050042902,4.306374156819102,19.75431696999079,15.812289306464628,-0.0002266406954731,0.0906857252120971,0,0,0
1593,55400.43722035028,2010-11-17 03:08:23,1080.5539533566478,7,5,-1.0997490882873535,3.738764524459839,4.949675050042902,4.315543892787872,19.75431696999079,15.846597192279676,-0.0001295089750783,0.0906857252120971,0,0,0
1594,55430.45298919212,2010-11-17 03:08:53,1110.5697221984876,7,5,-1.099929690361023,3.7332603931427,4.949675050042902,4.324713808364469,19.75431696999079,15.88085539129374,-0.0001618862152099,0.0906857252120971,0,0,0
1595,55460.46801261327,2010-11-17 03:09:23,1140.5847455945805,7,5,-1.099929690361023,3.727918148040772,4.949675050042902,4.333883539077448,19.75431696999079,15.915063553628627,-0.0001618862152099,0.0906857252120971,0,0,0
1596,55490.48339099045,2010-11-17 03:09:53,1170.600123996823,7,5,-1.0997490882873535,3.7227377891540527,4.949675050042902,4.343053316140408,19.75431696999079,15.94922335512365,-0.0001295089750783,0.0906857252120971,0,0,0
1597,55520.49878699664,2010-11-17 03:10:23,1200.6155199779448,7,5,-1.099568486213684,3.717395544052124,4.949675050042902,4.35222312682895,19.75431696999079,15.983334664697896,-9.713172767078504e-05,0.0906857252120971,0,0,0
1598,55550.51418239129,2010-11-17 03:10:53,1230.630915372603,7,5,-1.0997490882873535,3.7120532989501953,4.949675050042902,4.361392914268247,19.75431696999079,16.017397808026566,-0.0001618862152099,0.0906857252120971,0,0,0
1599,55580.52956010682,2010-11-17 03:11:23,1260.6462931182066,7,5,-1.099929690361023,3.706872940063477,4.949675050042902,4.370562748423096,19.75431696999079,16.05141339901396,-0.0001618862152099,0.0906857252120971,0,0,0
1600,55610.54495268946,2010-11-17 03:11:53,1290.6616857008455,7,5,-1.0997490882873535,3.701854467391968,4.949675050042902,4.379732586257439,19.75431696999079,16.085382024314672,-0.0001618862152099,0.0906857252120971,0,0,0
1601,55640.56036110663,2010-11-17 03:12:23,1320.677094107985,7,5,-1.099929690361023,3.696997880935669,4.949675050042902,4.388902438899629,19.75431696999079,16.119304204505397,-0.0001295089750783,0.0906857252120971,0,0,0
1602,55670.57573965925,2010-11-17 03:12:53,1350.6924726706277,7,5,-1.0997490882873535,3.69197940826416,4.949675050042902,4.398072206328755,19.75431696999079,16.15318111326427,-0.0001295089750783,0.0906857252120971,0,0,0
1603,55700.59111647754,2010-11-17 03:13:23,1380.7078494588416,7,5,-1.099929690361023,3.687122821807861,4.949675050042902,4.407241965643727,19.75431696999079,16.187013565819484,-0.0001295089750783,0.0906857252120971,0,0,0
1604,55730.60647862922,2010-11-17 03:13:53,1410.72321161052,7,5,-1.0997490882873535,3.682428121566773,4.949675050042902,4.416411742105183,19.75431696999079,16.220802297524926,-0.0001295089750783,0.0906857252120971,0,0,0
1605,55760.621999602336,2010-11-17 03:14:23,1440.738732608704,7,5,-1.0997490882873535,3.677733421325684,4.949675050042902,4.425581567817416,19.75431696999079,16.254547806502984,-0.0001618862152099,0.0906857252120971,0,0,0
1606,55790.63726680701,2010-11-17 03:14:53,1470.7539998133805,7,5,-1.1001102924346924,3.6728768348693848,4.949675050042902,4.434751314724272,19.75431696999079,16.288250018512443,-0.0001618862152099,0.0906857252120971,0,0,0
1607,55820.652779293945,2010-11-17 03:15:23,1500.7695123003189,7,5,-1.1001102924346924,3.668344259262085,4.949675050042902,4.443921194577061,19.75431696999079,16.321910719128294,-0.0001295089750783,0.0906857252120971,0,0,0
1608,55850.66806469906,2010-11-17 03:15:53,1530.7847977054264,7,5,-1.099929690361023,3.664135217666626,4.949675050042902,4.453090944964298,19.75431696999079,16.355529671418985,-9.713172767078504e-05,0.0906857252120971,0,0,0
1609,55880.68346026915,2010-11-17 03:16:23,1560.8001932755224,7,5,-1.0997490882873535,3.659602403640747,4.949675050042902,4.462260747477031,19.75431696999079,16.389108210853966,-0.0001295089750783,0.0906857252120971,0,0,0
1610,55910.69885338312,2010-11-17 03:16:53,1590.8155863694376,7,5,-1.099929690361023,3.655231475830078,4.949675050042902,4.471430523114005,19.75431696999079,16.422646421162224,-0.0001618862152099,0.0906857252120971,0,0,0
1611,55940.71421725408,2010-11-17 03:17:23,1620.8309502353952,7,5,-1.099929690361023,3.651184320449829,4.949675050042902,4.480600244420203,19.75431696999079,16.45614503307117,-6.47544875391759e-05,0.0906857252120971,0,0,0
1612,55970.72961127031,2010-11-17 03:17:53,1650.846344251613,7,5,-1.1001102924346924,3.6463277339935294,4.949675050042902,4.489770018732156,19.75431696999079,16.489605035729966,-0.0001942634553415,0.0906857252120971,0,0,0
1613,56000.745126153226,2010-11-17 03:18:23,1680.861859144557,7,5,-1.0997490882873535,3.642766237258911,4.949675050042902,4.498939775234626,19.75431696999079,16.52302635151313,-9.713172767078504e-05,0.0906857252120971,0,0,0
1614,56030.76039684661,2010-11-17 03:18:53,1710.8771298379415,7,5,-1.0997490882873535,3.638557195663452,4.949675050042902,4.508109449682733,19.75431696999079,16.55640996239804,-0.0001295089750783,0.0906857252120971,0,0,0
1615,56060.7757904518,2010-11-17 03:19:23,1740.8925234581704,7,5,-1.0997490882873535,3.634671926498413,4.949675050042902,4.51727920475959,19.75431696999079,16.58975747678713,-0.0001295089750783,0.0906857252120971,0,0,0
1616,56090.79118804194,2010-11-17 03:19:53,1770.9079210483087,7,5,-1.0997490882873535,3.630786657333374,4.949675050042902,4.526449006701677,19.75431696999079,16.623069845227203,-0.0001295089750783,0.0906857252120971,0,0,0
1617,56120.80656527125,2010-11-17 03:20:23,1800.9232982776236,7,5,-1.099929690361023,3.627225160598755,4.949675050042902,4.535618730288689,19.75431696999079,16.656347556659934,-9.713172767078504e-05,0.0906857252120971,0,0,0
1618,56150.82195892658,2010-11-17 03:20:53,1830.938691907878,7,5,-1.0997490882873535,3.623663663864136,4.949675050042902,4.544788395018115,19.75431696999079,16.689591442704906,-6.47544875391759e-05,0.0906857252120971,0,0,0
1619,56180.83733436141,2010-11-17 03:21:23,1860.9540673427127,7,5,-1.099929690361023,3.619940280914306,4.949675050042902,4.553958045181301,19.75431696999079,16.722802260644034,-0.0001295089750783,0.0906857252120971,0,0,0
1620,56210.85300103322,2010-11-17 03:21:53,1890.9697340145208,7,5,-1.0997490882873535,3.6165406703948975,4.949675050042902,4.563127851167848,19.75431696999079,16.755981283671378,-0.0001295089750783,0.0906857252120971,0,0,0
1621,56240.86812765197,2010-11-17 03:22:23,1920.9848606583355,7,5,-1.0997490882873535,3.613141059875488,4.949675050042902,4.572297518441245,19.75431696999079,16.789128401512528,-9.713172767078504e-05,0.0906857252120971,0,0,0
1622,56270.88354142751,2010-11-17 03:22:53,1951.0002744338751,7,5,-1.099929690361023,3.609903335571289,4.949675050042902,4.581467297062305,19.75431696999079,16.822245791010896,-9.713172767078504e-05,0.0906857252120971,0,0,0
1623,56300.89892415053,2010-11-17 03:23:23,1981.0156571318407,7,5,-1.099929690361023,3.6068274974823,4.949675050042902,4.590637035059557,19.75431696999079,16.85533365326056,-9.713172767078504e-05,0.0906857252120971,0,0,0
1624,56330.9142929087,2010-11-17 03:23:53,2011.03102589001,7,5,-1.0997490882873535,3.603751659393311,4.949675050042902,4.599806719437829,19.75431696999079,16.888392323069667,-6.47544875391759e-05,0.0906857252120971,0,0,0
1625,56360.92969089483,2010-11-17 03:24:23,2041.0464238761367,7,5,-1.099929690361023,3.6006758213043213,4.949675050042902,4.608976518524065,19.75431696999079,16.92142344313965,-9.713172767078504e-05,0.0906857252120971,0,0,0
1626,56390.9480609497,2010-11-17 03:24:53,2071.064793956067,7,5,-1.0997490882873535,3.597761869430542,4.949675050042902,4.618147173579175,19.75431696999079,16.95443016054421,-9.713172767078504e-05,0.0906857252120971,0,0,0
1627,56420.96048165407,2010-11-17 03:25:23,2101.0772146353784,7,5,-1.0997490882873535,3.5948479175567627,4.949675050042902,4.627316021718205,19.75431696999079,16.987403722323084,-6.47544875391759e-05,0.0906857252120971,0,0,0
1628,56450.975856246805,2010-11-17 03:25:53,2131.092589228112,7,5,-1.099929690361023,3.5919342041015625,4.949675050042902,4.636485798652468,19.75431696999079,17.02035418836822,-6.470680091297254e-05,0.0906857252120971,0,0,0
1629,56480.99126436823,2010-11-17 03:26:23,2161.107997379613,7,5,-1.099929690361023,3.589182138442993,4.949675050042902,4.645655540730973,19.75431696999079,17.053278538595674,-6.47544875391759e-05,0.0906857252120971,0,0,0
1630,56511.006659457125,2010-11-17 03:26:53,2191.1233924634957,7,5,-1.099929690361023,3.586430072784424,4.949675050042902,4.654825368896469,19.75431696999079,17.086177605193402,-3.237724376958795e-05,0.0906857252120971,0,0,0
1631,56541.022152711055,2010-11-17 03:27:23,2221.138885702388,7,5,-1.099929690361023,3.5835161209106445,4.949675050042902,4.663995195473932,19.75431696999079,17.1190510035864,-6.47544875391759e-05,0.0906857252120971,0,0,0
1632,56571.03754003056,2010-11-17 03:27:53,2251.154273011864,7,5,-1.0997490882873535,3.580764055252075,4.949675050042902,4.67316497540687,19.75431696999079,17.151898547042908,-6.47544875391759e-05,0.0906857252120971,0,0,0
1633,56601.05280267886,2010-11-17 03:28:23,2281.169535660167,7,5,-1.099929690361023,3.577850103378296,4.949675050042902,4.682334728278645,19.75431696999079,17.184719952951465,-6.47544875391759e-05,0.0906857252120971,0,0,0
1634,56631.06878931936,2010-11-17 03:28:53,2311.1855223457787,7,5,-1.0997490882873535,3.5749361515045166,4.949675050042902,4.691504685187593,19.75431696999079,17.21751573288735,-0.0001295089750783,0.0906857252120971,0,0,0
1635,56661.08358831531,2010-11-17 03:29:23,2341.200321296621,7,5,-1.099929690361023,3.5720221996307373,4.949675050042902,4.700674372615429,19.75431696999079,17.250283800477263,-6.47544875391759e-05,0.0906857252120971,0,0,0
1636,56691.09901880257,2010-11-17 03:29:53,2371.2157518089384,7,5,-1.099929690361023,3.569108247756958,4.949675050042902,4.709844214805794,19.75431696999079,17.283025270290697,-9.713172767078504e-05,0.0906857252120971,0,0,0
1637,56721.11450104902,2010-11-17 03:30:23,2401.231234060405,7,5,-1.0997490882873535,3.5660324096679688,4.949675050042902,4.719014029490748,19.75431696999079,17.315738897352663,-9.713172767078504e-05,0.0906857252120971,0,0,0
1638,56751.129784233584,2010-11-17 03:30:53,2431.246517214894,7,5,-1.0997490882873535,3.562794685363769,4.949675050042902,4.728183752053012,19.75431696999079,17.348423658566563,-9.713172767078504e-05,0.0906857252120971,0,0,0
1639,56781.14514850055,2010-11-17 03:31:23,2461.2618815069154,7,5,-1.099568486213684,3.5597188472747803,4.949675050042902,4.737353515694807,19.75431696999079,17.38108010762397,-9.713172767078504e-05,0.0906857252120971,0,0,0
1640,56811.16054236138,2010-11-17 03:31:53,2491.2772753476947,7,5,-1.099929690361023,3.556319236755371,4.949675050042902,4.746523268496707,19.75431696999079,17.413706293719986,-9.713172767078504e-05,0.0906857252120971,0,0,0
1641,56841.17592652299,2010-11-17 03:32:23,2521.292659529364,7,5,-1.0997490882873535,3.552919626235962,4.949675050042902,4.755693021635367,19.75431696999079,17.446301405523226,-6.47544875391759e-05,0.0906857252120971,0,0,0
1642,56871.19133321586,2010-11-17 03:32:53,2551.3080661971617,7,5,-1.0997490882873535,3.5495200157165527,4.949675050042902,4.764862799655187,19.75431696999079,17.478864788945355,-6.47544875391759e-05,0.0906857252120971,0,0,0
1643,56901.20674585355,2010-11-17 03:33:23,2581.3234788599234,7,5,-1.099929690361023,3.545796632766724,4.949675050042902,4.774032553297923,19.75431696999079,17.51139503873194,-6.47544875391759e-05,0.0906857252120971,0,0,0
1644,56931.22215944865,2010-11-17 03:33:53,2611.338892665538,7,5,-1.099929690361023,3.5420732498168945,4.949675050042902,4.783202353250366,19.75431696999079,17.54389170981558,-9.713172767078504e-05,0.0906857252120971,0,0,0
1645,56961.23773531879,2010-11-17 03:34:23,2641.354468300103,7,5,-1.099568486213684,3.538349866867065,4.949675050042902,4.792372196529565,19.75431696999079,17.57635423924749,-9.713172767078504e-05,0.0906857252120971,0,0,0
1646,56991.252891706856,2010-11-17 03:34:53,2671.3696247182397,7,5,-1.0997490882873535,3.5344645977020264,4.949675050042902,4.801541912635311,19.75431696999079,17.608780839896458,-6.47544875391759e-05,0.0906857252120971,0,0,0
1647,57021.268270464985,2010-11-17 03:35:23,2701.3850034713573,7,5,-1.0997490882873535,3.5302555561065674,4.949675050042902,4.810711651826106,19.75431696999079,17.641171203876166,-9.713172767078504e-05,0.0906857252120971,0,0,0
1648,57051.28365888223,2010-11-17 03:35:54,2731.4003918885987,7,5,-1.099929690361023,3.5260465145111084,4.949675050042902,4.819881474400527,19.75431696999079,17.673524409078055,-0.0001618862152099,0.0906857252120971,0,0,0
1649,57081.29905153003,2010-11-17 03:36:24,2761.4157845364,7,5,-1.099929690361023,3.5216755867004395,4.949675050042902,4.829051249364271,19.75431696999079,17.705838822688303,-0.0001618862152099,0.0906857252120971,0,0,0
1650,57111.31460838272,2010-11-17 03:36:54,2791.4313413940954,7,5,-1.099929690361023,3.5173046588897705,4.949675050042902,4.838221086152394,19.75431696999079,17.73811301348792,-0.0001295089750783,0.0906857252120971,0,0,0
1651,57141.32985048975,2010-11-17 03:37:24,2821.4465834961115,7,5,-1.0997490882873535,3.5126099586486816,4.949675050042902,4.847390776705477,19.75431696999079,17.770343964036584,-0.0001295089750783,0.0906857252120971,0,0,0
1652,57171.34531588914,2010-11-17 03:37:54,2851.462048980725,7,5,-1.0997490882873535,3.507429838180542,4.949675050042902,4.856560555885181,19.75431696999079,17.802529456202908,-0.0001295089750783,0.0906857252120971,0,0,0
1653,57201.36059692334,2010-11-17 03:38:24,2881.4773299046465,7,5,-1.099929690361023,3.5016019344329834,4.949675050042902,4.865730377874579,19.75431696999079,17.834665260500728,-0.0001618862152099,0.0906857252120971,0,0,0
1654,57231.37599487939,2010-11-17 03:38:54,2911.4927278606983,7,5,-1.099929690361023,3.495126485824585,4.949675050042902,4.87490016720673,19.75431696999079,17.86674554360628,-0.0002266406954731,0.0906857252120971,0,0,0
1655,57261.39155042381,2010-11-17 03:39:24,2941.508283425165,7,5,-1.0997490882873535,3.4878416061401367,4.949675050042902,4.884070084521465,19.75431696999079,17.898763235104195,-0.0001942634553415,0.0906857252120971,0,0,0
1656,57291.40682868107,2010-11-17 03:39:54,2971.523561687443,7,5,-1.1001102924346924,3.478937864303589,4.949675050042902,4.893239849541924,19.75431696999079,17.930706874276893,-0.0002913951757363,0.0906857252120971,0,0,0
1657,57321.4222170482,2010-11-17 03:40:24,3001.53895005456,7,5,-1.099929690361023,3.4682533740997314,4.949675050042902,4.902409674968893,19.75431696999079,17.96256210177077,-0.0003561496851034,0.0906857252120971,0,0,0
1658,57351.43779531933,2010-11-17 03:40:54,3031.554528325705,7,5,-1.0997490882873535,3.4553024768829346,4.949675050042902,4.911579537349772,19.75431696999079,17.994308617536635,-0.0003885269106831,0.0906857252120971,0,0,0
1659,57381.45299117592,2010-11-17 03:41:24,3061.569724157223,7,5,-1.0997490882873535,3.438466310501098,4.949675050042902,4.920749279515613,19.75431696999079,18.025917826210076,-0.0004532813909463,0.0906857252120971,0,0,0
1660,57411.46836696664,2010-11-17 03:41:54,3091.5850999730096,7,5,-1.0997490882873535,3.416450023651123,4.949675050042902,4.929919100285259,19.75431696999079,18.05735122511913,-0.0006799221155233,0.0906857252120971,0,0,0
1661,57441.48376544901,2010-11-17 03:42:24,3121.600498455375,7,5,-1.0997490882873535,3.38731050491333,4.949675050042902,4.939088957400696,19.75431696999079,18.08855290026031,-0.0008741855854168,0.0906857252120971,0,0,0
1662,57471.49917013686,2010-11-17 03:42:54,3151.6159031432308,7,5,-1.0997490882873535,3.347324848175049,4.949675050042902,4.948258815009409,19.75431696999079,18.11944023278633,-0.0011979102855548,0.0906857252120971,0,0,0
1663,57501.51454899022,2010-11-17 03:43:24,3181.6312819715367,7,5,-1.0997490882873535,3.2913122177124023,4.949675050042902,4.957428634659486,19.75431696999079,18.14989203864007,-0.0017159938579425,0.0906857252120971,0,0,0
1664,57531.52994634478,2010-11-17 03:43:54,3211.6466793260875,7,5,-1.0997490882873535,3.2115025520324707,4.949675050042902,4.966597915835366,19.75431696999079,18.179727829770357,-0.0024930476211011,0.0906857252120971,0,0,0
1665,57561.5453180854,2010-11-17 03:44:24,3241.662051066701,7,5,-1.0993878841400146,3.090250253677368,4.949675050042902,4.975767087662801,19.75431696999079,18.208661091448292,-0.0038528919685631,0.0906857252120971,0,0,0
1666,57587.71702969398,2010-11-17 03:44:50,3267.833762670281,7,5,-1.0997490882873535,2.8899974822998047,4.949675050042902,4.983762593570076,19.75431696999079,18.23268184239444,-0.0086447242647409,0.0906857252120971,0,0,0
1667,57601.82628155729,2010-11-17 03:45:04,3281.9430145385986,7,5,-1.0997490882873535,2.699781894683838,4.949675050042902,4.988073070712949,19.75431696999079,18.244743316826504,-0.0113643649965524,0.0906857252120971,0,0,0
1668,57661.838391705605,2010-11-17 03:46:04,60.01217197890118,8,5,0.0,3.2896933555603027,4.949675050042902,4.988073070712949,19.75431696999079,18.244743316826504,0.0012627125252038,0.0906857252120971,0,0,0
1669,57662.02634914951,2010-11-17 03:46:05,0.187606048559674,9,5,-1.9243103452026844e-05,3.2898552417755127,4.949675050042902,4.988073071715761,19.75431696999079,18.24474332012561,0.0,0.0907677188515663,0,0,0
1670,57666.8544346888,2010-11-17 03:46:09,5.015691587848129,9,5,0.0008838032954372,3.297787666320801,4.949675867348883,4.988073071966304,19.7543196625638,18.244743320950672,0.0011008263099938,0.0907677188515663,0,0,0
