Data_Point,Test_Time(s),Date_Time,Step_Time(s),Step_Index,Cycle_Index,Current(A),Voltage(V),Charge_Capacity(Ah),Discharge_Capacity(Ah),Charge_Energy(Wh),Discharge_Energy(Wh),dV/dt(V/s),Internal_Resistance(Ohm),Is_FC_Data,AC_Impedance(Ohm),ACI_Phase_Angle(Deg)
2007,69286.40018655418,2010-11-17 06:59:50,30.015300016579847,1,7,0.0,3.3652939796447754,5.950544614928143,5.982932515597523,23.740594311658544,21.87810853608759,0.0007122993702068,0.0932833403348922,0,0,0
2008,69316.41550081132,2010-11-17 07:00:20,60.03061427370629,1,7,0.0,3.38811993598938,5.950544614928143,5.982932515597523,23.740594311658544,21.87810853608759,0.0005180359003134,0.0932833403348922,0,0,0
2009,69346.4308355195,2010-11-17 07:00:50,90.0459489818817,1,7,0.0,3.4054417610168457,5.950544614928143,5.982932515597523,23.740594311658544,21.87810853608759,0.0004209041653666,0.0932833403348922,0,0,0
2010,69376.39926385213,2010-11-17 07:01:20,120.01437731452742,1,7,0.0,3.4192020893096924,5.950544614928143,5.982932515597523,23.740594311658544,21.87810853608759,0.0002913951757363,0.0932833403348922,0,0,0
2011,69406.41576625747,2010-11-17 07:01:50,30.01531612679342,2,7,0.5501165986061096,3.580602169036865,5.955131507189739,5.982932515597523,23.75684870808739,21.87810853608759,0.0016188621520996,0.0932833403348922,0,0,0
2012,69436.43110228395,2010-11-17 07:02:20,60.03065217832204,2,7,0.5499359965324402,3.630786657333374,5.959718353723961,5.982932515597523,23.773395002464813,21.87810853608759,0.0011008263099938,0.0932833403348922,0,0,0
2013,69466.44769321787,2010-11-17 07:02:50,90.04724311223015,2,7,0.5499359965324402,3.667049169540405,5.964305383844489,5.982932515597523,23.79013729497451,21.87810853608759,0.0008094310760498,0.0932833403348922,0,0,0
2014,69496.44771637103,2010-11-17 07:03:20,120.0472663355838,2,7,0.5501165986061096,3.695702791213989,5.968889838846808,5.982932515597523,23.80701709224328,21.87810853608759,0.0006799221155233,0.0932833403348922,0,0,0
2015,69526.46149589223,2010-11-17 07:03:50,150.0610458768233,2,7,0.550297200679779,3.719014406204224,5.973476423185738,5.982932515597523,23.824022645764217,21.87810853608759,0.0005827903514727,0.0932833403348922,0,0,0
2016,69556.47673221983,2010-11-17 07:04:20,180.0762820891379,2,7,0.550297200679779,3.738278865814209,5.978063241103973,5.982932515597523,23.84112614164389,21.87810853608759,0.0005180359003134,0.0932833403348922,0,0,0
2017,69586.49215793518,2010-11-17 07:04:50,210.0917078044812,2,7,0.5501165986061096,3.753819704055786,5.982650079600446,5.982932515597523,23.8583098617812,21.87810853608759,0.0003561019839253,0.0932833403348922,0,0,0
2018,69616.50738779662,2010-11-17 07:05:20,240.10693768599316,2,7,0.5501165986061096,3.7649898529052734,5.987236850547784,5.982932515597523,23.87555529321317,21.87810853608759,0.0002266406954731,0.0932833403348922,0,0,0
2019,69646.52266449,2010-11-17 07:05:50,270.12221435930456,2,7,0.550297200679779,3.7719509601593018,5.991823635897074,5.982932515597523,23.89284158334873,21.87810853608759,0.0001618862152099,0.0932833403348922,0,0,0
2020,69676.53812094708,2010-11-17 07:06:20,300.137670826409,2,7,0.5501165986061096,3.7763218879699703,5.996410407697883,5.982932515597523,23.91015279673627,21.87810853608759,0.0001295089750783,0.0932833403348922,0,0,0
2021,69706.55345538456,2010-11-17 07:06:50,330.1530052639088,2,7,0.5501165986061096,3.77972149848938,6.000997258234269,5.982932515597523,23.92748247439151,21.87810853608759,6.47544875391759e-05,0.0932833403348922,0,0,0
2022,69736.5686253766,2010-11-17 07:07:20,360.16817524590226,2,7,0.5501165986061096,3.783444881439209,6.00558405116182,5.982932515597523,23.944828027396284,21.87810853608759,0.0001618862152099,0.0932833403348922,0,0,0
2023,69766.58396248576,2010-11-17 07:07:50,390.1835123550709,2,7,0.5501165986061096,3.786682605743408,6.010171351826545,5.982932515597523,23.962191060663876,21.87810853608759,9.713172767078504e-05,0.0932833403348922,0,0,0
2024,69796.59924523423,2010-11-17 07:08:20,420.19879510354696,2,7,0.550297200679779,3.7900822162628174,6.014758794594783,5.982932515597523,23.979569684189848,21.87810853608759,0.0001295089750783,0.0932833403348922,0,0,0
2025,69826.6147046487,2010-11-17 07:08:50,450.2142545180084,2,7,0.5501165986061096,3.7929961681365967,6.019346297302713,5.982932515597523,23.99696311329944,21.87810853608759,6.47544875391759e-05,0.0932833403348922,0,0,0
2026,69856.62988167828,2010-11-17 07:09:20,480.2294315526064,2,7,0.5501165986061096,3.796072006225586,6.023933708486593,5.982932515597523,24.014370453566016,21.87810853608759,9.713172767078504e-05,0.0932833403348922,0,0,0
2027,69886.64517849186,2010-11-17 07:09:50,510.2447283611785,2,7,0.5501165986061096,3.799147844314575,6.028520724606343,5.982932515597523,24.031790159756937,21.87810853608759,6.47544875391759e-05,0.0932833403348922,0,0,0
2028,69916.66062185627,2010-11-17 07:10:21,540.260171730589,2,7,0.5501165986061096,3.801899909973145,6.03310748330798,5.982932515597523,24.049222469041737,21.87810853608759,6.47544875391759e-05,0.0932833403348922,0,0,0
2029,69946.67580326679,2010-11-17 07:10:51,570.2753531360975,2,7,0.5501165986061096,3.804975748062134,6.037694191032413,5.982932515597523,24.06666795337829,21.87810853608759,6.47544875391759e-05,0.0932833403348922,0,0,0
2030,69976.69113140355,2010-11-17 07:11:21,600.2906812979322,2,7,0.5501165986061096,3.807727813720703,6.042280964597802,5.982932515597523,24.08412695315986,21.87810853608759,6.47544875391759e-05,0.0932833403348922,0,0,0
2031,70006.70643924468,2010-11-17 07:11:51,630.3059891390433,2,7,0.5501165986061096,3.8106417655944815,6.046867719315704,5.982932515597523,24.10159903072044,21.87810853608759,6.47544875391759e-05,0.0932833403348922,0,0,0
2032,70036.72177510572,2010-11-17 07:12:21,660.3213249950838,2,7,0.5501165986061096,3.8135557174682617,6.051454490698837,5.982932515597523,24.11908427398971,21.87810853608759,3.237724376958795e-05,0.0932833403348922,0,0,0
2033,70066.73707016994,2010-11-17 07:12:51,690.3366200643144,2,7,0.5501165986061096,3.816469669342041,6.056041227965788,5.982932515597523,24.136582862455786,21.87810853608759,6.47544875391759e-05,0.0932833403348922,0,0,0
2034,70096.75239198092,2010-11-17 07:13:21,720.3519418502339,2,7,0.5501165986061096,3.81938362121582,6.060627918593368,5.982932515597523,24.15409460827763,21.87810853608759,6.47544875391759e-05,0.0932833403348922,0,0,0
2035,70126.76769370175,2010-11-17 07:13:51,750.3672435961303,2,7,0.5501165986061096,3.8224594593048096,6.065214659873363,5.982932515597523,24.171620211751005,21.87810853608759,9.713172767078504e-05,0.0932833403348922,0,0,0
2036,70156.78313365765,2010-11-17 07:14:21,780.3826835319701,2,7,0.5501165986061096,3.825535297393799,6.069801417476016,5.982932515597523,24.18915980228372,21.87810853608759,9.713172767078504e-05,0.0932833403348922,0,0,0
2037,70186.79832921347,2010-11-17 07:14:51,810.3978790928124,2,7,0.5499359965324402,3.828773021697998,6.074388091410958,5.982932515597523,24.20671354476854,21.87810853608759,9.713172767078504e-05,0.0932833403348922,0,0,0
2038,70216.8139224119,2010-11-17 07:15:21,840.4134724215446,2,7,0.5499359965324402,3.832010746002197,6.078974870692235,5.982932515597523,24.22428255773943,21.87810853608759,9.713172767078504e-05,0.0932833403348922,0,0,0
2039,70246.82911857423,2010-11-17 07:15:51,870.428668473613,2,7,0.5501165986061096,3.8352482318878174,6.083561587290761,5.982932515597523,24.241866367292296,21.87810853608759,9.713172767078504e-05,0.0932833403348922,0,0,0
2040,70276.84426497234,2010-11-17 07:16:21,900.44381483665,2,7,0.5501165986061096,3.8386478424072266,6.088148305584836,5.982932515597523,24.259465529473477,21.87810853608759,9.713172767078504e-05,0.0932833403348922,0,0,0
2041,70306.85958261794,2010-11-17 07:16:51,930.4591324872472,2,7,0.5501165986061096,3.842047452926636,6.092735060694868,5.982932515597523,24.27708021693888,21.87810853608759,9.713172767078504e-05,0.0932833403348922,0,0,0
2042,70336.8750325387,2010-11-17 07:17:21,960.4745824080107,2,7,0.5499359965324402,3.845447063446045,6.097321862334391,5.982932515597523,24.29471037632972,21.87810853608759,9.713172767078504e-05,0.0932833403348922,0,0,0
2043,70366.89020493673,2010-11-17 07:17:51,990.48975483611,2,7,0.550297200679779,3.848684787750244,6.101908612646124,5.982932515597523,24.31235541999911,21.87810853608759,0.0001295089750783,0.0932833403348922,0,0,0
2044,70396.90552250712,2010-11-17 07:18:21,1020.505072396482,2,7,0.550297200679779,3.8517606258392334,6.106495426096291,5.982932515597523,24.330015612333096,21.87810853608759,9.713172767078504e-05,0.0932833403348922,0,0,0
2045,70426.92087064883,2010-11-17 07:18:51,1050.5204205181396,2,7,0.5501165986061096,3.8549983501434326,6.111082207978488,5.982932515597523,24.347690290756617,21.87810853608759,9.713172767078504e-05,0.0932833403348922,0,0,0
2046,70456.93618509643,2010-11-17 07:19:21,1080.535734990804,2,7,0.5499359965324402,3.857912302017212,6.115668959737986,5.982932515597523,24.36537927839228,21.87810853608759,3.237724376958795e-05,0.0932833403348922,0,0,0
2047,70486.95146381484,2010-11-17 07:19:51,1110.5510137092203,2,7,0.5499359965324402,3.861150026321411,6.12025570745276,5.982932515597523,24.38308231154305,21.87810853608759,9.713172767078504e-05,0.0932833403348922,0,0,0
2048,70516.96677753564,2010-11-17 07:20:21,1140.5663274350206,2,7,0.5501165986061096,3.863902091979981,6.124842442002437,5.982932515597523,24.40079892168136,21.87810853608759,3.237724376958795e-05,0.0932833403348922,0,0,0
2049,70546.98210381277,2010-11-17 07:20:51,1170.5816537071382,2,7,0.550297200679779,3.8669779300689697,6.129429189416178,5.982932515597523,24.418528696108417,21.87810853608759,9.713172767078504e-05,0.0932833403348922,0,0,0
2050,70576.99743006483,2010-11-17 07:21:21,1200.596979954193,2,7,0.550297200679779,3.869568109512329,6.13401596326713,5.982932515597523,24.436271157101945,21.87810853608759,6.47544875391759e-05,0.0932833403348922,0,0,0
2051,70607.01271474312,2010-11-17 07:21:51,1230.612264607424,2,7,0.5501165986061096,3.8719964027404794,6.138602737246719,5.982932515597523,24.454025643027308,21.87810853608759,6.47544875391759e-05,0.0932833403348922,0,0,0
2052,70637.02815038325,2010-11-17 07:22:21,1260.6277002525535,2,7,0.5501165986061096,3.874586582183838,6.143189594942122,5.982932515597523,24.47179188579848,21.87810853608759,9.713172767078504e-05,0.0932833403348922,0,0,0
2053,70667.04349227434,2010-11-17 07:22:51,1290.6430421536838,2,7,0.5501165986061096,3.876852989196777,6.147776376693781,5.982932515597523,24.489568616608103,21.87810853608759,9.713172767078504e-05,0.0932833403348922,0,0,0
2054,70697.05868709333,2010-11-17 07:23:21,1320.6582369676617,2,7,0.550297200679779,3.878957509994507,6.152363146178343,5.982932515597523,24.507355499154247,21.87810853608759,6.47544875391759e-05,0.0932833403348922,0,0,0
2055,70727.07408944034,2010-11-17 07:23:51,1350.6736393347242,2,7,0.5499359965324402,3.8809001445770255,6.156949885351701,5.982932515597523,24.525151768032035,21.87810853608759,6.47544875391759e-05,0.0932833403348922,0,0,0
2056,70757.0892735927,2010-11-17 07:24:21,1380.6888234921014,2,7,0.5501165986061096,3.882842779159546,6.161536589344906,5.982932515597523,24.54295688765659,21.87810853608759,3.237724376958795e-05,0.0932833403348922,0,0,0
2057,70787.10471844081,2010-11-17 07:24:51,1410.704268330178,2,7,0.5501165986061096,3.8844616413116455,6.166123288976211,5.982932515597523,24.560770347732355,21.87810853608759,3.237724376958795e-05,0.0932833403348922,0,0,0
2058,70817.11991280367,2010-11-17 07:25:21,1440.7194626980424,2,7,0.5499359965324402,3.886242389678955,6.170709992584387,5.982932515597523,24.578591507280283,21.87810853608759,6.47544875391759e-05,0.0932833403348922,0,0,0
2059,70847.13521559718,2010-11-17 07:25:51,1470.7347654965663,2,7,0.5501165986061096,3.8876993656158447,6.175296792712469,5.982932515597523,24.596420335912683,21.87810853608759,6.47544875391759e-05,0.0932833403348922,0,0,0
2060,70877.15054817504,2010-11-17 07:26:21,1500.7500980643993,2,7,0.550297200679779,3.889318227767944,6.179883499608284,5.982932515597523,24.614255610645607,21.87810853608759,6.47544875391759e-05,0.0932833403348922,0,0,0
2061,70907.16584973547,2010-11-17 07:26:51,1530.7653996248328,2,7,0.5499359965324402,3.890613317489624,6.184470253206349,5.982932515597523,24.63209751588451,21.87810853608759,6.47544875391759e-05,0.0932833403348922,0,0,0
2062,70937.18116087481,2010-11-17 07:27:21,1560.7807107742017,2,7,0.5501165986061096,3.8917465209960938,6.189056999527771,5.982932515597523,24.64994564494729,21.87810853608759,0.0,0.0932833403348922,0,0,0
2063,70967.19646370843,2010-11-17 07:27:51,1590.7960136028007,2,7,0.550297200679779,3.893203496932984,6.193643761714641,5.982932515597523,24.667799822667707,21.87810853608759,3.237724376958795e-05,0.0932833403348922,0,0,0
2064,70997.21204885172,2010-11-17 07:28:21,1620.8115987210383,2,7,0.5501165986061096,3.894336700439453,6.198230607430764,5.982932515597523,24.68566019546037,21.87810853608759,3.237724376958795e-05,0.0932833403348922,0,0,0
2065,71027.22708491945,2010-11-17 07:28:51,1650.8266348138238,2,7,0.5501165986061096,3.895469903945923,6.202817360387241,5.982932515597523,24.703525453836857,21.87810853608759,3.237724376958795e-05,0.0932833403348922,0,0,0
2066,71057.24240713644,2010-11-17 07:29:21,1680.8419570057567,2,7,0.5501165986061096,3.896926879882813,6.207404050925804,5.982932515597523,24.7213961534118,21.87810853608759,3.237724376958795e-05,0.0932833403348922,0,0,0
2067,71087.25771875198,2010-11-17 07:29:51,1710.8572686463517,2,7,0.5501165986061096,3.898060083389282,6.21199078019483,5.982932515597523,24.739272535374344,21.87810853608759,3.237724376958795e-05,0.0932833403348922,0,0,0
2068,71117.27301442271,2010-11-17 07:30:21,1740.8725642920213,2,7,0.550297200679779,3.899355173110962,6.216577439939867,5.982932515597523,24.75715421092301,21.87810853608759,6.47544875391759e-05,0.0932833403348922,0,0,0
2069,71147.2883312312,2010-11-17 07:30:51,1770.887881105529,2,7,0.550297200679779,3.900488376617432,6.221164237578189,5.982932515597523,24.775041929834646,21.87810853608759,6.47544875391759e-05,0.0932833403348922,0,0,0
2070,71177.30443243767,2010-11-17 07:31:21,1800.9039823069893,2,7,0.5501165986061096,3.901621580123901,6.225751032226602,5.982932515597523,24.792935075968185,21.87810853608759,3.237724376958795e-05,0.0932833403348922,0,0,0
2071,71207.30631366388,2010-11-17 07:31:51,1830.9058636184168,2,7,0.550297200679779,3.902916669845581,6.230335631672216,5.982932515597523,24.810825216263662,21.87810853608759,6.47544875391759e-05,0.0932833403348922,0,0,0
2072,71237.31882413734,2010-11-17 07:32:21,1860.91837401668,2,7,0.5501165986061096,3.904049873352051,6.234921933590377,5.982932515597523,24.828727566673425,21.87810853608759,-3.237724376958795e-05,0.0932833403348922,0,0,0
2073,71267.3339777134,2010-11-17 07:32:51,1890.9335276127715,2,7,0.5499359965324402,3.905183076858521,6.239508648509458,5.982932515597523,24.84663719937538,21.87810853608759,0.0,0.0932833403348922,0,0,0
2074,71297.34927351445,2010-11-17 07:33:21,1920.9488233787413,2,7,0.5501165986061096,3.9064781665802,6.244095342131462,5.982932515597523,24.8645522515614,21.87810853608759,3.237724376958795e-05,0.0932833403348922,0,0,0
2075,71327.36459998706,2010-11-17 07:33:51,1950.9641498764224,2,7,0.5501165986061096,3.90777325630188,6.248682045509302,5.982932515597523,24.88247316181492,21.87810853608759,3.237724376958795e-05,0.0932833403348922,0,0,0
2076,71357.37988944228,2010-11-17 07:34:21,1980.9794393115897,2,7,0.5501165986061096,3.90906834602356,6.253268713026688,5.982932515597523,24.90039966516993,21.87810853608759,0.0,0.0932833403348922,0,0,0
2077,71387.3952023761,2010-11-17 07:34:51,2010.9947522654627,2,7,0.550297200679779,3.9103634357452393,6.257855418620691,5.982932515597523,24.91833220408298,21.87810853608759,3.237724376958795e-05,0.0932833403348922,0,0,0
2078,71417.41053556047,2010-11-17 07:35:21,2041.0100854347968,2,7,0.5501165986061096,3.911658525466919,6.262442115347629,5.982932515597523,24.93627051431574,21.87810853608759,6.47544875391759e-05,0.0932833403348922,0,0,0
2079,71447.4260829345,2010-11-17 07:35:51,2071.025632848919,2,7,0.5501165986061096,3.912953615188599,6.267028862019403,5.982932515597523,24.95421498103581,21.87810853608759,3.237724376958795e-05,0.0932833403348922,0,0,0
2080,71477.4411451926,2010-11-17 07:36:21,2101.0406950619044,2,7,0.5499359965324402,3.914248466491699,6.271615499538587,5.982932515597523,24.972165040753595,21.87810853608759,3.237724376958795e-05,0.0932833403348922,0,0,0
2081,71507.45642986587,2010-11-17 07:36:51,2131.055979760248,2,7,0.5501165986061096,3.915543556213379,6.276202250823022,5.982932515597523,24.990121666135003,21.87810853608759,6.47544875391759e-05,0.0932833403348922,0,0,0
2082,71537.47186777667,2010-11-17 07:37:21,2161.071417655995,2,7,0.5501165986061096,3.9168386459350586,6.280788932435139,5.982932515597523,25.008083884209736,21.87810853608759,0.0,0.0932833403348922,0,0,0
2083,71567.4871094526,2010-11-17 07:37:51,2191.086659331948,2,7,0.5501165986061096,3.9181337356567374,6.285375605520073,5.982932515597523,25.026052358804392,21.87810853608759,0.0,0.0932833403348922,0,0,0
2084,71597.50240365468,2010-11-17 07:38:21,2221.101953534014,2,7,0.5501165986061096,3.919428825378418,6.289962223748087,5.982932515597523,25.04402684723125,21.87810853608759,0.0,0.0932833403348922,0,0,0
2085,71627.51786278845,2010-11-17 07:38:51,2251.1174126677747,2,7,0.5501165986061096,3.920885801315308,6.294548922192264,5.982932515597523,25.062007991215204,21.87810853608759,0.0,0.0932833403348922,0,0,0
2086,71657.53304539695,2010-11-17 07:39:21,2281.1325952913235,2,7,0.5501165986061096,3.922342777252197,6.299135634992541,5.982932515597523,25.079995546033484,21.87810853608759,3.237724376958795e-05,0.0932833403348922,0,0,0
2087,71687.54835436086,2010-11-17 07:39:51,2311.147904255237,2,7,0.5501165986061096,3.923799753189087,6.303722304935678,5.982932515597523,25.09798937470075,21.87810853608759,3.237724376958795e-05,0.0932833403348922,0,0,0
2088,71717.56366727964,2010-11-17 07:40:21,2341.163217138935,2,7,0.550297200679779,3.925256729125977,6.308309036750561,5.982932515597523,25.115989965942543,21.87810853608759,3.237724376958795e-05,0.0932833403348922,0,0,0
2089,71747.57900900033,2010-11-17 07:40:51,2371.1785589097403,2,7,0.550297200679779,3.926713705062866,6.312895813133092,5.982932515597523,25.133997204632376,21.87810853608759,6.47544875391759e-05,0.0932833403348922,0,0,0
2090,71777.59440177344,2010-11-17 07:41:21,2401.19395167283,2,7,0.5499359965324402,3.928008794784546,6.317482580107662,5.982932515597523,25.15201108493839,21.87810853608759,6.47544875391759e-05,0.0932833403348922,0,0,0
2091,71807.60961019639,2010-11-17 07:41:51,2431.209160090765,2,7,0.5501165986061096,3.929465770721436,6.322069280860329,5.982932515597523,25.17003136075599,21.87810853608759,3.237724376958795e-05,0.0932833403348922,0,0,0
2092,71837.62490188719,2010-11-17 07:42:21,2461.2244517865747,2,7,0.5501165986061096,3.930922746658325,6.326656014609188,5.982932515597523,25.188058496487457,21.87810853608759,3.237724376958795e-05,0.0932833403348922,0,0,0
2093,71867.64036684549,2010-11-17 07:42:52,2491.239916724825,2,7,0.5499359965324402,3.932541608810425,6.331242759417544,5.982932515597523,25.206092372555297,21.87810853608759,6.47544875391759e-05,0.0932833403348922,0,0,0
2094,71897.65551096291,2010-11-17 07:43:22,2521.255060842256,2,7,0.5501165986061096,3.9339985847473145,6.335829403010358,5.982932515597523,25.22413269235004,21.87810853608759,3.237724376958795e-05,0.0932833403348922,0,0,0
2095,71927.67084867861,2010-11-17 07:43:52,2551.2703985479134,2,7,0.550297200679779,3.935455560684204,6.340416130419221,5.982932515597523,25.242180241309207,21.87810853608759,3.237724376958795e-05,0.0932833403348922,0,0,0
2096,71957.68614663003,2010-11-17 07:44:22,2581.285696499339,2,7,0.5501165986061096,3.937074422836304,6.345002928936021,5.982932515597523,25.260234915539105,21.87810853608759,6.47544875391759e-05,0.0932833403348922,0,0,0
2097,71987.7014574586,2010-11-17 07:44:52,2611.301007357982,2,7,0.5499359965324402,3.938531398773194,6.349589595367919,5.982932515597523,25.278296111568963,21.87810853608759,6.47544875391759e-05,0.0932833403348922,0,0,0
2098,72017.71691418134,2010-11-17 07:45:22,2641.316464060674,2,7,0.5499359965324402,3.939988374710083,6.354176290324713,5.982932515597523,25.29636442368975,21.87810853608759,0.0,0.0932833403348922,0,0,0
2099,72047.73236151063,2010-11-17 07:45:52,2671.331911525307,2,7,0.550297200679779,3.9414453506469727,6.358763070884284,5.982932515597523,25.314440172191983,21.87810853608759,0.0,0.0932833403348922,0,0,0
2100,72077.7475333673,2010-11-17 07:46:22,2701.347083246643,2,7,0.5501165986061096,3.943226099014282,6.363349768759877,5.982932515597523,25.33252271548121,21.87810853608759,3.237724376958795e-05,0.0932833403348922,0,0,0
2101,72107.76269455736,2010-11-17 07:46:52,2731.362244451728,2,7,0.5497553944587708,3.944683074951172,6.367936468688663,5.982932515597523,25.35061251437648,21.87810853608759,3.237724376958795e-05,0.0932833403348922,0,0,0
2102,72137.77800734581,2010-11-17 07:47:22,2761.3775572401883,2,7,0.5501165986061096,3.946301937103272,6.372523189541306,5.982932515597523,25.36870973416363,21.87810853608759,3.237724376958795e-05,0.0932833403348922,0,0,0
2103,72167.793552785,2010-11-17 07:47:52,2791.3931026543178,2,7,0.5501165986061096,3.947920799255371,6.37710997193753,5.982932515597523,25.3868144297631,21.87810853608759,3.237724376958795e-05,0.0932833403348922,0,0,0
2104,72197.80876180946,2010-11-17 07:48:22,2821.408311693805,2,7,0.5501165986061096,3.949539661407471,6.381696654921081,5.982932515597523,25.404926160224697,21.87810853608759,6.47544875391759e-05,0.0932833403348922,0,0,0
2105,72227.82406752527,2010-11-17 07:48:52,2851.423617434674,2,7,0.550297200679779,3.9511585235595694,6.386283310071815,5.982932515597523,25.423045251238623,21.87810853608759,0.0,0.0932833403348922,0,0,0
2106,72257.8392740234,2010-11-17 07:49:22,2881.4388239127666,2,7,0.5501165986061096,3.95277738571167,6.390870003691878,5.982932515597523,25.44117197478347,21.87810853608759,0.0,0.0932833403348922,0,0,0
2107,72287.8545945562,2010-11-17 07:49:52,2911.4541444505708,2,7,0.5501165986061096,3.9543962478637695,6.395456676958662,5.982932515597523,25.45930620301217,21.87810853608759,3.237724376958795e-05,0.0932833403348922,0,0,0
2108,72317.86993365534,2010-11-17 07:50:22,2941.469483524644,2,7,0.5501165986061096,3.956176996231079,6.400043467545079,5.982932515597523,25.477448540302813,21.87810853608759,3.237724376958795e-05,0.0932833403348922,0,0,0
2109,72347.88515385767,2010-11-17 07:50:52,2971.484703752058,2,7,0.550297200679779,3.9579577445983887,6.404630280665727,5.982932515597523,25.495598629042973,21.87810853608759,6.47544875391759e-05,0.0932833403348922,0,0,0
2110,72377.9005877384,2010-11-17 07:51:22,3001.500137632784,2,7,0.5501165986061096,3.959576606750488,6.409217083464719,5.982932515597523,25.51375647972458,21.87810853608759,3.237724376958795e-05,0.0932833403348922,0,0,0
2111,72407.91580365004,2010-11-17 07:51:52,3031.515353539412,2,7,0.5501165986061096,3.961357355117798,6.413803859038421,5.982932515597523,25.5319220831005,21.87810853608759,6.47544875391759e-05,0.0932833403348922,0,0,0
2112,72437.9310891153,2010-11-17 07:52:22,3061.530639009682,2,7,0.550297200679779,3.9631381034851074,6.418390688097667,5.982932515597523,25.55009581021841,21.87810853608759,6.47544875391759e-05,0.0932833403348922,0,0,0
2113,72467.94640502657,2010-11-17 07:52:52,3091.545954920937,2,7,0.5499359965324402,3.964756965637207,6.422977481066751,5.982932515597523,25.56827737907419,21.87810853608759,6.47544875391759e-05,0.0932833403348922,0,0,0
2114,72497.96172518341,2010-11-17 07:53:22,3121.5612750777905,2,7,0.5501165986061096,3.9665377140045166,6.427564332904769,5.982932515597523,25.586467284624163,21.87810853608759,3.237724376958795e-05,0.0932833403348922,0,0,0
2115,72527.97715834234,2010-11-17 07:53:52,3151.576708221676,2,7,0.550297200679779,3.968156576156616,6.432151201035008,5.982932515597523,25.604665358100505,21.87810853608759,3.237724376958795e-05,0.0932833403348922,0,0,0
2116,72557.99233466516,2010-11-17 07:54:22,3181.5918845344727,2,7,0.5501165986061096,3.970099210739136,6.436737988033788,5.982932515597523,25.62287135918744,21.87810853608759,0.0,0.0932833403348922,0,0,0
2117,72588.0077791273,2010-11-17 07:54:52,3211.6073290116483,2,7,0.5501165986061096,3.9720418453216553,6.441324834195931,5.982932515597523,25.641085949219857,21.87810853608759,3.237724376958795e-05,0.0932833403348922,0,0,0
2118,72618.02295062307,2010-11-17 07:55:22,3241.622500482358,2,7,0.5501165986061096,3.973822593688965,6.445911600002503,5.982932515597523,25.65930855379204,21.87810853608759,9.713172767078504e-05,0.0932833403348922,0,0,0
2119,72648.03827334131,2010-11-17 07:55:52,3271.6378232006045,2,7,0.5501165986061096,3.9756033420562735,6.450498389671412,5.982932515597523,25.677539740851422,21.87810853608759,6.47544875391759e-05,0.0932833403348922,0,0,0
2120,72678.05357655587,2010-11-17 07:56:22,3301.6531264402297,2,7,0.5501165986061096,3.977384090423584,6.455085153559606,5.982932515597523,25.69577941994746,21.87810853608759,0.0,0.0932833403348922,0,0,0
2121,72708.06889724908,2010-11-17 07:56:52,3331.668447133421,2,7,0.5501165986061096,3.979326725006104,6.459671982055343,5.982932515597523,25.71402763742577,21.87810853608759,3.237724376958795e-05,0.0932833403348922,0,0,0
2122,72738.08432494936,2010-11-17 07:57:22,3361.683874838732,2,7,0.5499359965324402,3.981269359588623,6.464258772747484,5.982932515597523,25.73228499477557,21.87810853608759,3.237724376958795e-05,0.0932833403348922,0,0,0
2123,72768.09952434478,2010-11-17 07:57:52,3391.6990742090834,2,7,0.550297200679779,3.983373880386353,6.46884552235414,5.982932515597523,25.75055118512381,21.87810853608759,3.237724376958795e-05,0.0932833403348922,0,0,0
2124,72798.11488637116,2010-11-17 07:58:22,3421.7144363256743,2,7,0.5501165986061096,3.985316514968872,6.473432303896812,5.982932515597523,25.768826581216857,21.87810853608759,6.47544875391759e-05,0.0932833403348922,0,0,0
2125,72828.13025558548,2010-11-17 07:58:52,3451.7298054547696,2,7,0.550297200679779,3.9874210357666016,6.47801899155059,5.982932515597523,25.787110749705377,21.87810853608759,6.47544875391759e-05,0.0932833403348922,0,0,0
2126,72858.14543976288,2010-11-17 07:59:22,3481.7449896622725,2,7,0.5501165986061096,3.989363670349121,6.482605775779503,5.982932515597523,25.805404568959872,21.87810853608759,3.237724376958795e-05,0.0932833403348922,0,0,0
2127,72888.16075754883,2010-11-17 07:59:52,3511.7603074231447,2,7,0.5501165986061096,3.9914681911468506,6.487192539360954,5.982932515597523,25.8237077120072,21.87810853608759,6.47544875391759e-05,0.0932833403348922,0,0,0
2128,72918.1760751192,2010-11-17 08:00:22,3541.775624998554,2,7,0.5499359965324402,3.99341082572937,6.49177846261964,5.982932515597523,25.842016960022537,21.87810853608759,3.237724376958795e-05,0.0932833403348922,0,0,0
2129,72948.19163373629,2010-11-17 08:00:52,3571.791183610628,2,7,0.5501165986061096,3.995838880538941,6.496364340908511,5.982932515597523,25.86033570460599,21.87810853608759,9.713172767078504e-05,0.0932833403348922,0,0,0
2130,72978.20667072633,2010-11-17 08:01:22,3601.8062206156906,2,7,0.5499359965324402,3.99778151512146,6.500950135502816,5.982932515597523,25.87866390662041,21.87810853608759,6.47544875391759e-05,0.0932833403348922,0,0,0
2131,73008.22200039192,2010-11-17 08:01:52,3631.821550286292,2,7,0.5499359965324402,4.0000481605529785,6.505535987438011,5.982932515597523,25.897002104157504,21.87810853608759,3.24249267578125e-05,0.0932833403348922,0,0,0
2132,73038.2373406339,2010-11-17 08:02:22,3661.836890518255,2,7,0.5499359965324402,4.001990795135498,6.510122668797642,5.982932515597523,25.915353736464382,21.87810853608759,3.24249267578125e-05,0.0932833403348922,0,0,0
2133,73068.25261516689,2010-11-17 08:02:52,3691.852165041199,2,7,0.550297200679779,4.004418849945068,6.514709396695789,5.982932515597523,25.93371559629445,21.87810853608759,9.70840483205393e-05,0.0932833403348922,0,0,0
2134,73098.2679089128,2010-11-17 08:03:22,3721.867458802164,2,7,0.5501165986061096,4.006523609161377,6.519296134544112,5.982932515597523,25.95208757876649,21.87810853608759,6.47544875391759e-05,0.0932833403348922,0,0,0
2135,73128.28390265102,2010-11-17 08:03:52,3751.883452665693,2,7,0.550297200679779,4.008951663970947,6.523882987179829,5.982932515597523,25.970470274514483,21.87810853608759,9.70840483205393e-05,0.0932833403348922,0,0,0
2136,73158.28573392755,2010-11-17 08:04:22,3781.885283796862,2,7,0.550297200679779,4.011056423187256,6.528468454376278,5.982932515597523,25.988857647400632,21.87810853608759,6.47544875391759e-05,0.0932833403348922,0,0,0
2137,73188.29825386964,2010-11-17 08:04:52,3811.897803849224,2,7,0.5501165986061096,4.013322830200195,6.533055435511999,5.982932515597523,26.007261519650005,21.87810853608759,9.71794142969884e-05,0.0932833403348922,0,0,0
2138,73218.31354379603,2010-11-17 08:05:22,3841.9130936603297,2,7,0.5501165986061096,4.015750885009766,6.537642135730273,5.982932515597523,26.02567472499241,21.87810853608759,6.47544875391759e-05,0.0932833403348922,0,0,0
2139,73248.32884858955,2010-11-17 08:05:52,3871.928398453832,2,7,0.5501165986061096,4.017855644226074,6.542228851197559,5.982932515597523,26.044098678184405,21.87810853608759,3.24249267578125e-05,0.0932833403348922,0,0,0
2140,73278.34420088661,2010-11-17 08:06:22,3901.9437507559246,2,7,0.5501165986061096,4.0202836990356445,6.546815630920277,5.982932515597523,26.062533546727547,21.87810853608759,6.47544875391759e-05,0.0932833403348922,0,0,0
2141,73308.35946828176,2010-11-17 08:06:52,3931.959018146064,2,7,0.5501165986061096,4.022873878479004,6.55140231293925,5.982932515597523,26.08097882387267,21.87810853608759,9.70840483205393e-05,0.0932833403348922,0,0,0
2142,73338.37477668929,2010-11-17 08:07:22,3961.9743265586026,2,7,0.5501165986061096,4.0249786376953125,6.555988978444899,5.982932515597523,26.09943489031549,21.87810853608759,6.47544875391759e-05,0.0932833403348922,0,0,0
2143,73368.39021077551,2010-11-17 08:07:52,3991.98976064484,2,7,0.5499359965324402,4.027245044708252,6.560575617673208,5.982932515597523,26.117901663995905,21.87810853608759,3.24249267578125e-05,0.0932833403348922,0,0,0
2144,73398.40564917754,2010-11-17 08:08:22,4022.005199051864,2,7,0.5504778623580933,4.029996871948242,6.565162383373245,5.982932515597523,26.13637997590707,21.87810853608759,9.70840483205393e-05,0.0932833403348922,0,0,0
2145,73428.42087045257,2010-11-17 08:08:52,4052.020420321881,2,7,0.550297200679779,4.032425403594971,6.569749085242648,5.982932515597523,26.154869140553227,21.87810853608759,9.71794142969884e-05,0.0932833403348922,0,0,0
2146,73458.43602302611,2010-11-17 08:09:22,4082.035572895419,2,7,0.5497553944587708,4.034691333770752,6.574335816230367,5.982932515597523,26.173369678378656,21.87810853608759,3.23295607813634e-05,0.0932833403348922,0,0,0
2147,73488.45146543813,2010-11-17 08:09:52,4112.051015302428,2,7,0.5501165986061096,4.037281513214111,6.578922555542511,5.982932515597523,26.19188147176166,21.87810853608759,6.47544875391759e-05,0.0932833403348922,0,0,0
2148,73518.46665501904,2010-11-17 08:10:22,4142.066204913418,2,7,0.550297200679779,4.03971004486084,6.583509209736117,5.982932515597523,26.210404345144816,21.87810853608759,9.71794142969884e-05,0.0932833403348922,0,0,0
2149,73548.4811846827,2010-11-17 08:10:52,4172.080734552016,2,7,0.5501165986061096,4.04213809967041,6.588088683119161,5.982932515597523,26.228909533397985,21.87810853608759,3.23295607813634e-05,0.0932833403348922,0,0,0
2150,73578.481602481,2010-11-17 08:11:22,4202.081152375353,2,7,0.5501165986061096,4.0447282791137695,6.592680154997298,5.982932515597523,26.247474774767127,21.87810853608759,9.70840483205393e-05,0.0932833403348922,0,0,0
2151,73608.49691919924,2010-11-17 08:11:52,4232.096469093622,2,7,0.5501165986061096,4.047156810760498,6.597266815447675,5.982932515597523,26.26603220101576,21.87810853608759,6.47544875391759e-05,0.0932833403348922,0,0,0
2152,73638.51223566689,2010-11-17 08:12:22,4262.111785556254,2,7,0.550297200679779,4.049908638000488,6.601853428321832,5.982932515597523,26.284601233956533,21.87810853608759,6.47544875391759e-05,0.0932833403348922,0,0,0
2153,73668.52754005436,2010-11-17 08:12:52,4292.127089913669,2,7,0.5501165986061096,4.052337169647217,6.606440095832507,5.982932515597523,26.303182252099344,21.87810853608759,3.24249267578125e-05,0.0932833403348922,0,0,0
2154,73698.54286160973,2010-11-17 08:13:22,4322.1424114690135,2,7,0.5501165986061096,4.054927349090576,6.611026747502033,5.982932515597523,26.32177527314589,21.87810853608759,3.24249267578125e-05,0.0932833403348922,0,0,0
2155,73728.55828483887,2010-11-17 08:13:52,4352.157834713188,2,7,0.5501165986061096,4.057679176330566,6.615613487200487,5.982932515597523,26.340380813945,21.87810853608759,6.47544875391759e-05,0.0932833403348922,0,0,0
2156,73758.57358921632,2010-11-17 08:14:22,4382.173139080628,2,7,0.5501165986061096,4.060431480407715,6.62020023360853,5.982932515597523,26.358998794536458,21.87810853608759,6.47544875391759e-05,0.0932833403348922,0,0,0
2157,73788.5887794639,2010-11-17 08:14:52,4412.188329328207,2,7,0.5499359965324402,4.062859535217285,6.624786891798434,5.982932515597523,26.37762830997484,21.87810853608759,3.23295607813634e-05,0.0932833403348922,0,0,0
2158,73818.60407790155,2010-11-17 08:15:22,4442.203627765846,2,7,0.5501165986061096,4.0657734870910645,6.629373579551735,5.982932515597523,26.396270471200573,21.87810853608759,6.47544875391759e-05,0.0932833403348922,0,0,0
2159,73848.6194073115,2010-11-17 08:15:53,4472.218957195846,2,7,0.5501165986061096,4.068525791168213,6.63396027070792,5.982932515597523,26.41492518272629,21.87810853608759,6.47544875391759e-05,0.0932833403348922,0,0,0
2160,73878.63469476672,2010-11-17 08:16:23,4502.2342446360335,2,7,0.5501165986061096,4.071277618408203,6.63854693858308,5.982932515597523,26.43359257702736,21.87810853608759,9.70840483205393e-05,0.0932833403348922,0,0,0
2161,73908.65003183077,2010-11-17 08:16:53,4532.249581700089,2,7,0.550297200679779,4.074191570281982,6.643133590380014,5.982932515597523,26.45227273992453,21.87810853608759,9.70840483205393e-05,0.0932833403348922,0,0,0
2162,73938.66531012313,2010-11-17 08:17:23,4562.26485998743,2,7,0.5501165986061096,4.076943874359131,6.647720196285774,5.982932515597523,26.470965652648392,21.87810853608759,9.71794142969884e-05,0.0932833403348922,0,0,0
2163,73968.68074369809,2010-11-17 08:17:53,4592.280293562393,2,7,0.550297200679779,4.07985782623291,6.652306910857678,5.982932515597523,26.48967205042383,21.87810853608759,9.71794142969884e-05,0.0932833403348922,0,0,0
2164,73998.69592970006,2010-11-17 08:18:23,4622.295479569387,2,7,0.5501165986061096,4.0827717781066895,6.656893570480896,5.982932515597523,26.50839124581652,21.87810853608759,6.47544875391759e-05,0.0932833403348922,0,0,0
2165,74028.7112585386,2010-11-17 08:18:53,4652.31080840791,2,7,0.5501165986061096,4.085685729980469,6.661480286104903,5.982932515597523,26.52712400006868,21.87810853608759,9.71794142969884e-05,0.0932833403348922,0,0,0
2166,74058.72662692083,2010-11-17 08:19:23,4682.326176805179,2,7,0.5501165986061096,4.088437557220459,6.666066998220126,5.982932515597523,26.545870231765097,21.87810853608759,6.47544875391759e-05,0.0932833403348922,0,0,0
2167,74088.7418600655,2010-11-17 08:19:53,4712.341409924774,2,7,0.5501165986061096,4.091513633728027,6.670653700482854,5.982932515597523,26.56462999922554,21.87810853608759,6.47544875391759e-05,0.0932833403348922,0,0,0
2168,74118.75716562089,2010-11-17 08:20:23,4742.356715490204,2,7,0.5501165986061096,4.0945892333984375,6.675240400163304,5.982932515597523,26.583403314963977,21.87810853608759,0.0001295089750783,0.0932833403348922,0,0,0
2169,74148.77267810282,2010-11-17 08:20:53,4772.3722279721305,2,7,0.5499359965324402,4.097179412841797,6.679827152378199,5.982932515597523,26.60219064249365,21.87810853608759,3.23295607813634e-05,0.0932833403348922,0,0,0
2170,74178.78780560878,2010-11-17 08:21:23,4802.387355478098,2,7,0.5499359965324402,4.100417137145996,6.684413805067583,5.982932515597523,26.62099144014501,21.87810853608759,3.23295607813634e-05,0.0932833403348922,0,0,0
2171,74208.80310295871,2010-11-17 08:21:53,4832.402652828021,2,7,0.5499359965324402,4.1034932136535645,6.689000557896735,5.982932515597523,26.63980663191896,21.87810853608759,6.47544875391759e-05,0.0932833403348922,0,0,0
2172,74238.81840164697,2010-11-17 08:22:23,4862.417951516285,2,7,0.5501165986061096,4.106730937957764,6.693587253005939,5.982932515597523,26.658635792803228,21.87810853608759,6.47544875391759e-05,0.0932833403348922,0,0,0
2173,74268.8338653371,2010-11-17 08:22:53,4892.433415211432,2,7,0.550297200679779,4.109806537628174,6.698173971877808,5.982932515597523,26.677479335205984,21.87810853608759,6.47544875391759e-05,0.0932833403348922,0,0,0
2174,74298.84922051136,2010-11-17 08:23:23,4922.448770380682,2,7,0.5501165986061096,4.113044261932373,6.702760721743804,5.982932515597523,26.696337399587232,21.87810853608759,9.70840483205393e-05,0.0932833403348922,0,0,0
2175,74328.8643241277,2010-11-17 08:23:53,4952.463873992004,2,7,0.5501165986061096,4.116119861602783,6.707347390546075,5.982932515597523,26.715209540138904,21.87810853608759,6.47544875391759e-05,0.0932833403348922,0,0,0
2176,74358.8796421793,2010-11-17 08:24:23,4982.479192048614,2,7,0.5501165986061096,4.119195938110352,6.711934152011302,5.982932515597523,26.73409657335172,21.87810853608759,3.24249267578125e-05,0.0932833403348922,0,0,0
2177,74388.89499668189,2010-11-17 08:24:53,5012.494546586287,2,7,0.5501165986061096,4.122595310211182,6.716520915342601,5.982932515597523,26.752998355815848,21.87810853608759,6.47544875391759e-05,0.0932833403348922,0,0,0
2178,74418.91024296934,2010-11-17 08:25:23,5042.509792838663,2,7,0.5501165986061096,4.125833034515381,6.721107649506056,5.982932515597523,26.77191488841516,21.87810853608759,9.70840483205393e-05,0.0932833403348922,0,0,0
2179,74448.92556620389,2010-11-17 08:25:53,5072.525116073198,2,7,0.550297200679779,4.129232883453369,6.725694417725749,5.982932515597523,26.790846658980907,21.87810853608759,0.0001295089750783,0.0932833403348922,0,0,0
2180,74478.9409581349,2010-11-17 08:26:23,5102.540508029273,2,7,0.5501165986061096,4.132308483123779,6.730281196789262,5.982932515597523,26.80979367608415,21.87810853608759,9.70840483205393e-05,0.0932833403348922,0,0,0
2181,74508.95619157028,2010-11-17 08:26:53,5132.5557414395935,2,7,0.5501165986061096,4.135708332061768,6.734867966226538,5.982932515597523,26.82875585641802,21.87810853608759,6.47544875391759e-05,0.0932833403348922,0,0,0
2182,74538.97147989768,2010-11-17 08:27:23,5162.571029766996,2,7,0.550297200679779,4.139107704162598,6.73945477716368,5.982932515597523,26.84773352613824,21.87810853608759,9.70840483205393e-05,0.0932833403348922,0,0,0
2183,74568.98677987918,2010-11-17 08:27:53,5192.586329748488,2,7,0.550297200679779,4.142669200897217,6.744041550661599,5.982932515597523,26.866726538064267,21.87810853608759,0.0001295089750783,0.0932833403348922,0,0,0
2184,74599.00222257692,2010-11-17 08:28:23,5222.601772446222,2,7,0.550297200679779,4.146069049835205,6.748628295711181,5.982932515597523,26.88573507159752,21.87810853608759,0.0001295089750783,0.0932833403348922,0,0,0
2185,74629.01741397235,2010-11-17 08:28:53,5252.616963861716,2,7,0.5501165986061096,4.149306774139404,6.753214999659771,5.982932515597523,26.904759397223835,21.87810853608759,6.47544875391759e-05,0.0932833403348922,0,0,0
2186,74659.0327114877,2010-11-17 08:29:23,5282.632261357003,2,7,0.5501165986061096,4.152868270874023,6.757801713058504,5.982932515597523,26.92379957419974,21.87810853608759,9.71794142969884e-05,0.0932833403348922,0,0,0
2187,74689.04802723353,2010-11-17 08:29:53,5312.647577127907,2,7,0.5499359965324402,4.156429767608643,6.762388486072899,5.982932515597523,26.94285593587412,21.87810853608759,9.71794142969884e-05,0.0932833403348922,0,0,0
2188,74719.06344726469,2010-11-17 08:30:23,5342.662997134,2,7,0.5501165986061096,4.159829139709473,6.766975268827983,5.982932515597523,26.96192839674672,21.87810853608759,9.70840483205393e-05,0.0932833403348922,0,0,0
2189,74749.07864172778,2010-11-17 08:30:53,5372.678191597102,2,7,0.5499359965324402,4.163390636444092,6.771561963795942,5.982932515597523,26.981016636595538,21.87810853608759,6.47544875391759e-05,0.0932833403348922,0,0,0
2190,74779.09393411531,2010-11-17 08:31:23,5402.693483984639,2,7,0.550297200679779,4.166952133178711,6.776148640499701,5.982932515597523,27.00012100053922,21.87810853608759,9.70840483205393e-05,0.0932833403348922,0,0,0
2191,74809.10924829726,2010-11-17 08:31:53,5432.708798161564,2,7,0.5501165986061096,4.17051362991333,6.780735371668725,5.982932515597523,27.0192419531455,21.87810853608759,9.70840483205393e-05,0.0932833403348922,0,0,0
2192,74839.12467315547,2010-11-17 08:32:23,5462.724223044831,2,7,0.5499359965324402,4.173913478851318,6.785322161649295,5.982932515597523,27.038379524356653,21.87810853608759,3.24249267578125e-05,0.0932833403348922,0,0,0
2193,74869.1398502452,2010-11-17 08:32:53,5492.7394001095045,2,7,0.5499359965324402,4.177636623382568,6.789908844252836,5.982932515597523,27.057533097785267,21.87810853608759,9.70840483205393e-05,0.0932833403348922,0,0,0
2194,74899.15515454247,2010-11-17 08:33:23,5522.754704406769,2,7,0.550297200679779,4.181521892547607,6.794495585294466,5.982932515597523,27.076703588446048,21.87810853608759,0.0001295089750783,0.0932833403348922,0,0,0
2195,74929.17076011174,2010-11-17 08:33:53,5552.770310041218,2,7,0.5501165986061096,4.184921741485596,6.799082357738986,5.982932515597523,27.095890924476755,21.87810853608759,6.47544875391759e-05,0.0932833403348922,0,0,0
2196,74959.18615497509,2010-11-17 08:34:23,5582.785704949663,2,7,0.5501165986061096,4.188644886016846,6.803669099421192,5.982932515597523,27.115094798913,21.87810853608759,9.70840483205393e-05,0.0932833403348922,0,0,0
2197,74989.20107956957,2010-11-17 08:34:53,5612.800629433857,2,7,0.5501165986061096,4.192368507385254,6.808255692308348,5.982932515597523,27.134315026111704,21.87810853608759,0.0001295089750783,0.0932833403348922,0,0,0
2198,75019.21638117007,2010-11-17 08:35:23,5642.81593105444,2,7,0.5501165986061096,4.196253299713135,6.812842390894884,5.982932515597523,27.15355282103327,21.87810853608759,0.0001618385285837,0.0932833403348922,0,0,0
2199,75048.77860345996,2010-11-17 08:35:53,5672.378153329272,2,7,0.550297200679779,4.200138568878174,6.817359883767553,5.982932515597523,27.1725172413704,21.87810853608759,0.0001618385285837,0.0932833403348922,0,0,0
2200,75078.79188776964,2010-11-17 08:36:23,30.01525212704019,3,7,0.0,4.116605758666992,6.817359883767553,5.982932515597523,27.1725172413704,21.87810853608759,-0.0003561019839253,0.0932833403348922,0,0,0
2201,75108.80718918971,2010-11-17 08:36:53,60.0305535471234,3,7,0.0,4.106568813323975,6.817359883767553,5.982932515597523,27.1725172413704,21.87810853608759,-0.0001942634553415,0.0932833403348922,0,0,0
2202,75138.82249701579,2010-11-17 08:37:23,90.04586137820945,3,7,0.0,4.100579261779785,6.817359883767553,5.982932515597523,27.1725172413704,21.87810853608759,-0.0001295089750783,0.0932833403348922,0,0,0
2203,75168.79093042611,2010-11-17 08:37:53,120.01429478852984,3,7,0.0,4.097017765045166,6.817359883767553,5.982932515597523,27.1725172413704,21.87810853608759,-3.23295607813634e-05,0.0932833403348922,0,0,0
2204,75168.80578893029,2010-11-17 08:37:53,0.015509057994764,4,7,0.975993275642395,4.199653148651123,6.817364112930351,5.982932515597523,27.172535002728125,21.87810853608759,-3.23295607813634e-05,0.0932833403348922,0,0,0
2205,75169.85263613696,2010-11-17 08:37:54,1.062356254651033,4,7,0.9257839322090148,4.199814796447754,6.817639108786638,5.982932515597523,27.17368991739982,21.87810853608759,0.0,0.0932833403348922,0,0,0
2206,75172.19636214265,2010-11-17 08:37:56,3.406082265346962,4,7,0.8752133250236511,4.199653148651123,6.818224295437891,5.982932515597523,27.176147557671943,21.87810853608759,-3.23295607813634e-05,0.0932833403348922,0,0,0
2207,75175.64945166034,2010-11-17 08:38:00,6.859171793052658,4,7,0.8251845240592957,4.199814796447754,6.819038628834518,5.982932515597523,27.179567553849385,21.87810853608759,3.23295607813634e-05,0.0932833403348922,0,0,0
2208,75180.35253048864,2010-11-17 08:38:05,11.562250611333674,4,7,0.775155782699585,4.199814796447754,6.820082786538095,5.982932515597523,27.1839527712188,21.87810853608759,0.0,0.0932833403348922,0,0,0
2209,75186.52446438516,2010-11-17 08:38:11,17.734184507867713,4,7,0.7251269817352295,4.199814796447754,6.821367144578348,5.982932515597523,27.189346776229588,21.87810853608759,0.0,0.0932833403348922,0,0,0
2210,75194.6023749126,2010-11-17 08:38:19,25.812095040312165,4,7,0.6749176383018494,4.199976921081543,6.822935349423431,5.982932515597523,27.195932891533616,21.87810853608759,6.47544875391759e-05,0.0932833403348922,0,0,0
2211,75205.41476608442,2010-11-17 08:38:30,36.6244862121218,4,7,0.6248888373374939,4.199653148651123,6.824883677654174,5.982932515597523,27.20411539896758,21.87810853608759,-3.23295607813634e-05,0.0932833403348922,0,0,0
2212,75220.80524600005,2010-11-17 08:38:45,52.014966122744845,4,7,0.5748600959777832,4.199653148651123,6.827442162273711,5.982932515597523,27.21486045494651,21.87810853608759,-3.23295607813634e-05,0.0932833403348922,0,0,0
2213,75245.17997719406,2010-11-17 08:39:09,76.38969732177628,4,7,0.5248312950134277,4.199653148651123,6.831152526076561,5.982932515597523,27.23044313246716,21.87810853608759,-3.23295607813634e-05,0.0932833403348922,0,0,0
2214,75288.61700684269,2010-11-17 08:39:53,119.8267269804242,4,7,0.474802553653717,4.199814796447754,6.837153701489621,5.982932515597523,27.25564668732148,21.87810853608759,0.0,0.0932833403348922,0,0,0
2215,75362.66313845893,2010-11-17 08:41:07,193.87285858662585,4,7,0.4247737824916839,4.199653148651123,6.846370690843541,5.982932515597523,27.29435572281563,21.87810853608759,-3.23295607813634e-05,0.0932833403348922,0,0,0
2216,75468.17780188184,2010-11-17 08:42:52,299.38752200955463,4,7,0.3747450113296509,4.199653148651123,6.858075216947936,5.982932515597523,27.34351188690004,21.87810853608759,0.0,0.0932833403348922,0,0,0
2217,75596.36410594777,2010-11-17 08:45:01,427.57382618574826,4,7,0.3247162401676178,4.199653148651123,6.870519456967505,5.982932515597523,27.395774987147,21.87810853608759,-3.23295607813634e-05,0.0932833403348922,0,0,0
2218,75750.92467982872,2010-11-17 08:47:35,582.1343999564298,4,7,0.2745068669319153,4.199814796447754,6.883369735808439,5.982932515597523,27.449743370388138,21.87810853608759,-3.24249267578125e-05,0.0932833403348922,0,0,0
2219,75939.56328260759,2010-11-17 08:50:44,770.7730027352893,4,7,0.224478080868721,4.199653148651123,6.896416429802767,5.982932515597523,27.504536631083003,21.87810853608759,-3.23295607813634e-05,0.0932833403348922,0,0,0
2220,76177.07639430485,2010-11-17 08:54:41,1008.2861144325644,4,7,0.1744493246078491,4.199814796447754,6.909523153848072,5.982932515597523,27.559581991968088,21.87810853608759,0.0,0.0932833403348922,0,0,0
2221,76503.3073107216,2010-11-17 09:00:07,1334.5170308493125,4,7,0.1244205459952354,4.199814796447754,6.922955471267288,5.982932515597523,27.61599471486036,21.87810853608759,3.23295607813634e-05,0.0932833403348922,0,0,0
2222,77021.58318026173,2010-11-17 09:08:46,1852.7929003894333,4,7,0.0743917822837829,4.199653148651123,6.936962611480723,5.982932515597523,27.674821581816666,21.87810853608759,0.0,0.0932833403348922,0,0,0
2223,77451.95348288289,2010-11-17 09:15:56,2283.163203010592,4,7,0.0498289167881011,4.199653148651123,6.944322748734209,5.982932515597523,27.705732485008685,21.87810853608759,-3.23295607813634e-05,0.0932833403348922,0,0,0
2224,77481.9688442595,2010-11-17 09:16:26,30.015282382562628,5,7,0.0,4.192044734954834,6.944322748734209,5.982932515597523,27.705732485008685,21.87810853608759,-3.23295607813634e-05,0.0932833403348922,0,0,0
2225,77511.96852330874,2010-11-17 09:16:56,60.01496143180478,5,7,0.0,4.191073417663574,6.944322748734209,5.982932515597523,27.705732485008685,21.87810853608759,3.24249267578125e-05,0.0932833403348922,0,0,0
2226,77512.15666751737,2010-11-17 09:16:57,0.187427212156498,6,7,-1.9243103452026844e-05,4.191073417663574,6.944322748734209,5.982932516599379,27.705732485008685,21.87810854028644,0.0,0.0938397273421287,0,0,0
2227,77516.98487549226,2010-11-17 09:17:01,5.015635187063093,6,7,0.0007031940040178,4.190911293029785,6.944323641003405,5.982932516766394,27.705736224503163,21.87810854098641,0.0,0.0938397273421287,0,0,0
2228,77547.00092291979,2010-11-17 09:17:32,30.01541630685827,7,7,-1.0997490882873535,4.019636154174805,6.944323641057922,5.992101488177039,27.70573622473164,21.915152713932923,-0.0008742332574911,0.0938397273421287,0,0,0
2229,77577.01607221515,2010-11-17 09:18:02,60.03056560221476,7,7,-1.099568486213684,3.9948675632476807,6.944323641057922,6.001270466685367,27.70573622473164,21.95188678448144,-0.0005504131549969,0.0938397273421287,0,0,0
2230,77607.03140031183,2010-11-17 09:18:32,90.04589368886182,7,7,-1.0997490882873535,3.977707862854004,6.944323641057922,6.010439370992684,27.70573622473164,21.98843241429405,-0.0003885269106831,0.0938397273421287,0,0,0
2231,77637.04668356657,2010-11-17 09:19:02,120.0611769736766,7,7,-1.0997490882873535,3.964271306991577,6.944323641057922,6.019608197130308,27.70573622473164,22.024839714930305,-0.0003237724304199,0.0938397273421287,0,0,0
2232,77667.06202765314,2010-11-17 09:19:32,150.07652103018688,7,7,-1.0997490882873535,3.95310115814209,6.944323641057922,6.028776997559288,27.70573622473164,22.06113484933227,-0.0002913951757363,0.0938397273421287,0,0,0
2233,77697.07729967484,2010-11-17 09:20:02,180.0917930518872,7,7,-1.099568486213684,3.942740440368652,6.944323641057922,6.037945775767351,27.70573622473164,22.097331641606708,-0.0002913951757363,0.0938397273421287,0,0,0
2234,77727.09264554588,2010-11-17 09:20:32,210.10713894798943,7,7,-1.0997490882873535,3.9328653812408447,6.944323641057922,6.047114648832312,27.70573622473164,22.13343706176372,-0.0002913951757363,0.0938397273421287,0,0,0
2235,77757.10797448967,2010-11-17 09:21:02,240.12246786671344,7,7,-1.0997490882873535,3.923637866973877,6.944323641057922,6.056283526952208,27.70573622473164,22.169455063803618,-0.0002913951757363,0.0938397273421287,0,0,0
2236,77787.1232168724,2010-11-17 09:21:32,270.1377102494303,7,7,-1.0997490882873535,3.914734125137329,6.944323641057922,6.065452353665162,27.70573622473164,22.20538980678726,-0.0002590179501567,0.0938397273421287,0,0,0
2237,77817.13852710949,2010-11-17 09:22:02,300.1530204915346,7,7,-1.0997490882873535,3.9059925079345694,6.944323641057922,6.074621243696197,27.70573622473164,22.24124416474378,-0.0002590179501567,0.0938397273421287,0,0,0
2238,77847.15407266897,2010-11-17 09:22:32,330.16856604601486,7,7,-1.0997490882873535,3.897574424743652,6.944323641057922,6.083790186136397,27.70573622473164,22.277019229957585,-0.0001942634553415,0.0938397273421287,0,0,0
2239,77877.16914494708,2010-11-17 09:23:02,360.18363832412444,7,7,-1.099929690361023,3.889318227767944,6.944323641057922,6.092958983798031,27.70573622473164,22.312717095770665,-0.0001942634553415,0.0938397273421287,0,0,0
2240,77907.1844402068,2010-11-17 09:23:32,390.19893358884286,7,7,-1.0997490882873535,3.881062030792236,6.944323641057922,6.102127800952969,27.70573622473164,22.348339334757817,-0.0001942634553415,0.0938397273421287,0,0,0
2241,77937.19977442375,2010-11-17 09:24:02,420.2142678208298,7,7,-1.099929690361023,3.872805833816528,6.944323641057922,6.111296708624947,27.70573622473164,22.38388656555881,-0.0002266406954731,0.0938397273421287,0,0,0
2242,77967.21508883625,2010-11-17 09:24:32,450.2295822132939,7,7,-1.099568486213684,3.8647115230560303,6.944323641057922,6.120465642468252,27.70573622473164,22.419359081073612,-0.0002266406954731,0.0938397273421287,0,0,0
2243,77997.23035924893,2010-11-17 09:25:02,480.2448526259779,7,7,-1.0997490882873535,3.856779098510742,6.944323641057922,6.129634522462384,27.70573622473164,22.454757906271333,-0.0002266406954731,0.0938397273421287,0,0,0
2244,78027.24578588156,2010-11-17 09:25:32,510.26027925861086,7,7,-1.0997490882873535,3.849008560180664,6.944323641057922,6.138803500001919,27.70573622473164,22.49008530909517,-0.0002266406954731,0.0938397273421287,0,0,0
2245,78057.26096405902,2010-11-17 09:26:02,540.2754574611241,7,7,-1.099568486213684,3.841399908065796,6.944323641057922,6.147972360071796,27.70573622473164,22.52534106639754,-0.0001618862152099,0.0938397273421287,0,0,0
2246,78087.27628693267,2010-11-17 09:26:32,570.2907803096961,7,7,-1.0997490882873535,3.833791255950928,6.944323641057922,6.157141308117255,27.70573622473164,22.560527070993743,-0.0002266406954731,0.0938397273421287,0,0,0
2247,78117.29157914977,2010-11-17 09:27:02,600.3060725268073,7,7,-1.099568486213684,3.8263447284698486,6.944323641057922,6.166310241140517,27.70573622473164,22.59564420785772,-0.0001942634553415,0.0938397273421287,0,0,0
2248,78147.30698604815,2010-11-17 09:27:32,630.3214795655309,7,7,-1.0997490882873535,3.8190598487854,6.944323641057922,6.175479226848635,27.70573622473164,22.630693710166472,-0.0001618862152099,0.0938397273421287,0,0,0
2249,78177.32231280647,2010-11-17 09:28:02,660.336806183512,7,7,-1.0997490882873535,3.811613082885742,6.944323641057922,6.184648111985029,27.70573622473164,22.665676089970564,-0.0002266406954731,0.0938397273421287,0,0,0
2250,78207.33752805645,2010-11-17 09:28:32,690.3520214335012,7,7,-1.0997490882873535,3.804651975631714,6.944323641057922,6.193816949606253,27.70573622473164,22.700592626416142,-0.0002266406954731,0.0938397273421287,0,0,0
2251,78237.35280262452,2010-11-17 09:29:02,720.3672960015577,7,7,-1.099568486213684,3.7976908683776855,6.944323641057922,6.202985861959458,27.70573622473164,22.735445129119203,-0.0001942634553415,0.0938397273421287,0,0,0
2252,78267.36811707212,2010-11-17 09:29:32,750.3826104491596,7,7,-1.099568486213684,3.791053533554077,6.944323641057922,6.212154851953218,27.70573622473164,22.770234549171956,-9.713172767078504e-05,0.0938397273421287,0,0,0
2253,78297.38340691832,2010-11-17 09:30:02,780.3979002953527,7,7,-1.099568486213684,3.784092426300049,6.944323641057922,6.221323745722452,27.70573622473164,22.80496196716993,-0.0001942634553415,0.0938397273421287,0,0,0
2254,78327.39873688966,2010-11-17 09:30:32,810.4132302667042,7,7,-1.099929690361023,3.77745509147644,6.944323641057922,6.230492729817843,27.70573622473164,22.8396278856636,-0.0001942634553415,0.0938397273421287,0,0,0
2255,78357.41402323711,2010-11-17 09:31:02,840.4285166342139,7,7,-1.0997490882873535,3.770979642868042,6.944323641057922,6.239661654745167,27.70573622473164,22.874234121473823,-0.0001618862152099,0.0938397273421287,0,0,0
2256,78387.4292973741,2010-11-17 09:31:32,870.4437907511442,7,7,-1.0997490882873535,3.7646660804748535,6.944323641057922,6.248830410556018,27.70573622473164,22.908781105687392,-0.0002266406954731,0.0938397273421287,0,0,0
2257,78417.44484725437,2010-11-17 09:32:02,900.4593406314223,7,7,-1.099929690361023,3.758352518081665,6.944323641057922,6.257999302917336,27.70573622473164,22.943271113069347,-0.0001942634553415,0.0938397273421287,0,0,0
2258,78447.45992368285,2010-11-17 09:32:32,930.4744170849544,7,7,-1.0997490882873535,3.752362966537476,6.944323641057922,6.267168101699688,27.70573622473164,22.977704569976737,-0.0001942157687153,0.0938397273421287,0,0,0
2259,78477.47533681178,2010-11-17 09:33:02,960.4898301988424,7,7,-1.099568486213684,3.746535062789917,6.944323641057922,6.27633708124115,27.70573622473164,23.01208340038465,-0.0001618862152099,0.0938397273421287,0,0,0
2260,78507.49054575102,2010-11-17 09:33:32,990.5050391531169,7,7,-1.099929690361023,3.7403833866119385,6.944323641057922,6.285506083298351,27.70573622473164,23.04640749882889,-0.0001942634553415,0.0938397273421287,0,0,0
2261,78537.50585291543,2010-11-17 09:34:02,1020.520346292476,7,7,-1.0997490882873535,3.73471736907959,6.944323641057922,6.294675036002527,27.70573622473164,23.080677855907627,-0.0001618862152099,0.0938397273421287,0,0,0
2262,78567.52130665573,2010-11-17 09:34:32,1050.5358000628491,7,7,-1.0997490882873535,3.729051351547241,6.944323641057922,6.30384403700142,27.70573622473164,23.114895646203426,-0.0001942634553415,0.0938397273421287,0,0,0
2263,78597.53644053762,2010-11-17 09:35:02,1080.5509339196688,7,7,-1.0997490882873535,3.723709106445313,6.944323641057922,6.313012845367874,27.70573622473164,23.14906222184146,-0.0001295089750783,0.0938397273421287,0,0,0
2264,78627.55201591655,2010-11-17 09:35:32,1110.5665092885704,7,7,-1.0997490882873535,3.718043088912964,6.944323641057922,6.322181867875368,27.70573622473164,23.183178158595897,-0.0001295089750783,0.0938397273421287,0,0,0
2265,78657.56717316175,2010-11-17 09:36:02,1140.5816665638458,7,7,-1.099568486213684,3.712538957595825,6.944323641057922,6.331350707194517,27.70573622473164,23.21724303349225,-0.0001618862152099,0.0938397273421287,0,0,0
2266,78687.58237275266,2010-11-17 09:36:32,1170.5968661296852,7,7,-1.099568486213684,3.7073585987091056,6.944323641057922,6.340519617747616,27.70573622473164,23.251258737028746,-9.713172767078504e-05,0.0938397273421287,0,0,0
2267,78717.59778219736,2010-11-17 09:37:02,1200.6122755744143,7,7,-1.099929690361023,3.701854467391968,6.944323641057922,6.349688601502004,27.70573622473164,23.28522604352347,-0.0001618862152099,0.0938397273421287,0,0,0
2268,78747.6130275475,2010-11-17 09:37:32,1230.6275209145135,7,7,-1.099568486213684,3.696835994720459,6.944323641057922,6.358857509485687,27.70573622473164,23.31914487005071,-0.0001295089750783,0.0938397273421287,0,0,0
2269,78777.62842481185,2010-11-17 09:38:02,1260.642918208914,7,7,-1.0997490882873535,3.69165563583374,6.944323641057922,6.368026494307171,27.70573622473164,23.35301671314513,-0.0001295089750783,0.0938397273421287,0,0,0
2270,78807.64658078732,2010-11-17 09:38:32,1290.6610741944316,7,7,-1.0997490882873535,3.6864752769470215,6.944323641057922,6.377196308627585,27.70573622473164,23.38684491872452,-0.0001618862152099,0.0938397273421287,0,0,0
2271,78837.65903244897,2010-11-17 09:39:02,1320.6735258310166,7,7,-1.0997490882873535,3.6814568042755127,6.944323641057922,6.386364439365244,27.70573622473164,23.42062076898841,-0.0001295089750783,0.0938397273421287,0,0,0
2272,78867.67418596485,2010-11-17 09:39:32,1350.6886793418955,7,7,-1.099568486213684,3.676600217819214,6.944323641057922,6.395533345811489,27.70573622473164,23.45435374924472,-9.713172767078504e-05,0.0938397273421287,0,0,0
2273,78897.68961087319,2010-11-17 09:40:02,1380.7041042502246,7,7,-1.0997490882873535,3.671743869781494,6.944323641057922,6.404702355021186,27.70573622473164,23.488042085365105,-9.713172767078504e-05,0.0938397273421287,0,0,0
2274,78927.70480875482,2010-11-17 09:40:32,1410.71930213186,7,7,-1.099568486213684,3.6668872833251953,6.944323641057922,6.413871265436668,27.70573622473164,23.521685174295406,-9.713172767078504e-05,0.0938397273421287,0,0,0
2275,78957.72010474636,2010-11-17 09:41:02,1440.7345981233923,7,7,-1.099568486213684,3.662030696868897,6.944323641057922,6.423040227112707,27.70573622473164,23.555284680616417,-9.713172767078504e-05,0.0938397273421287,0,0,0
2276,78987.73545748452,2010-11-17 09:41:32,1470.7499509467864,7,7,-1.099568486213684,3.6574978828430176,6.944323641057922,6.432209211530235,27.70573622473164,23.58884069799125,-9.713172767078504e-05,0.0938397273421287,0,0,0
2277,79017.7507088246,2010-11-17 09:42:02,1500.7652022016496,7,7,-1.099568486213684,3.6528031826019287,6.944323641057922,6.441378118736025,27.70573622473164,23.6223538929718,-9.713172767078504e-05,0.0938397273421287,0,0,0
2278,79047.766239121,2010-11-17 09:42:32,1530.780732498043,7,7,-1.0997490882873535,3.64827036857605,6.944323641057922,6.450547190339903,27.70573622473164,23.6558252839882,-9.713172767078504e-05,0.0938397273421287,0,0,0
2279,79077.78134733882,2010-11-17 09:43:02,1560.7958407158635,7,7,-1.0997490882873535,3.643575668334961,6.944323641057922,6.459715983520992,27.70573622473164,23.689253705789564,-0.0001618862152099,0.0938397273421287,0,0,0
2280,79107.79660082926,2010-11-17 09:43:32,1590.8110942263572,7,7,-1.0997490882873535,3.639366626739502,6.944323641057922,6.468884903592659,27.70573622473164,23.722642198749732,-0.0001295089750783,0.0938397273421287,0,0,0
2281,79137.81202402833,2010-11-17 09:44:02,1620.8265174153946,7,7,-1.099568486213684,3.634995698928833,6.944323641057922,6.478053870242524,27.70573622473164,23.75599108548098,-9.713172767078504e-05,0.0938397273421287,0,0,0
2282,79167.82722273705,2010-11-17 09:44:32,1650.841716139132,7,7,-1.0997490882873535,3.630624771118164,6.944323641057922,6.487222723823643,27.70573622473164,23.7893002621073,-0.0001618862152099,0.0938397273421287,0,0,0
2283,79197.84253958061,2010-11-17 09:45:02,1680.857032977702,7,7,-1.0997490882873535,3.626739501953125,6.944323641057922,6.496391613669602,27.70573622473164,23.82257138082539,-9.713172767078504e-05,0.0938397273421287,0,0,0
2284,79227.8579421181,2010-11-17 09:45:32,1710.8724355202023,7,7,-1.099568486213684,3.622854232788086,6.944323641057922,6.505560562892677,27.70573622473164,23.855805495064683,-6.47544875391759e-05,0.0938397273421287,0,0,0
2285,79257.87312440581,2010-11-17 09:46:02,1740.8876178029002,7,7,-1.099568486213684,3.618807077407837,6.944323641057922,6.514729451041881,27.70573622473164,23.88900315916645,-9.713172767078504e-05,0.0938397273421287,0,0,0
2286,79287.88845101377,2010-11-17 09:46:32,1770.9029443908064,7,7,-1.099568486213684,3.614921808242798,6.944323641057922,6.5238984338651,27.70573622473164,23.92216499225094,-9.713172767078504e-05,0.0938397273421287,0,0,0
2287,79317.90378990237,2010-11-17 09:47:02,1800.9182832844292,7,7,-1.0997490882873535,3.611036539077759,6.944323641057922,6.533067379197956,27.70573622473164,23.955291818933265,-0.0001295089750783,0.0938397273421287,0,0,0
2288,79347.9190520745,2010-11-17 09:47:32,1830.933545451531,7,7,-1.0997490882873535,3.60747504234314,6.944323641057922,6.542236297896124,27.70573622473164,23.988384951361475,-9.713172767078504e-05,0.0938397273421287,0,0,0
2289,79377.93449126347,2010-11-17 09:48:02,1860.9489846405063,7,7,-1.099929690361023,3.603913545608521,6.944323641057922,6.551405229983727,27.70573622473164,24.02144546308436,-9.713172767078504e-05,0.0938397273421287,0,0,0
2290,79407.94968566643,2010-11-17 09:48:32,1890.9641790685207,7,7,-1.0997490882873535,3.6005139350891118,6.944323641057922,6.560574099059391,27.70573622473164,24.054473972877897,-0.0001295089750783,0.0938397273421287,0,0,0
2291,79437.96496587356,2010-11-17 09:49:02,1920.9794592505907,7,7,-1.099568486213684,3.597276210784912,6.944323641057922,6.56974304191396,27.70573622473164,24.08747195585916,-6.47544875391759e-05,0.0938397273421287,0,0,0
2292,79467.98027026605,2010-11-17 09:49:33,1950.9947636380807,7,7,-1.0997490882873535,3.593876600265503,6.944323641057922,6.578912009659721,27.70573622473164,24.120439650226547,-9.713172767078504e-05,0.0938397273421287,0,0,0
2293,79497.99558742542,2010-11-17 09:50:03,1981.0100808024647,7,7,-1.0997490882873535,3.5908010005950928,6.944323641057922,6.588081024085509,27.70573622473164,24.153378237552136,-9.713172767078504e-05,0.0938397273421287,0,0,0
2294,79528.0110444439,2010-11-17 09:50:33,2011.0255378209456,7,7,-1.0997490882873535,3.5877251625061035,6.944323641057922,6.597250054811264,27.70573622473164,24.18628840263036,-9.713172767078504e-05,0.0938397273421287,0,0,0
2295,79558.02618971422,2010-11-17 09:51:03,2041.0406830862423,7,7,-1.099568486213684,3.5844874382019043,6.944323641057922,6.606418949140966,27.70573622473164,24.21916963971113,-0.0001295089750783,0.0938397273421287,0,0,0
2296,79588.04149925959,2010-11-17 09:51:33,2071.05599263662,7,7,-1.099929690361023,3.581411600112915,6.944323641057922,6.615587881422277,27.70573622473164,24.252022883743912,-9.713172767078504e-05,0.0938397273421287,0,0,0
2297,79618.05695849359,2010-11-17 09:52:03,2101.071451895694,7,7,-1.0997490882873535,3.578497648239136,6.944323641057922,6.624756843003501,27.70573622473164,24.28484915427936,-9.713172767078504e-05,0.0938397273421287,0,0,0
2298,79648.07212478638,2010-11-17 09:52:33,2131.086618163416,7,7,-1.099568486213684,3.5757455825805664,6.944323641057922,6.633925847887917,27.70573622473164,24.31764859835549,-6.47544875391759e-05,0.0938397273421287,0,0,0
2299,79678.08753658198,2010-11-17 09:53:03,2161.102029948988,7,7,-1.0997490882873535,3.572831630706787,6.944323641057922,6.643094868061607,27.70573622473164,24.350421509555176,-9.713172767078504e-05,0.0938397273421287,0,0,0
2300,79708.10272804259,2010-11-17 09:53:33,2191.11722143967,7,7,-1.0997490882873535,3.5700795650482178,6.944323641057922,6.652263799012427,27.70573622473164,24.38316777677164,-6.47544875391759e-05,0.0938397273421287,0,0,0
2301,79738.11815965766,2010-11-17 09:54:03,2221.1326530346905,7,7,-1.099568486213684,3.5671656131744385,6.944323641057922,6.661432792620779,27.70573622473164,24.41588792177244,-3.237724376958795e-05,0.0938397273421287,0,0,0
2302,79768.13349048614,2010-11-17 09:54:33,2251.1479838681944,7,7,-1.0997490882873535,3.564251661300659,6.944323641057922,6.670601377274452,27.70573622473164,24.44858004847104,-6.47544875391759e-05,0.0938397273421287,0,0,0
2303,79798.14874207684,2010-11-17 09:55:03,2281.1632354538838,7,7,-1.099568486213684,3.56133770942688,6.944323641057922,6.679769575198089,27.70573622473164,24.481244168688853,-9.713172767078504e-05,0.0938397273421287,0,0,0
2304,79828.16394690583,2010-11-17 09:55:33,2311.17844028286,7,7,-1.099568486213684,3.5585856437683105,6.944323641057922,6.688937834513651,27.70573622473164,24.513881655631973,-6.47544875391759e-05,0.0938397273421287,0,0,0
2305,79858.1792284112,2010-11-17 09:56:03,2341.193721788233,7,7,-1.099929690361023,3.5553479194641118,6.944323641057922,6.698106054203746,27.70573622473164,24.546492126414066,-6.47544875391759e-05,0.0938397273421287,0,0,0
2306,79888.19454958556,2010-11-17 09:56:33,2371.209042962626,7,7,-1.0997490882873535,3.552272081375122,6.944323641057922,6.707274300115827,27.70573622473164,24.57907502095387,-0.0001295089750783,0.0938397273421287,0,0,0
2307,79918.20984578764,2010-11-17 09:57:03,2401.224339164684,7,7,-1.099568486213684,3.549196243286133,6.944323641057922,6.716442525968709,27.70573622473164,24.61162993961875,-0.0001295089750783,0.0938397273421287,0,0,0
2308,79948.22515942824,2010-11-17 09:57:33,2431.239652805272,7,7,-1.0997490882873535,3.546120405197144,6.944323641057922,6.725611078221568,27.70573622473164,24.64415705270775,-3.237724376958795e-05,0.0938397273421287,0,0,0
2309,79978.24047452246,2010-11-17 09:58:03,2461.2549678994874,7,7,-1.099568486213684,3.5428826808929443,6.944323641057922,6.734780025824539,27.70573622473164,24.67665652502447,-0.0001295089750783,0.0938397273421287,0,0,0
2310,80008.25578866428,2010-11-17 09:58:33,2491.270282041326,7,7,-1.0997490882873535,3.539644956588745,6.944323641057922,6.743948951422444,27.70573622473164,24.7091262466278,-9.713172767078504e-05,0.0938397273421287,0,0,0
2311,80038.27110175851,2010-11-17 09:59:03,2521.2855951556,7,7,-1.0997490882873535,3.536083459854126,6.944323641057922,6.753117847745225,27.70573622473164,24.7415647827576,-9.713172767078504e-05,0.0938397273421287,0,0,0
2312,80068.28638911349,2010-11-17 09:59:33,2551.3008824905246,7,7,-1.099568486213684,3.532683849334717,6.944323641057922,6.762286702901856,27.70573622473164,24.773971497424917,-3.237724376958795e-05,0.0938397273421287,0,0,0
2313,80098.301727967,2010-11-17 10:00:03,2581.3162213741225,7,7,-1.0997490882873535,3.5291223526000977,6.944323641057922,6.771455597415752,27.70573622473164,24.80634606098065,-9.713172767078504e-05,0.0938397273421287,0,0,0
2314,80128.31704189832,2010-11-17 10:00:33,2611.3315352753607,7,7,-1.0997490882873535,3.5255608558654785,6.944323641057922,6.780624493254732,27.70573622473164,24.838687284424942,-6.47544875391759e-05,0.0938397273421287,0,0,0
2315,80158.33232515807,2010-11-17 10:01:03,2641.346818535113,7,7,-1.0997490882873535,3.5216755867004395,6.944323641057922,6.789793366375228,27.70573622473164,24.870993907928828,-6.47544875391759e-05,0.0938397273421287,0,0,0
2316,80188.34762701926,2010-11-17 10:01:33,2671.3621204013093,7,7,-1.099929690361023,3.5174665451049805,6.944323641057922,6.798962230354547,27.70573622473164,24.903264867531107,-0.0001295089750783,0.0938397273421287,0,0,0
2317,80218.36293286037,2010-11-17 10:02:03,2701.3774262374154,7,7,-1.099568486213684,3.513257503509521,6.944323641057922,6.808131170690579,27.70573622473164,24.9354981141148,-9.713172767078504e-05,0.0938397273421287,0,0,0
2318,80248.37828506222,2010-11-17 10:02:33,2731.3927784593084,7,7,-1.099929690361023,3.5087249279022217,6.944323641057922,6.817300018031416,27.70573622473164,24.96769126205238,-0.0001618862152099,0.0938397273421287,0,0,0
2319,80278.39355168043,2010-11-17 10:03:03,2761.40804505747,7,7,-1.0997490882873535,3.5041921138763428,6.944323641057922,6.82646886914142,27.70573622473164,24.99984187931789,-9.713172767078504e-05,0.0938397273421287,0,0,0
2320,80308.40885367194,2010-11-17 10:03:33,2791.4233470489803,7,7,-1.0997490882873535,3.499011754989624,6.944323641057922,6.835637762562745,27.70573622473164,25.031947517455936,-0.0001295089750783,0.0938397273421287,0,0,0
2321,80338.4242985802,2010-11-17 10:04:03,2821.438791962244,7,7,-1.099568486213684,3.4935076236724854,6.944323641057922,6.844806742445214,27.70573622473164,25.06400508591567,-0.0001295089750783,0.0938397273421287,0,0,0
2322,80368.43948221627,2010-11-17 10:04:33,2851.4539755983205,7,7,-1.099568486213684,3.487517833709717,6.944323641057922,6.853975609141716,27.70573622473164,25.096009296546985,-0.0001618862152099,0.0938397273421287,0,0,0
2323,80398.45490246294,2010-11-17 10:05:03,2881.469395834988,7,7,-1.0997490882873535,3.4803948402404785,6.944323641057922,6.863144485270234,27.70573622473164,25.127954790365177,-0.0001942634553415,0.0938397273421287,0,0,0
2324,80428.47009420428,2010-11-17 10:05:33,2911.4845875813085,7,7,-1.099568486213684,3.4727861881256104,6.944323641057922,6.872313253461921,27.70573622473164,25.159832567819056,-0.0002266406954731,0.0938397273421287,0,0,0
2325,80458.48540865188,2010-11-17 10:06:03,2941.499902048961,7,7,-1.0997490882873535,3.4635586738586426,6.944323641057922,6.881482121285055,27.70573622473164,25.19163321782899,-0.0002590179501567,0.0938397273421287,0,0,0
2326,80488.50081847253,2010-11-17 10:06:33,2971.515311874641,7,7,-1.099568486213684,3.452550411224365,6.944323641057922,6.890650999657433,27.70573622473164,25.22334131821485,-0.0003237724304199,0.0938397273421287,0,0,0
2327,80518.51597419391,2010-11-17 10:07:03,3001.530467596038,7,7,-1.0997490882873535,3.4387900829315186,6.944323641057922,6.899819826717793,27.70573622473164,25.254936371219102,-0.0004209041653666,0.0938397273421287,0,0,0
2328,80548.5315838785,2010-11-17 10:07:33,3031.546077275584,7,7,-1.0997490882873535,3.421468496322632,6.944323641057922,6.9089888149917424,27.70573622473164,25.28639094301485,-0.0005180359003134,0.0938397273421287,0,0,0
2329,80578.54662960532,2010-11-17 10:08:03,3061.561122982368,7,7,-1.0997490882873535,3.398642539978028,6.944323641057922,6.918157692003718,27.70573622473164,25.31766256802944,-0.0006799221155233,0.0938397273421287,0,0,0
2330,80608.56194191259,2010-11-17 10:08:33,3091.576435319702,7,7,-1.0997490882873535,3.3690173625946045,6.944323641057922,6.927326619839373,27.70573622473164,25.34869522520765,-0.0008741855854168,0.0938397273421287,0,0,0
2331,80638.5771845359,2010-11-17 10:09:03,3121.5916779129443,7,7,-1.099929690361023,3.3283841609954834,6.944323641057922,6.936495517426651,27.70573622473164,25.379409015227605,-0.0012627125252038,0.0938397273421287,0,0,0
2332,80668.59255781035,2010-11-17 10:09:33,3151.6070511923995,7,7,-1.0997490882873535,3.272857189178467,6.944323641057922,6.945664461918161,27.70573622473164,25.4096866560003,-0.0016836166614666,0.0938397273421287,0,0,0
2333,80698.60785382193,2010-11-17 10:10:03,3181.6223471989697,7,7,-1.0997490882873535,3.193695068359375,6.944323641057922,6.954833334347979,27.70573622473164,25.439354042276573,-0.0024930476211011,0.0938397273421287,0,0,0
2334,80728.6261861376,2010-11-17 10:10:33,3211.6406795998478,7,7,-1.0997490882873535,3.0732522010803223,6.944323641057922,6.964003224931872,27.70573622473164,25.468130424805967,-0.0038528919685631,0.0938397273421287,0,0,0
2335,80755.31039842172,2010-11-17 10:11:00,3238.3248917987594,7,7,-1.099568486213684,2.8731613159179688,6.944323641057922,6.972154578288339,27.70573622473164,25.492474064992464,-0.0082238195464015,0.0938397273421287,0,0,0
2336,80769.12293350931,2010-11-17 10:11:14,3252.1374268863437,7,7,-1.0997490882873535,2.699781894683838,6.944323641057922,6.976373989344703,27.70573622473164,25.504244193850795,-0.0106844427064061,0.0938397273421287,0,0,0
2337,80829.14181298939,2010-11-17 10:12:14,60.01495699573166,8,7,0.0,3.3240132331848145,6.944323641057922,6.976373989344703,27.70573622473164,25.504244193850795,0.0012303352123126,0.0938397273421287,0,0,0
2338,80829.32617687689,2010-11-17 10:12:14,0.187410841292303,9,7,-1.9243103452026844e-05,3.3243370056152344,6.944323641057922,6.976373990346471,27.70573622473164,25.50424419718101,0.0,0.0931148082017898,0,0,0
2339,80834.15442708721,2010-11-17 10:12:19,5.01566108170009,9,7,0.0008838032954372,3.3317837715148926,6.944324469498689,6.976373990513908,27.70573898236072,25.50424419773812,0.0010684489971026,0.0931148082017898,0,0,0
