Data_Point,Test_Time(s),Date_Time,Step_Time(s),Step_Index,Cycle_Index,Current(A),Voltage(V),Charge_Capacity(Ah),Discharge_Capacity(Ah),Charge_Energy(Wh),Discharge_Energy(Wh),dV/dt(V/s),Internal_Resistance(Ohm),Is_FC_Data,AC_Impedance(Ohm),ACI_Phase_Angle(Deg)
8615,300200.4948289932,2010-11-19 23:08:48,30.015467279092817,1,27,0.0,3.355742692947388,25.66937025977271,25.69678726509693,102.48893989130134,93.73445509564516,0.0007122993702068,0.0938397273421287,0,0,0
8616,300230.5099745091,2010-11-19 23:09:18,60.030612790002735,1,27,0.0,3.3784067630767822,25.66937025977271,25.69678726509693,102.48893989130134,93.73445509564516,0.0005180359003134,0.0938397273421287,0,0,0
8617,300260.5253022348,2010-11-19 23:09:48,90.04594051574892,1,27,0.0,3.395404815673828,25.66937025977271,25.69678726509693,102.48893989130134,93.73445509564516,0.0003561496851034,0.0938397273421287,0,0,0
8618,300290.4937032042,2010-11-19 23:10:18,120.01434148509163,1,27,0.0,3.4094889163970947,25.66937025977271,25.69678726509693,102.48893989130134,93.73445509564516,0.0003237724304199,0.0938397273421287,0,0,0
8619,300320.5241047317,2010-11-19 23:10:48,30.015177325323595,2,27,0.550297200679779,3.572993516921997,25.673956957286048,25.69678726509693,102.5051545915752,93.73445509564516,0.0017159938579425,0.0938397273421287,0,0,0
8620,300350.5396520857,2010-11-19 23:11:18,60.03072469934567,2,27,0.5501165986061096,3.6241493225097656,25.67854371809316,25.69678726509693,102.52166709942098,93.73445509564516,0.0011655807029455,0.0938397273421287,0,0,0
8621,300380.55484505004,2010-11-19 23:11:48,90.04591764365667,2,27,0.5501165986061096,3.6615450382232666,25.68313040304987,25.69678726509693,102.53837917337628,93.73445509564516,0.0008741855854168,0.0938397273421287,0,0,0
8622,300410.5700224205,2010-11-19 23:12:18,120.06109501409288,2,27,0.550297200679779,3.691008090972901,25.68771710472861,25.69678726509693,102.55524316486532,93.73445509564516,0.0007122993702068,0.0938397273421287,0,0,0
8623,300440.5853954042,2010-11-19 23:12:48,150.07646799780994,2,27,0.5499359965324402,3.715129137039185,25.69230379056859,25.69678726509693,102.57222949150864,93.73445509564516,0.0006151676061563,0.0938397273421287,0,0,0
8624,300470.60254192,2010-11-19 23:13:18,180.09361451353573,2,27,0.5501165986061096,3.7353649139404297,25.696890743193144,25.69678726509693,102.58931832774218,93.73445509564516,0.0005180359003134,0.0938397273421287,0,0,0
8625,300500.6161640332,2010-11-19 23:13:48,210.10723663683572,2,27,0.5501165986061096,3.751715421676636,25.701477148695908,25.69678726509693,102.60648906139338,93.73445509564516,0.0003885269106831,0.0938397273421287,0,0,0
8626,300530.63125525863,2010-11-19 23:14:18,240.12232786224075,2,27,0.5501165986061096,3.763370990753174,25.706063731944816,25.69678726509693,102.62372533124964,93.73445509564516,0.0002590179501567,0.0938397273421287,0,0,0
8627,300560.6465641874,2010-11-19 23:14:48,270.1376367810419,2,27,0.5501165986061096,3.770655870437622,25.710650420281528,25.69678726509693,102.64100478747082,93.73445509564516,0.0001295089750783,0.0938397273421287,0,0,0
8628,300590.6618797378,2010-11-19 23:15:18,300.1529523313965,2,27,0.5499359965324402,3.775512456893921,25.715237137330867,25.69678726509693,102.65831141586597,93.73445509564516,9.713172767078504e-05,0.0938397273421287,0,0,0
8629,300620.67730171885,2010-11-19 23:15:48,330.16837432244336,2,27,0.5501165986061096,3.77972149848938,25.7198238740278,25.69678726509693,102.67563842927888,93.73445509564516,9.713172767078504e-05,0.0938397273421287,0,0,0
8630,300650.69267215615,2010-11-19 23:16:18,360.1837447547918,2,27,0.5499359965324402,3.783444881439209,25.72441055387492,25.69678726509693,102.6929833714419,93.73445509564516,9.713172767078504e-05,0.0938397273421287,0,0,0
8631,300680.7078111709,2010-11-19 23:16:48,390.1988837644736,2,27,0.5499359965324402,3.787168264389038,25.728997246700946,25.69678726509693,102.71034563345223,93.73445509564516,9.713172767078504e-05,0.0938397273421287,0,0,0
8632,300710.72600759735,2010-11-19 23:17:18,420.2170802210133,2,27,0.5501165986061096,3.790729761123657,25.73358446412521,25.69678726509693,102.72772643544069,93.73445509564516,6.47544875391759e-05,0.0938397273421287,0,0,0
8633,300740.7383942116,2010-11-19 23:17:48,450.2294668052176,2,27,0.5501165986061096,3.794291257858277,25.738170765977447,25.69678726509693,102.74511959998986,93.73445509564516,9.713172767078504e-05,0.0938397273421287,0,0,0
8634,300770.75373718044,2010-11-19 23:18:18,480.2448097740128,2,27,0.5501165986061096,3.797528982162476,25.74275748880632,25.69678726509693,102.76252989484593,93.73445509564516,9.713172767078504e-05,0.0938397273421287,0,0,0
8635,300800.76901381364,2010-11-19 23:18:48,510.26008640722426,2,27,0.5501165986061096,3.800766706466675,25.74734425461626,25.69678726509693,102.77995548137062,93.73445509564516,9.713172767078504e-05,0.0938397273421287,0,0,0
8636,300830.78433849674,2010-11-19 23:19:18,540.2754110953881,2,27,0.5501165986061096,3.803842544555664,25.751931014929205,25.69678726509693,102.7973957541557,93.73445509564516,6.47544875391759e-05,0.0938397273421287,0,0,0
8637,300860.7996998916,2010-11-19 23:19:48,570.2907724851649,2,27,0.550297200679779,3.807242155075073,25.75651773966753,25.69678726509693,102.8148503299696,93.73445509564516,0.0001618862152099,0.0938397273421287,0,0,0
8638,300890.8149279535,2010-11-19 23:20:18,600.306000547135,2,27,0.5501165986061096,3.810156106948853,25.761104513412977,25.69678726509693,102.83231937230217,93.73445509564516,9.713172767078504e-05,0.0938397273421287,0,0,0
8639,300920.83023788483,2010-11-19 23:20:48,630.3213104784635,2,27,0.5501165986061096,3.813231945037842,25.765691261788096,25.69678726509693,102.84980248278214,93.73445509564516,9.713172767078504e-05,0.0938397273421287,0,0,0
8640,300950.8455244328,2010-11-19 23:21:18,660.3365970314362,2,27,0.550297200679779,3.816469669342041,25.77027803209279,25.69678726509693,102.8673001625484,93.73445509564516,9.713172767078504e-05,0.0938397273421287,0,0,0
8641,300980.86083530146,2010-11-19 23:21:48,690.351907895092,2,27,0.5499359965324402,3.8195455074310303,25.77486475902475,25.69678726509693,102.88481191299618,93.73445509564516,6.47544875391759e-05,0.0938397273421287,0,0,0
8642,301010.8762777887,2010-11-19 23:22:18,720.3673503823004,2,27,0.550297200679779,3.82262134552002,25.779451508123618,25.69678726509693,102.90233828462652,93.73445509564516,9.713172767078504e-05,0.0938397273421287,0,0,0
8643,301040.8914384324,2010-11-19 23:22:48,750.3825110560592,2,27,0.5501165986061096,3.8260209560394287,25.784038186103032,25.69678726509693,102.91987922764602,93.73445509564516,6.47544875391759e-05,0.0938397273421287,0,0,0
8644,301070.90885192447,2010-11-19 23:23:18,780.3999245231366,2,27,0.550297200679779,3.829420566558838,25.788625219976403,25.69678726509693,102.937436789349,93.73445509564516,9.713172767078504e-05,0.0938397273421287,0,0,0
8645,301100.9220651421,2010-11-19 23:23:48,810.4131377457578,2,27,0.550297200679779,3.832820177078247,25.793211698968037,25.69678726509693,102.95500784950993,93.73445509564516,9.713172767078504e-05,0.0938397273421287,0,0,0
8646,301130.9373682965,2010-11-19 23:24:18,840.428440890145,2,27,0.5501165986061096,3.836219549179077,25.79779845509641,25.69678726509693,102.97259569655525,93.73445509564516,9.713172767078504e-05,0.0938397273421287,0,0,0
8647,301160.952674669,2010-11-19 23:24:48,870.4437472625901,2,27,0.5501165986061096,3.8396191596984863,25.80238525469561,25.69678726509693,102.99019971219626,93.73445509564516,9.713172767078504e-05,0.0938397273421287,0,0,0
8648,301190.9680171766,2010-11-19 23:25:18,900.4590897752468,2,27,0.550297200679779,3.843018770217896,25.806972153271225,25.69678726509693,103.00782006510111,93.73445509564516,6.47544875391759e-05,0.0938397273421287,0,0,0
8649,301220.98329847143,2010-11-19 23:25:48,930.4743710650816,2,27,0.5501165986061096,3.846580266952514,25.811559030041742,25.69678726509693,103.02545613712758,93.73445509564516,6.47544875391759e-05,0.0938397273421287,0,0,0
8650,301250.9987261617,2010-11-19 23:26:18,960.4897987553549,2,27,0.550297200679779,3.850141763687134,25.816145803973328,25.69678726509693,103.04310746921536,93.73445509564516,0.0001295089750783,0.0938397273421287,0,0,0
8651,301281.0140994763,2010-11-19 23:26:48,990.50517207491,2,27,0.5501165986061096,3.853217601776123,25.820732652130985,25.69678726509693,103.06077460706696,93.73445509564516,6.47544875391759e-05,0.0938397273421287,0,0,0
8652,301311.02921849606,2010-11-19 23:27:18,1020.5202910896816,2,27,0.550297200679779,3.856617212295532,25.82531942018867,25.69678726509693,103.07845654762964,93.73445509564516,6.47544875391759e-05,0.0938397273421287,0,0,0
8653,301341.044519034,2010-11-19 23:27:49,1050.5355916325752,2,27,0.5501165986061096,3.859854936599731,25.82990615932896,25.69678726509693,103.09615331430474,93.73445509564516,9.713172767078504e-05,0.0938397273421287,0,0,0
8654,301371.0599610149,2010-11-19 23:28:19,1080.5510336085074,2,27,0.5501165986061096,3.8629307746887207,25.83449290654284,25.69678726509693,103.11386461890751,93.73445509564516,6.47544875391759e-05,0.0938397273421287,0,0,0
8655,301401.0751313728,2010-11-19 23:28:49,1110.5662039664392,2,27,0.550297200679779,3.86616849899292,25.839079674311343,25.69678726509693,103.1315900457889,93.73445509564516,0.0001295089750783,0.0938397273421287,0,0,0
8656,301431.09059055167,2010-11-19 23:29:19,1140.5816631553378,2,27,0.5501165986061096,3.868920564651489,25.84366650372771,25.69678726509693,103.14932928272177,93.73445509564516,6.47544875391759e-05,0.0938397273421287,0,0,0
8657,301461.1057778419,2010-11-19 23:29:49,1170.5968504355103,2,27,0.5501165986061096,3.8716726303100586,25.84825326249046,25.69678726509693,103.1670811731884,93.73445509564516,9.713172767078504e-05,0.0938397273421287,0,0,0
8658,301491.12112346734,2010-11-19 23:30:19,1200.612196065949,2,27,0.5501165986061096,3.874100923538208,25.8528400663954,25.69678726509693,103.18484571674912,93.73445509564516,3.237724376958795e-05,0.0938397273421287,0,0,0
8659,301521.1363701307,2010-11-19 23:30:49,1230.6274427243388,2,27,0.5501165986061096,3.876691102981568,25.857426786167505,25.69678726509693,103.2026216624905,93.73445509564516,3.237724376958795e-05,0.0938397273421287,0,0,0
8660,301551.1516923728,2010-11-19 23:31:19,1260.642764976422,2,27,0.5501165986061096,3.879119396209717,25.862013613677163,25.69678726509693,103.22040926258543,93.73445509564516,3.237724376958795e-05,0.0938397273421287,0,0,0
8661,301581.166985828,2010-11-19 23:31:49,1290.6580584215983,2,27,0.5501165986061096,3.881385803222656,25.866600430366844,25.69678726509693,103.23820727577338,93.73445509564516,6.47544875391759e-05,0.0938397273421287,0,0,0
8662,301611.1823001553,2010-11-19 23:32:19,1320.6733727489002,2,27,0.550297200679779,3.8834903240203857,25.8711872074082,25.69678726509693,103.25601492493608,93.73445509564516,6.47544875391759e-05,0.0938397273421287,0,0,0
8663,301641.1976062269,2010-11-19 23:32:49,1350.6886788205943,2,27,0.5501165986061096,3.885432958602905,25.87577409780862,25.69678726509693,103.2738320991316,93.73445509564516,6.47544875391759e-05,0.0938397273421287,0,0,0
8664,301671.21482694295,2010-11-19 23:33:19,1380.7058995465604,2,27,0.5499359965324402,3.887051820755005,25.880361217902763,25.69678726509693,103.29165866659298,93.73445509564516,3.237724376958795e-05,0.0938397273421287,0,0,0
8665,301701.2282984102,2010-11-19 23:33:49,1410.7193710037748,2,27,0.550297200679779,3.888994455337525,25.884947769330346,25.69678726509693,103.30949100859957,93.73445509564516,6.47544875391759e-05,0.0938397273421287,0,0,0
8666,301731.24353128416,2010-11-19 23:34:19,1440.7346038777564,2,27,0.5501165986061096,3.890289545059204,25.88953462812473,25.69678726509693,103.32733207545422,93.73445509564516,3.237724376958795e-05,0.0938397273421287,0,0,0
8667,301761.258841832,2010-11-19 23:34:49,1470.749914425624,2,27,0.5501165986061096,3.891908407211304,25.89412140911991,25.69678726509693,103.34517996842152,93.73445509564516,3.237724376958795e-05,0.0938397273421287,0,0,0
8668,301791.27415905654,2010-11-19 23:35:19,1500.7652316501576,2,27,0.5501165986061096,3.893365383148194,25.898708243516936,25.69678726509693,103.36303491470858,93.73445509564516,3.237724376958795e-05,0.0938397273421287,0,0,0
8669,301821.28946271224,2010-11-19 23:35:49,1530.780535305821,2,27,0.5501165986061096,3.894822359085083,25.903295102703755,25.69678726509693,103.3808966052523,93.73445509564516,3.237724376958795e-05,0.0938397273421287,0,0,0
8670,301851.3047709743,2010-11-19 23:36:19,1560.7958435729956,2,27,0.550297200679779,3.8961174488067623,25.90788197619005,25.69678726509693,103.39876425837664,93.73445509564516,3.237724376958795e-05,0.0938397273421287,0,0,0
8671,301881.32007467013,2010-11-19 23:36:49,1590.8111472637468,2,27,0.5501165986061096,3.8974125385284415,25.91246877391864,25.69678726509693,103.41663812569593,93.73445509564516,0.0,0.0938397273421287,0,0,0
8672,301911.33547057107,2010-11-19 23:37:19,1620.8265431646687,2,27,0.5501165986061096,3.899031400680542,25.91705562959924,25.69678726509693,103.43451844937948,93.73445509564516,6.47544875391759e-05,0.0938397273421287,0,0,0
8673,301941.3507123322,2010-11-19 23:37:49,1650.841784950897,2,27,0.550297200679779,3.9003264904022217,25.921642445160625,25.69678726509693,103.4524048278186,93.73445509564516,6.47544875391759e-05,0.0938397273421287,0,0,0
8674,301971.3660459677,2010-11-19 23:38:19,1680.8571186114573,2,27,0.550297200679779,3.901621580123901,25.926229187892407,25.69678726509693,103.47029698390584,93.73445509564516,6.47544875391759e-05,0.0938397273421287,0,0,0
8675,302001.3813380044,2010-11-19 23:38:49,1710.8724105979925,2,27,0.5501165986061096,3.902754783630371,25.930815970362023,25.69678726509693,103.48819546446498,93.73445509564516,3.237724376958795e-05,0.0938397273421287,0,0,0
8676,302031.396637615,2010-11-19 23:39:19,1740.8877102085587,2,27,0.550297200679779,3.9042117595672607,25.935402797205537,25.69678726509693,103.5061002475148,93.73445509564516,3.237724376958795e-05,0.0938397273421287,0,0,0
8677,302061.41193375684,2010-11-19 23:39:49,1770.9030063504672,2,27,0.5501165986061096,3.905506849288941,25.939989657600183,25.69678726509693,103.5240112632334,93.73445509564516,3.237724376958795e-05,0.0938397273421287,0,0,0
8678,302091.42723871075,2010-11-19 23:40:19,1800.9183113043714,2,27,0.5501165986061096,3.90680193901062,25.944576463407188,25.69678726509693,103.54192818021096,93.73445509564516,0.0,0.0938397273421287,0,0,0
8679,302121.44261770946,2010-11-19 23:40:49,1830.9336903031028,2,27,0.5501165986061096,3.9080970287323,25.94916328247379,25.69678726509693,103.5598512995874,93.73445509564516,3.237724376958795e-05,0.0938397273421287,0,0,0
8680,302151.4578697012,2010-11-19 23:41:19,1860.948942294805,2,27,0.5501165986061096,3.9095540046691895,25.953750113790232,25.69678726509693,103.57778065397136,93.73445509564516,3.237724376958795e-05,0.0938397273421287,0,0,0
8681,302181.47316132684,2010-11-19 23:41:49,1890.96423392044,2,27,0.5501165986061096,3.910849094390869,25.95833693577194,25.69678726509693,103.5957161832312,93.73445509564516,3.237724376958795e-05,0.0938397273421287,0,0,0
8682,302211.4886072827,2010-11-19 23:42:19,1920.9796798813195,2,27,0.5501165986061096,3.912306070327759,25.96292369740691,25.69678726509693,103.61365770204684,93.73445509564516,3.237724376958795e-05,0.0938397273421287,0,0,0
8683,302241.50378986617,2010-11-19 23:42:49,1950.994862464768,2,27,0.5501165986061096,3.913762807846069,25.967510474697303,25.69678726509693,103.6316055886379,93.73445509564516,6.470680091297254e-05,0.0938397273421287,0,0,0
8684,302271.5210203314,2010-11-19 23:43:19,1981.012092935057,2,27,0.550297200679779,3.915219783782959,25.972097563644898,25.69678726509693,103.64956103780985,93.73445509564516,9.713172767078504e-05,0.0938397273421287,0,0,0
8685,302301.5344103604,2010-11-19 23:43:49,2011.025482953989,2,27,0.5499359965324402,3.916514873504639,25.97668412970075,25.69678726509693,103.66752068623632,93.73445509564516,3.237724376958795e-05,0.0938397273421287,0,0,0
8686,302331.54990871705,2010-11-19 23:44:19,2041.040981320681,2,27,0.5501165986061096,3.9178099632263184,25.98127098495197,25.69678726509693,103.6854879023726,93.73445509564516,6.47544875391759e-05,0.0938397273421287,0,0,0
8687,302361.565119536,2010-11-19 23:44:49,2071.056192154648,2,27,0.5501165986061096,3.919266939163208,25.9858577591455,25.69678726509693,103.70346121620618,93.73445509564516,6.47544875391759e-05,0.0938397273421287,0,0,0
8688,302391.58033601404,2010-11-19 23:45:19,2101.07140860764,2,27,0.5501165986061096,3.920562028884888,25.99044517795297,25.69678726509693,103.72144363168348,93.73445509564516,0.0,0.0938397273421287,0,0,0
8689,302421.5958606362,2010-11-19 23:45:49,2131.0869332298703,2,27,0.5501165986061096,3.922019004821777,25.99503269351281,25.69678726509693,103.7394329372592,93.73445509564516,0.0,0.0938397273421287,0,0,0
8690,302451.6109551248,2010-11-19 23:46:19,2161.10202771842,2,27,0.550297200679779,3.923637866973877,25.99962004510324,25.69678726509693,103.757428211054,93.73445509564516,6.47544875391759e-05,0.0938397273421287,0,0,0
8691,302481.6263087201,2010-11-19 23:46:49,2191.1173814240165,2,27,0.5499359965324402,3.9247710704803462,26.00420740562205,25.69678726509693,103.77543012733344,93.73445509564516,0.0,0.0938397273421287,0,0,0
8692,302511.6415794035,2010-11-19 23:47:19,2221.1326519971008,2,27,0.5499359965324402,3.926228046417236,26.00879415698964,25.69678726509693,103.79343619257948,93.73445509564516,0.0,0.0938397273421287,0,0,0
8693,302541.65707125387,2010-11-19 23:47:49,2251.1481438776023,2,27,0.550297200679779,3.928008794784546,26.013380907100203,25.69678726509693,103.81144896303137,93.73445509564516,6.47544875391759e-05,0.0938397273421287,0,0,0
8694,302571.67231286474,2010-11-19 23:48:19,2281.1633854683423,2,27,0.5499359965324402,3.9293038845062256,26.017967637816795,25.69678726509693,103.8294684037728,93.73445509564516,3.237724376958795e-05,0.0938397273421287,0,0,0
8695,302601.6876312371,2010-11-19 23:48:49,2311.178703830716,2,27,0.5501165986061096,3.9307608604431152,26.02255436790569,25.69678726509693,103.84749467787957,93.73445509564516,0.0,0.0938397273421287,0,0,0
8696,302631.7057026064,2010-11-19 23:49:19,2341.196775225081,2,27,0.5501165986061096,3.932217836380005,26.027141539553035,25.69678726509693,103.86552941666665,93.73445509564516,3.237724376958795e-05,0.0938397273421287,0,0,0
8697,302661.71812837844,2010-11-19 23:49:49,2371.209200992092,2,27,0.550297200679779,3.933836698532105,26.0317277657114,25.69678726509693,103.88356725446876,93.73445509564516,6.47544875391759e-05,0.0938397273421287,0,0,0
8698,302691.7334301795,2010-11-19 23:50:19,2401.224502773076,2,27,0.5501165986061096,3.935455560684204,26.03631447470566,25.69678726509693,103.90161385018564,93.73445509564516,9.713172767078504e-05,0.0938397273421287,0,0,0
8699,302721.74892257125,2010-11-19 23:50:49,2431.2399951899165,2,27,0.5501165986061096,3.936750650405884,26.040901240872216,25.69678726509693,103.9196675566065,93.73445509564516,6.47544875391759e-05,0.0938397273421287,0,0,0
8700,302751.7641309391,2010-11-19 23:51:19,2461.255203557727,2,27,0.550297200679779,3.938369512557984,26.04548797261655,25.69678726509693,103.93772824084895,93.73445509564516,3.237724376958795e-05,0.0938397273421287,0,0,0
8701,302781.7795194966,2010-11-19 23:51:49,2491.270592100281,2,27,0.5499359965324402,3.939826488494873,26.05007481130999,25.69678726509693,103.95579628905249,93.73445509564516,6.47544875391759e-05,0.0938397273421287,0,0,0
8702,302811.7948085609,2010-11-19 23:52:19,2521.28588117956,2,27,0.550297200679779,3.9414453506469727,26.05466159643658,25.69678726509693,103.97387119327884,93.73445509564516,6.47544875391759e-05,0.0938397273421287,0,0,0
8703,302841.8099851544,2010-11-19 23:52:49,2551.301057747994,2,27,0.550297200679779,3.9429023265838623,26.059248284467618,25.69678726509693,103.9919527303078,93.73445509564516,3.237724376958795e-05,0.0938397273421287,0,0,0
8704,302871.8271864117,2010-11-19 23:53:19,2581.318259035438,2,27,0.5501165986061096,3.944521188735962,26.063835304792725,25.69678726509693,104.0100428206579,93.73445509564516,3.237724376958795e-05,0.0938397273421287,0,0,0
8705,302901.8407903848,2010-11-19 23:53:49,2611.3318629833702,2,27,0.5499359965324402,3.9461400508880615,26.06842178895377,25.69678726509693,104.0281380652323,93.73445509564516,3.237724376958795e-05,0.0938397273421287,0,0,0
8706,302931.8560438,2010-11-19 23:54:19,2641.3471164236885,2,27,0.5501165986061096,3.947758913040161,26.07300857774068,25.69678726509693,104.04624167340982,93.73445509564516,6.47544875391759e-05,0.0938397273421287,0,0,0
8707,302961.8712968293,2010-11-19 23:54:49,2671.362369447968,2,27,0.5499359965324402,3.949215888977051,26.077595257914567,25.69678726509693,104.06435219863918,93.73445509564516,3.237724376958795e-05,0.0938397273421287,0,0,0
8708,302991.88658447,2010-11-19 23:55:19,2701.377657088656,2,27,0.5501165986061096,3.9508347511291504,26.08218194929944,25.69678726509693,104.08247005921356,93.73445509564516,0.0,0.0938397273421287,0,0,0
8709,303021.9018865417,2010-11-19 23:55:49,2731.392959160365,2,27,0.5501165986061096,3.95245361328125,26.086768665757,25.69678726509693,104.10059537371446,93.73445509564516,3.237724376958795e-05,0.0938397273421287,0,0,0
8710,303051.9171436712,2010-11-19 23:56:19,2761.408216274855,2,27,0.5501165986061096,3.9540724754333496,26.091355368323484,25.69678726509693,104.11872807906526,93.73445509564516,3.237724376958795e-05,0.0938397273421287,0,0,0
8711,303081.9324937628,2010-11-19 23:56:49,2791.42356636643,2,27,0.550297200679779,3.955853223800659,26.09594212973775,25.69678726509693,104.13686856604212,93.73445509564516,6.47544875391759e-05,0.0938397273421287,0,0,0
8712,303111.94784295216,2010-11-19 23:57:19,2821.43891555074,2,27,0.5501165986061096,3.957310199737549,26.10052882575232,25.69678726509693,104.15501629744976,93.73445509564516,3.237724376958795e-05,0.0938397273421287,0,0,0
8713,303141.9631193648,2010-11-19 23:57:49,2851.4541919784383,2,27,0.5501165986061096,3.9590909481048575,26.105115492808533,25.69678726509693,104.1731715509764,93.73445509564516,3.237724376958795e-05,0.0938397273421287,0,0,0
8714,303171.97861196706,2010-11-19 23:58:19,2881.4696845707167,2,27,0.5501165986061096,3.960709810256958,26.109702180664137,25.69678726509693,104.19133458838913,93.73445509564516,3.237724376958795e-05,0.0938397273421287,0,0,0
8715,303201.9937563251,2010-11-19 23:58:49,2911.484828933761,2,27,0.550297200679779,3.962490558624268,26.114288912333425,25.69678726509693,104.20950563612531,93.73445509564516,6.47544875391759e-05,0.0938397273421287,0,0,0
8716,303232.0090665572,2010-11-19 23:59:19,2941.5001391508035,2,27,0.5499359965324402,3.964271306991577,26.118875625809988,25.69678726509693,104.2276844791505,93.73445509564516,3.237724376958795e-05,0.0938397273421287,0,0,0
8717,303262.02448598685,2010-11-19 23:59:50,2971.5155585904813,2,27,0.5501165986061096,3.9658901691436768,26.123462344179018,25.69678726509693,104.2458713069024,93.73445509564516,3.237724376958795e-05,0.0938397273421287,0,0,0
8718,303292.0396729161,2010-11-20 00:00:20,3001.5307455298034,2,27,0.5501165986061096,3.967509031295776,26.128049050914075,25.69678726509693,104.26406606370324,93.73445509564516,0.0,0.0938397273421287,0,0,0
8719,303322.0549891532,2010-11-20 00:00:50,3031.546061766872,2,27,0.5501165986061096,3.969451665878296,26.132635775151453,25.69678726509693,104.28226895558532,93.73445509564516,3.237724376958795e-05,0.0938397273421287,0,0,0
8720,303352.0702028844,2010-11-20 00:01:20,3061.5612754780204,2,27,0.5501165986061096,3.9712324142456055,26.13722246290984,25.69678726509693,104.30047981404574,93.73445509564516,6.47544875391759e-05,0.0938397273421287,0,0,0
8721,303382.08563768247,2010-11-20 00:01:50,3091.576710276035,2,27,0.550297200679779,3.973175048828125,26.14180916898563,25.69678726509693,104.3186989479032,93.73445509564516,6.47544875391759e-05,0.0938397273421287,0,0,0
8722,303412.10089060146,2010-11-20 00:02:20,3121.591963220115,2,27,0.5501165986061096,3.9749557971954346,26.14639582344649,25.69678726509693,104.33692616073353,93.73445509564516,6.47544875391759e-05,0.0938397273421287,0,0,0
8723,303442.11622786097,2010-11-20 00:02:50,3151.6073004696336,2,27,0.550297200679779,3.976736545562744,26.150982480937067,25.69678726509693,104.3551617217392,93.73445509564516,3.237724376958795e-05,0.0938397273421287,0,0,0
8724,303472.13342534896,2010-11-20 00:03:20,3181.624497947569,2,27,0.5504778623580933,3.9785172939300537,26.155569490992388,25.69678726509693,104.37340672269296,93.73445509564516,9.713172767078504e-05,0.0938397273421287,0,0,0
8725,303502.14684747806,2010-11-20 00:03:50,3211.6379201017157,2,27,0.5501165986061096,3.980459928512573,26.16015574089347,25.69678726509693,104.39165766031849,93.73445509564516,3.237724376958795e-05,0.0938397273421287,0,0,0
8726,303532.1621543617,2010-11-20 00:04:20,3241.653226975412,2,27,0.5501165986061096,3.9824025630950928,26.164742375454303,25.69678726509693,104.40991877890863,93.73445509564516,3.237724376958795e-05,0.0938397273421287,0,0,0
8727,303562.17746046855,2010-11-20 00:04:50,3271.668533082194,2,27,0.5501165986061096,3.9841833114624015,26.16932900364851,25.69678726509693,104.42818853239858,93.73445509564516,3.237724376958795e-05,0.0938397273421287,0,0,0
8728,303592.19286438444,2010-11-20 00:05:20,3301.6839369830845,2,27,0.5499359965324402,3.985964059829712,26.17391565206266,25.69678726509693,104.4464672083258,93.73445509564516,0.0,0.0938397273421287,0,0,0
8729,303622.20809121337,2010-11-20 00:05:50,3331.699163822002,2,27,0.5501165986061096,3.9880685806274414,26.178502282209266,25.69678726509693,104.46475477764363,93.73445509564516,3.237724376958795e-05,0.0938397273421287,0,0,0
8730,303652.2233945081,2010-11-20 00:06:20,3361.714467096714,2,27,0.550297200679779,3.990173101425171,26.183088924367944,25.69678726509693,104.48305129290672,93.73445509564516,3.237724376958795e-05,0.0938397273421287,0,0,0
8731,303682.2387117978,2010-11-20 00:06:50,3391.7297843864108,2,27,0.5501165986061096,3.9921157360076895,26.18767555060048,25.69678726509693,104.50135696144768,93.73445509564516,3.237724376958795e-05,0.0938397273421287,0,0,0
8732,303712.25403162383,2010-11-20 00:07:20,3421.745104222463,2,27,0.5501165986061096,3.994220018386841,26.192262231442875,25.69678726509693,104.51967214135288,93.73445509564516,6.470680091297254e-05,0.0938397273421287,0,0,0
8733,303742.2694578304,2010-11-20 00:07:50,3451.760530434045,2,27,0.5501165986061096,3.9963245391845694,26.19684888398131,25.69678726509693,104.53799658724937,93.73445509564516,9.713172767078504e-05,0.0938397273421287,0,0,0
8734,303772.2847660725,2010-11-20 00:08:20,3481.775838666132,2,27,0.5501165986061096,3.9984290599823,26.20143559314199,25.69678726509693,104.55633075260457,93.73445509564516,9.713172767078504e-05,0.0938397273421287,0,0,0
8735,303802.30016102607,2010-11-20 00:08:50,3511.791233629714,2,27,0.5497553944587708,4.000209808349609,26.206022242816218,25.69678726509693,104.57467404963384,93.73445509564516,6.47544875391759e-05,0.0938397273421287,0,0,0
8736,303832.3152794694,2010-11-20 00:09:20,3541.806352053009,2,27,0.5501165986061096,4.002314567565918,26.21060880448916,25.69678726509693,104.593026780786,93.73445509564516,3.24249267578125e-05,0.0938397273421287,0,0,0
8737,303862.33061219763,2010-11-20 00:09:50,3571.8216848012926,2,27,0.5499359965324402,4.004580974578857,26.215195467702262,25.69678726509693,104.61138970127408,93.73445509564516,6.47544875391759e-05,0.0938397273421287,0,0,0
8738,303892.3459052669,2010-11-20 00:10:20,3601.836977875543,2,27,0.5499359965324402,4.006685256958008,26.219782050027703,25.69678726509693,104.62976212575546,93.73445509564516,3.23295607813634e-05,0.0938397273421287,0,0,0
8739,303922.3612120554,2010-11-20 00:10:50,3631.85228466904,2,27,0.550297200679779,4.008951663970947,26.22436871632577,25.69678726509693,104.64814489854436,93.73445509564516,3.23295607813634e-05,0.0938397273421287,0,0,0
8740,303952.37667831697,2010-11-20 00:11:20,3661.867750910541,2,27,0.5501165986061096,4.011218070983887,26.228955391887947,25.69678726509693,104.66653772437196,93.73445509564516,9.70840483205393e-05,0.0938397273421287,0,0,0
8741,303982.3918767349,2010-11-20 00:11:50,3691.8829493485655,2,27,0.5501165986061096,4.013484477996826,26.23354203669843,25.69678726509693,104.68494058238188,93.73445509564516,6.47544875391759e-05,0.0938397273421287,0,0,0
8742,304012.40729656053,2010-11-20 00:12:20,3721.898369249396,2,27,0.5501165986061096,4.015750885009766,26.23812866876257,25.69678726509693,104.70335364799038,93.73445509564516,9.70840483205393e-05,0.0938397273421287,0,0,0
8743,304042.4224679511,2010-11-20 00:12:50,3751.913540559705,2,27,0.5499359965324402,4.017855644226074,26.24271525194802,25.69678726509693,104.72177700763304,93.73445509564516,3.24249267578125e-05,0.0938397273421287,0,0,0
8744,304072.4396654741,2010-11-20 00:13:20,3781.930738072728,2,27,0.5501165986061096,4.020445823669434,26.24730225466267,25.69678726509693,104.7402125872606,93.73445509564516,9.71794142969884e-05,0.0938397273421287,0,0,0
8745,304102.45310077106,2010-11-20 00:13:50,3811.9441734699312,2,27,0.5501165986061096,4.022550106048584,26.251888580698733,25.69678726509693,104.75865617829156,93.73445509564516,6.47544875391759e-05,0.0938397273421287,0,0,0
8746,304132.4685476843,2010-11-20 00:14:20,3841.959620292962,2,27,0.550297200679779,4.0249786376953125,26.25647516219585,25.69678726509693,104.77711152939148,93.73445509564516,9.71794142969884e-05,0.0938397273421287,0,0,0
8747,304162.4837205585,2010-11-20 00:14:50,3871.974793172188,2,27,0.5501165986061096,4.027245044708252,26.26106179633205,25.69678726509693,104.79557796384286,93.73445509564516,6.47544875391759e-05,0.0938397273421287,0,0,0
8748,304192.49917198805,2010-11-20 00:15:20,3901.990244591692,2,27,0.5501165986061096,4.029673099517822,26.2656484355696,25.69678726509693,104.8140552473497,93.73445509564516,3.23295607813634e-05,0.0938397273421287,0,0,0
8749,304222.51451952325,2010-11-20 00:15:50,3932.005592116861,2,27,0.5501165986061096,4.032101631164551,26.270235057006577,25.69678726509693,104.8325434290234,93.73445509564516,6.47544875391759e-05,0.0938397273421287,0,0,0
8750,304252.52964744525,2010-11-20 00:16:20,3962.020720058916,2,27,0.5501165986061096,4.034529685974121,26.274821621386828,25.69678726509693,104.85104250498684,93.73445509564516,9.70840483205393e-05,0.0938397273421287,0,0,0
8751,304282.5449669154,2010-11-20 00:16:50,3992.036039529056,2,27,0.550297200679779,4.036957740783691,26.27940818971585,25.69678726509693,104.8695527410555,93.73445509564516,6.47544875391759e-05,0.0938397273421287,0,0,0
8752,304312.5602954732,2010-11-20 00:17:20,4022.0513680768536,2,27,0.5501165986061096,4.039547920227051,26.283994822020404,25.69678726509693,104.88807462294966,93.73445509564516,6.47544875391759e-05,0.0938397273421287,0,0,0
8753,304342.5758168323,2010-11-20 00:17:50,4052.066889435938,2,27,0.550297200679779,4.041976451873779,26.28858143986228,25.69678726509693,104.90660767952038,93.73445509564516,6.47544875391759e-05,0.0938397273421287,0,0,0
8754,304372.5909130552,2010-11-20 00:18:20,4082.0819856738553,2,27,0.5501165986061096,4.04440450668335,26.293167968272463,25.69678726509693,104.92515188925684,93.73445509564516,6.47544875391759e-05,0.0938397273421287,0,0,0
8755,304402.60626177833,2010-11-20 00:18:50,4112.097334392001,2,27,0.5501165986061096,4.046994686126709,26.297754598579008,25.69678726509693,104.94370811807416,93.73445509564516,6.47544875391759e-05,0.0938397273421287,0,0,0
8756,304432.62160583487,2010-11-20 00:19:20,4142.112678423449,2,27,0.550297200679779,4.049584865570068,26.30234118852295,25.69678726509693,104.96227594906482,93.73445509564516,6.47544875391759e-05,0.0938397273421287,0,0,0
8757,304462.6369686281,2010-11-20 00:19:50,4172.128041246804,2,27,0.550297200679779,4.052337169647217,26.306927829335308,25.69678726509693,104.9808558547376,93.73445509564516,0.0001295089750783,0.0938397273421287,0,0,0
8758,304492.65227976744,2010-11-20 00:20:20,4202.14335237111,2,27,0.550297200679779,4.055088996887207,26.311514447670145,25.69678726509693,104.99944770629928,93.73445509564516,0.0001295089750783,0.0938397273421287,0,0,0
8759,304522.6674770125,2010-11-20 00:20:50,4232.158549631196,2,27,0.5501165986061096,4.057517528533936,26.31610105312733,25.69678726509693,105.01805162448424,93.73445509564516,6.47544875391759e-05,0.0938397273421287,0,0,0
8760,304552.6844525665,2010-11-20 00:21:20,4262.175525190187,2,27,0.5501165986061096,4.060107707977295,26.320687923955244,25.69678726509693,105.03666882698394,93.73445509564516,6.47544875391759e-05,0.0938397273421287,0,0,0
8761,304582.698159707,2010-11-20 00:21:50,4292.189232410902,2,27,0.5501165986061096,4.062859535217285,26.32527430316679,25.69678726509693,105.05529594686844,93.73445509564516,9.70840483205393e-05,0.0938397273421287,0,0,0
8762,304612.71341607464,2010-11-20 00:22:20,4322.204488688303,2,27,0.5501165986061096,4.065288066864014,26.329860912127955,25.69678726509693,105.0739364249544,93.73445509564516,6.47544875391759e-05,0.0938397273421287,0,0,0
8763,304642.72880257707,2010-11-20 00:22:50,4352.219875175728,2,27,0.5499359965324402,4.068363666534424,26.334447563080047,25.69678726509693,105.09258954781257,93.73445509564516,9.70840483205393e-05,0.0938397273421287,0,0,0
8764,304672.74584114336,2010-11-20 00:23:20,4382.236913747007,2,27,0.550297200679779,4.070953845977783,26.3390344856668,25.69678726509693,105.11125641509636,93.73445509564516,3.23295607813634e-05,0.0938397273421287,0,0,0
8765,304702.7593565403,2010-11-20 00:23:50,4412.250429153926,2,27,0.5501165986061096,4.073706150054932,26.34362080445728,25.69678726509693,105.12993348207316,93.73445509564516,6.47544875391759e-05,0.0938397273421287,0,0,0
8766,304732.77479381947,2010-11-20 00:24:20,4442.265866413085,2,27,0.5501165986061096,4.076457977294922,26.34820744519635,25.69678726509693,105.1486247999452,93.73445509564516,6.47544875391759e-05,0.0938397273421287,0,0,0
8767,304762.7901081568,2010-11-20 00:24:50,4472.281180775474,2,27,0.5499359965324402,4.079371929168701,26.352794120006937,25.69678726509693,105.16732924240608,93.73445509564516,6.47544875391759e-05,0.0938397273421287,0,0,0
8768,304792.8053198429,2010-11-20 00:25:20,4502.296392456555,2,27,0.5501165986061096,4.0822858810424805,26.357380716992825,25.69678726509693,105.18604645361047,93.73445509564516,6.47544875391759e-05,0.0938397273421287,0,0,0
8769,304822.82060467656,2010-11-20 00:25:50,4532.311677300261,2,27,0.5501165986061096,4.08519983291626,26.36196729863168,25.69678726509693,105.2047767677509,93.73445509564516,9.70840483205393e-05,0.0938397273421287,0,0,0
8770,304852.8361035596,2010-11-20 00:26:20,4562.327176163192,2,27,0.5501165986061096,4.088113784790039,26.366553938078155,25.69678726509693,105.22352060871336,93.73445509564516,9.70840483205393e-05,0.0938397273421287,0,0,0
8771,304882.8512342234,2010-11-20 00:26:50,4592.342306842079,2,27,0.5501165986061096,4.091027736663818,26.37114049503859,25.69678726509693,105.24227756144457,93.73445509564516,3.23295607813634e-05,0.0938397273421287,0,0,0
8772,304912.86655871605,2010-11-20 00:27:20,4622.357631309692,2,27,0.5499359965324402,4.093941688537598,26.37572712956813,25.69678726509693,105.2610484071756,93.73445509564516,6.47544875391759e-05,0.0938397273421287,0,0,0
8773,304942.8818802363,2010-11-20 00:27:50,4652.372952834961,2,27,0.5501165986061096,4.096855640411377,26.38031371895792,25.69678726509693,105.27983273526628,93.73445509564516,6.47544875391759e-05,0.0938397273421287,0,0,0
8774,304972.89720844326,2010-11-20 00:28:20,4682.388281046921,2,27,0.5501165986061096,4.099931716918945,26.38490033805081,25.69678726509693,105.29863091568475,93.73445509564516,6.47544875391759e-05,0.0938397273421287,0,0,0
8775,305002.91250275064,2010-11-20 00:28:50,4712.403575354249,2,27,0.5501165986061096,4.1031694412231445,26.38948692006231,25.69678726509693,105.31744277651347,93.73445509564516,6.47544875391759e-05,0.0938397273421287,0,0,0
8776,305032.927840767,2010-11-20 00:29:20,4742.418913390733,2,27,0.5501165986061096,4.105921268463135,26.394073560710883,25.69678726509693,105.33626889717613,93.73445509564516,3.23295607813634e-05,0.0938397273421287,0,0,0
8777,305062.9431967032,2010-11-20 00:29:50,4772.434269316872,2,27,0.5501165986061096,4.109158992767334,26.39866014454138,25.69678726509693,105.3551087720453,93.73445509564516,6.47544875391759e-05,0.0938397273421287,0,0,0
8778,305092.9585652157,2010-11-20 00:30:20,4802.449637834441,2,27,0.550297200679779,4.112235069274902,26.403246702466284,25.69678726509693,105.3739627417641,93.73445509564516,9.71794142969884e-05,0.0938397273421287,0,0,0
8779,305122.9738766959,2010-11-20 00:30:50,4832.464949314635,2,27,0.5499359965324402,4.1153106689453125,26.407833253756504,25.69678726509693,105.39283087804722,93.73445509564516,6.47544875391759e-05,0.0938397273421287,0,0,0
8780,305152.98908201617,2010-11-20 00:31:20,4862.480154634839,2,27,0.550297200679779,4.118548393249512,26.412419841628868,25.69678726509693,105.41171365297994,93.73445509564516,9.71794142969884e-05,0.0938397273421287,0,0,0
8781,305183.0044124637,2010-11-20 00:31:51,4892.495485087391,2,27,0.5501165986061096,4.121786117553711,26.417006454522504,25.69678726509693,105.43061109389124,93.73445509564516,6.47544875391759e-05,0.0938397273421287,0,0,0
8782,305213.0197129214,2010-11-20 00:32:21,4922.510785530035,2,27,0.5497553944587708,4.124861717224121,26.42159310131402,25.69678726509693,105.44952334792924,93.73445509564516,6.47544875391759e-05,0.0938397273421287,0,0,0
8783,305243.03501160967,2010-11-20 00:32:51,4952.526084228324,2,27,0.550297200679779,4.12809944152832,26.426179760506862,25.69678726509693,105.46845038153728,93.73445509564516,3.23295607813634e-05,0.0938397273421287,0,0,0
8784,305273.05235937773,2010-11-20 00:33:21,4982.543432086632,2,27,0.5501165986061096,4.13133716583252,26.43076668457616,25.69678726509693,105.48739332998804,93.73445509564516,6.47544875391759e-05,0.0938397273421287,0,0,0
8785,305303.0656394672,2010-11-20 00:33:51,5012.556712085937,2,27,0.5499359965324402,4.134574890136719,26.43535299510093,25.69678726509693,105.50634871694828,93.73445509564516,9.70840483205393e-05,0.0938397273421287,0,0,0
8786,305333.0809454237,2010-11-20 00:34:21,5042.572018022294,2,27,0.5501165986061096,4.137974739074707,26.43993965261624,25.69678726509693,105.52532071235304,93.73445509564516,6.47544875391759e-05,0.0938397273421287,0,0,0
8787,305363.0962713649,2010-11-20 00:34:51,5072.587343978624,2,27,0.5499359965324402,4.141374111175537,26.444526305511296,25.69678726509693,105.5443079197328,93.73445509564516,9.70840483205393e-05,0.0938397273421287,0,0,0
8788,305393.11159147165,2010-11-20 00:35:21,5102.602664090365,2,27,0.5499359965324402,4.144611835479736,26.44911303525503,25.69678726509693,105.56331073851432,93.73445509564516,6.47544875391759e-05,0.0938397273421287,0,0,0
8789,305423.126896596,2010-11-20 00:35:51,5132.617969199657,2,27,0.5501165986061096,4.148173332214356,26.453699653745645,25.69678726509693,105.58232885218922,93.73445509564516,9.70840483205393e-05,0.0938397273421287,0,0,0
8790,305453.14224687807,2010-11-20 00:36:21,5162.633319496744,2,27,0.5499359965324402,4.151573181152344,26.45828630572808,25.69678726509693,105.60136271227944,93.73445509564516,9.71794142969884e-05,0.0938397273421287,0,0,0
8791,305483.15759157616,2010-11-20 00:36:51,5192.648664179817,2,27,0.5501165986061096,4.155134677886963,26.46287293945401,25.69678726509693,105.62041223749728,93.73445509564516,0.0001295089750783,0.0938397273421287,0,0,0
8792,305513.1728578485,2010-11-20 00:37:21,5222.663930467205,2,27,0.5501165986061096,4.158534049987793,26.467459485129464,25.69678726509693,105.6394772529808,93.73445509564516,6.47544875391759e-05,0.0938397273421287,0,0,0
8793,305543.18816530873,2010-11-20 00:37:51,5252.679237912327,2,27,0.5501165986061096,4.161933898925781,26.472046070219665,25.69678726509693,105.65855840250964,93.73445509564516,6.47544875391759e-05,0.0938397273421287,0,0,0
8794,305573.2034663428,2010-11-20 00:38:21,5282.694538941435,2,27,0.5501165986061096,4.1654953956604,26.476632638654973,25.69678726509693,105.67765554133172,93.73445509564516,9.71794142969884e-05,0.0938397273421287,0,0,0
8795,305603.21879234427,2010-11-20 00:38:51,5312.709864937864,2,27,0.550297200679779,4.16905689239502,26.48121923883602,25.69678726509693,105.69676906483372,93.73445509564516,9.71794142969884e-05,0.0938397273421287,0,0,0
8796,305633.2341115186,2010-11-20 00:39:21,5342.725184137327,2,27,0.550297200679779,4.172618389129639,26.48580587541834,25.69678726509693,105.7158990400088,93.73445509564516,9.71794142969884e-05,0.0938397273421287,0,0,0
8797,305663.249414658,2010-11-20 00:39:51,5372.74048727169,2,27,0.5499359965324402,4.176017761230469,26.490392487191595,25.69678726509693,105.73504535372828,93.73445509564516,3.23295607813634e-05,0.0938397273421287,0,0,0
8798,305693.26479805773,2010-11-20 00:40:21,5402.755870666394,2,27,0.5499359965324402,4.179741382598877,26.494979024692,25.69678726509693,105.75420791248884,93.73445509564516,9.71794142969884e-05,0.0938397273421287,0,0,0
8799,305723.2800450019,2010-11-20 00:40:51,5432.771117620522,2,27,0.5501165986061096,4.183464527130127,26.49956555989116,25.69678726509693,105.77338699516103,93.73445509564516,9.70840483205393e-05,0.0938397273421287,0,0,0
8800,305753.2954938098,2010-11-20 00:41:21,5462.786566403446,2,27,0.5501165986061096,4.186864376068115,26.504152762238967,25.69678726509693,105.79258553310976,93.73445509564516,6.47544875391759e-05,0.0938397273421287,0,0,0
8801,305783.31067721534,2010-11-20 00:41:51,5492.801749813959,2,27,0.5501165986061096,4.190749645233154,26.50874014152491,25.69678726509693,105.81180172462788,93.73445509564516,0.0001295089750783,0.0938397273421287,0,0,0
8802,305813.32600601873,2010-11-20 00:42:21,5522.817078612383,2,27,0.5501165986061096,4.194472789764404,26.5133269000858,25.69678726509693,105.83103213786238,93.73445509564516,0.0001295089750783,0.0938397273421287,0,0,0
8803,305843.341339128,2010-11-20 00:42:51,5552.832411731592,2,27,0.5501165986061096,4.198034286499023,26.51791344991489,25.69678726509693,105.85027860632091,93.73445509564516,6.47544875391759e-05,0.0938397273421287,0,0,0
8804,305857.80992986134,2010-11-20 00:43:05,5567.301002454974,2,27,0.550297200679779,4.200138568878174,26.520124347521456,25.69678726509693,105.85956225512383,93.73445509564516,0.0001295089750783,0.0938397273421287,0,0,0
8805,305887.82050451904,2010-11-20 00:43:35,30.015226793804533,3,27,0.0,4.1153106689453125,26.520124347521456,25.69678726509693,105.85956225512383,93.73445509564516,-0.0004208564641885,0.0938397273421287,0,0,0
8806,305917.83595175814,2010-11-20 00:44:05,60.03067402786185,3,27,0.0,4.105273723602295,26.520124347521456,25.69678726509693,105.85956225512383,93.73445509564516,-0.0001619339018361,0.0938397273421287,0,0,0
8807,305947.8511561811,2010-11-20 00:44:35,90.04587847588789,3,27,0.0,4.0989603996276855,26.520124347521456,25.69678726509693,105.85956225512383,93.73445509564516,-0.0001295089750783,0.0938397273421287,0,0,0
8808,305977.8196038821,2010-11-20 00:45:05,120.01432617688,3,27,0.0,4.095075130462647,26.520124347521456,25.69678726509693,105.85956225512383,93.73445509564516,-9.70840483205393e-05,0.0938397273421287,0,0,0
8809,305977.831821477,2010-11-20 00:45:06,0.015609463622658,4,27,0.9864686131477356,4.199814796447754,26.520128624811957,25.69678726509693,105.85958021895176,93.73445509564516,0.0,0.0938397273421287,0,0,0
8810,305978.70682984253,2010-11-20 00:45:07,0.890617839144634,4,27,0.936078667640686,4.199814796447754,26.52036054931064,25.69678726509693,105.86055421672869,93.73445509564516,0.0,0.0938397273421287,0,0,0
8811,305980.8162888868,2010-11-20 00:45:09,3.000076913526456,4,27,0.8858692646026611,4.199329376220703,26.520893277399583,25.69678726509693,105.86279149567052,93.73445509564516,-9.70840483205393e-05,0.0938397273421287,0,0,0
8812,305984.0505431881,2010-11-20 00:45:12,6.234331184765049,4,27,0.8358404636383057,4.199491024017334,26.52166558390677,25.69678726509693,105.8660349073414,93.73445509564516,-3.24249267578125e-05,0.0938397273421287,0,0,0
8813,305988.5349673257,2010-11-20 00:45:16,10.718755337361335,4,27,0.7854505181312561,4.199653148651123,26.5226741479904,25.69678726509693,105.87027051863248,93.73445509564516,0.0,0.0938397273421287,0,0,0
8814,305994.42541365593,2010-11-20 00:45:22,16.609201667624184,4,27,0.7352411150932312,4.199653148651123,26.52391682946816,25.69678726509693,105.87548936743566,93.73445509564516,-3.23295607813634e-05,0.0938397273421287,0,0,0
8815,306002.1307788278,2010-11-20 00:45:30,24.314566929759284,4,27,0.6850317716598511,4.199491024017334,26.52543480648425,25.69678726509693,105.8818643863706,93.73445509564516,-6.47544875391759e-05,0.0938397273421287,0,0,0
8816,306012.4721021418,2010-11-20 00:45:40,34.65589015349854,4,27,0.6350029706954956,4.199653148651123,26.52732722154512,25.69678726509693,105.88981192497177,93.73445509564516,-3.23295607813634e-05,0.0938397273421287,0,0,0
8817,306026.9250671811,2010-11-20 00:45:55,49.10885516770709,4,27,0.5849742293357849,4.199814796447754,26.529769839166697,25.69678726509693,105.90007011651454,93.73445509564516,6.47544875391759e-05,0.0938397273421287,0,0,0
8818,306049.23727743555,2010-11-20 00:46:17,71.42106542716242,4,27,0.5349454283714294,4.199653148651123,26.53322885025342,25.69678726509693,105.91459684309494,93.73445509564516,0.0,0.0938397273421287,0,0,0
8819,306088.50257077854,2010-11-20 00:46:56,110.68635876514838,4,27,0.4849166572093963,4.199653148651123,26.53876635842113,25.69678726509693,105.93785286862584,93.73445509564516,-3.23295607813634e-05,0.0938397273421287,0,0,0
8820,306158.29869352374,2010-11-20 00:48:06,180.48248151038555,4,27,0.4348878860473633,4.199653148651123,26.54764547241325,25.69678726509693,105.97514284038655,93.73445509564516,-3.23295607813634e-05,0.0938397273421287,0,0,0
8821,306260.9539470748,2010-11-20 00:49:49,283.1377350713898,4,27,0.3848591148853302,4.199653148651123,26.55930720689867,25.69678726509693,106.02411912760452,93.73445509564516,0.0,0.0938397273421287,0,0,0
8822,306387.29646918725,2010-11-20 00:51:55,409.4802571688561,4,27,0.3346497416496277,4.199653148651123,26.57191677497615,25.69678726509693,106.07707615422564,93.73445509564516,0.0,0.0938397273421287,0,0,0
8823,306538.0760580028,2010-11-20 00:54:26,560.2598459843996,4,27,0.2844403684139251,4.199814796447754,26.58486827908952,25.69678726509693,106.1314691689268,93.73445509564516,3.23295607813634e-05,0.0938397273421287,0,0,0
8824,306720.33994759177,2010-11-20 00:57:28,742.5237355784246,4,27,0.2344115972518921,4.199653148651123,26.597979516909795,25.69678726509693,106.18653305919965,93.73445509564516,-3.23295607813634e-05,0.0938397273421287,0,0,0
8825,306946.5874640602,2010-11-20 01:01:14,968.7712520368148,4,27,0.184382826089859,4.199653148651123,26.61109279165065,25.69678726509693,106.24160548650732,93.73445509564516,-3.23295607813634e-05,0.0938397273421287,0,0,0
8826,307251.7093319894,2010-11-20 01:06:20,1273.8931199760173,4,27,0.1343540549278259,4.199814796447754,26.624507880460207,25.69678726509693,106.29794541833871,93.73445509564516,3.23295607813634e-05,0.0938397273421287,0,0,0
8827,307726.1108472864,2010-11-20 01:14:14,1748.294635273047,4,27,0.0843252912163734,4.199653148651123,26.638667972031563,25.69678726509693,106.357414253087,93.73445509564516,0.0,0.0938397273421287,0,0,0
8828,308304.5735325532,2010-11-20 01:23:52,2326.757320534719,4,27,0.0498289167881011,4.199653148651123,26.64923256504023,25.69678726509693,106.40178287274904,93.73445509564516,-3.23295607813634e-05,0.0938397273421287,0,0,0
8829,308334.5937481401,2010-11-20 01:24:23,30.01530849273764,5,27,0.0,4.191882610321045,26.64923256504023,25.69678726509693,106.40178287274904,93.73445509564516,-6.47544875391759e-05,0.0938397273421287,0,0,0
8830,308364.59339525964,2010-11-20 01:24:53,60.01495561227834,5,27,0.0,4.190749645233154,26.64923256504023,25.69678726509693,106.40178287274904,93.73445509564516,-3.23295607813634e-05,0.0938397273421287,0,0,0
8831,308364.7708020145,2010-11-20 01:24:53,0.187497768275426,6,27,-1.9243103452026844e-05,4.190749645233154,26.64923256504023,25.696787266099165,106.40178287274904,93.73445509984523,0.0,0.0948198437690734,0,0,0
8832,308369.5833665209,2010-11-20 01:24:58,5.000062410015771,6,27,0.0007031940040178,4.190749645233154,26.649233429625426,25.696787266266888,106.40178649608332,93.73445510054816,-6.47544875391759e-05,0.0948198437690734,0,0,0
8833,308399.602198966,2010-11-20 01:25:28,30.01336888618128,7,27,-1.0997490882873535,4.016722202301025,26.649233429625426,25.705955500052205,106.40178649608332,93.7714751899194,-0.0009389877086505,0.0948198437690734,0,0,0
8834,308429.61756761884,2010-11-20 01:25:58,60.02873754410047,7,27,-1.099929690361023,3.9909825325012207,26.649233429625426,25.71512456027841,106.40178649608332,93.80817832017954,-0.0005504131549969,0.0948198437690734,0,0,0
8835,308459.6328311243,2010-11-20 01:26:28,90.04400104453039,7,27,-1.099568486213684,3.973175048828125,26.649233429625426,25.724293542440037,106.40178649608332,93.8446856349013,-0.0004209041653666,0.0948198437690734,0,0,0
8836,308489.6481434717,2010-11-20 01:26:58,120.05931339188976,7,27,-1.0997490882873535,3.959252834320069,26.649233429625426,25.73346244765662,106.40178649608332,93.88104930982584,-0.0003561496851034,0.0948198437690734,0,0,0
8837,308519.6634476837,2010-11-20 01:27:28,150.07461760394213,7,27,-1.099568486213684,3.947597026824951,26.649233429625426,25.74263135683851,106.40178649608332,93.91729707802868,-0.0002913951757363,0.0948198437690734,0,0,0
8838,308549.6788030334,2010-11-20 01:27:58,180.089972963667,7,27,-1.0997490882873535,3.937074422836304,26.649233429625426,25.751800350611436,106.40178649608332,93.95344362364168,-0.0002590179501567,0.0948198437690734,0,0,0
8839,308579.6940835914,2010-11-20 01:28:28,210.10525351165023,7,27,-1.0997490882873535,3.927199363708496,26.649233429625426,25.760969261101955,106.40178649608332,93.98949678450508,-0.0002590179501567,0.0948198437690734,0,0,0
8840,308609.7094279938,2010-11-20 01:28:58,240.12059791402385,7,27,-1.0997490882873535,3.9178099632263184,26.649233429625426,25.77013815726909,106.40178649608332,94.02546189197372,-0.0002266406954731,0.0948198437690734,0,0,0
8841,308639.72479411034,2010-11-20 01:29:28,270.13596403059944,7,27,-1.0997490882873535,3.9089064598083496,26.649233429625426,25.77930713390257,106.40178649608332,94.06134317486944,-0.0002590179501567,0.0948198437690734,0,0,0
8842,308669.740043275,2010-11-20 01:29:58,300.1512131952451,7,27,-1.0997490882873535,3.9000027179718018,26.649233429625426,25.788476040190417,106.40178649608332,94.09714308163572,-0.0002590179501567,0.0948198437690734,0,0,0
8843,308699.7554827197,2010-11-20 01:30:28,330.16665263985874,7,27,-1.0993878841400146,3.8917465209960938,26.649233429625426,25.797645063585573,106.40178649608332,94.1328638311384,-0.0002266406954731,0.0948198437690734,0,0,0
8844,308729.77069782425,2010-11-20 01:30:58,360.18186774448526,7,27,-1.099568486213684,3.883166551589966,26.649233429625426,25.80681402592408,106.40178649608332,94.16850634707502,-0.0002266406954731,0.0948198437690734,0,0,0
8845,308759.7859944123,2010-11-20 01:31:28,390.1971643325069,7,27,-1.0997490882873535,3.874748468399048,26.649233429625426,25.81598299543773,106.40178649608332,94.2040716247764,-0.0002266406954731,0.0948198437690734,0,0,0
8846,308789.80144704983,2010-11-20 01:31:58,420.2126169700522,7,27,-1.099929690361023,3.86649227142334,26.649233429625426,25.82515212224145,106.40178649608332,94.23956117097548,-0.0001942634553415,0.0948198437690734,0,0,0
8847,308819.8166388814,2010-11-20 01:32:28,450.2278088015855,7,27,-1.0997490882873535,3.858397960662842,26.649233429625426,25.83432112441808,106.40178649608332,94.27497576111108,-0.0002266406954731,0.0948198437690734,0,0,0
8848,308849.8321752679,2010-11-20 01:32:58,480.24334518818125,7,27,-1.0997490882873535,3.8504655361175537,26.649233429625426,25.843490175921065,106.40178649608332,94.31031750257436,-0.0001942634553415,0.0948198437690734,0,0,0
8849,308879.84740133,2010-11-20 01:33:28,510.25857125015904,7,27,-1.099568486213684,3.842694997787476,26.649233429625426,25.852659164103216,106.40178649608332,94.34558664048056,-0.0001942634553415,0.0948198437690734,0,0,0
8850,308909.862588575,2010-11-20 01:33:58,540.2737584952439,7,27,-1.099568486213684,3.835086345672608,26.649233429625426,25.861828136645844,106.40178649608332,94.38078507750126,-0.0001942634553415,0.0948198437690734,0,0,0
8851,308939.87790984963,2010-11-20 01:34:28,570.2890797949498,7,27,-1.099568486213684,3.827639818191528,26.649233429625426,25.87099720681395,106.40178649608332,94.41591481560212,-0.0001942634553415,0.0948198437690734,0,0,0
8852,308969.89512879617,2010-11-20 01:34:58,600.3062987264364,7,27,-1.0997490882873535,3.82035493850708,26.649233429625426,25.880166843907293,106.40178649608332,94.45097882668136,-0.0001618862152099,0.0948198437690734,0,0,0
8853,308999.9087850647,2010-11-20 01:35:28,630.3199549849431,7,27,-1.0997490882873535,3.813070058822632,26.649233429625426,25.889335394692257,106.40178649608332,94.48597234018978,-0.0002266406954731,0.0948198437690734,0,0,0
8854,309029.9238733528,2010-11-20 01:35:58,660.3350432730161,7,27,-1.0997490882873535,3.805785179138184,26.649233429625426,25.89850430130093,106.40178649608332,94.520900268527,-0.0001942634553415,0.0948198437690734,0,0,0
8855,309059.939274973,2010-11-20 01:36:28,690.3504448982268,7,27,-1.099929690361023,3.798985958099365,26.649233429625426,25.90767325867303,106.40178649608332,94.55576366216664,-0.0001295089750783,0.0948198437690734,0,0,0
8856,309089.9545222329,2010-11-20 01:36:58,720.3656921531053,7,27,-1.0997490882873535,3.792024850845337,26.649233429625426,25.916842245838293,106.40178649608332,94.59056425002238,-0.0001942634553415,0.0948198437690734,0,0,0
8857,309119.96981846,2010-11-20 01:37:28,750.3809883802261,7,27,-1.099568486213684,3.7855494022369385,26.649233429625426,25.926011258705696,106.40178649608332,94.62530291219504,-0.0001618862152099,0.0948198437690734,0,0,0
8858,309149.98513977975,2010-11-20 01:37:58,780.3963097250444,7,27,-1.0997490882873535,3.77891206741333,26.649233429625426,25.935180278423857,106.40178649608332,94.6599808277882,-0.0001618862152099,0.0948198437690734,0,0,0
8859,309180.00046084385,2010-11-20 01:38:28,810.4116307640996,7,27,-1.0997490882873535,3.772436618804932,26.649233429625426,25.944349333192143,106.40178649608332,94.69459964852484,-0.0001618862152099,0.0948198437690734,0,0,0
8860,309210.01869622257,2010-11-20 01:38:58,840.4298662280075,7,27,-1.0997490882873535,3.766123056411743,26.649233429625426,25.95351923041995,106.40178649608332,94.72916263469956,-0.0001618862152099,0.0948198437690734,0,0,0
8861,309240.0311074533,2010-11-20 01:39:28,870.4422773735208,7,27,-1.099568486213684,3.7598094940185542,26.649233429625426,25.96268731957052,106.40178649608332,94.7636608441667,-0.0001295089750783,0.0948198437690734,0,0,0
8862,309270.0464783618,2010-11-20 01:39:58,900.4576482820579,7,27,-1.099568486213684,3.753657817840576,26.649233429625426,25.97185636067743,106.40178649608332,94.79810593382004,-0.0001618862152099,0.0948198437690734,0,0,0
8863,309300.06174402765,2010-11-20 01:40:28,930.4729139729556,7,27,-1.099568486213684,3.7475063800811768,26.649233429625426,25.981025403658155,106.40178649608332,94.83249565382724,-0.0001942634553415,0.0948198437690734,0,0,0
8864,309330.0771107157,2010-11-20 01:40:58,960.4882806358952,7,27,-1.0997490882873535,3.741840362548828,26.649233429625426,25.99019447874611,106.40178649608332,94.86683131843424,-0.0001295089750783,0.0948198437690734,0,0,0
8865,309360.0923841058,2010-11-20 01:41:28,990.503554056086,7,27,-1.099929690361023,3.7360124588012695,26.649233429625426,25.99936343440548,106.40178649608332,94.90111289044934,-0.0001295089750783,0.0948198437690734,0,0,0
8866,309390.1078358912,2010-11-20 01:41:58,1020.5190058214544,7,27,-1.0997490882873535,3.730508327484131,26.649233429625426,26.00853246719279,106.40178649608332,94.9353424415431,-9.713172767078504e-05,0.0948198437690734,0,0,0
8867,309420.12314337643,2010-11-20 01:42:28,1050.5343133016645,7,27,-1.0997490882873535,3.7248423099517822,26.649233429625426,26.017701484817973,106.40178649608332,94.9695211620964,-0.0001618862152099,0.0948198437690734,0,0,0
8868,309450.13841048087,2010-11-20 01:42:58,1080.5495804010782,7,27,-1.0997490882873535,3.7191762924194336,26.649233429625426,26.026870405221977,106.40178649608332,95.00364907012428,-0.0001942634553415,0.0948198437690734,0,0,0
8869,309480.15360402165,2010-11-20 01:43:28,1110.564773941878,7,27,-1.0997490882873535,3.713995933532715,26.649233429625426,26.03603937727233,106.40178649608332,95.03772698061736,-0.0001295089750783,0.0948198437690734,0,0,0
8870,309510.16906334594,2010-11-20 01:43:58,1140.5802332661142,7,27,-1.0997490882873535,3.708653688430786,26.649233429625426,26.04520841022536,106.40178649608332,95.07175609415027,-0.0001295089750783,0.0948198437690734,0,0,0
8871,309540.1842045661,2010-11-20 01:44:28,1170.595374486314,7,27,-1.099568486213684,3.7033114433288574,26.649233429625426,26.054377407615707,106.40178649608332,95.10573621779484,-0.0001618862152099,0.0948198437690734,0,0,0
8872,309570.2015324947,2010-11-20 01:44:58,1200.612702424899,7,27,-1.099568486213684,3.6981310844421382,26.649233429625426,26.0635470940462,106.40178649608332,95.13967079551732,-0.0001618862152099,0.0948198437690734,0,0,0
8873,309600.2149618167,2010-11-20 01:45:28,1230.6261317469375,7,27,-1.099929690361023,3.69278883934021,26.649233429625426,26.07271551810789,106.40178649608332,95.1735534606186,-0.0001942634553415,0.0948198437690734,0,0,0
8874,309630.2302767906,2010-11-20 01:45:58,1260.6414467208533,7,27,-1.0997490882873535,3.687932252883911,26.649233429625426,26.08188451810245,106.40178649608332,95.20739165107014,-0.0001295089750783,0.0948198437690734,0,0,0
8875,309660.2455881806,2010-11-20 01:46:28,1290.6567581108227,7,27,-1.0997490882873535,3.683075666427612,26.649233429625426,26.091053531309285,106.40178649608332,95.24118432009494,-0.0001295089750783,0.0948198437690734,0,0,0
8876,309690.2609985075,2010-11-20 01:46:58,1320.6721684377542,7,27,-1.0997490882873535,3.678057193756104,26.649233429625426,26.100222656101096,106.40178649608332,95.2749325837696,-0.0001618862152099,0.0948198437690734,0,0,0
8877,309720.2762377825,2010-11-20 01:47:28,1350.6874077026887,7,27,-1.0997490882873535,3.673362493515015,26.649233429625426,26.10939168278457,106.40178649608332,95.3086359781573,-0.0001295089750783,0.0948198437690734,0,0,0
8878,309750.2916849764,2010-11-20 01:47:58,1380.7028548916337,7,27,-1.0997490882873535,3.668506145477295,26.649233429625426,26.118560726800407,106.40178649608332,95.34229548135328,-0.0001942634553415,0.0948198437690734,0,0,0
8879,309780.3068764571,2010-11-20 01:48:28,1410.7180463823158,7,27,-1.0997490882873535,3.663811445236206,26.649233429625426,26.12772975954292,106.40178649608332,95.37591162259916,-0.0001295089750783,0.0948198437690734,0,0,0
8880,309810.32220414275,2010-11-20 01:48:58,1440.733374067962,7,27,-1.099568486213684,3.659440517425537,26.649233429625426,26.136898784284536,106.40178649608332,95.4094854576772,-9.713172767078504e-05,0.0948198437690734,0,0,0
8881,309840.3376545296,2010-11-20 01:49:29,1470.7488244599017,7,27,-1.099568486213684,3.654907703399658,26.649233429625426,26.146067852227507,106.40178649608332,95.44301745615712,-0.0001295089750783,0.0948198437690734,0,0,0
8882,309870.3528424865,2010-11-20 01:49:59,1500.7640124117509,7,27,-1.0997490882873535,3.6503748893737793,26.649233429625426,26.15523678141862,106.40178649608332,95.47650754920508,-9.713172767078504e-05,0.0948198437690734,0,0,0
8883,309900.3683616351,2010-11-20 01:50:29,1530.7795315653304,7,27,-1.099929690361023,3.645842075347901,26.649233429625426,26.164405862639352,106.40178649608332,95.50995684150058,-9.713172767078504e-05,0.0948198437690734,0,0,0
8884,309930.3835194116,2010-11-20 01:50:59,1560.794689361907,7,27,-1.099568486213684,3.6416330337524414,26.649233429625426,26.1735747323594,106.40178649608332,95.54336493688378,-6.47544875391759e-05,0.0948198437690734,0,0,0
8885,309960.39879217016,2010-11-20 01:51:29,1590.8099620903718,7,27,-1.099568486213684,3.637262105941773,26.649233429625426,26.182743671416368,106.40178649608332,95.57673392186264,-9.713172767078504e-05,0.0948198437690734,0,0,0
8886,309990.41410680325,2010-11-20 01:51:59,1620.8252767234364,7,27,-1.0997490882873535,3.6330530643463135,26.649233429625426,26.19191268294888,106.40178649608332,95.61006463537151,-9.713172767078504e-05,0.0948198437690734,0,0,0
8887,310020.42944543617,2010-11-20 01:52:29,1650.8406153714463,7,27,-1.0997490882873535,3.629005908966065,26.649233429625426,26.20108171967591,106.40178649608332,95.64335752642472,-0.0001295089750783,0.0948198437690734,0,0,0
8888,310050.44475269585,2010-11-20 01:52:59,1680.8559226210812,7,27,-1.0997490882873535,3.6251206398010254,26.649233429625426,26.2102507397474,106.40178649608332,95.67661328978932,-6.47544875391759e-05,0.0948198437690734,0,0,0
8889,310080.4603200949,2010-11-20 01:53:29,1710.8714901403887,7,27,-1.0997490882873535,3.6209115982055664,26.649233429625426,26.219419851823773,106.40178649608332,95.70983340493008,-0.0001618862152099,0.0948198437690734,0,0,0
8890,310110.475467686,2010-11-20 01:53:59,1740.8866376162036,7,27,-1.0997490882873535,3.6173501014709473,26.649233429625426,26.228588859739684,106.40178649608332,95.74301779797098,-9.713172767078504e-05,0.0948198437690734,0,0,0
8891,310140.4907084847,2010-11-20 01:54:29,1770.9018784049415,7,27,-1.0997490882873535,3.613626718521118,26.649233429625426,26.237757847389933,106.40178649608332,95.77616786497325,-0.0001295089750783,0.0948198437690734,0,0,0
8892,310170.5081343277,2010-11-20 01:54:59,1800.9193042729737,7,27,-1.099568486213684,3.610065221786499,26.649233429625426,26.246927557351988,106.40178649608332,95.80928727602064,-9.713172767078504e-05,0.0948198437690734,0,0,0
8893,310200.5213969135,2010-11-20 01:55:29,1830.9325668337503,7,27,-1.099568486213684,3.6068274974823,26.649233429625426,26.25609593717772,106.40178649608332,95.84236953327472,-3.237724376958795e-05,0.0948198437690734,0,0,0
8894,310230.5366897923,2010-11-20 01:55:59,1860.9478597125133,7,27,-1.0997490882873535,3.6032660007476807,26.649233429625426,26.26526497418304,106.40178649608332,95.87542262588492,-9.713172767078504e-05,0.0948198437690734,0,0,0
8895,310260.55199966347,2010-11-20 01:56:29,1890.9631695836915,7,27,-1.0997490882873535,3.5998663902282715,26.649233429625426,26.27443403267296,106.40178649608332,95.90844526779183,-9.713172767078504e-05,0.0948198437690734,0,0,0
8896,310290.5673252288,2010-11-20 01:56:59,1920.978495149045,7,27,-1.0997490882873535,3.5966286659240723,26.649233429625426,26.283603118224708,106.40178649608332,95.9414380982972,-6.47544875391759e-05,0.0948198437690734,0,0,0
8897,310320.5827085333,2010-11-20 01:57:29,1950.9938784535243,7,27,-1.099568486213684,3.593552827835083,26.649233429625426,26.292772200570216,106.40178649608332,95.97440186246432,-6.47544875391759e-05,0.0948198437690734,0,0,0
8898,310350.59796718165,2010-11-20 01:57:59,1981.009137111868,7,27,-1.0997490882873535,3.590477228164673,26.649233429625426,26.30194124603297,106.40178649608332,96.00733731962156,-6.47544875391759e-05,0.0948198437690734,0,0,0
8899,310380.613291544,2010-11-20 01:58:29,2011.024461464193,7,27,-1.099929690361023,3.5875632762908936,26.649233429625426,26.31111033198087,106.40178649608332,96.04024510527267,-6.47544875391759e-05,0.0948198437690734,0,0,0
8900,310410.62860482367,2010-11-20 01:58:59,2041.03977474388,7,27,-1.099568486213684,3.5846493244171143,26.649233429625426,26.3202794252854,106.40178649608332,96.07312541510598,-3.237724376958795e-05,0.0948198437690734,0,0,0
8901,310440.64391053945,2010-11-20 01:59:29,2071.055080459686,7,27,-1.0997490882873535,3.581573486328125,26.649233429625426,26.329448452056063,106.40178649608332,96.10597855120356,-9.713172767078504e-05,0.0948198437690734,0,0,0
8902,310470.65921854094,2010-11-20 01:59:59,2101.070388461197,7,27,-1.0997490882873535,3.578497648239136,26.649233429625426,26.33861753637163,106.40178649608332,96.13880510078154,-9.713172767078504e-05,0.0948198437690734,0,0,0
8903,310500.6746611184,2010-11-20 02:00:29,2131.085831038631,7,27,-1.0997490882873535,3.5757455825805664,26.649233429625426,26.347786713198573,106.40178649608332,96.17160545821152,-9.713172767078504e-05,0.0948198437690734,0,0,0
8904,310530.6899353256,2010-11-20 02:00:59,2161.1011052558115,7,27,-1.099568486213684,3.572993516921997,26.649233429625426,26.356955765713664,106.40178649608332,96.20437903469518,-9.713172767078504e-05,0.0948198437690734,0,0,0
8905,310560.70518437494,2010-11-20 02:01:29,2191.1163542951444,7,27,-1.0997490882873535,3.5700795650482178,26.649233429625426,26.36612481155161,106.40178649608332,96.2371264966253,-6.47544875391759e-05,0.0948198437690734,0,0,0
8906,310590.7206310476,2010-11-20 02:01:59,2221.131800977825,7,27,-1.099929690361023,3.5671656131744385,26.649233429625426,26.375293950781067,106.40178649608332,96.269847861399,-9.713172767078504e-05,0.0948198437690734,0,0,0
8907,310620.7359433047,2010-11-20 02:02:29,2251.14711323496,7,27,-1.099929690361023,3.564089775085449,26.649233429625426,26.38446309947125,106.40178649608332,96.30254264361258,-0.0001295089750783,0.0948198437690734,0,0,0
8908,310650.751151457,2010-11-20 02:02:59,2281.1623213772077,7,27,-1.0997490882873535,3.56149959564209,26.649233429625426,26.393632147534223,106.40178649608332,96.33521081749348,-9.713172767078504e-05,0.0948198437690734,0,0,0
8909,310680.76646288706,2010-11-20 02:03:29,2311.1776328173014,7,27,-1.0997490882873535,3.5584237575531006,26.649233429625426,26.40280125337964,106.40178649608332,96.36785273002972,-9.713172767078504e-05,0.0948198437690734,0,0,0
8910,310710.7819093091,2010-11-20 02:03:59,2341.19307923432,7,27,-1.0997490882873535,3.5555098056793213,26.649233429625426,26.41197035714408,106.40178649608332,96.4004671017684,-6.47544875391759e-05,0.0948198437690734,0,0,0
8911,310740.7971736115,2010-11-20 02:04:29,2371.2083435367517,7,27,-1.0997490882873535,3.552595853805542,26.649233429625426,26.421139449046184,106.40178649608332,96.43305337060784,-3.237724376958795e-05,0.0948198437690734,0,0,0
8912,310770.81453926425,2010-11-20 02:04:59,2401.225709209527,7,27,-1.099929690361023,3.549034357070923,26.649233429625426,26.43030919556988,106.40178649608332,96.46561313467112,-9.713172767078504e-05,0.0948198437690734,0,0,0
8913,310800.82774177514,2010-11-20 02:05:29,2431.2389116953477,7,27,-1.099929690361023,3.545796632766724,26.649233429625426,26.439477732565443,106.40178649608332,96.4981388235675,-9.713172767078504e-05,0.0948198437690734,0,0,0
8914,310830.84318116464,2010-11-20 02:05:59,2461.2543510998607,7,27,-1.099568486213684,3.5425589084625244,26.649233429625426,26.448646829879003,106.40178649608332,96.53063611714292,-9.713172767078504e-05,0.0948198437690734,0,0,0
8915,310860.8583767405,2010-11-20 02:06:29,2491.269546660704,7,27,-1.099568486213684,3.5389974117279053,26.649233429625426,26.45781579939256,106.40178649608332,96.5631020199241,-9.713172767078504e-05,0.0948198437690734,0,0,0
8916,310890.87371501257,2010-11-20 02:06:59,2521.2848849327747,7,27,-1.099929690361023,3.535435914993286,26.649233429625426,26.466984874444623,106.40178649608332,96.59553602161434,-9.713172767078504e-05,0.0948198437690734,0,0,0
8917,310920.8892417049,2010-11-20 02:07:29,2551.3004116301845,7,27,-1.0997490882873535,3.531874418258667,26.649233429625426,26.476154062832688,106.40178649608332,96.62793736435982,-9.713172767078504e-05,0.0948198437690734,0,0,0
8918,310950.9044151506,2010-11-20 02:07:59,2581.3155850708117,7,27,-1.0997490882873535,3.527989149093628,26.649233429625426,26.485323200900343,106.40178649608332,96.66030452424052,-0.0001618862152099,0.0948198437690734,0,0,0
8919,310980.9196654481,2010-11-20 02:08:29,2611.3308353682846,7,27,-1.0997490882873535,3.524103879928589,26.649233429625426,26.494492335653906,106.40178649608332,96.69263617509824,-9.713172767078504e-05,0.0948198437690734,0,0,0
8920,311010.9349899508,2010-11-20 02:08:59,2641.3461598960484,7,27,-1.0997490882873535,3.52021861076355,26.649233429625426,26.50366145305477,106.40178649608332,96.72493056219264,-9.713172767078504e-05,0.0948198437690734,0,0,0
8921,311040.9503720773,2010-11-20 02:09:29,2671.3615421078,7,27,-1.099568486213684,3.515847682952881,26.649233429625426,26.512830560706647,106.40178649608332,96.7571862856322,-9.713172767078504e-05,0.0948198437690734,0,0,0
8922,311070.96563796874,2010-11-20 02:09:59,2701.376807898948,7,27,-1.0997490882873535,3.511153221130371,26.649233429625426,26.52199963813316,106.40178649608332,96.78940154963573,-0.0001294612884521,0.0948198437690734,0,0,0
8923,311100.9809573837,2010-11-20 02:10:29,2731.3921273089363,7,27,-1.099929690361023,3.5062966346740723,26.649233429625426,26.53116874731952,106.40178649608332,96.8215742000232,-0.0001295089750783,0.0948198437690734,0,0,0
8924,311130.9991712537,2010-11-20 02:10:59,2761.410341259143,7,27,-1.0997490882873535,3.501116275787353,26.649233429625426,26.54033881119696,106.40178649608332,96.85370434486242,-0.0001618862152099,0.0948198437690734,0,0,0
8925,311161.0117013812,2010-11-20 02:11:29,2791.422871306453,7,27,-1.0997490882873535,3.495612144470215,26.649233429625426,26.54950711205129,106.40178649608332,96.88577912600384,-0.0001295089750783,0.0948198437690734,0,0,0
8926,311191.02691170387,2010-11-20 02:11:59,2821.438081649193,7,27,-1.099929690361023,3.4892985820770264,26.649233429625426,26.55867624138422,106.40178649608332,96.91780271033277,-0.0001942634553415,0.0948198437690734,0,0,0
8927,311221.0422340462,2010-11-20 02:12:29,2851.453403971452,7,27,-1.0997490882873535,3.482499361038208,26.649233429625426,26.56784540272058,106.40178649608332,96.94976640792493,-0.0002266406954731,0.0948198437690734,0,0,0
8928,311251.05755945115,2010-11-20 02:12:59,2881.468729371393,7,27,-1.0997490882873535,3.47440505027771,26.649233429625426,26.577014490889955,106.40178649608332,96.98166116666506,-0.0002266406954731,0.0948198437690734,0,0,0
8929,311281.07289271074,2010-11-20 02:13:29,2911.484062630952,7,27,-1.0997490882873535,3.465015649795532,26.649233429625426,26.586183613055425,106.40178649608332,97.01347696680293,-0.0002913951757363,0.0948198437690734,0,0,0
8930,311311.0881859905,2010-11-20 02:13:59,2941.499355915728,7,27,-1.1001102924346924,3.453683614730835,26.649233429625426,26.59535279561625,106.40178649608332,97.04519910663848,-0.0003561496851034,0.0948198437690734,0,0,0
8931,311341.1035265182,2010-11-20 02:14:29,2971.5146964484425,7,27,-1.099929690361023,3.4399232864379883,26.649233429625426,26.604521960388432,106.40178649608332,97.076806393507,-0.0004209041653666,0.0948198437690734,0,0,0
8932,311371.1207894645,2010-11-20 02:14:59,3001.531959394797,7,27,-1.0997490882873535,3.4219541549682617,26.649233429625426,26.613691687344275,106.40178649608332,97.10827050015403,-0.0005180359003134,0.0948198437690734,0,0,0
8933,311401.1342113881,2010-11-20 02:15:29,3031.5453813133554,7,27,-1.0997490882873535,3.398156881332397,26.649233429625426,26.6228603026799,106.40178649608332,97.13954105963896,-0.0007122993702068,0.0948198437690734,0,0,0
8934,311431.14957197587,2010-11-20 02:15:59,3061.560741916167,7,27,-1.0997490882873535,3.3656177520751958,26.649233429625426,26.632029309423217,106.40178649608332,97.17055785443904,-0.0010036944877356,0.0948198437690734,0,0,0
8935,311461.1648862932,2010-11-20 02:16:29,3091.5760562133946,7,27,-1.099568486213684,3.321099281311035,26.649233429625426,26.64119840839856,106.40178649608332,97.20122422464183,-0.0013274669181555,0.0948198437690734,0,0,0
8936,311491.1800993477,2010-11-20 02:16:59,3121.591269262891,7,27,-1.0997490882873535,3.257963895797729,26.649233429625426,26.65036737434743,106.40178649608332,97.23140248104974,-0.0019426345825195,0.0948198437690734,0,0,0
8937,311521.19537647214,2010-11-20 02:17:29,3151.6065463923405,7,27,-1.0997490882873535,3.1669840812683105,26.649233429625426,26.65953638630971,106.40178649608332,97.26088575687392,-0.0028815746773034,0.0948198437690734,0,0,0
8938,311551.2107335761,2010-11-20 02:17:59,3181.62190349642,7,27,-1.099568486213684,3.0232295989990234,26.649233429625426,26.668705619684765,106.40178649608332,97.28932323689564,-0.0048565389588475,0.0948198437690734,0,0,0
8939,311572.960664926,2010-11-20 02:18:21,3203.3718348863126,7,27,-1.099929690361023,2.82297682762146,26.649233429625426,26.675349858148987,106.40178649608332,97.30882161351934,-0.0095512391999363,0.0948198437690734,0,0,0
8940,311582.1793111653,2010-11-20 02:18:30,3212.5904810854786,7,27,-1.0997490882873535,2.699620008468628,26.649233429625426,26.678165971301546,106.40178649608332,97.31660089081554,-0.011008215136826,0.0948198437690734,0,0,0
8941,311642.2011748738,2010-11-20 02:19:30,60.01502180751182,8,27,0.0,3.3076627254486084,26.649233429625426,26.678165971301546,106.40178649608332,97.31660089081554,0.0012303352123126,0.0948198437690734,0,0,0
8942,311642.3962249015,2010-11-20 02:19:31,0.187461643101434,9,27,-1.9243103452026844e-05,3.3078246116638184,26.649233429625426,26.678165972303585,106.40178649608332,97.31660089413012,0.0,0.0907677188515663,0,0,0
8943,311647.22450075083,2010-11-20 02:19:36,5.015737567620715,9,27,0.0005225847125984,3.315271377563477,26.64923389090098,26.67816597261196,106.40178802390646,97.31660089515093,0.0010684489971026,0.0907677188515663,0,0,0
