Data_Point,Test_Time(s),Date_Time,Step_Time(s),Step_Index,Cycle_Index,Current(A),Voltage(V),Charge_Capacity(Ah),Discharge_Capacity(Ah),Charge_Energy(Wh),Discharge_Energy(Wh),dV/dt(V/s),Internal_Resistance(Ohm),Is_FC_Data,AC_Impedance(Ohm),ACI_Phase_Angle(Deg)
12548,434961.3475300101,2010-11-21 12:35:03,30.0153540013341,1,39,0.0,3.34522032737732,37.3347161015688,37.36135073718026,148.99927302999322,136.33484398364445,0.0007446765666827,0.0931148082017898,0,0,0
12549,434991.3629292544,2010-11-21 12:35:33,60.03075324560152,1,39,0.0,3.3685317039489746,37.3347161015688,37.36135073718026,148.99927302999322,136.33484398364445,0.0005504131549969,0.0931148082017898,0,0,0
12550,435021.3782660528,2010-11-21 12:36:03,90.04609004399444,1,39,0.0,3.3861773014068604,37.3347161015688,37.36135073718026,148.99927302999322,136.33484398364445,0.0004532813909463,0.0931148082017898,0,0,0
12551,435051.346760335,2010-11-21 12:36:33,120.01458432626056,1,39,0.0,3.399937629699707,37.3347161015688,37.36135073718026,148.99927302999322,136.33484398364445,0.0003237724304199,0.0931148082017898,0,0,0
12552,435081.3560927246,2010-11-21 12:37:03,30.017273211979138,2,39,0.5501165986061096,3.5624709129333496,37.33930400684178,37.36135073718026,149.0154423480828,136.33484398364445,0.0017159938579425,0.0931148082017898,0,0,0
12553,435111.3698724464,2010-11-21 12:37:33,60.03105291361899,2,39,0.5501165986061096,3.614436149597168,37.34389132493286,37.36135073718026,149.0319110274962,136.33484398364445,0.0011655807029455,0.0931148082017898,0,0,0
12554,435141.3850556463,2010-11-21 12:38:03,90.04623611360667,2,39,0.550297200679779,3.652641296386719,37.34847890196516,37.36135073718026,149.04858375065376,136.33484398364445,0.0009065627818927,0.0931148082017898,0,0,0
12555,435171.4003074124,2010-11-21 12:38:33,120.06148789478353,2,39,0.5501165986061096,3.6825900077819824,37.35306639907499,37.36135073718026,149.06541153119542,136.33484398364445,0.0006799221155233,0.0931148082017898,0,0,0
12556,435201.4157096993,2010-11-21 12:39:03,150.07689018164572,2,39,0.5501165986061096,3.7076823711395264,37.35765387587922,37.36135073718026,149.08236463131203,136.33484398364445,0.0006151676061563,0.0931148082017898,0,0,0
12557,435231.4310456206,2010-11-21 12:39:33,180.092226092824,2,39,0.5501165986061096,3.728241920471192,37.36224143415683,37.36135073718026,149.09942224746084,136.33484398364445,0.0005180359003134,0.0931148082017898,0,0,0
12558,435261.4464041581,2010-11-21 12:40:03,210.1075846405065,2,39,0.5501165986061096,3.7454018592834473,37.366828912965815,37.36135073718026,149.11656599569687,136.33484398364445,0.0004209041653666,0.0931148082017898,0,0,0
12559,435291.46176884114,2010-11-21 12:40:33,240.1229493235037,2,39,0.5501165986061096,3.757866859436035,37.371416411355135,37.36135073718026,149.13377821289598,136.33484398364445,0.0002913951757363,0.0931148082017898,0,0,0
12560,435321.4800753274,2010-11-21 12:41:03,270.1412558096942,2,39,0.550297200679779,3.7657992839813232,37.37600436092238,37.36135073718026,149.15103882740905,136.33484398364445,0.0001942634553415,0.0931148082017898,0,0,0
12561,435351.49254364055,2010-11-21 12:41:33,300.1537241279193,2,39,0.550297200679779,3.771141529083252,37.38059146214946,37.36135073718026,149.16832544154624,136.33484398364445,0.0001295089750783,0.0931148082017898,0,0,0
12562,435381.5078806896,2010-11-21 12:42:03,330.16906117192525,2,39,0.5501165986061096,3.775026798248291,37.385178946987146,37.36135073718026,149.1856344820713,136.33484398364445,9.713172767078504e-05,0.0931148082017898,0,0,0
12563,435411.5232557133,2010-11-21 12:42:33,360.1844361957347,2,39,0.550297200679779,3.77891206741333,37.389766508835606,37.36135073718026,149.20296208982302,136.33484398364445,9.713172767078504e-05,0.0931148082017898,0,0,0
12564,435441.5386400705,2010-11-21 12:43:03,390.1998205528415,2,39,0.550297200679779,3.782635450363159,37.39435405744079,37.36135073718026,149.2203066856724,136.33484398364445,9.713172767078504e-05,0.0931148082017898,0,0,0
12565,435471.5540147284,2010-11-21 12:43:33,420.2151952809127,2,39,0.550297200679779,3.786035060882568,37.39894155585343,37.36135073718026,149.2376673385194,136.33484398364445,6.47544875391759e-05,0.0931148082017898,0,0,0
12566,435501.5693573564,2010-11-21 12:44:03,450.2305378386819,2,39,0.550297200679779,3.7894346714019775,37.40352913787167,37.36135073718026,149.2550439191412,136.33484398364445,0.0001295089750783,0.0931148082017898,0,0,0
12567,435531.584777202,2010-11-21 12:44:33,480.2459576693362,2,39,0.5501165986061096,3.792510509490967,37.40811673239589,37.36135073718026,149.27243567883266,136.33484398364445,3.237724376958795e-05,0.0931148082017898,0,0,0
12568,435561.6002469222,2010-11-21 12:45:03,510.2614273895224,2,39,0.5501165986061096,3.795910120010376,37.41270425715221,37.36135073718026,149.28984194230415,136.33484398364445,6.47544875391759e-05,0.0931148082017898,0,0,0
12569,435591.6154702424,2010-11-21 12:45:33,540.2766507246936,2,39,0.550297200679779,3.798985958099365,37.41729182024663,37.36135073718026,149.3072627256163,136.33484398364445,9.713172767078504e-05,0.0931148082017898,0,0,0
12570,435621.6309695414,2010-11-21 12:46:03,570.2921500287255,2,39,0.5501165986061096,3.801899909973145,37.42187940976748,37.36135073718026,149.324697717176,136.33484398364445,6.47544875391759e-05,0.0931148082017898,0,0,0
12571,435651.64634133707,2010-11-21 12:46:33,600.3075218244772,2,39,0.550297200679779,3.805137634277344,37.42646693243706,37.36135073718026,149.34214632635923,136.33484398364445,0.0001295089750783,0.0931148082017898,0,0,0
12572,435681.6635525744,2010-11-21 12:47:03,630.3247330567455,2,39,0.5501165986061096,3.807889699935913,37.43105479239932,37.36135073718026,149.35961008456349,136.33484398364445,6.47544875391759e-05,0.0931148082017898,0,0,0
12573,435711.67695972114,2010-11-21 12:47:33,660.338140203431,2,39,0.550297200679779,3.811127424240112,37.43564203189334,37.36135073718026,149.3770853199851,136.33484398364445,9.713172767078504e-05,0.0931148082017898,0,0,0
12574,435741.6923699427,2010-11-21 12:48:03,690.3535504250996,2,39,0.5504778623580933,3.814365148544312,37.44022965397669,37.36135073718026,149.39457616010984,136.33484398364445,9.713172767078504e-05,0.0931148082017898,0,0,0
12575,435771.70769527246,2010-11-21 12:48:33,720.3688757398276,2,39,0.5501165986061096,3.817440986633301,37.44481724327312,37.36135073718026,149.41208142570682,136.33484398364445,9.713172767078504e-05,0.0931148082017898,0,0,0
12576,435801.72309285257,2010-11-21 12:49:03,750.3842733349785,2,39,0.550297200679779,3.82051682472229,37.4494048231632,37.36135073718026,149.42960132003512,136.33484398364445,9.713172767078504e-05,0.0931148082017898,0,0,0
12577,435831.7384341171,2010-11-21 12:49:33,780.3996146045322,2,39,0.550297200679779,3.824078321456909,37.45399236713886,37.36135073718026,149.44713616992132,136.33484398364445,0.0001618862152099,0.0931148082017898,0,0,0
12578,435861.75393429335,2010-11-21 12:50:03,810.4151147757286,2,39,0.550297200679779,3.827316045761109,37.45857997314472,37.36135073718026,149.46468677649025,136.33484398364445,9.713172767078504e-05,0.0931148082017898,0,0,0
12579,435891.7691793879,2010-11-21 12:50:33,840.4303598702146,2,39,0.550297200679779,3.830877542495728,37.463167562352645,37.36135073718026,149.4822530866117,136.33484398364445,9.713172767078504e-05,0.0931148082017898,0,0,0
12580,435921.7845735696,2010-11-21 12:51:03,870.4457540518448,2,39,0.5501165986061096,3.834115028381348,37.4677551036481,37.36135073718026,149.49983504692565,136.33484398364445,6.47544875391759e-05,0.0931148082017898,0,0,0
12581,435951.7999614504,2010-11-21 12:51:34,900.4611419327475,2,39,0.550297200679779,3.8378384113311768,37.47234265400176,37.36135073718026,149.51743294327417,136.33484398364445,0.0001295089750783,0.0931148082017898,0,0,0
12582,435981.8152862488,2010-11-21 12:52:04,930.4764667311867,2,39,0.5501165986061096,3.841076135635376,37.47693018992019,37.36135073718026,149.5350465720238,136.33484398364445,6.47544875391759e-05,0.0931148082017898,0,0,0
12583,436011.8306605809,2010-11-21 12:52:34,960.4918410632696,2,39,0.550297200679779,3.844637632369995,37.48151769899568,37.36135073718026,149.55267576639326,136.33484398364445,0.0001295089750783,0.0931148082017898,0,0,0
12584,436041.8460430032,2010-11-21 12:53:04,990.507223490559,2,39,0.550297200679779,3.8478753566741934,37.48610527634817,37.36135073718026,149.57032069212718,136.33484398364445,6.47544875391759e-05,0.0931148082017898,0,0,0
12585,436071.8614149894,2010-11-21 12:53:34,1020.5225954717738,2,39,0.5501165986061096,3.8511130809783936,37.4906928762237,37.36135073718026,149.58798089311242,136.33484398364445,6.47544875391759e-05,0.0931148082017898,0,0,0
12586,436101.87677390303,2010-11-21 12:54:04,1050.5379543853696,2,39,0.550297200679779,3.8543508052825928,37.495280444606685,37.36135073718026,149.60565581455484,136.33484398364445,6.47544875391759e-05,0.0931148082017898,0,0,0
12587,436131.8920861751,2010-11-21 12:54:34,1080.5532666575414,2,39,0.5501165986061096,3.857426643371582,37.49986798501322,37.36135073718026,149.6233451686781,136.33484398364445,6.47544875391759e-05,0.0931148082017898,0,0,0
12588,436161.907554963,2010-11-21 12:55:04,1110.5687354504128,2,39,0.5501165986061096,3.8605024814605713,37.50445557205335,37.36135073718026,149.6410488047365,136.33484398364445,3.237724376958795e-05,0.0931148082017898,0,0,0
12589,436191.9229142374,2010-11-21 12:55:34,1140.5840947048594,2,39,0.5501165986061096,3.863416433334351,37.509043098002046,37.36135073718026,149.65876573037738,136.33484398364445,6.47544875391759e-05,0.0931148082017898,0,0,0
12590,436221.9382321588,2010-11-21 12:56:04,1170.5994126411697,2,39,0.550297200679779,3.86616849899292,37.51363065989898,37.36135073718026,149.6764956941959,136.33484398364445,3.237724376958795e-05,0.0931148082017898,0,0,0
12591,436251.9537289566,2010-11-21 12:56:34,1200.6149094389457,2,39,0.550297200679779,3.868920564651489,37.5182182319965,37.36135073718026,149.69423815551022,136.33484398364445,6.47544875391759e-05,0.0931148082017898,0,0,0
12592,436281.9710929351,2010-11-21 12:57:04,1230.632273417492,2,39,0.5501165986061096,3.871348857879639,37.522806158600325,37.36135073718026,149.711993750129,136.33484398364445,6.47544875391759e-05,0.0931148082017898,0,0,0
12593,436311.984369977,2010-11-21 12:57:34,1260.6455504594162,2,39,0.5504778623580933,3.873777151107788,37.52739355408498,37.36135073718026,149.72975852142807,136.33484398364445,6.47544875391759e-05,0.0931148082017898,0,0,0
12594,436341.9997552765,2010-11-21 12:58:04,1290.6609357638877,2,39,0.5501165986061096,3.875719785690308,37.53198114066368,37.36135073718026,149.74753442428252,136.33484398364445,3.237724376958795e-05,0.0931148082017898,0,0,0
12595,436372.0152890866,2010-11-21 12:58:34,1320.6764695690397,2,39,0.550297200679779,3.877986192703247,37.536568810015424,37.36135073718026,149.76532055895152,136.33484398364445,6.47544875391759e-05,0.0931148082017898,0,0,0
12596,436402.0304769082,2010-11-21 12:59:04,1350.691657395576,2,39,0.550297200679779,3.880090713500977,37.54115641447346,37.36135073718026,149.78311567209784,136.33484398364445,9.713172767078504e-05,0.0931148082017898,0,0,0
12597,436432.0459636709,2010-11-21 12:59:34,1380.7071441382527,2,39,0.5501165986061096,3.881547689437866,37.5457440661817,37.36135073718026,149.80091962054837,136.33484398364445,0.0,0.0931148082017898,0,0,0
12598,436462.0612831361,2010-11-21 13:00:04,1410.7224636484918,2,39,0.5501165986061096,3.8834903240203857,37.55033172591066,37.36135073718026,149.818731748731,136.33484398364445,6.47544875391759e-05,0.0931148082017898,0,0,0
12599,436492.0765997541,2010-11-21 13:00:34,1440.7377802364365,2,39,0.550297200679779,3.885109186172485,37.55491941330883,37.36135073718026,149.8365516176136,136.33484398364445,3.237724376958795e-05,0.0931148082017898,0,0,0
12600,436522.0919667428,2010-11-21 13:01:04,1470.753147225189,2,39,0.5501165986061096,3.886566162109375,37.55950704060848,37.36135073718026,149.85437855291858,136.33484398364445,3.237724376958795e-05,0.0931148082017898,0,0,0
12601,436552.1076393795,2010-11-21 13:01:34,1500.7688199470986,2,39,0.550297200679779,3.8880231380462646,37.56409469597859,37.36135073718026,149.87221254708254,136.33484398364445,3.237724376958795e-05,0.0931148082017898,0,0,0
12602,436582.12273942697,2010-11-21 13:02:04,1530.783919909312,2,39,0.5501165986061096,3.889642000198364,37.56868235344908,37.36135073718026,149.89005336207128,136.33484398364445,6.47544875391759e-05,0.0931148082017898,0,0,0
12603,436612.1380564861,2010-11-21 13:02:34,1560.7992369684328,2,39,0.550297200679779,3.890937089920044,37.573270001774254,37.36135073718026,149.90790062477333,136.33484398364445,3.237724376958795e-05,0.0931148082017898,0,0,0
12604,436642.1534451789,2010-11-21 13:03:04,1590.8146256613625,2,39,0.5501165986061096,3.892232179641724,37.57785769492424,37.36135073718026,149.92575452347796,136.33484398364445,6.47544875391759e-05,0.0931148082017898,0,0,0
12605,436672.16880357126,2010-11-21 13:03:34,1620.8299840586694,2,39,0.550297200679779,3.893689155578613,37.58244543860226,37.36135073718026,149.94361492901635,136.33484398364445,3.237724376958795e-05,0.0931148082017898,0,0,0
12606,436702.1841659335,2010-11-21 13:04:04,1650.8453464158613,2,39,0.550297200679779,3.894984245300293,37.58703321635189,37.36135073718026,149.9614816619995,136.33484398364445,3.237724376958795e-05,0.0931148082017898,0,0,0
12607,436732.19954359886,2010-11-21 13:04:34,1680.8607240812644,2,39,0.550297200679779,3.896441221237183,37.591620921322885,37.36135073718026,149.97935385479414,136.33484398364445,6.47544875391759e-05,0.0931148082017898,0,0,0
12608,436762.21492538456,2010-11-21 13:05:04,1710.8761058669525,2,39,0.550297200679779,3.8977363109588623,37.596208618861226,37.36135073718026,149.9972323290474,136.33484398364445,3.237724376958795e-05,0.0931148082017898,0,0,0
12609,436792.2303262178,2010-11-21 13:05:34,1740.8915067051987,2,39,0.550297200679779,3.899193286895752,37.60079626443796,37.36135073718026,150.01511675259232,136.33484398364445,6.47544875391759e-05,0.0931148082017898,0,0,0
12610,436822.2457838228,2010-11-21 13:06:04,1770.9069643051307,2,39,0.5501165986061096,3.9003264904022217,37.605383967060845,37.36135073718026,150.03300754543386,136.33484398364445,3.237724376958795e-05,0.0931148082017898,0,0,0
12611,436852.26118296175,2010-11-21 13:06:34,1800.9223634441355,2,39,0.5501165986061096,3.9017834663391113,37.60997159114948,37.36135073718026,150.05090419134774,136.33484398364445,6.47544875391759e-05,0.0931148082017898,0,0,0
12612,436882.2783099287,2010-11-21 13:07:04,1830.9394904110643,2,39,0.550297200679779,3.903240442276001,37.61455948027115,37.36135073718026,150.068808041039,136.33484398364445,9.713172767078504e-05,0.0931148082017898,0,0,0
12613,436912.29179148114,2010-11-21 13:07:34,1860.952971933403,2,39,0.5499359965324402,3.904373645782471,37.61914682405455,37.36135073718026,150.08671600264384,136.33484398364445,3.237724376958795e-05,0.0931148082017898,0,0,0
12614,436942.3071426304,2010-11-21 13:08:04,1890.9683231126928,2,39,0.550297200679779,3.90583062171936,37.62373450117778,37.36135073718026,150.10463145430916,136.33484398364445,6.47544875391759e-05,0.0931148082017898,0,0,0
12615,436972.3225078296,2010-11-21 13:08:34,1920.9836883169912,2,39,0.5501165986061096,3.90728759765625,37.62832217405504,37.36135073718026,150.1225532100196,136.33484398364445,3.237724376958795e-05,0.0931148082017898,0,0,0
12616,437002.3379358306,2010-11-21 13:09:04,1950.99911631804,2,39,0.5501165986061096,3.9085826873779297,37.63290981751473,37.36135073718026,150.1404811250026,136.33484398364445,3.237724376958795e-05,0.0931148082017898,0,0,0
12617,437032.3534684629,2010-11-21 13:09:34,1981.014648935227,2,39,0.5501165986061096,3.90987777709961,37.63749754287537,37.36135073718026,150.15841575793135,136.33484398364445,3.237724376958795e-05,0.0931148082017898,0,0,0
12618,437062.3686214675,2010-11-21 13:10:04,2011.0298019498675,2,39,0.550297200679779,3.911334753036499,37.642085136494046,37.36135073718026,150.1763562061043,136.33484398364445,3.237724376958795e-05,0.0931148082017898,0,0,0
12619,437092.3840028772,2010-11-21 13:10:34,2041.0451833596169,2,39,0.550297200679779,3.9127917289733887,37.64667276037388,37.36135073718026,150.194303182482,136.33484398364445,3.237724376958795e-05,0.0931148082017898,0,0,0
12620,437122.3993777356,2010-11-21 13:11:04,2071.060558223026,2,39,0.5501165986061096,3.9139246940612793,37.65126036669897,37.36135073718026,150.21225652047812,136.33484398364445,-3.237724376958795e-05,0.0931148082017898,0,0,0
12621,437152.41486895946,2010-11-21 13:11:34,2101.076049426839,2,39,0.5501165986061096,3.915543556213379,37.65584804807407,37.36135073718026,150.2302166736516,136.33484398364445,6.47544875391759e-05,0.0931148082017898,0,0,0
12622,437182.4300975679,2010-11-21 13:12:04,2131.09127805021,2,39,0.5499359965324402,3.9168386459350586,37.66043563512736,37.36135073718026,150.24818281663283,136.33484398364445,0.0,0.0931148082017898,0,0,0
12623,437212.4455157945,2010-11-21 13:12:34,2161.1066962768605,2,39,0.550297200679779,3.918295621871948,37.66502325105941,37.36135073718026,150.26615571034318,136.33484398364445,0.0,0.0931148082017898,0,0,0
12624,437242.4637569275,2010-11-21 13:13:04,2191.124937495132,2,39,0.5501165986061096,3.919914484024048,37.66961133693325,37.36135073718026,150.28413704010288,136.33484398364445,6.47544875391759e-05,0.0931148082017898,0,0,0
12625,437272.4762186643,2010-11-21 13:13:34,2221.137399146716,2,39,0.550297200679779,3.9213714599609375,37.67419858292909,37.36135073718026,150.30212170485538,136.33484398364445,6.47544875391759e-05,0.0931148082017898,0,0,0
12626,437302.49158996384,2010-11-21 13:14:04,2251.152770446229,2,39,0.5499359965324402,3.922666549682617,37.67878625726196,37.36135073718026,150.3201146965589,136.33484398364445,0.0,0.0931148082017898,0,0,0
12627,437332.5070499498,2010-11-21 13:14:34,2281.16823053738,2,39,0.5501165986061096,3.924123525619507,37.68337397462015,37.36135073718026,150.3381146381589,136.33484398364445,0.0,0.0931148082017898,0,0,0
12628,437362.5223428386,2010-11-21 13:15:04,2311.183523325917,2,39,0.5501165986061096,3.9257423877716064,37.68796163151969,37.36135073718026,150.35612114200083,136.33484398364445,3.237724376958795e-05,0.0931148082017898,0,0,0
12629,437392.5378247141,2010-11-21 13:15:34,2341.1990051964326,2,39,0.5501165986061096,3.927199363708496,37.69254935373215,37.36135073718026,150.37413454002598,136.33484398364445,3.237724376958795e-05,0.0931148082017898,0,0,0
12630,437422.5531206705,2010-11-21 13:16:04,2371.214301152878,2,39,0.550297200679779,3.928818225860596,37.69713698957366,37.36135073718026,150.39215450302615,136.33484398364445,6.47544875391759e-05,0.0931148082017898,0,0,0
12631,437452.56843459175,2010-11-21 13:16:34,2401.2296150791785,2,39,0.550297200679779,3.930275201797485,37.70172460765199,37.36135073718026,150.41018126425945,136.33484398364445,6.47544875391759e-05,0.0931148082017898,0,0,0
12632,437482.5856933226,2010-11-21 13:17:04,2431.246873784948,2,39,0.550297200679779,3.931732177734375,37.706312614542654,37.36135073718026,150.42821648427204,136.33484398364445,3.237724376958795e-05,0.0931148082017898,0,0,0
12633,437512.59916033375,2010-11-21 13:17:34,2461.2603408010764,2,39,0.550297200679779,3.9331891536712646,37.71089998386646,37.36135073718026,150.44625616571875,136.33484398364445,0.0,0.0931148082017898,0,0,0
12634,437542.6146739485,2010-11-21 13:18:04,2491.275854430868,2,39,0.550297200679779,3.934808015823364,37.71548768436673,37.36135073718026,150.4643041486093,136.33484398364445,6.47544875391759e-05,0.0931148082017898,0,0,0
12635,437572.6299473486,2010-11-21 13:18:34,2521.291127831009,2,39,0.550297200679779,3.936264991760254,37.72007535520899,37.36135073718026,150.482359126353,136.33484398364445,3.237724376958795e-05,0.0931148082017898,0,0,0
12636,437602.6453317308,2010-11-21 13:19:04,2551.3065122131784,2,39,0.5501165986061096,3.9378838539123535,37.72466302177562,37.36135073718026,150.50042111162864,136.33484398364445,3.237724376958795e-05,0.0931148082017898,0,0,0
12637,437632.6607363836,2010-11-21 13:19:34,2581.321916870959,2,39,0.550297200679779,3.939502716064453,37.72925070914207,37.36135073718026,150.51849048549184,136.33484398364445,3.237724376958795e-05,0.0931148082017898,0,0,0
12638,437662.66083651886,2010-11-21 13:20:04,2611.322017091509,2,39,0.550297200679779,3.9411215782165527,37.733836052709,37.36135073718026,150.53655786190004,136.33484398364445,3.237724376958795e-05,0.0931148082017898,0,0,0
12639,437692.675923619,2010-11-21 13:20:34,2641.337104106404,2,39,0.5504778623580933,3.942740440368652,37.738423637292605,37.36135073718026,150.55464131470725,136.33484398364445,9.713172767078504e-05,0.0931148082017898,0,0,0
12640,437722.6913614396,2010-11-21 13:21:04,2671.352541911926,2,39,0.550297200679779,3.944197416305542,37.74301125312034,37.36135073718026,150.57273229169027,136.33484398364445,6.47544875391759e-05,0.0931148082017898,0,0,0
12641,437752.70658624347,2010-11-21 13:21:34,2701.367766730801,2,39,0.550297200679779,3.9458162784576416,37.74759886800589,37.36135073718026,150.59083069242925,136.33484398364445,6.47544875391759e-05,0.0931148082017898,0,0,0
12642,437782.72200191865,2010-11-21 13:22:04,2731.3831824010704,2,39,0.550297200679779,3.947758913040161,37.75218659640982,37.36135073718026,150.60893697413235,136.33484398364445,0.0001295089750783,0.0931148082017898,0,0,0
12643,437812.73743578943,2010-11-21 13:22:34,2761.3986162767837,2,39,0.5501165986061096,3.949054002761841,37.75677426238858,37.36135073718026,150.62705053628042,136.33484398364445,3.237724376958795e-05,0.0931148082017898,0,0,0
12644,437842.7526625732,2010-11-21 13:23:04,2791.413843045525,2,39,0.550297200679779,3.9508347511291504,37.76136187300608,37.36135073718026,150.64517147315777,136.33484398364445,3.237724376958795e-05,0.0931148082017898,0,0,0
12645,437872.7680568349,2010-11-21 13:23:34,2821.4292373173803,2,39,0.550297200679779,3.95261549949646,37.76594954148773,37.36135073718026,150.66330030091532,136.33484398364445,9.713172767078504e-05,0.0931148082017898,0,0,0
12646,437902.78355027945,2010-11-21 13:24:05,2851.444730761786,2,39,0.5501165986061096,3.9540724754333496,37.77053720894413,37.36135073718026,150.68143686553785,136.33484398364445,3.237724376958795e-05,0.0931148082017898,0,0,0
12647,437932.7987780456,2010-11-21 13:24:35,2881.459958528018,2,39,0.550297200679779,3.955691337585449,37.77512483292319,37.36135073718026,150.69958098964833,136.33484398364445,3.237724376958795e-05,0.0931148082017898,0,0,0
12648,437962.814146473,2010-11-21 13:25:05,2911.4753269603743,2,39,0.5501165986061096,3.9576339721679688,37.7797125502629,37.36135073718026,150.7177332320862,136.33484398364445,6.47544875391759e-05,0.0931148082017898,0,0,0
12649,437992.8295863136,2010-11-21 13:25:35,2941.490766795964,2,39,0.550297200679779,3.9594147205352783,37.784300274833925,37.36135073718026,150.7358933923203,136.33484398364445,6.47544875391759e-05,0.0931148082017898,0,0,0
12650,438022.8452920579,2010-11-21 13:26:05,2971.506472525265,2,39,0.5501165986061096,3.961033582687378,37.78888800178829,37.36135073718026,150.75406147282712,136.33484398364445,6.47544875391759e-05,0.0931148082017898,0,0,0
12651,438052.86026711337,2010-11-21 13:26:35,3001.521447580692,2,39,0.550297200679779,3.962814331054688,37.79347566943384,37.36135073718026,150.77223730324994,136.33484398364445,6.47544875391759e-05,0.0931148082017898,0,0,0
12652,438082.8756308239,2010-11-21 13:27:05,3031.536811306299,2,39,0.550297200679779,3.964595079421997,37.79806332951283,37.36135073718026,150.7904212020488,136.33484398364445,6.47544875391759e-05,0.0931148082017898,0,0,0
12653,438112.8929235897,2010-11-21 13:27:35,3061.5541040570506,2,39,0.5504778623580933,3.9665377140045166,37.80265127563145,37.36135073718026,150.8086144226513,136.33484398364445,9.713172767078504e-05,0.0931148082017898,0,0,0
12654,438142.9063831272,2010-11-21 13:28:05,3091.5675636095484,2,39,0.550297200679779,3.968156576156616,37.807238722951816,37.36135073718026,150.82681395392015,136.33484398364445,6.47544875391759e-05,0.0931148082017898,0,0,0
12655,438172.92186741874,2010-11-21 13:28:35,3121.583047901107,2,39,0.550297200679779,3.969937324523926,37.81182641029408,37.36135073718026,150.84502277281624,136.33484398364445,3.237724376958795e-05,0.0931148082017898,0,0,0
12656,438202.9371805782,2010-11-21 13:29:05,3151.598361060493,2,39,0.5501165986061096,3.9717180728912354,37.81641409042437,37.36135073718026,150.86323999613097,136.33484398364445,3.237724376958795e-05,0.0931148082017898,0,0,0
12657,438232.9527112453,2010-11-21 13:29:35,3181.613891727813,2,39,0.550297200679779,3.973822593688965,37.821001853986296,37.36135073718026,150.8814661033548,136.33484398364445,6.47544875391759e-05,0.0931148082017898,0,0,0
12658,438262.9678630472,2010-11-21 13:30:05,3211.6290435294254,2,39,0.550297200679779,3.9756033420562735,37.82558956502135,37.36135073718026,150.899700593078,136.33484398364445,3.237724376958795e-05,0.0931148082017898,0,0,0
12659,438292.98335171456,2010-11-21 13:30:35,3241.644532181869,2,39,0.5501165986061096,3.977384090423584,37.83017738721591,37.36135073718026,150.91794434664604,136.33484398364445,0.0,0.0931148082017898,0,0,0
12660,438322.99859908974,2010-11-21 13:31:05,3271.6597795720854,2,39,0.5501165986061096,3.979326725006104,37.83476511275365,37.36135073718026,150.93619616890808,136.33484398364445,6.47544875391759e-05,0.0931148082017898,0,0,0
12661,438353.0139891009,2010-11-21 13:31:35,3301.6751695883186,2,39,0.5501165986061096,3.981593132019043,37.839352764410044,37.36135073718026,150.95445711910855,136.33484398364445,6.47544875391759e-05,0.0931148082017898,0,0,0
12662,438383.0293500296,2010-11-21 13:32:05,3331.690530511932,2,39,0.5501165986061096,3.983373880386353,37.84394040887372,37.36135073718026,150.9727270786042,136.33484398364445,6.47544875391759e-05,0.0931148082017898,0,0,0
12663,438413.04475786525,2010-11-21 13:32:35,3361.705938347645,2,39,0.5504778623580933,3.985478401184082,37.848528022439446,37.36135073718026,150.9910060797579,136.33484398364445,9.713172767078504e-05,0.0931148082017898,0,0,0
12664,438443.0600888191,2010-11-21 13:33:05,3391.7212693014485,2,39,0.5504778623580933,3.9874210357666016,37.85311570075433,37.36135073718026,151.00929462105486,136.33484398364445,3.237724376958795e-05,0.0931148082017898,0,0,0
12665,438473.0754792965,2010-11-21 13:33:35,3421.7366597788323,2,39,0.5501165986061096,3.989363670349121,37.8577033721457,37.36135073718026,151.02759249755098,136.33484398364445,3.237724376958795e-05,0.0931148082017898,0,0,0
12666,438503.09085247567,2010-11-21 13:34:05,3451.752032958037,2,39,0.550297200679779,3.991630077362061,37.86229103001778,37.36135073718026,151.04589986441516,136.33484398364445,6.47544875391759e-05,0.0931148082017898,0,0,0
12667,438533.1062018103,2010-11-21 13:34:35,3481.7673822927227,2,39,0.550297200679779,3.99373459815979,37.86687869012072,37.36135073718026,151.0642168061572,136.33484398364445,9.713172767078504e-05,0.0931148082017898,0,0,0
12668,438563.12158634793,2010-11-21 13:35:05,3511.7827668302803,2,39,0.5501165986061096,3.995838880538941,37.87146631029536,37.36135073718026,151.08254323912664,136.33484398364445,3.237724376958795e-05,0.0931148082017898,0,0,0
12669,438593.1369805847,2010-11-21 13:35:35,3541.798161067048,2,39,0.550297200679779,3.99810528755188,37.87605401494845,37.36135073718026,151.10087980115625,136.33484398364445,9.713172767078504e-05,0.0931148082017898,0,0,0
12670,438623.1523765758,2010-11-21 13:36:05,3571.8135570431577,2,39,0.550297200679779,4.000209808349609,37.88064164303537,37.36135073718026,151.1192257744445,136.33484398364445,9.713172767078504e-05,0.0931148082017898,0,0,0
12671,438653.1676986926,2010-11-21 13:36:35,3601.828879159903,2,39,0.550297200679779,4.002314567565918,37.88522922445852,37.36135073718026,151.1375815028666,136.33484398364445,6.47544875391759e-05,0.0931148082017898,0,0,0
12672,438683.1831911696,2010-11-21 13:37:05,3631.8443716519314,2,39,0.550297200679779,4.004418849945068,37.88981683255037,37.36135073718026,151.1559473099847,136.33484398364445,6.47544875391759e-05,0.0931148082017898,0,0,0
12673,438713.2003664972,2010-11-21 13:37:35,3661.861546984588,2,39,0.5501165986061096,4.006685256958008,37.89440472211163,37.36135073718026,151.17432436042492,136.33484398364445,6.47544875391759e-05,0.0931148082017898,0,0,0
12674,438743.2139457936,2010-11-21 13:38:05,3691.875126265949,2,39,0.5501165986061096,4.008951663970947,37.898992090541896,37.36135073718026,151.19270959668654,136.33484398364445,6.47544875391759e-05,0.0931148082017898,0,0,0
12675,438773.22933277226,2010-11-21 13:38:35,3721.890513254624,2,39,0.550297200679779,4.011218070983887,37.90357970155426,37.36135073718026,151.21110609713313,136.33484398364445,6.47544875391759e-05,0.0931148082017898,0,0,0
12676,438803.2445828041,2010-11-21 13:39:05,3751.905763286434,2,39,0.550297200679779,4.013484477996826,37.90816733206575,37.36135073718026,151.22951316308172,136.33484398364445,3.23295607813634e-05,0.0931148082017898,0,0,0
12677,438833.25999680016,2010-11-21 13:39:35,3781.921177282524,2,39,0.550297200679779,4.015750885009766,37.91275504026666,37.36135073718026,151.24793104801475,136.33484398364445,3.23295607813634e-05,0.0931148082017898,0,0,0
12678,438863.2753011024,2010-11-21 13:40:05,3811.9364815848026,2,39,0.5501165986061096,4.018017292022705,37.91734266168081,37.36135073718026,151.266359216498,136.33484398364445,0.0,0.0931148082017898,0,0,0
12679,438893.2907046474,2010-11-21 13:40:35,3841.9518851147673,2,39,0.550297200679779,4.020445823669434,37.921930358039226,37.36135073718026,151.2847983700675,136.33484398364445,3.24249267578125e-05,0.0931148082017898,0,0,0
12680,438923.30603568646,2010-11-21 13:41:05,3871.967216168822,2,39,0.550297200679779,4.022873878479004,37.92651803215413,37.36135073718026,151.30324835244045,136.33484398364445,6.47544875391759e-05,0.0931148082017898,0,0,0
12681,438953.3214221187,2010-11-21 13:41:35,3901.982602601108,2,39,0.5501165986061096,4.025140285491943,37.93110569576193,37.36135073718026,151.3217091598073,136.33484398364445,3.23295607813634e-05,0.0931148082017898,0,0,0
12682,438983.3369986656,2010-11-21 13:42:05,3931.998179228151,2,39,0.550297200679779,4.027568817138672,37.93569329046436,37.36135073718026,151.34018071724063,136.33484398364445,3.24249267578125e-05,0.0931148082017898,0,0,0
12683,439013.3521476552,2010-11-21 13:42:35,3962.013328142556,2,39,0.550297200679779,4.030158996582031,37.940280952893865,37.36135073718026,151.35866372492853,136.33484398364445,9.71794142969884e-05,0.0931148082017898,0,0,0
12684,439043.3676031599,2010-11-21 13:43:05,3992.028783642246,2,39,0.5501165986061096,4.032587051391602,37.944868574560445,37.36135073718026,151.37715776639442,136.33484398364445,9.70840483205393e-05,0.0931148082017898,0,0,0
12685,439073.38290626416,2010-11-21 13:43:35,4022.0440867465327,2,39,0.550297200679779,4.035015106201172,37.94945625534153,37.36135073718026,151.39566336269863,136.33484398364445,6.47544875391759e-05,0.0931148082017898,0,0,0
12686,439103.39827869146,2010-11-21 13:44:05,4052.059459173861,2,39,0.550297200679779,4.037605285644531,37.95404388895791,37.36135073718026,151.41418018852795,136.33484398364445,9.70840483205393e-05,0.0931148082017898,0,0,0
12687,439133.4136398106,2010-11-21 13:44:35,4082.0748202929626,2,39,0.5501165986061096,4.039871692657471,37.95863156088598,37.36135073718026,151.4327087600023,136.33484398364445,3.23295607813634e-05,0.0931148082017898,0,0,0
12688,439163.42901144095,2010-11-21 13:45:05,4112.090191923301,2,39,0.5504778623580933,4.042623996734619,37.96321925602373,37.36135073718026,151.45124896985376,136.33484398364445,6.47544875391759e-05,0.0931148082017898,0,0,0
12689,439193.4446189501,2010-11-21 13:45:35,4142.105799432429,2,39,0.550297200679779,4.045375823974609,37.96780696156484,37.36135073718026,151.46980105535994,136.33484398364445,9.70840483205393e-05,0.0931148082017898,0,0,0
12690,439223.44707026926,2010-11-21 13:46:05,4172.108250751684,2,39,0.550297200679779,4.047804355621338,37.97239264499742,37.36135073718026,151.4883567750948,136.33484398364445,9.71794142969884e-05,0.0931148082017898,0,0,0
12691,439253.4595506527,2010-11-21 13:46:35,4202.120731135025,2,39,0.5501165986061096,4.050232410430908,37.97697984424198,37.36135073718026,151.506930687625,136.33484398364445,3.23295607813634e-05,0.0931148082017898,0,0,0
12692,439283.47488660895,2010-11-21 13:47:05,4232.136067091316,2,39,0.550297200679779,4.052984714508057,37.98156747191626,37.36135073718026,151.52551836489192,136.33484398364445,6.47544875391759e-05,0.0931148082017898,0,0,0
12693,439313.49026907136,2010-11-21 13:47:35,4262.151449533643,2,39,0.5504778623580933,4.055736541748047,37.98615510024099,37.36135073718026,151.54411825382792,136.33484398364445,6.47544875391759e-05,0.0931148082017898,0,0,0
12694,439343.5074418877,2010-11-21 13:48:05,4292.168622355032,2,39,0.550297200679779,4.058326721191406,37.99074309018451,37.36135073718026,151.56273191691682,136.33484398364445,6.47544875391759e-05,0.0931148082017898,0,0,0
12695,439373.5209935,2010-11-21 13:48:35,4322.1821739823645,2,39,0.550297200679779,4.060755252838135,37.99533055014014,37.36135073718026,151.58135571437154,136.33484398364445,3.24249267578125e-05,0.0931148082017898,0,0,0
12696,439403.5364359471,2010-11-21 13:49:05,4352.197616414434,2,39,0.5501165986061096,4.063830852508545,37.999918240470656,37.36135073718026,151.59999273426325,136.33484398364445,9.70840483205393e-05,0.0931148082017898,0,0,0
12697,439433.5517497482,2010-11-21 13:49:35,4382.21293023046,2,39,0.550297200679779,4.066583156585693,38.00450588055328,37.36135073718026,151.6186423644331,136.33484398364445,6.47544875391759e-05,0.0931148082017898,0,0,0
12698,439463.5671531177,2010-11-21 13:50:05,4412.228333600025,2,39,0.5501165986061096,4.069334983825684,38.00909355030528,37.36135073718026,151.6373049222293,136.33484398364445,9.70840483205393e-05,0.0931148082017898,0,0,0
12699,439493.5826066325,2010-11-21 13:50:35,4442.243787099722,2,39,0.5501165986061096,4.072087287902832,38.01368122777869,37.36135073718026,151.6559804630554,136.33484398364445,6.47544875391759e-05,0.0931148082017898,0,0,0
12700,439523.597981952,2010-11-21 13:51:05,4472.259162434307,2,39,0.550297200679779,4.075162887573242,38.01826886414662,37.36135073718026,151.67466891123192,136.33484398364445,9.70840483205393e-05,0.0931148082017898,0,0,0
12701,439553.6133013369,2010-11-21 13:51:35,4502.274481819234,2,39,0.550297200679779,4.077915191650391,38.02285651992237,37.36135073718026,151.6933706260171,136.33484398364445,6.47544875391759e-05,0.0931148082017898,0,0,0
12702,439583.62861242605,2010-11-21 13:52:05,4532.289792908452,2,39,0.550297200679779,4.08082914352417,38.02744418729994,37.36135073718026,151.71208569142613,136.33484398364445,6.47544875391759e-05,0.0931148082017898,0,0,0
12703,439613.64410376025,2010-11-21 13:52:35,4562.305284327803,2,39,0.550297200679779,4.083743095397949,38.03203185291516,37.36135073718026,151.7308139751031,136.33484398364445,6.47544875391759e-05,0.0931148082017898,0,0,0
12704,439643.6593440226,2010-11-21 13:53:05,4592.320524505015,2,39,0.5501165986061096,4.0866570472717285,38.03661945867677,37.36135073718026,151.74955551115457,136.33484398364445,6.47544875391759e-05,0.0931148082017898,0,0,0
12705,439673.6747654072,2010-11-21 13:53:35,4622.335945874509,2,39,0.550297200679779,4.089732646942139,38.04120709586464,37.36135073718026,151.76831068884897,136.33484398364445,6.47544875391759e-05,0.0931148082017898,0,0,0
12706,439703.69012495736,2010-11-21 13:54:05,4652.351305439732,2,39,0.550297200679779,4.092646598815918,38.04579472718169,37.36135073718026,151.7870794370969,136.33484398364445,3.23295607813634e-05,0.0931148082017898,0,0,0
12707,439733.7055881312,2010-11-21 13:54:35,4682.366768613578,2,39,0.550297200679779,4.095560550689697,38.05038239768291,37.36135073718026,151.8058621157094,136.33484398364445,3.23295607813634e-05,0.0931148082017898,0,0,0
12708,439763.72108587634,2010-11-21 13:55:05,4712.382266343681,2,39,0.550297200679779,4.0987982749938965,38.05497007270239,37.36135073718026,151.82465880792276,136.33484398364445,0.0001295089750783,0.0931148082017898,0,0,0
12709,439793.7363343393,2010-11-21 13:55:35,4742.397514821612,2,39,0.550297200679779,4.101874351501465,38.05955777505528,37.36135073718026,151.84346956378386,136.33484398364445,9.71794142969884e-05,0.0931148082017898,0,0,0
12710,439823.7516514535,2010-11-21 13:56:05,4772.412831935871,2,39,0.550297200679779,4.104949951171875,38.06414540841296,37.36135073718026,151.86229402255427,136.33484398364445,9.70840483205393e-05,0.0931148082017898,0,0,0
12711,439853.7521061238,2010-11-21 13:56:35,4802.4132867264825,2,39,0.550297200679779,4.108026027679443,38.0687307532176,37.36135073718026,151.88112332643348,136.33484398364445,0.0001295089750783,0.0931148082017898,0,0,0
12712,439883.7667075616,2010-11-21 13:57:06,4832.427888044002,2,39,0.550297200679779,4.1111016273498535,38.07331824322097,37.36135073718026,151.89997570006565,136.33484398364445,6.47544875391759e-05,0.0931148082017898,0,0,0
12713,439913.782160555,2010-11-21 13:57:36,4862.4433411577365,2,39,0.550297200679779,4.114177703857422,38.077905898601685,37.36135073718026,151.9188431935631,136.33484398364445,6.47544875391759e-05,0.0931148082017898,0,0,0
12714,439943.7974465867,2010-11-21 13:58:06,4892.458627069107,2,39,0.5499359965324402,4.117253303527832,38.08249350477303,37.36135073718026,151.93772502866636,136.33484398364445,3.24249267578125e-05,0.0931148082017898,0,0,0
12715,439973.81475912686,2010-11-21 13:58:36,4922.47593959923,2,39,0.550297200679779,4.120491027832031,38.08708148615029,37.36135073718026,151.95662308365897,136.33484398364445,3.24249267578125e-05,0.0931148082017898,0,0,0
12716,440003.8282293209,2010-11-21 13:59:06,4952.48940980833,2,39,0.550297200679779,4.123890399932861,38.09166884356453,37.36135073718026,151.9755333641646,136.33484398364445,9.70840483205393e-05,0.0931148082017898,0,0,0
12717,440033.8435969914,2010-11-21 13:59:36,4982.504777473771,2,39,0.5501165986061096,4.1271281242370605,38.09625651011034,37.36135073718026,151.99445977679818,136.33484398364445,9.70840483205393e-05,0.0931148082017898,0,0,0
12718,440063.8589510328,2010-11-21 14:00:06,5012.520131515205,2,39,0.550297200679779,4.13036584854126,38.10084414611908,37.36135073718026,152.0134010731946,136.33484398364445,6.47544875391759e-05,0.0931148082017898,0,0,0
12719,440093.8743329839,2010-11-21 14:00:36,5042.535513471318,2,39,0.550297200679779,4.133765697479248,38.10543182458651,37.36135073718026,152.0323576533825,136.33484398364445,9.71794142969884e-05,0.0931148082017898,0,0,0
12720,440123.8896879276,2010-11-21 14:01:06,5072.550868409992,2,39,0.550297200679779,4.137003421783447,38.110019524724805,37.36135073718026,152.05132943696634,136.33484398364445,9.71794142969884e-05,0.0931148082017898,0,0,0
12721,440153.9050980641,2010-11-21 14:01:36,5102.566278561486,2,39,0.550297200679779,4.140241146087647,38.114607282044304,37.36135073718026,152.07031663121757,136.33484398364445,6.47544875391759e-05,0.0931148082017898,0,0,0
12722,440183.920482346,2010-11-21 14:02:06,5132.581662828368,2,39,0.5501165986061096,4.143478870391846,38.119195060818726,37.36135073718026,152.08931920838305,136.33484398364445,6.47544875391759e-05,0.0931148082017898,0,0,0
12723,440213.9360169181,2010-11-21 14:02:36,5162.597197400434,2,39,0.5501165986061096,4.147202014923096,38.123782369873936,37.36135073718026,152.10833550635687,136.33484398364445,9.70840483205393e-05,0.0931148082017898,0,0,0
12724,440243.9511804991,2010-11-21 14:03:06,5192.6123609814495,2,39,0.550297200679779,4.150601863861084,38.128369203276506,37.36135073718026,152.12736560895556,136.33484398364445,0.0001295089750783,0.0931148082017898,0,0,0
12725,440273.9665458286,2010-11-21 14:03:36,5222.627726311061,2,39,0.5501165986061096,4.154001235961914,38.13295604122102,37.36135073718026,152.14641157219046,136.33484398364445,6.47544875391759e-05,0.0931148082017898,0,0,0
12726,440303.98192165454,2010-11-21 14:04:06,5252.643102141885,2,39,0.5501165986061096,4.157724857330322,38.13754290442544,37.36135073718026,152.16547358962185,136.33484398364445,0.0001295089750783,0.0931148082017898,0,0,0
12727,440333.99743089336,2010-11-21 14:04:36,5282.658611360665,2,39,0.5501165986061096,4.1609625816345215,38.142130119348565,37.36135073718026,152.18455324622087,136.33484398364445,6.47544875391759e-05,0.0931148082017898,0,0,0
12728,440364.0126627548,2010-11-21 14:05:06,5312.673843237157,2,39,0.5501165986061096,4.164524078369141,38.14671779942864,37.36135073718026,152.203650995989,136.33484398364445,9.71794142969884e-05,0.0931148082017898,0,0,0
12729,440394.02807295136,2010-11-21 14:05:36,5342.689253433763,2,39,0.550297200679779,4.168247222900391,38.15130542931166,37.36135073718026,152.22276466093564,136.33484398364445,0.0001295089750783,0.0931148082017898,0,0,0
12730,440424.04340244655,2010-11-21 14:06:06,5372.704582928926,2,39,0.550297200679779,4.171647071838379,38.15589302719843,37.36135073718026,152.2418945655415,136.33484398364445,9.71794142969884e-05,0.0931148082017898,0,0,0
12731,440454.058785726,2010-11-21 14:06:36,5402.719966208343,2,39,0.550297200679779,4.175370216369629,38.1604806741368,37.36135073718026,152.26104106144268,136.33484398364445,0.0001295089750783,0.0931148082017898,0,0,0
12732,440484.0741495168,2010-11-21 14:07:06,5432.735329984075,2,39,0.5501165986061096,4.178931713104248,38.16506828309987,37.36135073718026,152.2802040159683,136.33484398364445,9.70840483205393e-05,0.0931148082017898,0,0,0
12733,440514.08951874607,2010-11-21 14:07:36,5462.750699228459,2,39,0.550297200679779,4.182816982269287,38.16965592450354,37.36135073718026,152.29938383938784,136.33484398364445,0.0001618385285837,0.0931148082017898,0,0,0
12734,440544.1048997849,2010-11-21 14:08:06,5492.766080267283,2,39,0.550297200679779,4.186216831207275,38.17424359372461,37.36135073718026,152.31858054327088,136.33484398364445,6.47544875391759e-05,0.0931148082017898,0,0,0
12735,440574.1221721598,2010-11-21 14:08:36,5522.783352632147,2,39,0.550297200679779,4.189939975738525,38.178831554928834,37.36135073718026,152.3377954211075,136.33484398364445,9.70840483205393e-05,0.0931148082017898,0,0,0
12736,440604.13570366194,2010-11-21 14:09:06,5552.796884144268,2,39,0.550297200679779,4.193663597106934,38.18341893767782,37.36135073718026,152.3570248071555,136.33484398364445,9.71794142969884e-05,0.0931148082017898,0,0,0
12737,440634.1509987111,2010-11-21 14:09:36,5582.812179193448,2,39,0.550297200679779,4.197386741638184,38.18800650464902,37.36135073718026,152.37627193977812,136.33484398364445,9.71794142969884e-05,0.0931148082017898,0,0,0
12738,440654.776019045,2010-11-21 14:09:57,5603.437199512244,2,39,0.550297200679779,4.200138568878174,38.191158885917886,37.36135073718026,152.3895076969854,136.33484398364445,0.0001295089750783,0.0931148082017898,0,0,0
12739,440684.783655439,2010-11-21 14:10:27,30.01528107930951,3,39,0.0,4.117738723754883,38.191158885917886,37.36135073718026,152.3895076969854,136.33484398364445,-0.0003561973571777,0.0931148082017898,0,0,0
12740,440714.7990286833,2010-11-21 14:10:57,60.030654323677176,3,39,0.0,4.107378482818604,38.191158885917886,37.36135073718026,152.3895076969854,136.33484398364445,-0.0002590179501567,0.0931148082017898,0,0,0
12741,440744.8146688941,2010-11-21 14:11:27,90.04629455448408,3,39,0.0,4.101712226867676,38.191158885917886,37.36135073718026,152.3895076969854,136.33484398364445,-9.71794142969884e-05,0.0931148082017898,0,0,0
12742,440774.7829431522,2010-11-21 14:11:57,120.01456879248586,3,39,0.0,4.097989082336426,38.191158885917886,37.36135073718026,152.3895076969854,136.33484398364445,-9.70840483205393e-05,0.0931148082017898,0,0,0
12743,440774.79217348655,2010-11-21 14:11:57,0.015681473370066,4,39,0.9797860980033876,4.199653148651123,38.19116316996236,37.36135073718026,152.38952568848623,136.33484398364445,0.0,0.0931148082017898,0,0,0
12744,440775.8546592394,2010-11-21 14:11:58,1.078167231281159,4,39,0.9292154908180236,4.199491024017334,38.19144344411174,37.36135073718026,152.3907027548822,136.33484398364445,-3.24249267578125e-05,0.0931148082017898,0,0,0
12745,440778.0577137474,2010-11-21 14:12:00,3.281221754302085,4,39,0.8790060877799988,4.199653148651123,38.19199553747673,37.36135073718026,152.393021379122,136.33484398364445,0.0,0.0931148082017898,0,0,0
12746,440781.3857466746,2010-11-21 14:12:03,6.609254676480909,4,39,0.8287967443466187,4.199653148651123,38.192783604441935,37.36135073718026,152.39633101982716,136.33484398364445,-3.23295607813634e-05,0.0931148082017898,0,0,0
12747,440785.9326575437,2010-11-21 14:12:08,11.156165545534815,4,39,0.7787679433822632,4.199653148651123,38.19379739236482,37.36135073718026,152.4005886399307,136.33484398364445,0.0,0.0931148082017898,0,0,0
12748,440791.9170189554,2010-11-21 14:12:14,17.14052694726452,4,39,0.7285585999488831,4.199814796447754,38.195048510398166,37.36135073718026,152.40584299757984,136.33484398364445,3.23295607813634e-05,0.0931148082017898,0,0,0
12749,440799.7606170079,2010-11-21 14:12:22,24.98412507991101,4,39,0.6785297989845276,4.199653148651123,38.19657884901232,37.36135073718026,152.4122699795587,136.33484398364445,-3.23295607813634e-05,0.0931148082017898,0,0,0
12750,440810.24490789085,2010-11-21 14:12:32,35.468415877710136,4,39,0.6285010576248169,4.199653148651123,38.198478360015,37.36135073718026,152.42024742686783,136.33484398364445,0.0,0.0931148082017898,0,0,0
12751,440825.197946987,2010-11-21 14:12:47,50.42145497376142,4,39,0.578291654586792,4.199653148651123,38.20097914058231,37.36135073718026,152.4307500434812,136.33484398364445,-3.23295607813634e-05,0.0931148082017898,0,0,0
12752,440848.7757936596,2010-11-21 14:13:11,73.99930166145495,4,39,0.5282629132270813,4.199653148651123,38.20459024539334,37.36135073718026,152.44591570677443,136.33484398364445,-3.23295607813634e-05,0.0931148082017898,0,0,0
12753,440889.5412292685,2010-11-21 14:13:52,114.76473725530266,4,39,0.4782341122627258,4.199653148651123,38.21026246728342,37.36135073718026,152.46973752149393,136.33484398364445,0.0,0.0931148082017898,0,0,0
12754,440960.74375653575,2010-11-21 14:15:03,185.9672645225968,4,39,0.4282053411006927,4.199653148651123,38.21919229195213,37.36135073718026,152.5072404605213,136.33484398364445,-3.23295607813634e-05,0.0931148082017898,0,0,0
12755,441061.80527396617,2010-11-21 14:16:44,287.0287819530289,4,39,0.3781765699386596,4.199814796447754,38.23048704315038,37.36135073718026,152.55467544263686,136.33484398364445,3.23295607813634e-05,0.0931148082017898,0,0,0
12756,441185.64796795807,2010-11-21 14:18:48,410.8714759599925,4,39,0.3281477987766266,4.199814796447754,38.24261288505853,37.36135073718026,152.60560080888789,136.33484398364445,6.47544875391759e-05,0.0931148082017898,0,0,0
12757,441332.0687397759,2010-11-21 14:21:14,557.2922477626846,4,39,0.2779384255409241,4.199653148651123,38.25491760244409,37.36135073718026,152.6572774124094,136.33484398364445,0.0,0.0931148082017898,0,0,0
12758,441509.3797338206,2010-11-21 14:24:11,734.6032418074348,4,39,0.2279096692800521,4.199653148651123,38.26734448497069,37.36135073718026,152.70946698967458,136.33484398364445,0.0,0.0931148082017898,0,0,0
12759,441731.75274143886,2010-11-21 14:27:54,956.9762494407194,4,39,0.1778808981180191,4.199653148651123,38.27983046436843,37.36135073718026,152.76190476644618,136.33484398364445,-3.23295607813634e-05,0.0931148082017898,0,0,0
12760,442036.625278961,2010-11-21 14:32:59,1261.8487869478042,4,39,0.127852126955986,4.199491024017334,38.29267681925559,37.36135073718026,152.8158560474774,136.33484398364445,-6.47544875391759e-05,0.0931148082017898,0,0,0
12761,442526.88683962624,2010-11-21 14:41:09,1752.1103476281178,4,39,0.0778233557939529,4.199653148651123,38.30639825920426,37.36135073718026,152.87348248875543,136.33484398364445,0.0,0.0931148082017898,0,0,0
12762,443006.9295865804,2010-11-21 14:49:09,2232.1530945822456,4,39,0.0498289167881011,4.199653148651123,38.31479448524138,37.36135073718026,152.90874430536073,136.33484398364445,-3.23295607813634e-05,0.0931148082017898,0,0,0
12763,443036.94159102696,2010-11-21 14:49:39,30.01537679823868,5,39,0.0,4.192044734954834,38.31479448524138,37.36135073718026,152.90874430536073,136.33484398364445,-6.47544875391759e-05,0.0931148082017898,0,0,0
12764,443066.9413534193,2010-11-21 14:50:09,60.01513919051787,5,39,0.0,4.191073417663574,38.31479448524138,37.36135073718026,152.90874430536073,136.33484398364445,3.24249267578125e-05,0.0931148082017898,0,0,0
12765,443067.1259763628,2010-11-21 14:50:09,0.187525136590952,6,39,-1.9243103452026844e-05,4.191073417663574,38.31479448524138,37.36135073818264,152.90874430536073,136.3348439878455,0.0,0.0931148082017898,0,0,0
12766,443071.9541271199,2010-11-21 14:50:14,5.015675913723102,6,39,0.0007031940040178,4.190911293029785,38.31479548329119,37.361350738349365,152.90874848827718,136.33484398854426,-6.47544875391759e-05,0.0931148082017898,0,0,0
12767,443101.9821980398,2010-11-21 14:50:44,30.015389414731388,7,39,-1.0997490882873535,4.021578788757324,38.31479548329119,37.3705199038535,152.90874848827718,136.37190674365485,-0.0008742332574911,0.0931148082017898,0,0,0
12768,443131.9975618507,2010-11-21 14:51:14,60.03075322555147,7,39,-1.099568486213684,3.99648642539978,38.31479548329119,37.379689068408965,152.90874848827718,136.40865729478716,-0.0005504131549969,0.0931148082017898,0,0,0
12769,443162.0130814605,2010-11-21 14:51:44,90.04627283526956,7,39,-1.0997490882873535,3.979002952575684,38.31479548329119,37.38885829172349,152.90874848827718,136.44521812374157,-0.0004532813909463,0.0931148082017898,0,0,0
12770,443192.02842871496,2010-11-21 14:52:14,120.06162008976251,7,39,-1.099568486213684,3.965566396713257,38.31479548329119,37.39802729924674,152.90874848827718,136.48163836201348,-0.0003237724304199,0.0931148082017898,0,0,0
12771,443222.0438698337,2010-11-21 14:52:44,150.07706119351766,7,39,-1.099568486213684,3.95391058921814,38.31479548329119,37.40719634818285,152.90874848827718,136.517943917536,-0.0002590179501567,0.0931148082017898,0,0,0
12772,443252.05918068736,2010-11-21 14:53:14,180.09237204714847,7,39,-1.0997490882873535,3.943387985229492,38.31479548329119,37.416365474857415,152.90874848827718,136.55414863404212,-0.0002913951757363,0.0931148082017898,0,0,0
12773,443282.0745601674,2010-11-21 14:53:44,210.10775152708104,7,39,-1.0997490882873535,3.933512926101685,38.31479548329119,37.42553449123134,152.90874848827718,136.59025930064828,-0.0002266406954731,0.0931148082017898,0,0,0
12774,443312.0898001039,2010-11-21 14:54:14,240.12299146870456,7,39,-1.0997490882873535,3.923961639404297,38.31479548329119,37.43470349777386,152.90874848827718,136.6262813338522,-0.0002590179501567,0.0931148082017898,0,0,0
12775,443342.1052318844,2010-11-21 14:54:44,270.1384232592124,7,39,-1.099568486213684,3.915057897567749,38.31479548329119,37.44387256652351,152.90874848827718,136.66221927478614,-0.0002266406954731,0.0931148082017898,0,0,0
12776,443372.1205560112,2010-11-21 14:55:15,300.1537473859749,7,39,-1.0997490882873535,3.9063162803649902,38.31479548329119,37.453041605909256,152.90874848827718,136.69807566624573,-0.0002266406954731,0.0931148082017898,0,0,0
12777,443402.1359250951,2010-11-21 14:55:45,330.1691164699577,7,39,-1.0997490882873535,3.8977363109588623,38.31479548329119,37.46221062662243,152.90874848827718,136.73385257600984,-0.0001942634553415,0.0931148082017898,0,0,0
12778,443432.1513428557,2010-11-21 14:56:15,360.18453422041944,7,39,-1.0997490882873535,3.889318227767944,38.31479548329119,37.47137968097948,152.90874848827718,136.76955218240488,-0.0002266406954731,0.0931148082017898,0,0,0
12779,443462.1666870375,2010-11-21 14:56:45,390.19987841226754,7,39,-1.099568486213684,3.881062030792236,38.31479548329119,37.480548712696056,152.90874848827718,136.80517568011263,-0.0002266406954731,0.0931148082017898,0,0,0
12780,443492.18205796607,2010-11-21 14:57:15,420.21524934085465,7,39,-1.0997490882873535,3.872805833816528,38.31479548329119,37.48971774663439,152.90874848827718,136.84072366175778,-0.0002266406954731,0.0931148082017898,0,0,0
12781,443522.1974239222,2010-11-21 14:57:45,450.23061529702994,7,39,-1.0997490882873535,3.8647115230560303,38.31479548329119,37.49888680247656,152.90874848827718,136.87619689444264,-0.0001942634553415,0.0931148082017898,0,0,0
12782,443552.2127950462,2010-11-21 14:58:15,480.245986421105,7,39,-1.0997490882873535,3.856940984725952,38.31479548329119,37.50805585321201,152.90874848827718,136.91159676324224,-0.0001942634553415,0.0931148082017898,0,0,0
12783,443582.2300770903,2010-11-21 14:58:45,510.2632684500928,7,39,-1.099568486213684,3.849008560180664,38.31479548329119,37.51722543453592,152.90874848827718,136.94692618364328,-0.0001942634553415,0.0931148082017898,0,0,0
12784,443612.2435627079,2010-11-21 14:59:15,540.276754102741,7,39,-1.099929690361023,3.841076135635376,38.31479548329119,37.52639393375466,152.90874848827718,136.98218014407877,-0.0002590179501567,0.0931148082017898,0,0,0
12785,443642.25911285385,2010-11-21 14:59:45,570.2923042135948,7,39,-1.0997490882873535,3.833467483520508,38.31479548329119,37.5355631196396,152.90874848827718,137.01736614319404,-0.0002590179501567,0.0931148082017898,0,0,0
12786,443672.2742976879,2010-11-21 15:00:15,600.3074890626988,7,39,-1.0997490882873535,3.8258590698242183,38.31479548329119,37.5447320920149,152.90874848827718,137.05248148525928,-0.0002590179501567,0.0931148082017898,0,0,0
12787,443702.2898969314,2010-11-21 15:00:45,630.3230883061951,7,39,-1.099568486213684,3.818736076354981,38.31479548329119,37.5539012843203,152.90874848827718,137.08752943553594,-0.0001942634553415,0.0931148082017898,0,0,0
12788,443732.3050434347,2010-11-21 15:01:15,660.3382347945449,7,39,-1.0997490882873535,3.811451196670532,38.31479548329119,37.56307028449925,152.90874848827718,137.12251008286745,-0.0001618862152099,0.0931148082017898,0,0,0
12789,443762.3205903426,2010-11-21 15:01:45,690.3537817374909,7,39,-1.0997490882873535,3.804490089416504,38.31479548329119,37.57223928568796,152.90874848827718,137.15742503504384,-0.0001942634553415,0.0931148082017898,0,0,0
12790,443792.3357640539,2010-11-21 15:02:15,720.3689554137057,7,39,-1.0997490882873535,3.797528982162476,38.31479548329119,37.58140817060213,152.90874848827718,137.19227498398484,-0.0001618862152099,0.0931148082017898,0,0,0
12791,443822.35115442105,2010-11-21 15:02:45,750.3843457958518,7,39,-1.0997490882873535,3.790729761123657,38.31479548329119,37.5905770557277,152.90874848827718,137.22706207271784,-0.0001295089750783,0.0931148082017898,0,0,0
12792,443852.3665576051,2010-11-21 15:03:15,780.3997489649162,7,39,-1.099929690361023,3.783768653869629,38.31479548329119,37.59974593592832,152.90874848827718,137.26178701336488,-0.0001942634553415,0.0931148082017898,0,0,0
12793,443882.3818860577,2010-11-21 15:03:45,810.4150774174766,7,39,-1.099929690361023,3.7772932052612314,38.31479548329119,37.60891491485047,152.90874848827718,137.29645141067616,-0.0001942634553415,0.0931148082017898,0,0,0
12794,443912.3972588459,2010-11-21 15:04:15,840.4304502207433,7,39,-1.099929690361023,3.770979642868042,38.31479548329119,37.618084032400574,152.90874848827718,137.3310578688438,-0.0001942634553415,0.0931148082017898,0,0,0
12795,443942.413077041,2010-11-21 15:04:45,870.4462684007387,7,39,-1.0997490882873535,3.7651517391204834,38.31479548329119,37.62725323837526,152.90874848827718,137.36560788404924,-0.0001295089750783,0.0931148082017898,0,0,0
12796,443972.4280175551,2010-11-21 15:05:15,900.4612089299828,7,39,-1.0997490882873535,3.758838176727295,38.31479548329119,37.6364221757449,152.90874848827718,137.400101033673,-0.0001618862152099,0.0931148082017898,0,0,0
12797,444002.4433881027,2010-11-21 15:05:45,930.4765794675942,7,39,-1.0997490882873535,3.752686738967896,38.31479548329119,37.64559126095335,152.90874848827718,137.43453883699138,-0.0001942157687153,0.0931148082017898,0,0,0
12798,444032.45876093616,2010-11-21 15:06:15,960.4919522959232,7,39,-1.099568486213684,3.747020721435547,38.31479548329119,37.65476037085194,152.90874848827718,137.4689218314888,-0.0001295089750783,0.0931148082017898,0,0,0
12799,444062.4742500146,2010-11-21 15:06:45,990.5074414095184,7,39,-1.099568486213684,3.741192817687988,38.31479548329119,37.66392954101294,152.90874848827718,137.50325159367006,-0.0001618862152099,0.0931148082017898,0,0,0
12800,444092.4896382665,2010-11-21 15:07:15,1020.5228296412968,7,39,-1.099568486213684,3.7353649139404297,38.31479548329119,37.67309859992005,152.90874848827718,137.53752821829482,-0.0001618862152099,0.0931148082017898,0,0,0
12801,444122.5048928546,2010-11-21 15:07:45,1050.538084234493,7,39,-1.099568486213684,3.729860782623291,38.31479548329119,37.68226765394356,152.90874848827718,137.5717526101725,-0.0001295089750783,0.0931148082017898,0,0,0
12802,444152.5202885,2010-11-21 15:08:15,1080.553479879777,7,39,-1.0997490882873535,3.724356651306152,38.31479548329119,37.69143670348399,152.90874848827718,137.60592644980153,-0.0001618862152099,0.0931148082017898,0,0,0
12803,444182.53754046885,2010-11-21 15:08:45,1110.5707318236678,7,39,-1.099568486213684,3.7188525199890137,38.31479548329119,37.700606354699865,152.90874848827718,137.64005228948986,-0.0001618862152099,0.0931148082017898,0,0,0
12804,444212.55101732456,2010-11-21 15:09:15,1140.58420868437,7,39,-1.0997490882873535,3.713672161102295,38.31479548329119,37.70977482701167,152.90874848827718,137.67412437873642,-0.0001295089750783,0.0931148082017898,0,0,0
12805,444242.5665121925,2010-11-21 15:09:45,1170.5997035673663,7,39,-1.099568486213684,3.708329916000366,38.31479548329119,37.71894398917439,152.90874848827718,137.70815026867422,-9.713172767078504e-05,0.0931148082017898,0,0,0
12806,444272.581830996,2010-11-21 15:10:15,1200.6150223558036,7,39,-1.099568486213684,3.703149557113648,38.31479548329119,37.7281131096716,152.90874848827718,137.7421283165121,-9.713172767078504e-05,0.0931148082017898,0,0,0
12807,444302.5971488521,2010-11-21 15:10:45,1230.6303402119138,7,39,-1.099929690361023,3.6979691982269287,38.31479548329119,37.73728220636818,152.90874848827718,137.77605895422178,-0.0001295089750783,0.0931148082017898,0,0,0
12808,444332.612503831,2010-11-21 15:11:15,1260.6456952057251,7,39,-1.0997490882873535,3.69295072555542,38.31479548329119,37.7464513309123,152.90874848827718,137.80994296114662,-0.0001295089750783,0.0931148082017898,0,0,0
12809,444362.6278812507,2010-11-21 15:11:45,1290.6610726305278,7,39,-1.099929690361023,3.687932252883911,38.31479548329119,37.75562047178109,152.90874848827718,137.84378097775513,-0.0001295089750783,0.0931148082017898,0,0,0
12810,444392.6433720986,2010-11-21 15:12:15,1320.6765634734395,7,39,-1.0997490882873535,3.683075666427612,38.31479548329119,37.764789619295634,152.90874848827718,137.8775736134872,-0.0001295089750783,0.0931148082017898,0,0,0
12811,444422.65878669627,2010-11-21 15:12:45,1350.6919780710311,7,39,-1.0997490882873535,3.6782190799713135,38.31479548329119,37.773958761939525,152.90874848827718,137.91132134775253,-0.0001295089750783,0.0931148082017898,0,0,0
12812,444452.6742461758,2010-11-21 15:13:15,1380.7074375356178,7,39,-1.0997490882873535,3.673362493515015,38.31479548329119,37.78312782771682,152.90874848827718,137.94502454562024,-0.0001295089750783,0.0931148082017898,0,0,0
12813,444482.6894125088,2010-11-21 15:13:45,1410.7226038685023,7,39,-1.0997490882873535,3.668668031692505,38.31479548329119,37.79229689653929,152.90874848827718,137.97868422123625,-0.0001295089750783,0.0931148082017898,0,0,0
12814,444512.70487149205,2010-11-21 15:14:15,1440.7380628669257,7,39,-1.0997490882873535,3.663973331451416,38.31479548329119,37.80146601643144,152.90874848827718,138.0123010559076,-9.713172767078504e-05,0.0931148082017898,0,0,0
12815,444542.720137985,2010-11-21 15:14:45,1470.7533293648376,7,39,-1.0997490882873535,3.659440517425537,38.31479548329119,37.81063508240683,152.90874848827718,138.04587569917433,-0.0001295089750783,0.0931148082017898,0,0,0
12816,444572.7354904374,2010-11-21 15:15:15,1500.7686817972556,7,39,-1.0997490882873535,3.655069589614868,38.31479548329119,37.81980419706167,152.90874848827718,138.0794092306884,-9.713172767078504e-05,0.0931148082017898,0,0,0
12817,444602.7508718071,2010-11-21 15:15:45,1530.7840631819429,7,39,-1.099929690361023,3.650536775588989,38.31479548329119,37.82897336345899,152.90874848827718,138.11290232452927,-0.0001295089750783,0.0931148082017898,0,0,0
12818,444632.7663051515,2010-11-21 15:16:15,1560.7994966466294,7,39,-1.0997490882873535,3.64616584777832,38.31479548329119,37.83814248317999,152.90874848827718,138.14635523504697,-0.0001295089750783,0.0931148082017898,0,0,0
12819,444662.784526846,2010-11-21 15:16:45,1590.8177183060795,7,39,-1.0997490882873535,3.641956806182861,38.31479548329119,37.84731244508724,152.90874848827718,138.17977168403712,-0.0001295089750783,0.0931148082017898,0,0,0
12820,444692.797146482,2010-11-21 15:17:15,1620.8303379771044,7,39,-1.099568486213684,3.637909650802612,38.31479548329119,37.8564806606853,152.90874848827718,138.21314310848578,-9.713172767078504e-05,0.0931148082017898,0,0,0
12821,444722.8123911604,2010-11-21 15:17:45,1650.8455825202138,7,39,-1.0997490882873535,3.633700609207153,38.31479548329119,37.86564973526758,152.90874848827718,138.24647993364647,-0.0001295089750783,0.0931148082017898,0,0,0
12822,444752.8278268557,2010-11-21 15:18:15,1680.8610183508065,7,39,-1.0997490882873535,3.629977226257324,38.31479548329119,37.8748188620032,152.90874848827718,138.27978006878396,-6.47544875391759e-05,0.0931148082017898,0,0,0
12823,444782.8449882837,2010-11-21 15:18:45,1710.8781796434178,7,39,-1.0997490882873535,3.625768184661865,38.31479548329119,37.88398856544477,152.90874848827718,138.31304631924854,-0.0001295089750783,0.0931148082017898,0,0,0
12824,444812.8585781916,2010-11-21 15:19:15,1740.8917696515534,7,39,-1.099568486213684,3.622368574142456,38.31479548329119,37.89315710806132,152.90874848827718,138.34627331011745,-6.47544875391759e-05,0.0931148082017898,0,0,0
12825,444842.87386862416,2010-11-21 15:19:45,1770.90705998396,7,39,-1.099568486213684,3.618483304977417,38.31479548329119,37.90232619833952,152.90874848827718,138.3794681192826,-9.713172767078504e-05,0.0931148082017898,0,0,0
12826,444872.8893049962,2010-11-21 15:20:15,1800.922496456154,7,39,-1.0997490882873535,3.614921808242798,38.31479548329119,37.91149530674375,152.90874848827718,138.41262946367524,-6.47544875391759e-05,0.0931148082017898,0,0,0
12827,444902.9047896786,2010-11-21 15:20:45,1830.9379810584885,7,39,-1.099929690361023,3.6111984252929688,38.31479548329119,37.920664535994646,152.90874848827718,138.44575873051977,-0.0001618862152099,0.0931148082017898,0,0,0
12828,444932.9202256246,2010-11-21 15:21:15,1860.9534169843184,7,39,-1.099929690361023,3.6079607009887695,38.31479548329119,37.929833716046325,152.90874848827718,138.47885596616032,-6.47544875391759e-05,0.0931148082017898,0,0,0
12829,444962.93551714486,2010-11-21 15:21:45,1890.968708519728,7,39,-1.0997490882873535,3.60456109046936,38.31479548329119,37.93900283652638,152.90874848827718,138.511921893411,-9.713172767078504e-05,0.0931148082017898,0,0,0
12830,444992.9508471314,2010-11-21 15:22:15,1920.98403859133,7,39,-1.0997490882873535,3.601323366165161,38.31479548329119,37.948171959490736,152.90874848827718,138.54495784525454,-6.47544875391759e-05,0.0931148082017898,0,0,0
12831,445022.96614710777,2010-11-21 15:22:45,1950.9993384825968,7,39,-1.0997490882873535,3.598085641860962,38.31479548329119,37.95734106741098,152.90874848827718,138.57796444712284,-0.0001295089750783,0.0931148082017898,0,0,0
12832,445052.98158440704,2010-11-21 15:23:15,1981.0147757818552,7,39,-1.0997490882873535,3.5951716899871826,38.31479548329119,37.96651030933936,152.90874848827718,138.61094298211412,-3.237724376958795e-05,0.0931148082017898,0,0,0
12833,445082.9968837319,2010-11-21 15:23:45,2011.0300751067089,7,39,-1.099929690361023,3.5920960903167725,38.31479548329119,37.975679516257415,152.90874848827718,138.64389342278875,-6.470680091297254e-05,0.0931148082017898,0,0,0
12834,445113.0124058278,2010-11-21 15:24:15,2041.0455972076447,7,39,-1.0997490882873535,3.589020252227783,38.31479548329119,37.98484878955821,152.90874848827718,138.67681657653642,-0.0001295089750783,0.0931148082017898,0,0,0
12835,445143.0276540751,2010-11-21 15:24:45,2071.0608454349517,7,39,-1.099568486213684,3.586268186569214,38.31479548329119,37.99401804645791,152.90874848827718,138.70971263374116,-6.47544875391759e-05,0.0931148082017898,0,0,0
12836,445173.04307012126,2010-11-21 15:25:15,2101.076261481159,7,39,-1.099929690361023,3.5831923484802246,38.31479548329119,38.00318733655851,152.90874848827718,138.74258183686817,-9.713172767078504e-05,0.0931148082017898,0,0,0
12837,445203.05848956114,2010-11-21 15:25:45,2131.091680920837,7,39,-1.0997490882873535,3.5804402828216557,38.31479548329119,38.01235655954411,152.90874848827718,138.77542439424684,-6.47544875391759e-05,0.0931148082017898,0,0,0
12838,445233.0737718133,2010-11-21 15:26:15,2161.1069631730743,7,39,-1.0997490882873535,3.577526330947876,38.31479548329119,38.021525780821285,152.90874848827718,138.80824052172227,-6.47544875391759e-05,0.0931148082017898,0,0,0
12839,445263.0891266016,2010-11-21 15:26:45,2191.122317961373,7,39,-1.099929690361023,3.5746123790740967,38.31479548329119,38.03069502562544,152.90874848827718,138.84103009342354,-9.713172767078504e-05,0.0931148082017898,0,0,0
12840,445293.1044883773,2010-11-21 15:27:16,2221.1376797521507,7,39,-1.099568486213684,3.5716984272003174,38.31479548329119,38.039864213829006,152.90874848827718,138.87379302396008,-9.713172767078504e-05,0.0931148082017898,0,0,0
12841,445323.119897802,2010-11-21 15:27:46,2251.153089161792,7,39,-1.0997490882873535,3.568784475326538,38.31479548329119,38.04903342299642,152.90874848827718,138.90652958108458,-9.713172767078504e-05,0.0931148082017898,0,0,0
12842,445353.1353220036,2010-11-21 15:28:16,2281.1685134084696,7,39,-1.0997490882873535,3.565870523452759,38.31479548329119,38.05820264688572,152.90874848827718,138.9392392015669,-6.47544875391759e-05,0.0931148082017898,0,0,0
12843,445383.1525022034,2010-11-21 15:28:46,2311.185693558151,7,39,-1.0997490882873535,3.5629565715789795,38.31479548329119,38.06737234468801,152.90874848827718,138.97192320092412,-6.47544875391759e-05,0.0931148082017898,0,0,0
12844,445413.1660357505,2010-11-21 15:29:16,2341.199227110364,7,39,-1.099568486213684,3.5598807334899902,38.31479548329119,38.0765409679575,152.90874848827718,139.004576387355,-6.47544875391759e-05,0.0931148082017898,0,0,0
12845,445443.1813512909,2010-11-21 15:29:46,2371.2145426506936,7,39,-1.0997490882873535,3.556643009185791,38.31479548329119,38.08571013542452,152.90874848827718,139.0372030131386,-0.0001295089750783,0.0931148082017898,0,0,0
12846,445473.196733242,2010-11-21 15:30:16,2401.229924616832,7,39,-1.099568486213684,3.5535671710968018,38.31479548329119,38.09487934106134,152.90874848827718,139.06980061896692,-6.47544875391759e-05,0.0931148082017898,0,0,0
12847,445503.2121239199,2010-11-21 15:30:46,2431.2453152947164,7,39,-1.1001102924346924,3.5501675605773926,38.31479548329119,38.10404853530338,152.90874848827718,139.10236835093718,-9.713172767078504e-05,0.0931148082017898,0,0,0
12848,445533.2121397398,2010-11-21 15:31:16,2461.24533115469,7,39,-1.0997490882873535,3.5467679500579834,38.31479548329119,38.11321304159866,152.90874848827718,139.13488863883467,-9.713172767078504e-05,0.0931148082017898,0,0,0
12849,445563.22722377226,2010-11-21 15:31:46,2491.26041514704,7,39,-1.0997490882873535,3.543368339538574,38.31479548329119,38.12238216033746,152.90874848827718,139.16739343481558,-9.713172767078504e-05,0.0931148082017898,0,0,0
12850,445593.24260231486,2010-11-21 15:32:16,2521.275793689633,7,39,-1.0997490882873535,3.539483070373535,38.31479548329119,38.13155136927984,152.90874848827718,139.19986585513516,-0.0001295089750783,0.0931148082017898,0,0,0
12851,445623.25797533867,2010-11-21 15:32:46,2551.2911667184626,7,39,-1.1001102924346924,3.535597801208496,38.31479548329119,38.14072060239089,152.90874848827718,139.23230421455077,-0.0001618862152099,0.0931148082017898,0,0,0
12852,445653.27357151447,2010-11-21 15:33:16,2581.3067628892886,7,39,-1.0997490882873535,3.531874418258667,38.31479548329119,38.14988994583352,152.90874848827718,139.2647075331027,-9.713172767078504e-05,0.0931148082017898,0,0,0
12853,445683.2887931805,2010-11-21 15:33:46,2611.3219845402564,7,39,-1.099568486213684,3.527827262878418,38.31479548329119,38.159059119462206,152.90874848827718,139.297073822179,-0.0001295089750783,0.0931148082017898,0,0,0
12854,445713.3042464296,2010-11-21 15:34:16,2641.337437804365,7,39,-1.099568486213684,3.523780107498169,38.31479548329119,38.16822842799007,152.90874848827718,139.32940281569986,-0.0001295089750783,0.0931148082017898,0,0,0
12855,445743.3195963907,2010-11-21 15:34:46,2671.3527877505776,7,39,-1.099568486213684,3.5194091796875,38.31479548329119,38.177397639187085,152.90874848827718,139.36169212403323,-9.713172767078504e-05,0.0931148082017898,0,0,0
12856,445773.334857405,2010-11-21 15:35:16,2701.368048769814,7,39,-1.099929690361023,3.514552593231201,38.31479548329119,38.18656683831908,152.90874848827718,139.39394050270573,-0.0001618862152099,0.0931148082017898,0,0,0
12857,445803.3502182434,2010-11-21 15:35:46,2731.3834096082146,7,39,-1.0997490882873535,3.5098581314086914,38.31479548329119,38.19573607244397,152.90874848827718,139.42614584863355,-0.0001618862152099,0.0931148082017898,0,0,0
12858,445833.3656282646,2010-11-21 15:36:16,2761.3988196394075,7,39,-1.0997490882873535,3.5046777725219727,38.31479548329119,38.204905385760014,152.90874848827718,139.4583054368217,-0.0001295089750783,0.0931148082017898,0,0,0
12859,445863.3809617748,2010-11-21 15:36:46,2791.4141531495925,7,39,-1.099929690361023,3.498849868774414,38.31479548329119,38.21407467758883,152.90874848827718,139.49041528998586,-0.0001942634553415,0.0931148082017898,0,0,0
12860,445893.3963755402,2010-11-21 15:37:16,2821.42956690007,7,39,-1.0997490882873535,3.4926981925964355,38.31479548329119,38.22324394299197,152.90874848827718,139.5224705581834,-0.0001618862152099,0.0931148082017898,0,0,0
12861,445923.4117195266,2010-11-21 15:37:46,2851.4449109014427,7,39,-1.0997490882873535,3.4857370853424072,38.31479548329119,38.23241321643073,152.90874848827718,139.55446472823778,-0.0001618862152099,0.0931148082017898,0,0,0
12862,445953.42720990337,2010-11-21 15:38:16,2881.460401263153,7,39,-1.0997490882873535,3.477480888366699,38.31479548329119,38.24158249713637,152.90874848827718,139.58638927074557,-0.0002590179501567,0.0931148082017898,0,0,0
12863,445983.44258976425,2010-11-21 15:38:46,2911.475781139074,7,39,-1.0997490882873535,3.4677677154541016,38.31479548329119,38.25075171007121,152.90874848827718,139.61823235648512,-0.0002913951757363,0.0931148082017898,0,0,0
12864,446013.4597470969,2010-11-21 15:39:16,2941.492938451751,7,39,-1.099568486213684,3.4562737941741943,38.31479548329119,38.259921560324,152.90874848827718,139.64998040226294,-0.0003237724304199,0.0931148082017898,0,0,0
12865,446043.4732438173,2010-11-21 15:39:46,2971.506435177038,7,39,-1.0997490882873535,3.441704034805298,38.31479548329119,38.269090226251954,152.90874848827718,139.68160495919022,-0.0004209041653666,0.0931148082017898,0,0,0
12866,446073.488588405,2010-11-21 15:40:16,3001.521779779912,7,39,-1.0997490882873535,3.4227635860443115,38.31479548329119,38.27825948431328,152.90874848827718,139.7130801881431,-0.0006151676061563,0.0931148082017898,0,0,0
12867,446103.50402625074,2010-11-21 15:40:46,3031.5372176255346,7,39,-1.099929690361023,3.3975093364715576,38.31479548329119,38.28742880042199,152.90874848827718,139.7443563767871,-0.0008094310760498,0.0931148082017898,0,0,0
12868,446133.5193572246,2010-11-21 15:41:16,3061.5525485993885,7,39,-1.0997490882873535,3.363351345062256,38.31479548329119,38.29659806565611,152.90874848827718,139.77536288143378,-0.0010684489971026,0.0931148082017898,0,0,0
12869,446163.5347299877,2010-11-21 15:41:46,3091.567921362555,7,39,-1.0997490882873535,3.3155951499938965,38.31479548329119,38.30576730091153,152.90874848827718,139.80599651712816,-0.0015217304462566,0.0931148082017898,0,0,0
12870,446193.5502125149,2010-11-21 15:42:16,3121.583403889709,7,39,-1.099929690361023,3.248412609100342,38.31479548329119,38.31493658065512,152.90874848827718,139.83610869836386,-0.0020721436012536,0.0931148082017898,0,0,0
12871,446223.5654828073,2010-11-21 15:42:46,3151.598674182093,7,39,-1.099568486213684,3.1504716873168945,38.31479548329119,38.324105887739,152.90874848827718,139.86547576367863,-0.0030758380889892,0.0931148082017898,0,0,0
12872,446253.5809785825,2010-11-21 15:43:16,3181.6141699573163,7,39,-1.099929690361023,2.9908523559570312,38.31479548329119,38.33327520923919,152.90874848827718,139.8937059443139,-0.0056336401030421,0.0931148082017898,0,0,0
12873,446272.78399912606,2010-11-21 15:43:35,3200.817190591129,7,39,-1.099568486213684,2.790437698364258,38.31479548329119,38.33914146370243,152.90874848827718,139.91072083981294,-0.010231208987534,0.0931148082017898,0,0,0
12874,446279.4087595623,2010-11-21 15:43:42,3207.441950937147,7,39,-1.099568486213684,2.699943780899048,38.31479548329119,38.341165202160845,152.90874848827718,139.91627706371207,-0.0109758377075195,0.0931148082017898,0,0,0
12875,446339.4166191316,2010-11-21 15:44:42,60.015126548962606,8,39,0.0,3.3034536838531494,38.31479548329119,38.341165202160845,152.90874848827718,139.91627706371207,0.0012627125252038,0.0931148082017898,0,0,0
12876,446339.612657393,2010-11-21 15:44:42,0.18720067668912,9,39,0.0001613661734154,3.3037774562835693,38.314795491682254,38.341165202160845,152.9087485159994,139.91627706371207,0.0,0.0924721807241439,0,0,0
12877,446344.44093027496,2010-11-21 15:44:47,5.015473548588592,9,39,0.0010644125286489,3.3112242221832275,38.31479645229387,38.341165202160845,152.90875169374658,139.91627706371207,0.0011008263099938,0.0924721807241439,0,0,0
