Data_Point,Test_Time(s),Date_Time,Step_Time(s),Step_Index,Cycle_Index,Current(A),Voltage(V),Charge_Capacity(Ah),Discharge_Capacity(Ah),Charge_Energy(Wh),Discharge_Energy(Wh),dV/dt(V/s),Internal_Resistance(Ohm),Is_FC_Data,AC_Impedance(Ohm),ACI_Phase_Angle(Deg)
3008,103987.15745317438,2010-11-17 16:38:14,30.015331545280333,1,10,0.0,3.358009099960327,8.931260748619597,8.96380790099551,35.6325669053029,32.761346901394134,0.0007122993702068,0.0939245000481605,0,0,0
3009,104017.1727133916,2010-11-17 16:38:44,60.03059173243982,1,10,0.0,3.380511283874512,8.931260748619597,8.96380790099551,35.6325669053029,32.761346901394134,0.0005180359003134,0.0939245000481605,0,0,0
3010,104047.18815596405,2010-11-17 16:39:14,90.046034314886,1,10,0.0,3.3975093364715576,8.931260748619597,8.96380790099551,35.6325669053029,32.761346901394134,0.0004532813909463,0.0939245000481605,0,0,0
3011,104077.15648810157,2010-11-17 16:39:44,120.01436646745144,1,10,0.0,3.4112696647644043,8.931260748619597,8.96380790099551,35.6325669053029,32.761346901394134,0.0003885269106831,0.0939245000481605,0,0,0
3012,104107.1699064812,2010-11-17 16:40:15,30.01533334978465,2,10,0.5501165986061096,3.5742886066436768,8.93584755853639,8.96380790099551,35.64878935962608,32.761346901394134,0.0016836166614666,0.0939245000481605,0,0,0
3013,104137.18519729984,2010-11-17 16:40:45,60.03062417341749,2,10,0.5501165986061096,3.625444412231445,8.940434313714693,8.96380790099551,35.66530865801794,32.761346901394134,0.0011332035064697,0.0939245000481605,0,0,0
3014,104167.20050821862,2010-11-17 16:41:15,90.04593506714838,2,10,0.5501165986061096,3.662678241729736,8.945021108320711,8.96380790099551,35.68202714650498,32.761346901394134,0.0008418083307333,0.0939245000481605,0,0,0
3015,104197.2159626356,2010-11-17 16:41:45,120.06138950418544,2,10,0.550297200679779,3.69197940826416,8.949607946423196,8.96380790099551,35.698896402914066,32.761346901394134,0.0007446765666827,0.0939245000481605,0,0,0
3016,104227.23134374962,2010-11-17 16:42:15,150.0767705981469,2,10,0.5501165986061096,3.7156147956848153,8.954194778273846,8.96380790099551,35.71588653549805,32.761346901394134,0.0005827903514727,0.0939245000481605,0,0,0
3017,104257.24643563668,2010-11-17 16:42:45,180.09186249021596,2,10,0.550297200679779,3.73552680015564,8.958781795227344,8.96380790099551,35.73297732293582,32.761346901394134,0.0004532813909463,0.0939245000481605,0,0,0
3018,104287.26173175852,2010-11-17 16:43:15,210.107158612074,2,10,0.5501165986061096,3.751715421676636,8.96336928345851,8.96380790099551,35.750152751002204,32.761346901394134,0.0003885269106831,0.0939245000481605,0,0,0
3019,104317.27710981992,2010-11-17 16:43:45,240.12253668850323,2,10,0.5501165986061096,3.7636947631835938,8.967956553032318,8.96380790099551,35.7673924235921,32.761346901394134,0.0002590179501567,0.0939245000481605,0,0,0
3020,104347.29253685856,2010-11-17 16:44:15,270.1379637321622,2,10,0.5501165986061096,3.770979642868042,8.972543318800229,8.96380790099551,35.784673705841165,32.761346901394134,0.0001295089750783,0.0939245000481605,0,0,0
3021,104377.3076764898,2010-11-17 16:44:45,300.15310333833304,2,10,0.5501165986061096,3.775674343109131,8.977130070120987,8.96380790099551,35.801981560448766,32.761346901394134,6.47544875391759e-05,0.0939245000481605,0,0,0
3022,104407.32298393492,2010-11-17 16:45:15,330.16841078345567,2,10,0.5501165986061096,3.77955961227417,8.981716813281816,8.96380790099551,35.8193084058573,32.761346901394134,9.713172767078504e-05,0.0939245000481605,0,0,0
3023,104437.33829069333,2010-11-17 16:45:45,360.1837175368516,2,10,0.5501165986061096,3.782959222793579,8.98630358170204,8.96380790099551,35.83665195412436,32.761346901394134,9.713172767078504e-05,0.0939245000481605,0,0,0
3024,104467.35360728129,2010-11-17 16:46:15,390.1990341247962,2,10,0.5501165986061096,3.786358833312988,8.990890280803862,8.96380790099551,35.85401109633476,32.761346901394134,0.0001295089750783,0.0939245000481605,0,0,0
3025,104497.36903713194,2010-11-17 16:46:45,420.2144639804743,2,10,0.5499359965324402,3.7897584438323975,8.995476986552083,8.96380790099551,35.87138562290181,32.761346901394134,0.0001295089750783,0.0939245000481605,0,0,0
3026,104527.38424426668,2010-11-17 16:47:15,450.2296711352568,2,10,0.5499359965324402,3.7929961681365967,9.000063695525617,8.96380790099551,35.888775099969806,32.761346901394134,9.713172767078504e-05,0.0939245000481605,0,0,0
3027,104557.39965670888,2010-11-17 16:47:45,480.2450835624308,2,10,0.5501165986061096,3.796072006225586,9.004650393537174,8.96380790099551,35.90617905969765,32.761346901394134,6.47544875391759e-05,0.0939245000481605,0,0,0
3028,104587.4148424452,2010-11-17 16:48:15,510.2602692987496,2,10,0.550297200679779,3.799147844314575,9.009237030145224,8.96380790099551,35.92359688906375,32.761346901394134,0.0001295089750783,0.0939245000481605,0,0,0
3029,104617.43026400016,2010-11-17 16:48:45,540.2756908336579,2,10,0.5501165986061096,3.8020617961883545,9.013823746910104,8.96380790099551,35.941028864820375,32.761346901394134,9.713172767078504e-05,0.0939245000481605,0,0,0
3030,104647.44544668889,2010-11-17 16:49:15,570.2908735323942,2,10,0.5499359965324402,3.804975748062134,9.0184104561988,8.96380790099551,35.958474385318084,32.761346901394134,9.713172767078504e-05,0.0939245000481605,0,0,0
3031,104677.46077377805,2010-11-17 16:49:45,600.3062006215515,2,10,0.550297200679779,3.808051586151123,9.022997210064773,8.96380790099551,35.97593345415343,32.761346901394134,9.713172767078504e-05,0.0939245000481605,0,0,0
3032,104707.476086371,2010-11-17 16:50:15,630.3215132195365,2,10,0.5501165986061096,3.8106417655944815,9.027583982312766,8.96380790099551,35.993405847113216,32.761346901394134,3.237724376958795e-05,0.0939245000481605,0,0,0
3033,104737.49137428236,2010-11-17 16:50:45,660.3368011308999,2,10,0.5499359965324402,3.813717603683472,9.032170097983952,8.96380790099551,36.01088890877807,32.761346901394134,6.47544875391759e-05,0.0939245000481605,0,0,0
3034,104767.506651081,2010-11-17 16:51:15,690.3520779345366,2,10,0.5501165986061096,3.816631555557251,9.036755882726164,8.96380790099551,36.02838430074809,32.761346901394134,6.47544875391759e-05,0.0939245000481605,0,0,0
3035,104797.52210853055,2010-11-17 16:51:45,720.3675353941184,2,10,0.5501165986061096,3.8195455074310303,9.041342381957426,8.96380790099551,36.045896034502334,32.761346901394134,3.237724376958795e-05,0.0939245000481605,0,0,0
3036,104827.5373040162,2010-11-17 16:52:15,750.3827308697479,2,10,0.5501165986061096,3.82262134552002,9.04592900741164,8.96380790099551,36.06342212183357,32.761346901394134,6.47544875391759e-05,0.0939245000481605,0,0,0
3037,104857.55259646388,2010-11-17 16:52:45,780.3980233174348,2,10,0.5501165986061096,3.825697183609009,9.050515641693352,8.96380790099551,36.080962409155326,32.761346901394134,6.47544875391759e-05,0.0939245000481605,0,0,0
3038,104887.56790920222,2010-11-17 16:53:15,810.41333605577,2,10,0.5501165986061096,3.829096794128418,9.055102315474247,8.96380790099551,36.098517466516284,32.761346901394134,9.713172767078504e-05,0.0939245000481605,0,0,0
3039,104917.58323128388,2010-11-17 16:53:45,840.4286581374276,2,10,0.550297200679779,3.832334518432617,9.059689033743084,8.96380790099551,36.1160877701652,32.761346901394134,9.713172767078504e-05,0.0939245000481605,0,0,0
3040,104947.5985601174,2010-11-17 16:54:15,870.4439869909892,2,10,0.5499359965324402,3.835572004318237,9.064275703651116,8.96380790099551,36.1336729790376,32.761346901394134,6.47544875391759e-05,0.0939245000481605,0,0,0
3041,104977.6138805048,2010-11-17 16:54:45,900.4593073583676,2,10,0.5499359965324402,3.839133501052856,9.068862448816107,8.96380790099551,36.15127395495864,32.761346901394134,0.0001295089750783,0.0939245000481605,0,0,0
3042,105007.62941021976,2010-11-17 16:55:15,930.4748370833348,2,10,0.550297200679779,3.842371225357056,9.07344916770212,8.96380790099551,36.16889026858558,32.761346901394134,9.713172767078504e-05,0.0939245000481605,0,0,0
3043,105037.64439265862,2010-11-17 16:55:45,960.4898195372294,2,10,0.5501165986061096,3.845608949661255,9.078035810517806,8.96380790099551,36.18652153635208,32.761346901394134,9.713172767078504e-05,0.0939245000481605,0,0,0
3044,105067.65979745174,2010-11-17 16:56:15,990.5052243052852,2,10,0.5499359965324402,3.849008560180664,9.082622492299905,8.96380790099551,36.20416808578079,32.761346901394134,9.713172767078504e-05,0.0939245000481605,0,0,0
3045,105097.67511188932,2010-11-17 16:56:45,1020.5205387879746,2,10,0.5501165986061096,3.8522462844848633,9.087209154039147,8.96380790099551,36.22182943890023,32.761346901394134,9.713172767078504e-05,0.0939245000481605,0,0,0
3046,105127.69039583077,2010-11-17 16:57:15,1050.535822704366,2,10,0.5501165986061096,3.8554840087890634,9.091795784099736,8.96380790099551,36.23950522229476,32.761346901394134,0.0001295089750783,0.0939245000481605,0,0,0
3047,105157.70573173692,2010-11-17 16:57:45,1080.5511586205566,2,10,0.5501165986061096,3.858559846878052,9.096382399695855,8.96380790099551,36.25719531123752,32.761346901394134,9.713172767078504e-05,0.0939245000481605,0,0,0
3048,105187.72399757164,2010-11-17 16:58:15,1110.5694245354753,2,10,0.5501165986061096,3.861473798751831,9.100969444216686,8.96380790099551,36.2749010322006,32.761346901394134,9.713172767078504e-05,0.0939245000481605,0,0,0
3049,105217.73647085228,2010-11-17 16:58:45,1140.5818977158367,2,10,0.5501165986061096,3.86454963684082,9.105555681575922,8.96380790099551,36.29261725305333,32.761346901394134,0.0001295089750783,0.0939245000481605,0,0,0
3050,105247.75178626728,2010-11-17 16:59:15,1170.5972131308536,2,10,0.5501165986061096,3.86713981628418,9.110142332668712,8.96380790099551,36.31034820065845,32.761346901394134,6.47544875391759e-05,0.0939245000481605,0,0,0
3051,105277.76693906136,2010-11-17 16:59:45,1200.6123659199309,2,10,0.5501165986061096,3.869891881942749,9.114729011353804,8.96380790099551,36.32809183572034,32.761346901394134,6.47544875391759e-05,0.0939245000481605,0,0,0
3052,105307.78235785443,2010-11-17 17:00:15,1230.6277848232703,2,10,0.5499359965324402,3.8723201751708975,9.11931563902613,8.96380790099551,36.34584730381486,32.761346901394134,6.47544875391759e-05,0.0939245000481605,0,0,0
3053,105337.79758771588,2010-11-17 17:00:45,1260.6430145694446,2,10,0.5501165986061096,3.874910354614258,9.123902304759788,8.96380790099551,36.36361437668074,32.761346901394134,9.713172767078504e-05,0.0939245000481605,0,0,0
3054,105367.8128793616,2010-11-17 17:01:15,1290.658306240192,2,10,0.5501165986061096,3.8770148754119873,9.128488952062392,8.96380790099551,36.38139223179877,32.761346901394134,3.237724376958795e-05,0.0939245000481605,0,0,0
3055,105397.82829155818,2010-11-17 17:01:45,1320.6737184167405,2,10,0.5501165986061096,3.879119396209717,9.133075647375264,8.96380790099551,36.39918047143377,32.761346901394134,0.0,0.0939245000481605,0,0,0
3056,105427.84365219108,2010-11-17 17:02:15,1350.6890791599028,2,10,0.550297200679779,3.8812239170074463,9.137662335334191,8.96380790099551,36.41697813878496,32.761346901394134,3.237724376958795e-05,0.0939245000481605,0,0,0
3057,105457.85879227844,2010-11-17 17:02:45,1380.704219131987,2,10,0.5501165986061096,3.883166551589966,9.142248995278775,8.96380790099551,36.43478457360276,32.761346901394134,6.47544875391759e-05,0.0939245000481605,0,0,0
3058,105487.87409667597,2010-11-17 17:03:15,1410.7195235295026,2,10,0.550297200679779,3.8849472999572754,9.14683570925848,8.96380790099551,36.45259946270769,32.761346901394134,6.47544875391759e-05,0.0939245000481605,0,0,0
3059,105517.88953013564,2010-11-17 17:03:45,1440.734956989177,2,10,0.5501165986061096,3.886404275894165,9.15142242261638,8.96380790099551,36.47042197610712,32.761346901394134,3.237724376958795e-05,0.0939245000481605,0,0,0
3060,105547.90473570648,2010-11-17 17:04:15,1470.750162565018,2,10,0.5499359965324402,3.887861251831055,9.15600918011754,8.96380790099551,36.48825181829287,32.761346901394134,0.0,0.0939245000481605,0,0,0
3061,105577.92015998322,2010-11-17 17:04:45,1500.7655868367578,2,10,0.5501165986061096,3.8894801139831534,9.160595858593108,8.96380790099551,36.50608813697263,32.761346901394134,3.237724376958795e-05,0.0939245000481605,0,0,0
3062,105607.93532569955,2010-11-17 17:05:15,1530.7807525531036,2,10,0.5501165986061096,3.890775203704834,9.165182543166512,8.96380790099551,36.52393082074066,32.761346901394134,3.237724376958795e-05,0.0939245000481605,0,0,0
3063,105637.95063329506,2010-11-17 17:05:45,1560.796060143589,2,10,0.5499359965324402,3.8920702934265137,9.169769240393574,8.96380790099551,36.54177974887413,32.761346901394134,0.0,0.0939245000481605,0,0,0
3064,105667.96595771756,2010-11-17 17:06:15,1590.8113845711025,2,10,0.5501165986061096,3.893365383148194,9.17435598218074,8.96380790099551,36.5596348400758,32.761346901394134,0.0,0.0939245000481605,0,0,0
3065,105697.981257679,2010-11-17 17:06:45,1620.8266845626197,2,10,0.5501165986061096,3.894660472869873,9.178942700708662,8.96380790099551,36.57749573503948,32.761346901394134,3.237724376958795e-05,0.0939245000481605,0,0,0
3066,105727.9965593497,2010-11-17 17:07:15,1650.8419862032536,2,10,0.550297200679779,3.8959555625915527,9.183529406388937,8.96380790099551,36.59536173246786,32.761346901394134,9.713172767078504e-05,0.0939245000481605,0,0,0
3067,105758.01199683442,2010-11-17 17:07:45,1680.8574236979998,2,10,0.550297200679779,3.8970887660980233,9.188116118020174,8.96380790099551,36.61323348997962,32.761346901394134,3.237724376958795e-05,0.0939245000481605,0,0,0
3068,105788.02720249048,2010-11-17 17:08:15,1710.8726293690788,2,10,0.5501165986061096,3.898221969604492,9.192702764648512,8.96380790099551,36.631110481609305,32.761346901394134,3.237724376958795e-05,0.0939245000481605,0,0,0
3069,105818.04247838684,2010-11-17 17:08:45,1740.8879052403886,2,10,0.5501165986061096,3.899517059326172,9.197289436853811,8.96380790099551,36.64899317258557,32.761346901394134,6.47544875391759e-05,0.0939245000481605,0,0,0
3070,105848.0577924986,2010-11-17 17:09:16,1770.9032193571643,2,10,0.5499359965324402,3.9006502628326416,9.20187604761292,8.96380790099551,36.66688109889645,32.761346901394134,3.237724376958795e-05,0.0939245000481605,0,0,0
3071,105878.07321891068,2010-11-17 17:09:46,1800.9186457441845,2,10,0.550297200679779,3.901945352554321,9.206462709611149,8.96380790099551,36.6847748466074,32.761346901394134,3.237724376958795e-05,0.0939245000481605,0,0,0
3072,105908.08854516778,2010-11-17 17:10:16,1830.9339720213147,2,10,0.5499359965324402,3.902916669845581,9.21104937889556,8.96380790099551,36.70267423195465,32.761346901394134,-3.237724376958795e-05,0.0939245000481605,0,0,0
3073,105938.10371295927,2010-11-17 17:10:46,1860.9491398128407,2,10,0.5501165986061096,3.904373645782471,9.215635973888364,8.96380790099551,36.720579009026125,32.761346901394134,3.237724376958795e-05,0.0939245000481605,0,0,0
3074,105968.11903368756,2010-11-17 17:11:16,1890.9644605511453,2,10,0.5501165986061096,3.905506849288941,9.220222695262308,8.96380790099551,36.738489921384094,32.761346901394134,3.237724376958795e-05,0.0939245000481605,0,0,0
3075,105998.13434120288,2010-11-17 17:11:46,1920.9797680814804,2,10,0.5501165986061096,3.90680193901062,9.224809383260917,8.96380790099551,36.75640636605714,32.761346901394134,3.237724376958795e-05,0.0939245000481605,0,0,0
3076,106028.14981449198,2010-11-17 17:12:16,1950.9952413455123,2,10,0.5501165986061096,3.9082589149475098,9.2293960128905,8.96380790099551,36.77432836211529,32.761346901394134,9.713172767078504e-05,0.0939245000481605,0,0,0
3077,106058.1649437473,2010-11-17 17:12:46,1981.0103706008456,2,10,0.550297200679779,3.9095540046691895,9.233982627137832,8.96380790099551,36.79225616359815,32.761346901394134,9.713172767078504e-05,0.0939245000481605,0,0,0
3078,106088.18025989916,2010-11-17 17:13:16,2011.025686772752,2,10,0.5501165986061096,3.910687208175659,9.23856935726184,8.96380790099551,36.81019032059752,32.761346901394134,3.237724376958795e-05,0.0939245000481605,0,0,0
3079,106118.195599289,2010-11-17 17:13:46,2041.0410261425632,2,10,0.5499359965324402,3.911820411682129,9.24315606733644,8.96380790099551,36.82813033125103,32.761346901394134,0.0,0.0939245000481605,0,0,0
3080,106148.21109580107,2010-11-17 17:14:16,2071.0565226847016,2,10,0.5501165986061096,3.9132773876190186,9.247742768659592,8.96380790099551,36.846076345008285,32.761346901394134,0.0,0.0939245000481605,0,0,0
3081,106178.22618357788,2010-11-17 17:14:46,2101.071610431423,2,10,0.550297200679779,3.914572238922119,9.252329380872062,8.96380790099551,36.86402809932841,32.761346901394134,3.237724376958795e-05,0.0939245000481605,0,0,0
3082,106208.24152856672,2010-11-17 17:15:16,2131.086955420261,2,10,0.550297200679779,3.916029214859009,9.256916075454043,8.96380790099551,36.881986226512055,32.761346901394134,9.713172767078504e-05,0.0939245000481605,0,0,0
3083,106238.25680471372,2010-11-17 17:15:46,2161.1022315722707,2,10,0.5499359965324402,3.9171624183654794,9.261502721178276,8.96380790099551,36.89995035963415,32.761346901394134,3.237724376958795e-05,0.0939245000481605,0,0,0
3084,106268.27225380742,2010-11-17 17:16:16,2191.11768064592,2,10,0.5501165986061096,3.918781280517578,9.266089435888592,8.96380790099551,36.91792102797263,32.761346901394134,3.237724376958795e-05,0.0939245000481605,0,0,0
3085,106298.28741109771,2010-11-17 17:16:46,2221.132837951271,2,10,0.5501165986061096,3.920076370239258,9.270676096128222,8.96380790099551,36.93589784180784,32.761346901394134,3.237724376958795e-05,0.0939245000481605,0,0,0
3086,106328.30273252274,2010-11-17 17:17:16,2251.148159376289,2,10,0.5501165986061096,3.921533346176148,9.275262768213135,8.96380790099551,36.953881009919165,32.761346901394134,6.47544875391759e-05,0.0939245000481605,0,0,0
3087,106358.31801736646,2010-11-17 17:17:46,2281.163444219995,2,10,0.5501165986061096,3.922828435897827,9.279849397878191,8.96380790099551,36.971870411877134,32.761346901394134,3.237724376958795e-05,0.0939245000481605,0,0,0
3088,106388.3333430922,2010-11-17 17:18:16,2311.178769945749,2,10,0.5499359965324402,3.924123525619507,9.284436060611837,8.96380790099551,36.98986635769908,32.761346901394134,3.237724376958795e-05,0.0939245000481605,0,0,0
3089,106418.34865011628,2010-11-17 17:18:46,2341.1940769948837,2,10,0.550297200679779,3.925904273986816,9.28902266299292,8.96380790099551,37.00786865264054,32.761346901394134,9.713172767078504e-05,0.0939245000481605,0,0,0
3090,106448.36393869932,2010-11-17 17:19:16,2371.2093655578733,2,10,0.5499359965324402,3.927037477493286,9.29360929432587,8.96380790099551,37.02587754180482,32.761346901394134,3.237724376958795e-05,0.0939245000481605,0,0,0
3091,106478.37924819956,2010-11-17 17:19:46,2401.224675053113,2,10,0.5504778623580933,3.928818225860596,9.298195901506457,8.96380790099551,37.04389301765789,32.761346901394134,9.713172767078504e-05,0.0939245000481605,0,0,0
3092,106508.39457120854,2010-11-17 17:20:16,2431.2399980620858,2,10,0.5501165986061096,3.9301133155822754,9.302782517985223,8.96380790099551,37.06191516100024,32.761346901394134,3.237724376958795e-05,0.0939245000481605,0,0,0
3093,106538.40986748078,2010-11-17 17:20:46,2461.255294339332,2,10,0.5501165986061096,3.931408405303955,9.307369168302374,8.96380790099551,37.07994414631011,32.761346901394134,0.0,0.0939245000481605,0,0,0
3094,106568.42516513146,2010-11-17 17:21:16,2491.270591984993,2,10,0.5501165986061096,3.9328653812408447,9.311955748188453,8.96380790099551,37.09797959339886,32.761346901394134,3.237724376958795e-05,0.0939245000481605,0,0,0
3095,106598.44048410536,2010-11-17 17:21:46,2521.285910958893,2,10,0.550297200679779,3.934484243392944,9.316542424029892,8.96380790099551,37.11602222709505,32.761346901394134,3.237724376958795e-05,0.0939245000481605,0,0,0
3096,106628.45582301902,2010-11-17 17:22:16,2551.301249867554,2,10,0.5499359965324402,3.935941219329834,9.321129143977425,8.96380790099551,37.13407199143801,32.761346901394134,6.47544875391759e-05,0.0939245000481605,0,0,0
3097,106658.47109874498,2010-11-17 17:22:46,2581.3165255985136,2,10,0.5501165986061096,3.937398195266724,9.325715791218594,8.96380790099551,37.1521282269058,32.761346901394134,3.237724376958795e-05,0.0939245000481605,0,0,0
3098,106688.48639708736,2010-11-17 17:23:16,2611.3318239459263,2,10,0.550297200679779,3.9390170574188232,9.330302469356097,8.96380790099551,37.17019169076545,32.761346901394134,3.237724376958795e-05,0.0939245000481605,0,0,0
3099,106718.50183348436,2010-11-17 17:23:46,2641.3472603429327,2,10,0.5501165986061096,3.940474033355713,9.334889164489274,8.96380790099551,37.18826224809117,32.761346901394134,3.237724376958795e-05,0.0939245000481605,0,0,0
3100,106748.51702474448,2010-11-17 17:24:16,2671.3624515980277,2,10,0.5501165986061096,3.9419310092926025,9.339475855418698,8.96380790099551,37.20633985200989,32.761346901394134,0.0,0.0939245000481605,0,0,0
3101,106778.53232147286,2010-11-17 17:24:46,2701.3777483264,2,10,0.5499359965324402,3.943549871444702,9.344062563964975,8.96380790099551,37.22442469237316,32.761346901394134,3.237724376958795e-05,0.0939245000481605,0,0,0
3102,106808.5476290834,2010-11-17 17:25:16,2731.393055961997,2,10,0.550297200679779,3.945330619812012,9.348649141945405,8.96380790099551,37.242516211741,32.761346901394134,3.237724376958795e-05,0.0939245000481605,0,0,0
3103,106838.56308896402,2010-11-17 17:25:46,2761.408515822573,2,10,0.5501165986061096,3.946787595748901,9.35323581739425,8.96380790099551,37.26061542944269,32.761346901394134,3.237724376958795e-05,0.0939245000481605,0,0,0
3104,106868.57824809891,2010-11-17 17:26:16,2791.423674952477,2,10,0.5501165986061096,3.948406457901001,9.357822385444496,8.96380790099551,37.278721509880185,32.761346901394134,3.237724376958795e-05,0.0939245000481605,0,0,0
3105,106898.59354874206,2010-11-17 17:26:46,2821.438975615672,2,10,0.5501165986061096,3.9500253200531006,9.362409014284708,8.96380790099551,37.296835326028926,32.761346901394134,0.0,0.0939245000481605,0,0,0
3106,106928.60913924377,2010-11-17 17:27:16,2851.454566102309,2,10,0.5499359965324402,3.9514822959899902,9.366995718285889,8.96380790099551,37.31495694553984,32.761346901394134,0.0,0.0939245000481605,0,0,0
3107,106958.6241630208,2010-11-17 17:27:46,2881.4695898743403,2,10,0.5499359965324402,3.9532630443573,9.371582312336786,8.96380790099551,37.33308558449353,32.761346901394134,0.0,0.0939245000481605,0,0,0
3108,106988.63961000924,2010-11-17 17:28:16,2911.4850368627845,2,10,0.5501165986061096,3.9548819065094,9.376168959198967,8.96380790099551,37.35122197992331,32.761346901394134,3.237724376958795e-05,0.0939245000481605,0,0,0
3109,107018.65490278776,2010-11-17 17:28:46,2941.500329671372,2,10,0.550297200679779,3.956824541091919,9.380755633486498,8.96380790099551,37.36936621624941,32.761346901394134,6.47544875391759e-05,0.0939245000481605,0,0,0
3110,107048.67022860874,2010-11-17 17:29:16,2971.5156554673013,2,10,0.5501165986061096,3.9582815170288086,9.385342341519856,8.96380790099551,37.387518139724094,32.761346901394134,0.0,0.0939245000481605,0,0,0
3111,107078.68544160812,2010-11-17 17:29:46,3001.53086846166,2,10,0.5501165986061096,3.960062265396118,9.389928968470093,8.96380790099551,37.40567756307574,32.761346901394134,6.47544875391759e-05,0.0939245000481605,0,0,0
3112,107108.70149332604,2010-11-17 17:30:16,3031.5469201796022,2,10,0.5499359965324402,3.961843013763428,9.394515714131408,8.96380790099551,37.42384536170592,32.761346901394134,3.237724376958795e-05,0.0939245000481605,0,0,0
3113,107138.70340050204,2010-11-17 17:30:46,3061.5488274408044,2,10,0.550297200679779,3.9634618759155273,9.399100331031004,8.96380790099551,37.442012618680295,32.761346901394134,3.237724376958795e-05,0.0939245000481605,0,0,0
3114,107168.71571604892,2010-11-17 17:31:16,3091.561142902476,2,10,0.5499359965324402,3.965242624282837,9.403686634121124,8.96380790099551,37.46019461679395,32.761346901394134,3.237724376958795e-05,0.0939245000481605,0,0,0
3115,107198.73102149408,2010-11-17 17:31:46,3121.5764483476064,2,10,0.550297200679779,3.967185258865357,9.408273362016905,8.96380790099551,37.47838641941745,32.761346901394134,6.47544875391759e-05,0.0939245000481605,0,0,0
3116,107228.74630536532,2010-11-17 17:32:16,3151.5917322188848,2,10,0.550297200679779,3.968804121017456,9.4128600490763,8.96380790099551,37.49658609755003,32.761346901394134,3.237724376958795e-05,0.0939245000481605,0,0,0
3117,107258.7616296926,2010-11-17 17:32:46,3181.6070565511604,2,10,0.5501165986061096,3.9705848693847656,9.417446725046116,8.96380790099551,37.51479402369823,32.761346901394134,3.237724376958795e-05,0.0939245000481605,0,0,0
3118,107288.77694152368,2010-11-17 17:33:16,3211.6223684072934,2,10,0.5501165986061096,3.972365617752075,9.422033451595382,8.96380790099551,37.533010506211546,32.761346901394134,3.237724376958795e-05,0.0939245000481605,0,0,0
3119,107318.79222480347,2010-11-17 17:33:46,3241.637651657021,2,10,0.550297200679779,3.9743082523345943,9.426620145373294,8.96380790099551,37.55123517436783,32.761346901394134,6.47544875391759e-05,0.0939245000481605,0,0,0
3120,107348.80765519547,2010-11-17 17:34:16,3271.653082049038,2,10,0.5501165986061096,3.976089000701904,9.431206923919346,8.96380790099551,37.56946875886396,32.761346901394134,3.237724376958795e-05,0.0939245000481605,0,0,0
3121,107378.82337954627,2010-11-17 17:34:46,3301.6688064649834,2,10,0.5501165986061096,3.977869749069214,9.435793737975391,8.96380790099551,37.58771102009498,32.761346901394134,3.237724376958795e-05,0.0939245000481605,0,0,0
3122,107408.83830926855,2010-11-17 17:35:16,3331.683736147152,2,10,0.5501165986061096,3.980136156082153,9.440380370970226,8.96380790099551,37.605961107349664,32.761346901394134,9.713172767078504e-05,0.0939245000481605,0,0,0
3123,107438.85345440853,2010-11-17 17:35:46,3361.698881262073,2,10,0.5501165986061096,3.981916904449463,9.444966894270276,8.96380790099551,37.624219807596894,32.761346901394134,6.47544875391759e-05,0.0939245000481605,0,0,0
3124,107468.85371995176,2010-11-17 17:36:16,3391.69914693562,2,10,0.5501165986061096,3.984021425247192,9.449551211086046,8.96380790099551,37.642478707587,32.761346901394134,9.713172767078504e-05,0.0939245000481605,0,0,0
3125,107498.86856903772,2010-11-17 17:36:46,3421.713995891282,2,10,0.550297200679779,3.985964059829712,9.454137724386284,8.96380790099551,37.66075544319818,32.761346901394134,6.47544875391759e-05,0.0939245000481605,0,0,0
3126,107528.88377308976,2010-11-17 17:37:16,3451.7291999483327,2,10,0.550297200679779,3.987906694412232,9.458724361005356,8.96380790099551,37.67904196162958,32.761346901394134,3.237724376958795e-05,0.0939245000481605,0,0,0
3127,107558.89907471037,2010-11-17 17:37:46,3481.744501563904,2,10,0.5501165986061096,3.990011215209961,9.463311047310873,8.96380790099551,37.69733787431476,32.761346901394134,6.47544875391759e-05,0.0939245000481605,0,0,0
3128,107588.9143596042,2010-11-17 17:38:16,3511.759786462748,2,10,0.5501165986061096,3.9921157360076895,9.467897681084272,8.96380790099551,37.71564298874982,32.761346901394134,6.47544875391759e-05,0.0939245000481605,0,0,0
3129,107618.92966715456,2010-11-17 17:38:46,3541.77509400812,2,10,0.550297200679779,3.994058132171631,9.472484407520325,8.96380790099551,37.73395799910918,32.761346901394134,6.470680091297254e-05,0.0939245000481605,0,0,0
3130,107648.94511201272,2010-11-17 17:39:16,3571.790538876272,2,10,0.5501165986061096,3.9963245391845694,9.477071084927005,8.96380790099551,37.75228240168887,32.761346901394134,9.713172767078504e-05,0.0939245000481605,0,0,0
3131,107678.96031524772,2010-11-17 17:39:46,3601.8057421162825,2,10,0.5499359965324402,3.99826717376709,9.481657653010608,8.96380790099551,37.77061608425514,32.761346901394134,3.237724376958795e-05,0.0939245000481605,0,0,0
3132,107708.97560346984,2010-11-17 17:40:16,3631.821030348447,2,10,0.5501165986061096,4.000533580780029,9.486244184725525,8.96380790099551,37.788959336511965,32.761346901394134,6.47544875391759e-05,0.0939245000481605,0,0,0
3133,107738.991027516,2010-11-17 17:40:46,3661.836454364549,2,10,0.5501165986061096,4.002638339996338,9.490830693843218,8.96380790099551,37.80731252860873,32.761346901394134,6.47544875391759e-05,0.0939245000481605,0,0,0
3134,107769.00624120212,2010-11-17 17:41:16,3691.851668070685,2,10,0.550297200679779,4.004904747009277,9.495417299086842,8.96380790099551,37.82567614791414,32.761346901394134,9.71794142969884e-05,0.0939245000481605,0,0,0
3135,107799.02151444185,2010-11-17 17:41:46,3721.866941290375,2,10,0.5501165986061096,4.007009029388428,9.50000388968986,8.96380790099551,37.84404981968203,32.761346901394134,3.23295607813634e-05,0.0939245000481605,0,0,0
3136,107829.0368138068,2010-11-17 17:42:17,3751.882240655328,2,10,0.5499359965324402,4.009275436401367,9.504590567109506,8.96380790099551,37.86243408459417,32.761346901394134,6.47544875391759e-05,0.0939245000481605,0,0,0
3137,107859.05212781328,2010-11-17 17:42:47,3781.897554661829,2,10,0.550297200679779,4.011541843414307,9.50917718112166,8.96380790099551,37.8808283881268,32.761346901394134,6.47544875391759e-05,0.0939245000481605,0,0,0
3138,107889.0674616092,2010-11-17 17:43:17,3811.9128884426896,2,10,0.5501165986061096,4.013808250427246,9.513763806192852,8.96380790099551,37.89923311767685,32.761346901394134,6.47544875391759e-05,0.0939245000481605,0,0,0
3139,107919.08274498425,2010-11-17 17:43:47,3841.92817183778,2,10,0.5501165986061096,4.015913009643555,9.518350462843523,8.96380790099551,37.91764844429039,32.761346901394134,6.47544875391759e-05,0.0939245000481605,0,0,0
3140,107949.09805243938,2010-11-17 17:44:17,3871.9434793129776,2,10,0.5501165986061096,4.018503189086914,9.52293709168938,8.96380790099551,37.936074329213625,32.761346901394134,6.47544875391759e-05,0.0939245000481605,0,0,0
3141,107979.11337913256,2010-11-17 17:44:47,3901.9588060111582,2,10,0.5501165986061096,4.0207695960998535,9.527523738716614,8.96380790099551,37.95451096072363,32.761346901394134,6.47544875391759e-05,0.0939245000481605,0,0,0
3142,108009.12874992078,2010-11-17 17:45:17,3931.9741767743326,2,10,0.5499359965324402,4.023197650909424,9.532110307328788,8.96380790099551,37.9729581749004,32.761346901394134,6.47544875391759e-05,0.0939245000481605,0,0,0
3143,108039.14399147643,2010-11-17 17:45:47,3961.9894183249726,2,10,0.5499359965324402,4.025464057922363,9.536696872740276,8.96380790099551,37.99141623111707,32.761346901394134,6.47544875391759e-05,0.0939245000481605,0,0,0
3144,108069.1593539389,2010-11-17 17:46:17,3992.0047809077273,2,10,0.5501165986061096,4.027892589569092,9.54128353875646,8.96380790099551,38.00988563367889,32.761346901394134,6.47544875391759e-05,0.0939245000481605,0,0,0
3145,108099.17462348942,2010-11-17 17:46:47,4022.020050347984,2,10,0.5501165986061096,4.030482769012451,9.545870151412164,8.96380790099551,38.0283658832148,32.761346901394134,6.47544875391759e-05,0.0939245000481605,0,0,0
3146,108129.19011474335,2010-11-17 17:47:17,4052.035541621972,2,10,0.5501165986061096,4.032749176025391,9.550456820666398,8.96380790099551,38.04685758367563,32.761346901394134,3.24249267578125e-05,0.0939245000481605,0,0,0
3147,108159.20519434476,2010-11-17 17:47:47,4082.050621203311,2,10,0.5501165986061096,4.035338878631592,9.555043414974184,8.96380790099551,38.06536031640972,32.761346901394134,9.70840483205393e-05,0.0939245000481605,0,0,0
3148,108189.22051013068,2010-11-17 17:48:17,4112.065936999279,2,10,0.550297200679779,4.037929058074951,9.559630089714664,8.96380790099551,38.08387473434632,32.761346901394134,9.70840483205393e-05,0.0939245000481605,0,0,0
3149,108219.2357816361,2010-11-17 17:48:47,4142.081208604941,2,10,0.550297200679779,4.040195465087891,9.564216779068603,8.96380790099551,38.10240056076876,32.761346901394134,6.47544875391759e-05,0.0939245000481605,0,0,0
3150,108249.25112784296,2010-11-17 17:49:17,4172.096554696531,2,10,0.5501165986061096,4.04278564453125,9.56880343712648,8.96380790099551,38.12093779840896,32.761346901394134,3.23295607813634e-05,0.0939245000481605,0,0,0
3151,108279.26641908768,2010-11-17 17:49:47,4202.11184595124,2,10,0.550297200679779,4.045375823974609,9.573390172186128,8.96380790099551,38.139487160100025,32.761346901394134,6.47544875391759e-05,0.0939245000481605,0,0,0
3152,108309.28175900884,2010-11-17 17:50:17,4232.127185852378,2,10,0.5501165986061096,4.047966003417969,9.577976837917548,8.96380790099551,38.15804802189842,32.761346901394134,6.47544875391759e-05,0.0939245000481605,0,0,0
3153,108339.29702666966,2010-11-17 17:50:47,4262.142453523218,2,10,0.5501165986061096,4.050556182861328,9.582563539675387,8.96380790099551,38.17662111607821,32.761346901394134,6.47544875391759e-05,0.0939245000481605,0,0,0
3154,108369.31233402457,2010-11-17 17:51:17,4292.157760908191,2,10,0.5501165986061096,4.053470134735107,9.587150275964056,8.96380790099551,38.19520640418785,32.761346901394134,0.0001295089750783,0.0939245000481605,0,0,0
3155,108399.32765724909,2010-11-17 17:51:47,4322.173084122675,2,10,0.5501165986061096,4.055898666381836,9.591736923407035,8.96380790099551,38.21380339925847,32.761346901394134,3.24249267578125e-05,0.0939245000481605,0,0,0
3156,108429.3429748696,2010-11-17 17:52:17,4352.188401718135,2,10,0.5501165986061096,4.058650493621826,9.596323591299502,8.96380790099551,38.23241274835468,32.761346901394134,6.47544875391759e-05,0.0939245000481605,0,0,0
3157,108459.35842720135,2010-11-17 17:52:47,4382.203854064955,2,10,0.5501165986061096,4.0612406730651855,9.600910371838529,8.96380790099551,38.25103475630283,32.761346901394134,9.70840483205393e-05,0.0939245000481605,0,0,0
3158,108489.37360408562,2010-11-17 17:53:17,4412.219030939152,2,10,0.550297200679779,4.063992977142334,9.605496997889707,8.96380790099551,38.26966835296511,32.761346901394134,6.47544875391759e-05,0.0939245000481605,0,0,0
3159,108519.38889218244,2010-11-17 17:53:47,4442.234319035978,2,10,0.5501165986061096,4.066744804382324,9.61008372182174,8.96380790099551,38.28831482757921,32.761346901394134,9.70840483205393e-05,0.0939245000481605,0,0,0
3160,108549.40419899096,2010-11-17 17:54:17,4472.249625849525,2,10,0.5501165986061096,4.069497108459473,9.614670520675174,8.96380790099551,38.30697438168944,32.761346901394134,9.71794142969884e-05,0.0939245000481605,0,0,0
3161,108579.41950986968,2010-11-17 17:54:47,4502.264936723205,2,10,0.5501165986061096,4.072248935699463,9.619257284794076,8.96380790099551,38.32564659637126,32.761346901394134,3.23295607813634e-05,0.0939245000481605,0,0,0
3162,108609.4348516505,2010-11-17 17:55:17,4532.280278529097,2,10,0.5499359965324402,4.075162887573242,9.623844064312909,8.96380790099551,38.3443318581554,32.761346901394134,9.70840483205393e-05,0.0939245000481605,0,0,0
3163,108639.45012027872,2010-11-17 17:55:47,4562.295547132265,2,10,0.5501165986061096,4.0780768394470215,9.628430803138826,8.96380790099551,38.36302999408968,32.761346901394134,6.47544875391759e-05,0.0939245000481605,0,0,0
3164,108669.46542708724,2010-11-17 17:56:17,4592.310853940798,2,10,0.5501165986061096,4.08082914352417,9.633017575959707,8.96380790099551,38.38174145208976,32.761346901394134,3.24249267578125e-05,0.0939245000481605,0,0,0
3165,108699.48087054188,2010-11-17 17:56:47,4622.3262973954215,2,10,0.5501165986061096,4.083743095397949,9.637604305557227,8.96380790099551,38.40046587825172,32.761346901394134,6.47544875391759e-05,0.0939245000481605,0,0,0
3166,108729.49605913532,2010-11-17 17:57:17,4652.341485988872,2,10,0.5499359965324402,4.0866570472717285,9.642191001136476,8.96380790099551,38.41920353314226,32.761346901394134,6.47544875391759e-05,0.0939245000481605,0,0,0
3167,108759.51146507631,2010-11-17 17:57:47,4682.356891929856,2,10,0.5501165986061096,4.089732646942139,9.646777713931016,8.96380790099551,38.43795473418308,32.761346901394134,9.70840483205393e-05,0.0939245000481605,0,0,0
3168,108789.52677339864,2010-11-17 17:58:17,4712.372200282243,2,10,0.550297200679779,4.092646598815918,9.651364384793904,8.96380790099551,38.45671939818588,32.761346901394134,9.70840483205393e-05,0.0939245000481605,0,0,0
3169,108819.54197808224,2010-11-17 17:58:47,4742.38740495082,2,10,0.550297200679779,4.095560550689697,9.65595106018271,8.96380790099551,38.47549764930461,32.761346901394134,9.70840483205393e-05,0.0939245000481605,0,0,0
3170,108849.55728342712,2010-11-17 17:59:17,4772.402710280662,2,10,0.5501165986061096,4.098636627197266,9.660537787982609,8.96380790099551,38.49428983489501,32.761346901394134,9.71794142969884e-05,0.0939245000481605,0,0,0
3171,108879.5726419748,2010-11-17 17:59:47,4802.418068858419,2,10,0.5501165986061096,4.101712226867676,9.665124509869711,8.96380790099551,38.51309599944671,32.761346901394134,6.47544875391759e-05,0.0939245000481605,0,0,0
3172,108909.5882761104,2010-11-17 18:00:17,4832.433702978974,2,10,0.5501165986061096,4.104626178741455,9.669711231095985,8.96380790099551,38.53191607535917,32.761346901394134,3.23295607813634e-05,0.0939245000481605,0,0,0
3173,108939.60317602324,2010-11-17 18:00:47,4862.448602876796,2,10,0.5501165986061096,4.107863903045654,9.674297951997431,8.96380790099551,38.55075036035822,32.761346901394134,9.70840483205393e-05,0.0939245000481605,0,0,0
3174,108969.61849873146,2010-11-17 18:01:17,4892.463925574993,2,10,0.5499359965324402,4.1111016273498535,9.678884652810586,8.96380790099551,38.56959887011486,32.761346901394134,9.70840483205393e-05,0.0939245000481605,0,0,0
3175,108999.63378882829,2010-11-17 18:01:47,4922.479215681837,2,10,0.5501165986061096,4.114177703857422,9.683471398155287,8.96380790099551,38.58846201754526,32.761346901394134,9.71794142969884e-05,0.0939245000481605,0,0,0
3176,109029.6491261129,2010-11-17 18:02:17,4952.494552991506,2,10,0.5501165986061096,4.117414951324463,9.688058084689567,8.96380790099551,38.607339539340025,32.761346901394134,9.70840483205393e-05,0.0939245000481605,0,0,0
3177,109059.6644110769,2010-11-17 18:02:47,4982.509837935461,2,10,0.5501165986061096,4.120491027832031,9.692644820569193,8.96380790099551,38.626231911605416,32.761346901394134,9.71794142969884e-05,0.0939245000481605,0,0,0
3178,109089.68272222472,2010-11-17 18:03:17,5012.528149098326,2,10,0.550297200679779,4.123890399932861,9.697232059162744,8.96380790099551,38.64514118724998,32.761346901394134,9.70840483205393e-05,0.0939245000481605,0,0,0
3179,109119.69502864884,2010-11-17 18:03:47,5042.540455507401,2,10,0.550297200679779,4.1271281242370605,9.7018183258078,8.96380790099551,38.66406134280167,32.761346901394134,9.70840483205393e-05,0.0939245000481605,0,0,0
3180,109149.71031585844,2010-11-17 18:04:17,5072.555742712,2,10,0.5501165986061096,4.13036584854126,9.706405092823267,8.96380790099551,38.68299859238806,32.761346901394134,0.0001295089750783,0.0939245000481605,0,0,0
3181,109179.7256246319,2010-11-17 18:04:47,5102.571051485439,2,10,0.550297200679779,4.133765697479248,9.710991834187164,8.96380790099551,38.70195088719308,32.761346901394134,0.0001295089750783,0.0939245000481605,0,0,0
3182,109209.7409487737,2010-11-17 18:05:17,5132.586375617214,2,10,0.5499359965324402,4.136841297149658,9.715578597489682,8.96380790099551,38.72091850675839,32.761346901394134,9.70840483205393e-05,0.0939245000481605,0,0,0
3183,109239.75625867996,2010-11-17 18:05:47,5162.601685558568,2,10,0.550297200679779,4.140402793884277,9.720165366822703,8.96380790099551,38.739901480984265,32.761346901394134,0.0001295089750783,0.0939245000481605,0,0,0
3184,109269.77154210012,2010-11-17 18:06:17,5192.616968948644,2,10,0.5497553944587708,4.143478870391846,9.724752155234167,8.96380790099551,38.75889989637359,32.761346901394134,9.71794142969884e-05,0.0939245000481605,0,0,0
3185,109299.78684671818,2010-11-17 18:06:47,5222.632273566711,2,10,0.550297200679779,4.147202014923096,9.72933886369162,8.96380790099551,38.77791367004027,32.761346901394134,9.70840483205393e-05,0.0939245000481605,0,0,0
3186,109329.80221699511,2010-11-17 18:07:17,5252.647643853696,2,10,0.5501165986061096,4.150601863861084,9.733925556094844,8.96380790099551,38.79694325330057,32.761346901394134,6.47544875391759e-05,0.0939245000481605,0,0,0
3187,109359.81745276637,2010-11-17 18:07:47,5282.6628796198975,2,10,0.5501165986061096,4.154163360595703,9.738512225228238,8.96380790099551,38.81598864404907,32.761346901394134,9.71794142969884e-05,0.0939245000481605,0,0,0
3188,109389.83275886811,2010-11-17 18:08:17,5312.6781857216665,2,10,0.5501165986061096,4.157401084899902,9.743098979451933,8.96380790099551,38.83505024363822,32.761346901394134,3.24249267578125e-05,0.0939245000481605,0,0,0
3189,109419.84820517986,2010-11-17 18:08:47,5342.693632038434,2,10,0.5499359965324402,4.1609625816345215,9.747685737833132,8.96380790099551,38.85412797009625,32.761346901394134,6.47544875391759e-05,0.0939245000481605,0,0,0
3190,109449.8634294223,2010-11-17 18:09:17,5372.708856275857,2,10,0.550297200679779,4.164685726165772,9.752272497791685,8.96380790099551,38.87322194523776,32.761346901394134,9.70840483205393e-05,0.0939245000481605,0,0,0
3191,109479.87868346412,2010-11-17 18:09:47,5402.7241103176775,2,10,0.5501165986061096,4.16808557510376,9.756859132592458,8.96380790099551,38.8923316802957,32.761346901394134,6.47544875391759e-05,0.0939245000481605,0,0,0
3192,109509.8939763078,2010-11-17 18:10:17,5432.739403161352,2,10,0.5501165986061096,4.171647071838379,9.761445852035331,8.96380790099551,38.911458339810586,32.761346901394134,6.47544875391759e-05,0.0939245000481605,0,0,0
3193,109539.90930650974,2010-11-17 18:10:47,5462.754733393355,2,10,0.5504778623580933,4.175532341003418,9.766032630045848,8.96380790099551,38.93060175767362,32.761346901394134,0.0001942634553415,0.0939245000481605,0,0,0
3194,109569.92460990476,2010-11-17 18:11:17,5492.770036758293,2,10,0.5501165986061096,4.179255485534668,9.770619397822264,8.96380790099551,38.949761823857536,32.761346901394134,0.0001618385285837,0.0939245000481605,0,0,0
3195,109599.9399075454,2010-11-17 18:11:47,5522.785334388917,2,10,0.5501165986061096,4.182655334472656,9.775206143102231,8.96380790099551,38.96893850515758,32.761346901394134,6.47544875391759e-05,0.0939245000481605,0,0,0
3196,109629.95519261468,2010-11-17 18:12:17,5552.800619458187,2,10,0.5499359965324402,4.186378479003906,9.77979290795718,8.96380790099551,38.98813212767113,32.761346901394134,9.70840483205393e-05,0.0939245000481605,0,0,0
3197,109659.97078977796,2010-11-17 18:12:47,5582.81621664154,2,10,0.5501165986061096,4.1901021003723145,9.784379634018116,8.96380790099551,39.00734263882026,32.761346901394134,6.47544875391759e-05,0.0939245000481605,0,0,0
3198,109689.98583051735,2010-11-17 18:13:17,5612.831257370898,2,10,0.5499359965324402,4.1938252449035645,9.788966415065993,8.96380790099551,39.02657046198085,32.761346901394134,6.47544875391759e-05,0.0939245000481605,0,0,0
3199,109720.00111030343,2010-11-17 18:13:47,5642.846537161993,2,10,0.5501165986061096,4.197548389434815,9.793553181128257,8.96380790099551,39.04581526950276,32.761346901394134,6.47544875391759e-05,0.0939245000481605,0,0,0
3200,109738.8134340878,2010-11-17 18:14:06,5661.658860936337,2,10,0.5501165986061096,4.200138568878174,9.79642798643766,8.96380790099551,39.057885892118,32.761346901394134,0.0001618385285837,0.0939245000481605,0,0,0
3201,109768.83210784648,2010-11-17 18:14:36,30.015359043921173,3,10,0.0,4.116119861602783,9.79642798643766,8.96380790099551,39.057885892118,32.761346901394134,-0.0004209518374409,0.0939245000481605,0,0,0
3202,109798.84734900614,2010-11-17 18:15:06,60.03060008829733,3,10,0.0,4.106083393096924,9.79642798643766,8.96380790099551,39.057885892118,32.761346901394134,-0.0002265930233988,0.0939245000481605,0,0,0
3203,109828.86278411996,2010-11-17 18:15:36,90.04603522716319,3,10,0.0,4.100255489349365,9.79642798643766,8.96380790099551,39.057885892118,32.761346901394134,-6.47544875391759e-05,0.0939245000481605,0,0,0
3204,109858.83109180142,2010-11-17 18:16:06,120.01434288358249,3,10,0.0,4.096370220184326,9.79642798643766,8.96380790099551,39.057885892118,32.761346901394134,-6.47544875391759e-05,0.0939245000481605,0,0,0
3205,109858.84365163062,2010-11-17 18:16:07,0.015766254998053,4,10,0.977799355983734,4.199653148651123,9.79643226872486,8.96380790099551,39.05790387623892,32.761346901394134,0.0,0.0939245000481605,0,0,0
3206,109859.85919202068,2010-11-17 18:16:08,1.031306685148698,4,10,0.9270481467247008,4.199653148651123,9.796699156976448,8.96380790099551,39.0590247308724,32.761346901394134,0.0,0.0939245000481605,0,0,0
3207,109862.12484604168,2010-11-17 18:16:10,3.296960661034659,4,10,0.8768388032913208,4.199814796447754,9.797265596965792,8.96380790099551,39.06140361849308,32.761346901394134,3.23295607813634e-05,0.0939245000481605,0,0,0
3208,109865.54659109372,2010-11-17 18:16:13,6.718705728144484,4,10,0.8266294002532959,4.199653148651123,9.798073993108446,8.96380790099551,39.0647986577793,32.761346901394134,-3.23295607813634e-05,0.0939245000481605,0,0,0
3209,109870.249802904,2010-11-17 18:16:18,11.421917553431452,4,10,0.7760587930679321,4.199653148651123,9.799119770296352,8.96380790099551,39.06919063510084,32.761346901394134,0.0,0.0939245000481605,0,0,0
3210,109876.43722315686,2010-11-17 18:16:24,17.609337786243355,4,10,0.725849449634552,4.199814796447754,9.800408978948916,8.96380790099551,39.074604978959485,32.761346901394134,6.47544875391759e-05,0.0939245000481605,0,0,0
3211,109884.40888170298,2010-11-17 18:16:32,25.58099642762125,4,10,0.6758206486701965,4.199814796447754,9.801958971197983,8.96380790099551,39.08111455233316,32.761346901394134,0.0,0.0939245000481605,0,0,0
3212,109895.28075804393,2010-11-17 18:16:43,36.45287266330186,4,10,0.6257919073104858,4.199814796447754,9.803920990377405,8.96380790099551,39.089354541402685,32.761346901394134,0.0,0.0939245000481605,0,0,0
3213,109910.57745045652,2010-11-17 18:16:58,51.74956508091351,4,10,0.5755825042724609,4.199491024017334,9.806467031567545,8.96380790099551,39.10004726977582,32.761346901394134,-3.24249267578125e-05,0.0939245000481605,0,0,0
3214,109934.98332059816,2010-11-17 18:17:23,76.15543521752375,4,10,0.5255537629127502,4.199653148651123,9.810186973834558,8.96380790099551,39.115670127428174,32.761346901394134,0.0,0.0939245000481605,0,0,0
3215,109977.81099010512,2010-11-17 18:18:06,118.98310472448536,4,10,0.4755249917507171,4.199814796447754,9.816112959699762,8.96380790099551,39.14055773966312,32.761346901394134,3.23295607813634e-05,0.0939245000481605,0,0,0
3216,110052.90428501202,2010-11-17 18:19:21,194.0763996514376,4,10,0.4254962205886841,4.199653148651123,9.825471872701868,8.96380790099551,39.179862818191495,32.761346901394134,-3.23295607813634e-05,0.0939245000481605,0,0,0
3217,110158.54345614534,2010-11-17 18:21:06,299.7155707897791,4,10,0.375467449426651,4.199653148651123,9.837200290384004,8.96380790099551,39.22911920594972,32.761346901394134,0.0,0.0939245000481605,0,0,0
3218,110287.30789833296,2010-11-17 18:23:15,428.4800129573436,4,10,0.3254386782646179,4.199653148651123,9.849715010720203,8.96380790099551,39.28167794889785,32.761346901394134,0.0,0.0939245000481605,0,0,0
3219,110441.04043112096,2010-11-17 18:25:49,582.2125457553664,4,10,0.2754099071025848,4.199653148651123,9.862524759051333,8.96380790099551,39.33547562270426,32.761346901394134,0.0,0.0939245000481605,0,0,0
3220,110628.11657585416,2010-11-17 18:28:56,769.2886904735282,4,10,0.2253811359405517,4.199653148651123,9.875516899380088,8.96380790099551,39.39003930534802,32.761346901394134,-3.23295607813634e-05,0.0939245000481605,0,0,0
3221,110866.5514816012,2010-11-17 18:32:54,1007.723596220566,4,10,0.1751717627048492,4.199653148651123,9.888741860849818,8.96380790099551,39.445580741879134,32.761346901394134,0.0,0.0939245000481605,0,0,0
3222,111189.06372607568,2010-11-17 18:38:17,1330.2358406950427,4,10,0.1251429915428161,4.199491024017334,9.902109941347312,8.96380790099551,39.501723465268,32.761346901394134,-3.24249267578125e-05,0.0939245000481605,0,0,0
3223,111706.88647513736,2010-11-17 18:46:55,1848.058589756739,4,10,0.0751142129302024,4.199653148651123,9.916214937352786,8.96380790099551,39.56096058516332,32.761346901394134,-3.23295607813634e-05,0.0939245000481605,0,0,0
3224,112150.28818953216,2010-11-17 18:54:18,2291.460304156529,4,10,0.0498289167881011,4.199653148651123,9.92383151176699,8.96380790099551,39.59294832085136,32.761346901394134,0.0,0.0939245000481605,0,0,0
3225,112180.30106424582,2010-11-17 18:54:48,30.01542338452522,5,10,0.0,4.192044734954834,9.92383151176699,8.96380790099551,39.59294832085136,32.761346901394134,-3.23295607813634e-05,0.0939245000481605,0,0,0
3226,112210.3007774754,2010-11-17 18:55:18,60.015136634136745,5,10,0.0,4.190911293029785,9.92383151176699,8.96380790099551,39.59294832085136,32.761346901394134,0.0,0.0939245000481605,0,0,0
3227,112210.48649111668,2010-11-17 18:55:19,0.187392771186539,6,10,-1.9243103452026844e-05,4.190911293029785,9.92383151176699,8.963807901997182,39.59294832085136,32.761346905592056,0.0,0.0931148082017898,0,0,0
3228,112215.31454376888,2010-11-17 18:55:23,5.015445408346218,6,10,0.0007031940040178,4.190749645233154,9.923832418029802,8.963807902080921,39.59295211897473,32.761346905943,-3.23295607813634e-05,0.0931148082017898,0,0,0
3229,112245.3283756908,2010-11-17 18:55:53,30.01528892389079,7,10,-1.0997490882873535,4.018826961517334,9.923832418029802,8.972976735604455,39.59295211897473,32.798382080562625,-0.0008418083307333,0.0931148082017898,0,0,0
3230,112275.34380722564,2010-11-17 18:56:23,60.030720478810565,7,10,-1.099929690361023,3.99324893951416,9.923832418029802,8.982145587856781,39.59295211897473,32.83510460345062,-0.000615119934082,0.0931148082017898,0,0,0
3231,112305.358991769,2010-11-17 18:56:53,90.04590500210139,7,10,-1.0997490882873535,3.976089000701904,9.923832418029802,8.991314230524502,39.59295211897473,32.87163625230704,-0.0003561496851034,0.0931148082017898,0,0,0
3232,112335.37428323424,2010-11-17 18:57:23,120.06119646733578,7,10,-1.0997490882873535,3.962814331054688,9.923832418029802,9.000482832174493,39.59295211897473,32.90802883258929,-0.0002913951757363,0.0931148082017898,0,0,0
3233,112365.3895965891,2010-11-17 18:57:54,150.07650984226007,7,10,-1.099568486213684,3.9514822959899902,9.923832418029802,9.0096514124629,39.59295211897473,32.94430936267344,-0.0002913951757363,0.0931148082017898,0,0,0
3234,112395.4050230012,2010-11-17 18:58:24,180.09193623429252,7,10,-1.0997490882873535,3.9412834644317623,9.923832418029802,9.018820051779404,39.59295211897473,32.98049123706259,-0.0002590179501567,0.0931148082017898,0,0,0
3235,112425.4202266422,2010-11-17 18:58:54,210.10713988031665,7,10,-1.099568486213684,3.931408405303955,9.923832418029802,9.027988696386712,39.59295211897473,33.016581771125054,-0.0002913951757363,0.0931148082017898,0,0,0
3236,112455.43549426291,2010-11-17 18:59:24,240.12240749601887,7,10,-1.099568486213684,3.922342777252197,9.923832418029802,9.03715730004849,39.59295211897473,33.05258581947066,-0.0002590179501567,0.0931148082017898,0,0,0
3237,112485.45080166796,2010-11-17 18:59:54,270.1377149010415,7,10,-1.0997490882873535,3.913439273834229,9.923832418029802,9.04632597516536,39.59295211897473,33.08850746193276,-0.0002589702489785,0.0931148082017898,0,0,0
3238,112515.46610489252,2010-11-17 19:00:24,300.153018125629,7,10,-1.099568486213684,3.9048593044281006,9.923832418029802,9.055494627134845,39.59295211897473,33.12434813894642,-0.0002266406954731,0.0931148082017898,0,0,0
3239,112545.48143087894,2010-11-17 19:00:54,330.1683441120335,7,10,-1.0997490882873535,3.8959555625915527,9.923832418029802,9.064663293434608,39.59295211897473,33.16010926736235,-0.0002590179501567,0.0931148082017898,0,0,0
3240,112575.49673719624,2010-11-17 19:01:24,360.1836504544035,7,10,-1.099568486213684,3.8880231380462646,9.923832418029802,9.073831907854489,39.59295211897473,33.19579337059793,-0.0001942634553415,0.0931148082017898,0,0,0
3241,112605.51200776931,2010-11-17 19:01:54,390.19892100242527,7,10,-1.099568486213684,3.8797669410705566,9.923832418029802,9.083000611596615,39.59295211897473,33.231402031238936,-0.0001942634553415,0.0931148082017898,0,0,0
3242,112635.52733309408,2010-11-17 19:02:24,420.2142463271782,7,10,-1.099568486213684,3.8715107440948486,9.923832418029802,9.092169332805645,39.59295211897473,33.26693578343067,-0.0001942634553415,0.0931148082017898,0,0,0
3243,112665.542819541,2010-11-17 19:02:54,450.22973277411694,7,10,-1.099568486213684,3.863578319549561,9.923832418029802,9.101338140807284,39.59295211897473,33.3023956712004,-0.0001618862152099,0.0931148082017898,0,0,0
3244,112695.55793953824,2010-11-17 19:03:24,480.2448527913908,7,10,-1.0997490882873535,3.855322122573853,9.923832418029802,9.110506816660152,39.59295211897473,33.33778164001834,-0.0002266406954731,0.0931148082017898,0,0,0
3245,112725.5732256451,2010-11-17 19:03:54,510.26013887819977,7,10,-1.0997490882873535,3.847713470458984,9.923832418029802,9.119675515272029,39.59295211897473,33.37309520240032,-0.0001618862152099,0.0931148082017898,0,0,0
3246,112755.58853463909,2010-11-17 19:04:24,540.2754478772011,7,10,-1.0997490882873535,3.839942932128906,9.923832418029802,9.128844216765229,39.59295211897473,33.40833765413444,-0.0002266406954731,0.0931148082017898,0,0,0
3247,112785.60385487614,2010-11-17 19:04:54,570.290768109242,7,10,-1.0997490882873535,3.8321726322174072,9.923832418029802,9.13801293835674,39.59295211897473,33.443509388799,-0.0001942634553415,0.0931148082017898,0,0,0
3248,112815.6192131782,2010-11-17 19:05:24,600.3061264965239,7,10,-1.099568486213684,3.824725866317749,9.923832418029802,9.14718163979412,39.59295211897473,33.478611637362896,-0.0002266406954731,0.0931148082017898,0,0,0
3249,112845.634445972,2010-11-17 19:05:54,630.3213592050928,7,10,-1.099568486213684,3.817279100418091,9.923832418029802,9.156350294497123,39.59295211897473,33.51364530235286,-0.0001942634553415,0.0931148082017898,0,0,0
3250,112875.6497354623,2010-11-17 19:06:24,660.3366487054224,7,10,-1.099568486213684,3.8099942207336426,9.923832418029802,9.165518962275073,39.59295211897473,33.548610772712735,-0.0001942634553415,0.0931148082017898,0,0,0
3251,112905.66518284172,2010-11-17 19:06:54,690.3520960748175,7,10,-1.0997490882873535,3.8027093410491934,9.923832418029802,9.174687747143038,39.59295211897473,33.583510080615206,-0.0002266406954731,0.0931148082017898,0,0,0
3252,112935.68036537002,2010-11-17 19:07:24,720.3672786081411,7,10,-1.099568486213684,3.795748233795166,9.923832418029802,9.183856442548407,39.59295211897473,33.61834373724021,-0.0001942634553415,0.0931148082017898,0,0,0
3253,112965.69565811344,2010-11-17 19:07:54,750.3825713465535,7,10,-1.099568486213684,3.7887871265411377,9.923832418029802,9.193025109698445,39.59295211897473,33.65311376748684,-0.0001942634553415,0.0931148082017898,0,0,0
3254,112995.71100692684,2010-11-17 19:08:24,780.3979201850003,7,10,-1.099568486213684,3.782149791717529,9.923832418029802,9.20219389334307,39.59295211897473,33.68782226101881,-0.0001942634553415,0.0931148082017898,0,0,0
3255,113025.72627853249,2010-11-17 19:08:54,810.4131917756247,7,10,-1.099568486213684,3.775836229324341,9.923832418029802,9.211362643539264,39.59295211897473,33.72247036342904,-9.713172767078504e-05,0.0931148082017898,0,0,0
3256,113055.74155833865,2010-11-17 19:09:24,840.428471571731,7,10,-1.099568486213684,3.769198894500733,9.923832418029802,9.220531298138503,39.59295211897473,33.757058576606234,-0.0001618862152099,0.0931148082017898,0,0,0
3257,113085.75685357329,2010-11-17 19:09:54,870.4437668063744,7,10,-1.0997490882873535,3.762885332107544,9.923832418029802,9.229700012060077,39.59295211897473,33.79158836448793,-0.0001618862152099,0.0931148082017898,0,0,0
3258,113115.77216127903,2010-11-17 19:10:24,900.4590745121475,7,10,-1.099568486213684,3.756895542144776,9.923832418029802,9.238868707780034,39.59295211897473,33.826061612158746,-0.0001618862152099,0.0931148082017898,0,0,0
3259,113145.78752086931,2010-11-17 19:10:54,930.4744341024326,7,10,-1.0997490882873535,3.750582218170166,9.923832418029802,9.248037404829187,39.59295211897473,33.8604786245573,-0.0001942634553415,0.0931148082017898,0,0,0
3260,113175.80277183848,2010-11-17 19:11:24,960.4896850715826,7,10,-1.099568486213684,3.7445924282073975,9.923832418029802,9.257206089235853,39.59295211897473,33.894839636407404,-0.0001618862152099,0.0931148082017898,0,0,0
3261,113205.8180852134,2010-11-17 19:11:54,990.5049984715696,7,10,-1.0997490882873535,3.738602638244629,9.923832418029802,9.26637490432814,39.59295211897473,33.92914630075905,-0.0001618862152099,0.0931148082017898,0,0,0
3262,113235.83362726416,2010-11-17 19:12:24,1020.5205404972412,7,10,-1.0997490882873535,3.7327747344970703,9.923832418029802,9.275543638862308,39.59295211897473,33.96339919277011,-0.0001942634553415,0.0931148082017898,0,0,0
3263,113265.84868317138,2010-11-17 19:12:54,1050.5355964044866,7,10,-1.099568486213684,3.727270603179932,9.923832418029802,9.2847122789817,39.59295211897473,33.99759852619311,-0.0001295089750783,0.0931148082017898,0,0,0
3264,113295.86397889224,2010-11-17 19:13:24,1080.5508921253436,7,10,-1.0997490882873535,3.721766471862793,9.923832418029802,9.293881015076565,39.59295211897473,34.03174698694752,-0.0001295089750783,0.0931148082017898,0,0,0
3265,113325.87923917966,2010-11-17 19:13:54,1110.5661524127534,7,10,-1.0997490882873535,3.716100454330444,9.923832418029802,9.303049772458088,39.59295211897473,34.065844805135626,-0.0001618862152099,0.0931148082017898,0,0,0
3266,113355.8947195815,2010-11-17 19:14:24,1140.5816328146027,7,10,-1.099929690361023,3.710434436798096,9.923832418029802,9.312218544326605,39.59295211897473,34.09989250465182,-0.0002266406954731,0.0931148082017898,0,0,0
3267,113385.90988243568,2010-11-17 19:14:54,1170.5967956938666,7,10,-1.0993878841400146,3.705415964126587,9.923832418029802,9.32138720460008,39.59295211897473,34.133889963952306,-0.0001295089750783,0.0931148082017898,0,0,0
3268,113415.92519639208,2010-11-17 19:15:24,1200.612109635205,7,10,-1.099568486213684,3.700073719024658,9.923832418029802,9.330555922649648,39.59295211897473,34.16783878471464,-0.0001618862152099,0.0931148082017898,0,0,0
3269,113445.94071306448,2010-11-17 19:15:54,1230.6276263276409,7,10,-1.099568486213684,3.69489336013794,9.923832418029802,9.339724644515016,39.59295211897473,34.201739101740785,-0.0001295089750783,0.0931148082017898,0,0,0
3270,113475.95577553308,2010-11-17 19:16:24,1260.6426887661894,7,10,-1.0997490882873535,3.6895511150360103,9.923832418029802,9.348893136232386,39.59295211897473,34.235590843202004,-0.0001618862152099,0.0931148082017898,0,0,0
3271,113505.97109040174,2010-11-17 19:16:54,1290.6580036348423,7,10,-1.099568486213684,3.684370756149292,9.923832418029802,9.358061812691384,39.59295211897473,34.26939564408869,-0.0001295089750783,0.0931148082017898,0,0,0
3272,113535.9863709046,2010-11-17 19:17:24,1320.6732841377127,7,10,-1.0997490882873535,3.679352283477783,9.923832418029802,9.36723051038158,39.59295211897473,34.30315349291024,-0.0001295089750783,0.0931148082017898,0,0,0
3273,113566.00169273064,2010-11-17 19:17:54,1350.6886059637325,7,10,-1.099568486213684,3.6743338108062735,9.923832418029802,9.376399227192694,39.59295211897473,34.33686550870843,-0.0001295089750783,0.0931148082017898,0,0,0
3274,113596.01698389012,2010-11-17 19:18:24,1380.7038971232037,7,10,-1.0997490882873535,3.6693155765533447,9.923832418029802,9.38556792470021,39.59295211897473,34.37053197816531,-0.0001295089750783,0.0931148082017898,0,0,0
3275,113626.03545301726,2010-11-17 19:18:54,1410.7223662654087,7,10,-1.0997490882873535,3.664297103881836,9.923832418029802,9.394737612620116,39.59295211897473,34.4041567252341,-0.0001618862152099,0.0931148082017898,0,0,0
3276,113656.04761043444,2010-11-17 19:19:24,1440.7345236675394,7,10,-1.099568486213684,3.659926176071167,9.923832418029802,9.403905432918403,39.59295211897473,34.43773035963497,-9.713172767078504e-05,0.0931148082017898,0,0,0
3277,113686.06286738352,2010-11-17 19:19:54,1470.7497806366662,7,10,-1.099568486213684,3.655069589614868,9.923832418029802,9.41307414275661,39.59295211897473,34.47126344942414,-9.713172767078504e-05,0.0931148082017898,0,0,0
3278,113716.0781651996,2010-11-17 19:20:24,1500.7650784577656,7,10,-1.099568486213684,3.6503748893737793,9.923832418029802,9.422242887560344,39.59295211897473,34.504754070506074,-0.0001295089750783,0.0931148082017898,0,0,0
3279,113746.0935342084,2010-11-17 19:20:54,1530.7804474414984,7,10,-1.099929690361023,3.645842075347901,9.923832418029802,9.431411579120343,39.59295211897473,34.53820232464554,-6.47544875391759e-05,0.0931148082017898,0,0,0
3280,113776.10881278146,2010-11-17 19:21:24,1560.7957260245769,7,10,-1.099568486213684,3.6413092613220215,9.923832418029802,9.440580174726447,39.59295211897473,34.57160869751223,-0.0001295089750783,0.0931148082017898,0,0,0
3281,113806.12412009123,2010-11-17 19:21:54,1590.811033324337,7,10,-1.099568486213684,3.636938333511353,9.923832418029802,9.4497488761431,39.59295211897473,34.60497462336769,-0.0001295089750783,0.0931148082017898,0,0,0
3282,113836.13958769612,2010-11-17 19:22:24,1620.826500929243,7,10,-1.0997490882873535,3.632567405700684,9.923832418029802,9.458917582661288,39.59295211897473,34.63830113859997,-0.0001295089750783,0.0931148082017898,0,0,0
3283,113866.15478441487,2010-11-17 19:22:54,1650.8416976730375,7,10,-1.099568486213684,3.6285202503204346,9.923832418029802,9.468086237372315,39.59295211897473,34.671589014115206,-0.0001295089750783,0.0931148082017898,0,0,0
3284,113896.17002839156,2010-11-17 19:23:24,1680.8569416246708,7,10,-1.099568486213684,3.6244730949401855,9.923832418029802,9.477254924064608,39.59295211897473,34.70483909509726,-9.713172767078504e-05,0.0931148082017898,0,0,0
3285,113926.18533086928,2010-11-17 19:23:54,1710.872244102394,7,10,-1.0997490882873535,3.620425939559937,9.923832418029802,9.486423644521237,39.59295211897473,34.73805180630476,-9.713172767078504e-05,0.0931148082017898,0,0,0
3286,113956.20081230871,2010-11-17 19:24:24,1740.887725687196,7,10,-1.099568486213684,3.616378784179688,9.923832418029802,9.49559239396471,39.59295211897473,34.77122759336247,-9.713172767078504e-05,0.0931148082017898,0,0,0
3287,113986.2159419801,2010-11-17 19:24:54,1770.9028552132054,7,10,-1.099568486213684,3.6126554012298575,9.923832418029802,9.504761022622954,39.59295211897473,34.80436735034812,-9.713172767078504e-05,0.0931148082017898,0,0,0
3288,114016.23128584112,2010-11-17 19:25:24,1800.9181990742277,7,10,-1.0997490882873535,3.608932018280029,9.923832418029802,9.513929718481094,39.59295211897473,34.83747279047415,-9.713172767078504e-05,0.0931148082017898,0,0,0
3289,114046.24654404332,2010-11-17 19:25:54,1830.9334573014949,7,10,-1.0997490882873535,3.6050467491149902,9.923832418029802,9.523098429745188,39.59295211897473,34.87054415464431,-0.0001295089750783,0.0931148082017898,0,0,0
3290,114076.26183083691,2010-11-17 19:26:24,1860.9487440700057,7,10,-1.0997490882873535,3.601485252380371,9.923832418029802,9.532267114039152,39.59295211897473,34.90358176561685,-9.713172767078504e-05,0.0931148082017898,0,0,0
3291,114106.2772762414,2010-11-17 19:26:54,1890.964189474496,7,10,-1.099929690361023,3.597923755645752,9.923832418029802,9.541435906364397,39.59295211897473,34.936587595571595,-0.0001295089750783,0.0931148082017898,0,0,0
3292,114136.29257717526,2010-11-17 19:27:24,1920.979490408365,7,10,-1.099568486213684,3.5946860313415527,9.923832418029802,9.550604632019018,39.59295211897473,34.96956142044744,-9.713172767078504e-05,0.0931148082017898,0,0,0
3293,114166.3077437688,2010-11-17 19:27:54,1950.994657001901,7,10,-1.0997490882873535,3.5914485454559326,9.923832418029802,9.55977327179536,39.59295211897473,35.00250421769598,-6.47544875391759e-05,0.0931148082017898,0,0,0
3294,114196.3232940601,2010-11-17 19:28:24,1981.0102072982177,7,10,-1.0997490882873535,3.587887048721313,9.923832418029802,9.568942088447136,39.59295211897473,35.03541764175313,-9.713172767078504e-05,0.0931148082017898,0,0,0
3295,114226.33836644348,2010-11-17 19:28:54,2011.02527970164,7,10,-1.099568486213684,3.585134983062744,9.923832418029802,9.578110725660448,39.59295211897473,35.06830109430152,-3.237724376958795e-05,0.0931148082017898,0,0,0
3296,114256.35364670574,2010-11-17 19:29:24,2041.040559958897,7,10,-1.099568486213684,3.581735372543335,9.923832418029802,9.587279333026272,39.59295211897473,35.10115572005233,-9.713172767078504e-05,0.0931148082017898,0,0,0
3297,114286.36892054197,2010-11-17 19:29:55,2071.055833775077,7,10,-1.099568486213684,3.578821420669556,9.923832418029802,9.596448058177236,39.59295211897473,35.13398263943315,-9.713172767078504e-05,0.0931148082017898,0,0,0
3298,114316.38434946533,2010-11-17 19:30:25,2101.071262698428,7,10,-1.099568486213684,3.5759074687957764,9.923832418029802,9.605616834809092,39.59295211897473,35.166782397669614,-6.47544875391759e-05,0.0931148082017898,0,0,0
3299,114346.39953533698,2010-11-17 19:30:55,2131.086448570085,7,10,-1.099568486213684,3.572993516921997,9.923832418029802,9.614785524399243,39.59295211897473,35.199554770795935,-6.47544875391759e-05,0.0931148082017898,0,0,0
3300,114376.4148400152,2010-11-17 19:31:25,2161.1017532483006,7,10,-1.099929690361023,3.569917678833008,9.923832418029802,9.62395428003974,39.59295211897473,35.232300786191075,-0.0001295089750783,0.0931148082017898,0,0,0
3301,114406.43015680868,2010-11-17 19:31:55,2191.117070041758,7,10,-1.0997490882873535,3.5671656131744385,9.923832418029802,9.63312299894934,39.59295211897473,35.265020212612235,-9.713172767078504e-05,0.0931148082017898,0,0,0
3302,114436.44543399826,2010-11-17 19:32:25,2221.1323472313584,7,10,-1.099929690361023,3.564251661300659,9.923832418029802,9.642291823242788,39.59295211897473,35.29771315911151,-6.47544875391759e-05,0.0931148082017898,0,0,0
3303,114466.46078341316,2010-11-17 19:32:55,2251.147696666294,7,10,-1.099568486213684,3.56133770942688,9.923832418029802,9.651460513762451,39.59295211897473,35.33037935246314,-9.713172767078504e-05,0.0931148082017898,0,0,0
3304,114496.47603603642,2010-11-17 19:33:25,2281.162949269523,7,10,-1.0997490882873535,3.55826187133789,9.923832418029802,9.660629184569109,39.59295211897473,35.36301871033843,-0.0001295089750783,0.0931148082017898,0,0,0
3305,114526.49133801792,2010-11-17 19:33:55,2311.178251251008,7,10,-1.0997490882873535,3.5553479194641118,9.923832418029802,9.669797884272755,39.59295211897473,35.395630436990835,-9.713172767078504e-05,0.0931148082017898,0,0,0
3306,114556.50664188409,2010-11-17 19:34:25,2341.1935551171964,7,10,-1.099568486213684,3.552272081375122,9.923832418029802,9.678966572850689,39.59295211897473,35.42821395124913,-6.47544875391759e-05,0.0931148082017898,0,0,0
3307,114586.52217400503,2010-11-17 19:34:55,2371.2090872682197,7,10,-1.0997490882873535,3.549034357070923,9.923832418029802,9.68813531764083,39.59295211897473,35.460769409757184,-9.713172767078504e-05,0.0931148082017898,0,0,0
3308,114616.53725731568,2010-11-17 19:35:25,2401.224170548793,7,10,-1.0997490882873535,3.5459585189819336,9.923832418029802,9.697303966005444,39.59295211897473,35.493295622238186,-9.713172767078504e-05,0.0931148082017898,0,0,0
3309,114646.5525652771,2010-11-17 19:35:55,2431.239478510204,7,10,-1.0997490882873535,3.5425589084625244,9.923832418029802,9.706472725529682,39.59295211897473,35.525792648457994,-0.0001295089750783,0.0931148082017898,0,0,0
3310,114676.5678882159,2010-11-17 19:36:25,2461.254801469052,7,10,-1.0997490882873535,3.539321184158325,9.923832418029802,9.715641488594628,39.59295211897473,35.558259832650265,-0.0001295089750783,0.0931148082017898,0,0,0
3311,114706.58317780645,2010-11-17 19:36:55,2491.2700910395565,7,10,-1.099568486213684,3.535921573638916,9.923832418029802,9.72481023945975,39.59295211897473,35.59069638231924,-9.713172767078504e-05,0.0931148082017898,0,0,0
3312,114736.5984524898,2010-11-17 19:37:25,2521.2853657229007,7,10,-1.099568486213684,3.532521963119507,9.923832418029802,9.733979000131647,39.59295211897473,35.62310185144377,-9.713172767078504e-05,0.0931148082017898,0,0,0
3313,114766.61377618049,2010-11-17 19:37:55,2551.3006894135747,7,10,-1.099929690361023,3.528960466384888,9.923832418029802,9.74314778606635,39.59295211897473,35.65547545283113,-0.0001295089750783,0.0931148082017898,0,0,0
3314,114796.62905587631,2010-11-17 19:38:25,2581.315969109431,7,10,-1.0997490882873535,3.525398969650269,9.923832418029802,9.752316546222778,39.59295211897473,35.68781649223568,-0.0001295089750783,0.0931148082017898,0,0,0
3315,114826.6443725896,2010-11-17 19:38:55,2611.331285822688,7,10,-1.0997490882873535,3.5216755867004395,9.923832418029802,9.761485351026284,39.59295211897473,35.72012364879082,-0.0001295089750783,0.0931148082017898,0,0,0
3316,114856.6596656488,2010-11-17 19:39:25,2641.346578886914,7,10,-1.0997490882873535,3.5177903175354004,9.923832418029802,9.770654137627584,39.59295211897473,35.75239553707221,-9.713172767078504e-05,0.0931148082017898,0,0,0
3317,114886.67498782068,2010-11-17 19:39:55,2671.3619010537845,7,10,-1.0997490882873535,3.513743162155152,9.923832418029802,9.779822925527158,39.59295211897473,35.78463056814872,-9.713172767078504e-05,0.0931148082017898,0,0,0
3318,114916.69025624842,2010-11-17 19:40:25,2701.3771694815136,7,10,-1.099568486213684,3.509372472763061,9.923832418029802,9.788991659547811,39.59295211897473,35.81682718727734,-9.713172767078504e-05,0.0931148082017898,0,0,0
3319,114946.70557744786,2010-11-17 19:40:55,2731.392490680969,7,10,-1.0997490882873535,3.5048396587371826,9.923832418029802,9.79816045666806,39.59295211897473,35.84898387038268,-0.0001295089750783,0.0931148082017898,0,0,0
3320,114976.72099470712,2010-11-17 19:41:25,2761.4079079402045,7,10,-1.0997490882873535,3.500306844711304,9.923832418029802,9.807329295393524,39.59295211897473,35.881098383879824,-0.0001295089750783,0.0931148082017898,0,0,0
3321,115006.73616956123,2010-11-17 19:41:55,2791.42308279436,7,10,-1.099568486213684,3.495288372039795,9.923832418029802,9.816497994977311,39.59295211897473,35.91316681914292,-9.713172767078504e-05,0.0931148082017898,0,0,0
3322,115036.75146666556,2010-11-17 19:42:25,2821.43837989867,7,10,-1.099568486213684,3.4891366958618164,9.923832418029802,9.82566676732712,39.59295211897473,35.94518543492355,-0.0001618862152099,0.0931148082017898,0,0,0
3323,115066.76678567956,2010-11-17 19:42:55,2851.4536989126705,7,10,-1.099568486213684,3.482985019683838,9.923832418029802,9.834835592373416,39.59295211897473,35.97714922404088,-0.0001618862152099,0.0931148082017898,0,0,0
3324,115096.78221611168,2010-11-17 19:43:25,2881.4691293447872,7,10,-1.0997490882873535,3.4758620262146,9.923832418029802,9.844004376041678,39.59295211897473,36.00905159579371,-0.0001942634553415,0.0931148082017898,0,0,0
3325,115126.7974950256,2010-11-17 19:43:55,2911.4844082687173,7,10,-1.0997490882873535,3.4677677154541016,9.923832418029802,9.853173124207457,39.59295211897473,36.040885341770746,-0.0002590179501567,0.0931148082017898,0,0,0
3326,115156.81292047026,2010-11-17 19:44:25,2941.4998337033594,7,10,-1.0997490882873535,3.458540201187134,9.923832418029802,9.862341882371316,39.59295211897473,36.07264022034569,-0.0002590179501567,0.0931148082017898,0,0,0
3327,115186.82798732484,2010-11-17 19:44:55,2971.514900557931,7,10,-1.099568486213684,3.4472081661224365,9.923832418029802,9.87151061567298,39.59295211897473,36.1043003222875,-0.0003237724304199,0.0931148082017898,0,0,0
3328,115216.84344763152,2010-11-17 19:45:25,3001.5303609598577,7,10,-1.099568486213684,3.43296217918396,9.923832418029802,9.8806794437466,39.59295211897473,36.135843595803614,-0.0003561496851034,0.0931148082017898,0,0,0
3329,115246.85857553848,2010-11-17 19:45:55,3031.545488771588,7,10,-1.099568486213684,3.414669275283813,9.923832418029802,9.889848164085455,39.59295211897473,36.16723879416761,-0.0005504131549969,0.0931148082017898,0,0,0
3330,115276.8740151435,2010-11-17 19:46:25,3061.5609283766016,7,10,-1.099568486213684,3.390872001647949,9.923832418029802,9.899016947888324,39.59295211897473,36.19844345851556,-0.0007122993702068,0.0931148082017898,0,0,0
3331,115306.8892104838,2010-11-17 19:46:55,3091.576123741956,7,10,-1.0997490882873535,3.358980417251587,9.923832418029802,9.908185749413322,39.59295211897473,36.22939535478967,-0.0009713172912597,0.0931148082017898,0,0,0
3332,115336.90448988392,2010-11-17 19:47:25,3121.5914031170114,7,10,-1.0997490882873535,3.3157570362091064,9.923832418029802,9.917354564834683,39.59295211897473,36.2600054339175,-0.0012950897216796,0.0931148082017898,0,0,0
3333,115366.92007690188,2010-11-17 19:47:55,3151.6069901349906,7,10,-1.099568486213684,3.25521183013916,9.923832418029802,9.926523382425746,39.59295211897473,36.290144714906376,-0.0018131255637854,0.0931148082017898,0,0,0
3334,115396.93511903477,2010-11-17 19:48:25,3181.622032267853,7,10,-1.0997490882873535,3.1684410572052,9.923832418029802,9.935692079874087,39.59295211897473,36.31961844484661,-0.0027196884620934,0.0931148082017898,0,0,0
3335,115426.9504092619,2010-11-17 19:48:55,3211.637322494997,7,10,-1.099568486213684,3.033104419708252,9.923832418029802,9.944860820856098,39.59295211897473,36.348100858490135,-0.0045004365965723,0.0931148082017898,0,0,0
3336,115450.23139648268,2010-11-17 19:49:18,3234.9183097157907,7,10,-1.0997490882873535,2.832851886749268,9.923832418029802,9.951972469894445,39.59295211897473,36.3690433517616,-0.0090008256956934,0.0931148082017898,0,0,0
3337,115460.54377882052,2010-11-17 19:49:29,3245.2306920536266,7,10,-1.099568486213684,2.699943780899048,9.923832418029802,9.955122615957716,39.59295211897473,36.37776244885016,-0.0106844427064061,0.0931148082017898,0,0,0
3338,115520.56098421109,2010-11-17 19:50:29,60.01498331141966,8,10,0.0,3.3236894607543945,9.923832418029802,9.955122615957716,39.59295211897473,36.37776244885016,0.0012950897216796,0.0931148082017898,0,0,0
3339,115520.7513574188,2010-11-17 19:50:29,0.187512389772933,9,10,-1.9243103452026844e-05,3.3236894607543945,9.923832418029802,9.955122616960027,39.59295211897473,36.377762452181535,0.0,0.0940094217658042,0,0,0
3340,115525.57929080832,2010-11-17 19:50:34,5.015445769247083,9,10,0.0005225847125984,3.3311362266540527,9.923833296422544,9.955122617047932,39.59295504224284,36.3777624524737,0.0010684489971026,0.0940094217658042,0,0,0
