Data_Point,Test_Time(s),Date_Time,Step_Time(s),Step_Index,Cycle_Index,Current(A),Voltage(V),Charge_Capacity(Ah),Discharge_Capacity(Ah),Charge_Energy(Wh),Discharge_Energy(Wh),dV/dt(V/s),Internal_Resistance(Ohm),Is_FC_Data,AC_Impedance(Ohm),ACI_Phase_Angle(Deg)
11558,400679.5730778829,2010-11-21 03:03:37,30.01542471785341,1,36,0.0,3.34263014793396,34.39128361701991,34.41968767762795,137.25846698269012,125.58356636448364,0.0007446765666827,0.0945633500814437,0,0,0
11559,400709.5885531671,2010-11-21 03:04:07,60.030899986890354,1,36,0.0,3.3659415245056152,34.39128361701991,34.41968767762795,137.25846698269012,125.58356636448364,0.0006475448608398,0.0945633500814437,0,0,0
11560,400739.60578592296,2010-11-21 03:04:37,90.04813275792266,1,36,0.0,3.383263349533081,34.39128361701991,34.41968767762795,137.25846698269012,125.58356636448364,0.0004209041653666,0.0945633500814437,0,0,0
11561,400769.5722459474,2010-11-21 03:05:07,120.0145927823683,1,36,0.0,3.397347450256348,34.39128361701991,34.41968767762795,137.25846698269012,125.58356636448364,0.0003237724304199,0.0945633500814437,0,0,0
11562,400799.5855647875,2010-11-21 03:05:38,30.015399755543648,2,36,0.550297200679779,3.5600426197052,34.39587111766905,34.41968767762795,137.27462213187397,125.58356636448364,0.0017159938579425,0.0945633500814437,0,0,0
11563,400829.60092307953,2010-11-21 03:06:08,60.030758017512944,2,36,0.550297200679779,3.6120078563690186,34.40045869629539,34.41968767762795,137.29108078572267,125.58356636448364,0.0011655807029455,0.0945633500814437,0,0,0
11564,400859.6162690258,2010-11-21 03:06:38,90.04610390359012,2,36,0.5501165986061096,3.650698661804199,34.405046275125265,34.41968767762795,137.30774410194994,125.58356636448364,0.0009065627818927,0.0945633500814437,0,0,0
11565,400889.6316200397,2010-11-21 03:07:08,120.06145498764222,2,36,0.550297200679779,3.680809259414673,34.40963377852122,34.41968767762795,137.32456368279568,125.58356636448364,0.0006799221155233,0.0945633500814437,0,0,0
11566,400919.6469927928,2010-11-21 03:07:38,150.07682768564607,2,36,0.5501165986061096,3.7060635089874263,34.41422137287402,34.41968767762795,137.34151000612675,125.58356636448364,0.0006151676061563,0.0945633500814437,0,0,0
11567,400949.6625131444,2010-11-21 03:08:08,180.09234812242866,2,36,0.550297200679779,3.7271087169647217,34.41880892265595,34.41968767762795,137.35856134957916,125.58356636448364,0.0005180359003134,0.0945633500814437,0,0,0
11568,400979.67773276527,2010-11-21 03:08:38,210.10756774332856,2,36,0.5504778623580933,3.744430541992188,34.423396402162375,34.41968767762795,137.37569989091972,125.58356636448364,0.0004856586456298,0.0945633500814437,0,0,0
11569,401009.6931659441,2010-11-21 03:09:08,240.12300094235223,2,36,0.5499359965324402,3.757057428359986,34.42798398105862,34.41968767762795,137.39290861266286,125.58356636448364,0.0002266406954731,0.0945633500814437,0,0,0
11570,401039.7084663668,2010-11-21 03:09:38,270.13830130479545,2,36,0.550297200679779,3.7654755115509033,34.43257143752788,34.41968767762795,137.4101649444946,125.58356636448364,0.0002266406954731,0.0945633500814437,0,0,0
11571,401069.7240740664,2010-11-21 03:10:08,300.1539089793369,2,36,0.550297200679779,3.770655870437622,34.4371590167985,34.41968767762795,137.42745164745546,125.58356636448364,9.713172767078504e-05,0.0945633500814437,0,0,0
11572,401099.7392171513,2010-11-21 03:10:38,330.1690521443912,2,36,0.550297200679779,3.774864912033081,34.44174645985785,34.41968767762795,137.44475899970897,125.58356636448364,0.0001295089750783,0.0945633500814437,0,0,0
11573,401129.7545976137,2010-11-21 03:11:08,360.18443257670106,2,36,0.5499359965324402,3.7784264087677,34.44633401765655,34.41968767762795,137.46208509251844,125.58356636448364,3.237724376958795e-05,0.0945633500814437,0,0,0
11574,401159.7699557152,2010-11-21 03:11:38,390.19979068328246,2,36,0.550297200679779,3.7823116779327393,34.45092157089393,34.41968767762795,137.47942819883883,125.58356636448364,0.0001295089750783,0.0945633500814437,0,0,0
11575,401189.78723455634,2010-11-21 03:12:08,420.2170695393502,2,36,0.550297200679779,3.785711288452149,34.45550939461232,34.41968767762795,137.49678855812172,125.58356636448364,6.47544875391759e-05,0.0945633500814437,0,0,0
11576,401219.80075518624,2010-11-21 03:12:38,450.2305901241946,2,36,0.5501165986061096,3.788949012756348,34.460096675102214,34.41968767762795,137.51416244320254,125.58356636448364,6.47544875391759e-05,0.0945633500814437,0,0,0
11577,401249.816054476,2010-11-21 03:13:08,480.24588937386017,2,36,0.550297200679779,3.792348623275757,34.46468423690414,34.41968767762795,137.5315524925288,125.58356636448364,6.47544875391759e-05,0.0945633500814437,0,0,0
11578,401279.83144579554,2010-11-21 03:13:38,510.2612806783085,2,36,0.5504778623580933,3.795424461364746,34.46927175453557,34.41968767762795,137.54895703368982,125.58356636448364,6.47544875391759e-05,0.0945633500814437,0,0,0
11579,401309.8468245737,2010-11-21 03:14:08,540.2766595216522,2,36,0.5504778623580933,3.798662185668945,34.473859314667024,34.41968767762795,137.56637606003386,125.58356636448364,9.713172767078504e-05,0.0945633500814437,0,0,0
11580,401339.8621911464,2010-11-21 03:14:38,570.2920261094038,2,36,0.5501165986061096,3.801414251327514,34.47844692131253,34.41968767762795,137.5838093503076,125.58356636448364,3.237724376958795e-05,0.0945633500814437,0,0,0
11581,401369.8775828318,2010-11-21 03:15:08,600.3074178298907,2,36,0.550297200679779,3.804490089416504,34.48303449071934,34.41968767762795,137.601256233956,125.58356636448364,6.47544875391759e-05,0.0945633500814437,0,0,0
11582,401399.8929321615,2010-11-21 03:15:38,630.3227670593135,2,36,0.5506584644317627,3.807727813720703,34.48762211714504,34.41968767762795,137.61871713731958,125.58356636448364,6.47544875391759e-05,0.0945633500814437,0,0,0
11583,401429.9083727088,2010-11-21 03:16:08,660.338207676855,2,36,0.550297200679779,3.8106417655944815,34.492209741436305,34.41968767762795,137.6361918231066,125.58356636448364,6.47544875391759e-05,0.0945633500814437,0,0,0
11584,401459.92368147225,2010-11-21 03:16:38,690.3535164402682,2,36,0.5504778623580933,3.8138794898986816,34.49679734731456,34.41968767762795,137.65368043147393,125.58356636448364,0.0001295089750783,0.0945633500814437,0,0,0
11585,401489.9390287368,2010-11-21 03:17:08,720.368863634611,2,36,0.5501165986061096,3.816793441772461,34.50138486713091,34.41968767762795,137.67118318970407,125.58356636448364,9.713172767078504e-05,0.0945633500814437,0,0,0
11586,401519.9544177003,2010-11-21 03:17:38,750.3842526383165,2,36,0.550297200679779,3.82019305229187,34.50597244768176,34.41968767762795,137.6887007665082,125.58356636448364,9.713172767078504e-05,0.0945633500814437,0,0,0
11587,401549.9697944936,2010-11-21 03:18:08,780.3996294014676,2,36,0.550297200679779,3.823430776596069,34.5105600465392,34.41968767762795,137.70623349705696,125.58356636448364,9.713172767078504e-05,0.0945633500814437,0,0,0
11588,401579.9851576178,2010-11-21 03:18:38,810.4149924704359,2,36,0.550297200679779,3.8268303871154794,34.51514760640255,34.41968767762795,137.7237814494632,125.58356636448364,9.713172767078504e-05,0.0945633500814437,0,0,0
11589,401610.00065486657,2010-11-21 03:19:08,840.4304898145755,2,36,0.5501165986061096,3.8300681114196777,34.51973522783834,34.41968767762795,137.74134538812874,125.58356636448364,9.713172767078504e-05,0.0945633500814437,0,0,0
11590,401640.0159938354,2010-11-21 03:19:38,870.4458287984238,2,36,0.550297200679779,3.833791255950928,34.52432284722572,34.41968767762795,137.7589251565718,125.58356636448364,9.713172767078504e-05,0.0945633500814437,0,0,0
11591,401670.03127946606,2010-11-21 03:20:08,900.4611143739564,2,36,0.550297200679779,3.837190866470337,34.52891039808124,34.41968767762795,137.776520566099,125.58356636448364,9.713172767078504e-05,0.0945633500814437,0,0,0
11592,401700.0470438218,2010-11-21 03:20:38,930.4768788047858,2,36,0.550297200679779,3.840590476989746,34.53349803957892,34.41968767762795,137.79413214308772,125.58356636448364,6.47544875391759e-05,0.0945633500814437,0,0,0
11593,401730.0620226716,2010-11-21 03:21:08,960.4918576095716,2,36,0.5501165986061096,3.8439900875091553,34.53808557000234,34.41968767762795,137.81175894091933,125.58356636448364,9.713172767078504e-05,0.0945633500814437,0,0,0
11594,401760.07748008607,2010-11-21 03:21:38,990.5073150691536,2,36,0.550297200679779,3.847389698028565,34.54267317476389,34.41968767762795,137.82940149567227,125.58356636448364,9.713172767078504e-05,0.0945633500814437,0,0,0
11595,401790.094758857,2010-11-21 03:22:08,1020.5245938450208,2,36,0.5501165986061096,3.850627422332764,34.54726108675154,34.41968767762795,137.84706040527195,125.58356636448364,0.0001295089750783,0.0945633500814437,0,0,0
11596,401820.1083270406,2010-11-21 03:22:38,1050.5381619685293,2,36,0.550297200679779,3.853865146636963,34.551848423110755,34.41968767762795,137.86473194327195,125.58356636448364,9.713172767078504e-05,0.0945633500814437,0,0,0
11597,401850.1236699292,2010-11-21 03:23:08,1080.5535048420868,2,36,0.550297200679779,3.856940984725952,34.556435985779764,34.41968767762795,137.88241886109492,125.58356636448364,9.713172767078504e-05,0.0945633500814437,0,0,0
11598,401880.1388425728,2010-11-21 03:23:38,1110.568677455649,2,36,0.550297200679779,3.860016822814941,34.561023528193246,34.41968767762795,137.90011979878267,125.58356636448364,0.0001295089750783,0.0945633500814437,0,0,0
11599,401910.15424159646,2010-11-21 03:24:08,1140.5840765645785,2,36,0.550297200679779,3.862768888473511,34.565611120227274,34.41968767762795,137.91783450083997,125.58356636448364,3.237724376958795e-05,0.0945633500814437,0,0,0
11600,401940.169617272,2010-11-21 03:24:38,1170.5994521497894,2,36,0.5504778623580933,3.86568284034729,34.57019864025838,34.41968767762795,137.9355619589332,125.58356636448364,6.47544875391759e-05,0.0945633500814437,0,0,0
11601,401970.1849563009,2010-11-21 03:25:08,1200.6147911837625,2,36,0.550297200679779,3.8682730197906494,34.57478621419846,34.41968767762795,137.9533021513695,125.58356636448364,3.237724376958795e-05,0.0945633500814437,0,0,0
11602,402000.20036442747,2010-11-21 03:25:38,1230.6301992901513,2,36,0.5501165986061096,3.8710250854492183,34.57937380276663,34.41968767762795,137.97105432762902,125.58356636448364,9.713172767078504e-05,0.0945633500814437,0,0,0
11603,402030.218596538,2010-11-21 03:26:08,1260.6484315009388,2,36,0.550297200679779,3.873129606246948,34.583961819495016,34.41968767762795,137.9888194637596,125.58356636448364,6.47544875391759e-05,0.0945633500814437,0,0,0
11604,402060.23135692027,2010-11-21 03:26:38,1290.6611919132758,2,36,0.5501165986061096,3.875396013259888,34.58854899259836,34.41968767762795,138.00659191394288,125.58356636448364,6.47544875391759e-05,0.0945633500814437,0,0,0
11605,402090.2464306067,2010-11-21 03:27:08,1320.676265489626,2,36,0.5504778623580933,3.877500534057617,34.59313655457265,34.41968767762795,138.0243758931073,125.58356636448364,3.237724376958795e-05,0.0945633500814437,0,0,0
11606,402120.2618258009,2010-11-21 03:27:38,1350.6916606787713,2,36,0.5501165986061096,3.8794431686401367,34.597724165692945,34.41968767762795,138.04216940091746,125.58356636448364,3.237724376958795e-05,0.0945633500814437,0,0,0
11607,402150.27719404286,2010-11-21 03:28:08,1380.7070290409522,2,36,0.550297200679779,3.881385803222656,34.60231173223127,34.41968767762795,138.05997144541791,125.58356636448364,6.47544875391759e-05,0.0945633500814437,0,0,0
11608,402180.2925622296,2010-11-21 03:28:38,1410.72239713747,2,36,0.550297200679779,3.883166551589966,34.60689935158366,34.41968767762795,138.0777818756015,125.58356636448364,3.237724376958795e-05,0.0945633500814437,0,0,0
11609,402210.307934667,2010-11-21 03:29:08,1440.7377696048984,2,36,0.5501165986061096,3.884623527526856,34.61148696939404,34.41968767762795,138.09559997887263,125.58356636448364,3.237724376958795e-05,0.0945633500814437,0,0,0
11610,402240.3233119314,2010-11-21 03:29:38,1470.7531468141633,2,36,0.5501165986061096,3.886242389678955,34.61607460006215,34.41968767762795,138.11342539194828,125.58356636448364,3.237724376958795e-05,0.0945633500814437,0,0,0
11611,402270.33875221806,2010-11-21 03:30:08,1500.7685871860913,2,36,0.550297200679779,3.887861251831055,34.62066220515077,34.41968767762795,138.13125772744536,125.58356636448364,6.47544875391759e-05,0.0945633500814437,0,0,0
11612,402300.3540469615,2010-11-21 03:30:38,1530.7838818994337,2,36,0.5501165986061096,3.8891563415527344,34.62524979621609,34.41968767762795,138.14909681870373,125.58356636448364,0.0,0.0945633500814437,0,0,0
11613,402330.3695607968,2010-11-21 03:31:08,1560.799395794888,2,36,0.550297200679779,3.890613317489624,34.629837527385654,34.41968767762795,138.16694297903558,125.58356636448364,3.237724376958795e-05,0.0945633500814437,0,0,0
11614,402360.3848060767,2010-11-21 03:31:38,1590.8146410597994,2,36,0.550297200679779,3.892232179641724,34.63442503655589,34.41968767762795,138.1847946836032,125.58356636448364,9.713172767078504e-05,0.0945633500814437,0,0,0
11615,402390.402020111,2010-11-21 03:32:08,1620.8318550689992,2,36,0.550297200679779,3.8935272693634033,34.63901292034367,34.41968767762795,138.2026541377236,125.58356636448364,3.237724376958795e-05,0.0945633500814437,0,0,0
11616,402420.415511944,2010-11-21 03:32:38,1650.84534693215,2,36,0.5501165986061096,3.894660472869873,34.64360028832696,34.41968767762795,138.22051785767945,125.58356636448364,0.0,0.0945633500814437,0,0,0
11617,402450.4309969123,2010-11-21 03:33:08,1680.8608318903723,2,36,0.5501165986061096,3.895793676376343,34.64818799700449,34.41968767762795,138.2383884797561,125.58356636448364,3.237724376958795e-05,0.0945633500814437,0,0,0
11618,402480.44650172006,2010-11-21 03:33:38,1710.8763367031552,2,36,0.5501165986061096,3.897250652313232,34.65277556615074,34.41968767762795,138.25626482139185,125.58356636448364,3.237724376958795e-05,0.0945633500814437,0,0,0
11619,402510.4616832911,2010-11-21 03:34:08,1740.891518259039,2,36,0.550297200679779,3.898545742034912,34.65736315265726,34.41968767762795,138.27414731989617,125.58356636448364,0.0,0.0945633500814437,0,0,0
11620,402540.4770182348,2010-11-21 03:34:38,1770.9068530875147,2,36,0.550297200679779,3.899840831756592,34.66195079551787,34.41968767762795,138.29203622563958,125.58356636448364,-3.237724376958795e-05,0.0945633500814437,0,0,0
11621,402570.4925242305,2010-11-21 03:35:08,1800.9223592135754,2,36,0.550297200679779,3.9012978076934814,34.66653849958484,34.41968767762795,138.30993140118315,125.58356636448364,3.237724376958795e-05,0.0945633500814437,0,0,0
11622,402600.5077403176,2010-11-21 03:35:38,1830.9375752655667,2,36,0.550297200679779,3.902754783630371,34.67112604806004,34.41968767762795,138.32783214205386,125.58356636448364,6.47544875391759e-05,0.0945633500814437,0,0,0
11623,402630.523119171,2010-11-21 03:36:08,1860.952954083848,2,36,0.5501165986061096,3.903887987136841,34.675713633952434,34.41968767762795,138.34573918730715,125.58356636448364,0.0,0.0945633500814437,0,0,0
11624,402660.53850540274,2010-11-21 03:36:39,1890.9683403005963,2,36,0.5501165986061096,3.9053449630737305,34.68030128796201,34.41968767762795,138.3636527487043,125.58356636448364,3.237724376958795e-05,0.0945633500814437,0,0,0
11625,402690.5539351632,2010-11-21 03:37:09,1920.9837700610367,2,36,0.550297200679779,3.90680193901062,34.68488888845201,34.41968767762795,138.38157223763082,125.58356636448364,6.47544875391759e-05,0.0945633500814437,0,0,0
11626,402720.5692567386,2010-11-21 03:37:39,1950.999091646456,2,36,0.550297200679779,3.9080970287323,34.689476414639614,34.41968767762795,138.3994977561489,125.58356636448364,3.237724376958795e-05,0.0945633500814437,0,0,0
11627,402750.5846658876,2010-11-21 03:38:09,1981.014500765372,2,36,0.5501165986061096,3.90939211845398,34.69406396462587,34.41968767762795,138.4174296604482,125.58356636448364,0.0,0.0945633500814437,0,0,0
11628,402780.59999036026,2010-11-21 03:38:39,2011.0298252129355,2,36,0.550297200679779,3.910849094390869,34.69865157937666,34.41968767762795,138.43536812820005,125.58356636448364,6.47544875391759e-05,0.0945633500814437,0,0,0
11629,402810.61536267214,2010-11-21 03:39:09,2041.045197555051,2,36,0.550297200679779,3.912306070327759,34.70323915846403,34.41968767762795,138.45331283953115,125.58356636448364,6.47544875391759e-05,0.0945633500814437,0,0,0
11630,402840.6307394955,2010-11-21 03:39:39,2071.0605743733395,2,36,0.5501165986061096,3.913762807846069,34.70782675701745,34.41968767762795,138.47126404203848,125.58356636448364,3.23295607813634e-05,0.0945633500814437,0,0,0
11631,402870.64612698543,2010-11-21 03:40:09,2101.0759618682787,2,36,0.550297200679779,3.915219783782959,34.71241436487722,34.41968767762795,138.48922179675932,125.58356636448364,6.47544875391759e-05,0.0945633500814437,0,0,0
11632,402900.6615520041,2010-11-21 03:40:39,2131.0913868818707,2,36,0.550297200679779,3.916514873504639,34.717001958074434,34.41968767762795,138.5071858480826,125.58356636448364,3.237724376958795e-05,0.0945633500814437,0,0,0
11633,402930.67684921366,2010-11-21 03:41:09,2161.106684201719,2,36,0.5501165986061096,3.9178099632263184,34.72158952082357,34.41968767762795,138.52515640193187,125.58356636448364,0.0,0.0945633500814437,0,0,0
11634,402960.6922339116,2010-11-21 03:41:39,2191.122068819476,2,36,0.550297200679779,3.919428825378418,34.72617712501777,34.41968767762795,138.5431336979259,125.58356636448364,3.237724376958795e-05,0.0945633500814437,0,0,0
11635,402990.70951631153,2010-11-21 03:42:09,2221.1393512945774,2,36,0.5501165986061096,3.920885801315308,34.730765013853016,34.41968767762795,138.5611187821269,125.58356636448364,6.47544875391759e-05,0.0945633500814437,0,0,0
11636,403020.7229542401,2010-11-21 03:42:39,2251.152789092774,2,36,0.5501165986061096,3.922342777252197,34.73535231205185,34.41968767762795,138.57910818404616,125.58356636448364,6.47544875391759e-05,0.0945633500814437,0,0,0
11637,403050.73835535394,2010-11-21 03:43:09,2281.168190316984,2,36,0.550297200679779,3.923799753189087,34.739939931447964,34.41968767762795,138.59710561508723,125.58356636448364,6.47544875391759e-05,0.0945633500814437,0,0,0
11638,403080.753702824,2010-11-21 03:43:39,2311.183537721852,2,36,0.550297200679779,3.925094842910767,34.74452754219035,34.41968767762795,138.61510977246544,125.58356636448364,0.0,0.0945633500814437,0,0,0
11639,403110.7691550305,2010-11-21 03:44:09,2341.198989913283,2,36,0.550297200679779,3.926713705062866,34.74911520014101,34.41968767762795,138.6331208164766,125.58356636448364,3.237724376958795e-05,0.0945633500814437,0,0,0
11640,403140.78444849566,2010-11-21 03:44:39,2371.214283373498,2,36,0.550297200679779,3.928170680999756,34.75370276666637,34.41968767762795,138.65113833592454,125.58356636448364,3.237724376958795e-05,0.0945633500814437,0,0,0
11641,403170.7998147927,2010-11-21 03:45:09,2401.2296496905738,2,36,0.5501165986061096,3.929789543151856,34.758290396837246,34.41968767762795,138.6691629371518,125.58356636448364,3.237724376958795e-05,0.0945633500814437,0,0,0
11642,403200.8153062321,2010-11-21 03:45:39,2431.2451411249617,2,36,0.5501165986061096,3.931084632873535,34.76287802504049,34.41968767762795,138.6871944561253,125.58356636448364,0.0,0.0945633500814437,0,0,0
11643,403230.8305984642,2010-11-21 03:46:09,2461.260433342073,2,36,0.5499359965324402,3.9327034950256343,34.76746562985565,34.41968767762795,138.70523284201224,125.58356636448364,3.237724376958795e-05,0.0945633500814437,0,0,0
11644,403260.8459534832,2010-11-21 03:46:39,2491.27578834591,2,36,0.550297200679779,3.9343223571777344,34.77205326562695,34.41968767762795,138.72327841446125,125.58356636448364,6.47544875391759e-05,0.0945633500814437,0,0,0
11645,403290.86131825135,2010-11-21 03:47:09,2521.2911531492077,2,36,0.5501165986061096,3.935779333114624,34.776640963534696,34.41968767762795,138.74133135650163,125.58356636448364,3.237724376958795e-05,0.0945633500814437,0,0,0
11646,403320.87676280376,2010-11-21 03:47:39,2551.306597716608,2,36,0.5501165986061096,3.937398195266724,34.78122859970158,34.41968767762795,138.75939106725772,125.58356636448364,3.237724376958795e-05,0.0945633500814437,0,0,0
11647,403350.8920840032,2010-11-21 03:48:09,2581.321918911051,2,36,0.5501165986061096,3.9390170574188232,34.7858161928648,34.41968767762795,138.77745788410715,125.58356636448364,3.237724376958795e-05,0.0945633500814437,0,0,0
11648,403380.9074084708,2010-11-21 03:48:39,2611.3372433786644,2,36,0.550297200679779,3.940474033355713,34.79040385183349,34.41968767762795,138.7955321893309,125.58356636448364,3.237724376958795e-05,0.0945633500814437,0,0,0
11649,403410.9227807678,2010-11-21 03:49:09,2641.3526156656426,2,36,0.550297200679779,3.942092895507813,34.794991577118736,34.41968767762795,138.813614094571,125.58356636448364,3.237724376958795e-05,0.0945633500814437,0,0,0
11650,403440.9381731098,2010-11-21 03:49:39,2671.3680079876303,2,36,0.550297200679779,3.943873643875122,34.79957924714585,34.41968767762795,138.8317030600136,125.58356636448364,6.47544875391759e-05,0.0945633500814437,0,0,0
11651,403470.9536709502,2010-11-21 03:50:09,2701.383505843047,2,36,0.5501165986061096,3.945330619812012,34.80416690510397,34.41968767762795,138.84979935161186,125.58356636448364,3.237724376958795e-05,0.0945633500814437,0,0,0
11652,403500.96890105226,2010-11-21 03:50:39,2731.3987359501216,2,36,0.5501165986061096,3.9469494819641113,34.80875454802979,34.41968767762795,138.86790302506984,125.58356636448364,6.47544875391759e-05,0.0945633500814437,0,0,0
11653,403530.9844736793,2010-11-21 03:51:09,2761.414308577179,2,36,0.550297200679779,3.948730230331421,34.81334220636489,34.41968767762795,138.88601421691288,125.58356636448364,6.47544875391759e-05,0.0945633500814437,0,0,0
11654,403561.00135414593,2010-11-21 03:51:39,2791.431189144056,2,36,0.550297200679779,3.950349092483521,34.81793010750741,34.41968767762795,138.90413391997902,125.58356636448364,6.47544875391759e-05,0.0945633500814437,0,0,0
11655,403591.0169108533,2010-11-21 03:52:09,2821.4467458363374,2,36,0.550297200679779,3.95212984085083,34.82251783541238,34.41968767762795,138.9222605297824,125.58356636448364,6.47544875391759e-05,0.0945633500814437,0,0,0
11656,403621.0304126312,2010-11-21 03:52:39,2851.460247599199,2,36,0.5501165986061096,3.95358681678772,34.82710521513694,34.41968767762795,138.94039335699384,125.58356636448364,6.47544875391759e-05,0.0945633500814437,0,0,0
11657,403651.045766437,2010-11-21 03:53:09,2881.475601420083,2,36,0.550297200679779,3.955367565155029,34.83169294623359,34.41968767762795,138.95853534797575,125.58356636448364,6.47544875391759e-05,0.0945633500814437,0,0,0
11658,403681.06113586685,2010-11-21 03:53:39,2911.490970849929,2,36,0.550297200679779,3.956986427307129,34.83628061866684,34.41968767762795,138.9766849064593,125.58356636448364,0.0,0.0945633500814437,0,0,0
11659,403711.0765373768,2010-11-21 03:54:09,2941.506372374889,2,36,0.5501165986061096,3.9587671756744394,34.84086824380165,34.41968767762795,138.99484199425902,125.58356636448364,6.47544875391759e-05,0.0945633500814437,0,0,0
11660,403741.09240157664,2010-11-21 03:54:39,2971.52223655972,2,36,0.550297200679779,3.960547924041748,34.84545597753754,34.41968767762795,139.01300753112398,125.58356636448364,6.47544875391759e-05,0.0945633500814437,0,0,0
11661,403771.107253214,2010-11-21 03:55:09,3001.5370881970766,2,36,0.550297200679779,3.962166786193848,34.85004354656881,34.41968767762795,139.03118047303954,125.58356636448364,0.0,0.0945633500814437,0,0,0
11662,403801.122611471,2010-11-21 03:55:39,3031.5524463487704,2,36,0.550297200679779,3.963947534561157,34.854631307164944,34.41968767762795,139.0493622282738,125.58356636448364,3.237724376958795e-05,0.0945633500814437,0,0,0
11663,403831.1379812316,2010-11-21 03:56:09,3061.5678161294927,2,36,0.5504778623580933,3.9658901691436768,34.85921901833484,34.41968767762795,139.0675519966085,125.58356636448364,6.47544875391759e-05,0.0945633500814437,0,0,0
11664,403861.1533339147,2010-11-21 03:56:39,3091.583168812536,2,36,0.5501165986061096,3.967509031295776,34.86380665459278,34.41968767762795,139.08574965052443,125.58356636448364,6.47544875391759e-05,0.0945633500814437,0,0,0
11665,403891.1686972543,2010-11-21 03:57:09,3121.5985321622047,2,36,0.5501165986061096,3.969451665878296,34.868394349823994,34.41968767762795,139.1039557908476,125.58356636448364,6.47544875391759e-05,0.0945633500814437,0,0,0
11666,403921.1840848145,2010-11-21 03:57:39,3151.6139197523817,2,36,0.550297200679779,3.9712324142456055,34.872981993405006,34.41968767762795,139.12217017228133,125.58356636448364,3.237724376958795e-05,0.0945633500814437,0,0,0
11667,403951.202374228,2010-11-21 03:58:09,3181.6322092261066,2,36,0.5501165986061096,3.973013162612915,34.87757010654889,34.41968767762795,139.14039501034426,125.58356636448364,0.0,0.0945633500814437,0,0,0
11668,403981.21493242047,2010-11-21 03:58:39,3211.644767313409,2,36,0.5504778623580933,3.975117683410645,34.88215735002434,34.41968767762795,139.15862499538648,125.58356636448364,9.713172767078504e-05,0.0945633500814437,0,0,0
11669,404011.2302987827,2010-11-21 03:59:09,3241.660133675598,2,36,0.550297200679779,3.976898431777954,34.886745035430586,34.41968767762795,139.17686541454017,125.58356636448364,6.47544875391759e-05,0.0945633500814437,0,0,0
11670,404041.2455717869,2010-11-21 03:59:39,3271.675406694788,2,36,0.550297200679779,3.9788410663604736,34.89133268975315,34.41968767762795,139.19511417748714,125.58356636448364,3.237724376958795e-05,0.0945633500814437,0,0,0
11671,404071.26093823934,2010-11-21 04:00:09,3301.690773222389,2,36,0.5504778623580933,3.980783700942993,34.89592023911013,34.41968767762795,139.21337185135266,125.58356636448364,6.47544875391759e-05,0.0945633500814437,0,0,0
11672,404101.2763291377,2010-11-21 04:00:39,3331.7061640205748,2,36,0.550297200679779,3.982888221740722,34.90050783776897,34.41968767762795,139.23163879992205,125.58356636448364,6.47544875391759e-05,0.0945633500814437,0,0,0
11673,404131.2916810739,2010-11-21 04:01:09,3361.721516041966,2,36,0.550297200679779,3.984992742538452,34.905095397305324,34.41968767762795,139.24991470339396,125.58356636448364,9.713172767078504e-05,0.0945633500814437,0,0,0
11674,404161.30720886914,2010-11-21 04:01:39,3391.737043847141,2,36,0.5501165986061096,3.9867734909057617,34.90968299522061,34.41968767762795,139.2681999952434,125.58356636448364,6.47544875391759e-05,0.0945633500814437,0,0,0
11675,404191.324306989,2010-11-21 04:02:09,3421.7541419720765,2,36,0.5501165986061096,3.988878011703491,34.914270833334875,34.41968767762795,139.2864955489036,125.58356636448364,6.47544875391759e-05,0.0945633500814437,0,0,0
11676,404221.33779766416,2010-11-21 04:02:39,3451.767632602149,2,36,0.550297200679779,3.9908206462860103,34.918858117292395,34.41968767762795,139.30479832284357,125.58356636448364,3.237724376958795e-05,0.0945633500814437,0,0,0
11677,404251.3534694688,2010-11-21 04:03:09,3481.783304361657,2,36,0.550297200679779,3.99308705329895,34.92344575731452,34.41968767762795,139.32311205172795,125.58356636448364,9.713172767078504e-05,0.0945633500814437,0,0,0
11678,404281.3685399474,2010-11-21 04:03:39,3511.798374940525,2,36,0.550297200679779,3.9951913356781006,34.92803327868183,34.41968767762795,139.341434855543,125.58356636448364,6.47544875391759e-05,0.0945633500814437,0,0,0
11679,404311.3839297732,2010-11-21 04:04:09,3541.813764766282,2,36,0.5501165986061096,3.99729585647583,34.932620843830264,34.41968767762795,139.35976762153638,125.58356636448364,6.47544875391759e-05,0.0945633500814437,0,0,0
11680,404341.3992711229,2010-11-21 04:04:39,3571.829106000748,2,36,0.5501165986061096,3.9992384910583496,34.937208475816604,34.41968767762795,139.378110427729,125.58356636448364,-3.237724376958795e-05,0.0945633500814437,0,0,0
11681,404371.4146669337,2010-11-21 04:05:09,3601.844501786382,2,36,0.5501165986061096,4.001504898071289,34.941796049548785,34.41968767762795,139.39646294288514,125.58356636448364,3.23295607813634e-05,0.0945633500814437,0,0,0
11682,404401.4300220126,2010-11-21 04:05:39,3631.8598569756814,2,36,0.550297200679779,4.003609657287598,34.946383583668776,34.41968767762795,139.41482534704787,125.58356636448364,3.24249267578125e-05,0.0945633500814437,0,0,0
11683,404431.4454006906,2010-11-21 04:06:09,3661.8752356586247,2,36,0.5501165986061096,4.006037712097168,34.95097116155057,34.41968767762795,139.43319801443255,125.58356636448364,6.47544875391759e-05,0.0945633500814437,0,0,0
11684,404461.46073778975,2010-11-21 04:06:39,3691.8905727778174,2,36,0.550297200679779,4.008304119110107,34.955558761693545,34.41968767762795,139.45158102358846,125.58356636448364,6.47544875391759e-05,0.0945633500814437,0,0,0
11685,404491.4763328929,2010-11-21 04:07:09,3721.906167885992,2,36,0.5501165986061096,4.010570526123047,34.96014634933278,34.41968767762795,139.4699742931045,125.58356636448364,6.47544875391759e-05,0.0945633500814437,0,0,0
11686,404521.4916095712,2010-11-21 04:07:39,3751.9214444640666,2,36,0.550297200679779,4.012836933135986,34.96473390006701,34.41968767762795,139.4883779057725,125.58356636448364,6.47544875391759e-05,0.0945633500814437,0,0,0
11687,404551.5068696882,2010-11-21 04:08:09,3781.9367046512257,2,36,0.5501165986061096,4.014941692352295,34.96932153631259,34.41968767762795,139.5067924405801,125.58356636448364,3.24249267578125e-05,0.0945633500814437,0,0,0
11688,404581.5222454138,2010-11-21 04:08:40,3811.952080411874,2,36,0.5501165986061096,4.017369747161865,34.97390913724797,34.41968767762795,139.52521752251252,125.58356636448364,3.23295607813634e-05,0.0945633500814437,0,0,0
11689,404611.5375876658,2010-11-21 04:09:10,3841.96742256363,2,36,0.550297200679779,4.019798278808594,34.97849679992201,34.41968767762795,139.54365347656042,125.58356636448364,9.71794142969884e-05,0.0945633500814437,0,0,0
11690,404641.5529751758,2010-11-21 04:09:40,3871.9828101738576,2,36,0.550297200679779,4.022226333618164,34.983084291594274,34.41968767762795,139.56209957048085,125.58356636448364,9.70840483205393e-05,0.0945633500814437,0,0,0
11691,404671.5685321036,2010-11-21 04:10:10,3901.9983670866895,2,36,0.550297200679779,4.024492740631104,34.987671933280346,34.41968767762795,139.5805572195684,125.58356636448364,3.23295607813634e-05,0.0945633500814437,0,0,0
11692,404701.5838100902,2010-11-21 04:10:40,3932.013644983053,2,36,0.550297200679779,4.026921272277832,34.99225949051796,34.41968767762795,139.59902552633284,125.58356636448364,6.47544875391759e-05,0.0945633500814437,0,0,0
11693,404731.5990688288,2010-11-21 04:11:10,3962.0289037266098,2,36,0.5501165986061096,4.029349327087402,34.99684703750079,34.41968767762795,139.61750494635237,125.58356636448364,3.23295607813634e-05,0.0945633500814437,0,0,0
11694,404761.6144469052,2010-11-21 04:11:40,3992.0442818732154,2,36,0.550297200679779,4.031939506530762,35.0014345703049,34.41968767762795,139.6359954181642,125.58356636448364,9.70840483205393e-05,0.0945633500814437,0,0,0
11695,404791.63177732495,2010-11-21 04:12:10,4022.061612323068,2,36,0.550297200679779,4.034205913543701,35.00602238451759,34.41968767762795,139.65449841329195,125.58356636448364,6.47544875391759e-05,0.0945633500814437,0,0,0
11696,404821.6451884015,2010-11-21 04:12:40,4052.075023284275,2,36,0.5501165986061096,4.0367960929870605,35.01060966736014,34.41968767762795,139.67301065538217,125.58356636448364,3.24249267578125e-05,0.0945633500814437,0,0,0
11697,404851.66054564586,2010-11-21 04:13:10,4082.090380523692,2,36,0.550297200679779,4.03938627243042,35.01519717800586,34.41968767762795,139.69153531776033,125.58356636448364,3.24249267578125e-05,0.0945633500814437,0,0,0
11698,404881.6760584637,2010-11-21 04:13:40,4112.105893441706,2,36,0.550297200679779,4.041976451873779,35.01978480971427,34.41968767762795,139.71007201625173,125.58356636448364,0.0001295089750783,0.0945633500814437,0,0,0
11699,404911.6913237686,2010-11-21 04:14:10,4142.121158731603,2,36,0.550297200679779,4.044566631317139,35.024372300062275,34.41968767762795,139.72861992040248,125.58356636448364,0.0001295089750783,0.0945633500814437,0,0,0
11700,404941.7068663306,2010-11-21 04:14:40,4172.136701223439,2,36,0.550297200679779,4.046994686126709,35.02895986784571,34.41968767762795,139.74718005424486,125.58356636448364,6.47544875391759e-05,0.0945633500814437,0,0,0
11701,404971.7220241071,2010-11-21 04:15:10,4202.151859004978,2,36,0.550297200679779,4.049584865570068,35.033547416625346,34.41968767762795,139.76575208688152,125.58356636448364,3.23295607813634e-05,0.0945633500814437,0,0,0
11702,405001.73748833867,2010-11-21 04:15:40,4232.167323216413,2,36,0.5501165986061096,4.052337169647217,35.03813503156687,34.41968767762795,139.78433640081326,125.58356636448364,9.71794142969884e-05,0.0945633500814437,0,0,0
11703,405031.7527996734,2010-11-21 04:16:10,4262.182634666533,2,36,0.550297200679779,4.054927349090576,35.04272258468675,34.41968767762795,139.80293263429485,125.58356636448364,6.47544875391759e-05,0.0945633500814437,0,0,0
11704,405061.7681323015,2010-11-21 04:16:40,4292.197967184241,2,36,0.550297200679779,4.057517528533936,35.04731015774501,34.41968767762795,139.82154126889665,125.58356636448364,6.47544875391759e-05,0.0945633500814437,0,0,0
11705,405091.7835008792,2010-11-21 04:17:10,4322.213335877247,2,36,0.5501165986061096,4.060431480407715,35.05189779729958,34.41968767762795,139.84016255606144,125.58356636448364,6.47544875391759e-05,0.0945633500814437,0,0,0
11706,405121.79889165726,2010-11-21 04:17:40,4352.228726540095,2,36,0.550297200679779,4.063021659851074,35.05648533220274,34.41968767762795,139.85879547961235,125.58356636448364,6.47544875391759e-05,0.0945633500814437,0,0,0
11707,405151.8142986157,2010-11-21 04:18:10,4382.244133493605,2,36,0.5501165986061096,4.0657734870910645,35.061072911788735,34.41968767762795,139.8774412978319,125.58356636448364,6.47544875391759e-05,0.0945633500814437,0,0,0
11708,405181.8296386723,2010-11-21 04:18:40,4412.259473665419,2,36,0.550297200679779,4.068525791168213,35.065660464629104,34.41968767762795,139.89609968776182,125.58356636448364,6.47544875391759e-05,0.0945633500814437,0,0,0
11709,405211.8450743174,2010-11-21 04:19:10,4442.274909220323,2,36,0.550297200679779,4.071277618408203,35.070248115851115,34.41968767762795,139.91477133903828,125.58356636448364,6.47544875391759e-05,0.0945633500814437,0,0,0
11710,405241.8603607,2010-11-21 04:19:40,4472.290195693096,2,36,0.550297200679779,4.074191570281982,35.07483566449181,34.41968767762795,139.93345538110586,125.58356636448364,6.47544875391759e-05,0.0945633500814437,0,0,0
11711,405271.8757426562,2010-11-21 04:20:10,4502.305577639184,2,36,0.5504778623580933,4.077267646789551,35.07942323778075,34.41968767762795,139.95215250756976,125.58356636448364,0.0001295089750783,0.0945633500814437,0,0,0
11712,405301.8910631789,2010-11-21 04:20:40,4532.320898031625,2,36,0.5499359965324402,4.07985782623291,35.084010777733546,34.41968767762795,139.97086261777358,125.58356636448364,6.47544875391759e-05,0.0945633500814437,0,0,0
11713,405331.9064441776,2010-11-21 04:21:10,4562.336279175712,2,36,0.550297200679779,4.08293342590332,35.08859766206265,34.41968767762795,139.98958332254173,125.58356636448364,9.70840483205393e-05,0.0945633500814437,0,0,0
11714,405361.9218031162,2010-11-21 04:21:40,4592.351638109358,2,36,0.550297200679779,4.0858473777771,35.09318457287544,34.41968767762795,140.00831761604456,125.58356636448364,9.70840483205393e-05,0.0945633500814437,0,0,0
11715,405391.9390936916,2010-11-21 04:22:10,4622.368928654603,2,36,0.5501165986061096,4.088599681854248,35.09777174981302,34.41968767762795,140.0270664292466,125.58356636448364,9.71794142969884e-05,0.0945633500814437,0,0,0
11716,405421.9526339004,2010-11-21 04:22:40,4652.38246889852,2,36,0.5501165986061096,4.091675281524658,35.10235830066263,34.41968767762795,140.0458263536246,125.58356636448364,6.47544875391759e-05,0.0945633500814437,0,0,0
11717,405451.96806983626,2010-11-21 04:23:10,4682.397904804299,2,36,0.5501165986061096,4.0945892333984375,35.10694514784219,34.41968767762795,140.06460104075512,125.58356636448364,6.47544875391759e-05,0.0945633500814437,0,0,0
11718,405481.9834873812,2010-11-21 04:23:40,4712.413322349248,2,36,0.5501165986061096,4.097665309906006,35.111531998852485,34.41968767762795,140.08338962921488,125.58356636448364,6.47544875391759e-05,0.0945633500814437,0,0,0
11719,405511.9987042653,2010-11-21 04:24:10,4742.42853917818,2,36,0.5501165986061096,4.100740909576416,35.116119569034026,34.41968767762795,140.1021953580937,125.58356636448364,6.47544875391759e-05,0.0945633500814437,0,0,0
11720,405542.0140400512,2010-11-21 04:24:40,4772.44387503422,2,36,0.550297200679779,4.103978633880615,35.12070726955592,34.41968767762795,140.12101569567258,125.58356636448364,9.70840483205393e-05,0.0945633500814437,0,0,0
11721,405572.0294029697,2010-11-21 04:25:10,4802.459237832512,2,36,0.5501165986061096,4.1068925857543945,35.125294883617315,34.41968767762795,140.13984989421544,125.58356636448364,6.47544875391759e-05,0.0945633500814437,0,0,0
11722,405602.044771773,2010-11-21 04:25:40,4832.47460666587,2,36,0.5501165986061096,4.110130310058594,35.129882546872786,34.41968767762795,140.15869860617022,125.58356636448364,6.47544875391759e-05,0.0945633500814437,0,0,0
11723,405632.0602542701,2010-11-21 04:26:10,4862.490089253174,2,36,0.5501165986061096,4.113206386566162,35.1344702578942,34.41968767762795,140.17756194265203,125.58356636448364,6.47544875391759e-05,0.0945633500814437,0,0,0
11724,405662.0757928121,2010-11-21 04:26:40,4892.505627704925,2,36,0.550297200679779,4.116443634033203,35.139057883412114,34.41968767762795,140.19643933773563,125.58356636448364,6.47544875391759e-05,0.0945633500814437,0,0,0
11725,405692.0909181326,2010-11-21 04:27:10,4922.520753030449,2,36,0.550297200679779,4.119681358337402,35.14364549644711,34.41968767762795,140.21533139648037,125.58356636448364,9.70840483205393e-05,0.0945633500814437,0,0,0
11726,405722.10626919154,2010-11-21 04:27:40,4952.536104104476,2,36,0.550297200679779,4.122919082641602,35.1482331771964,34.41968767762795,140.23423849899245,125.58356636448364,6.47544875391759e-05,0.0945633500814437,0,0,0
11727,405752.1216627717,2010-11-21 04:28:10,4982.551497754781,2,36,0.5504778623580933,4.126156806945801,35.15282080912413,34.41968767762795,140.25316013594968,125.58356636448364,9.70840483205393e-05,0.0945633500814437,0,0,0
11728,405782.13702518906,2010-11-21 04:28:40,5012.566860066859,2,36,0.5501165986061096,4.12939453125,35.15740845497504,34.41968767762795,140.27209682953864,125.58356636448364,9.70840483205393e-05,0.0945633500814437,0,0,0
11729,405812.1523864736,2010-11-21 04:29:10,5042.582221371424,2,36,0.550297200679779,4.132794380187988,35.16199609564498,34.41968767762795,140.29104866929225,125.58356636448364,9.71794142969884e-05,0.0945633500814437,0,0,0
11730,405842.16793335136,2010-11-21 04:29:40,5072.597768249207,2,36,0.5501165986061096,4.135869979858398,35.166583719531005,34.41968767762795,140.31001556907282,125.58356636448364,6.47544875391759e-05,0.0945633500814437,0,0,0
11731,405872.184960439,2010-11-21 04:30:10,5102.614795437072,2,36,0.550297200679779,4.139269828796387,35.17117169538978,34.41968767762795,140.3289992538087,125.58356636448364,6.47544875391759e-05,0.0945633500814437,0,0,0
11732,405902.19869181496,2010-11-21 04:30:40,5132.628526793033,2,36,0.550297200679779,4.142831325531006,35.17575919077822,34.41968767762795,140.34799641874875,125.58356636448364,0.0001295089750783,0.0945633500814437,0,0,0
11733,405932.2138664336,2010-11-21 04:31:10,5162.643701421626,2,36,0.550297200679779,4.146230697631836,35.18034683263866,34.41968767762795,140.3670098696508,125.58356636448364,6.47544875391759e-05,0.0945633500814437,0,0,0
11734,405962.2293425648,2010-11-21 04:31:40,5192.65917754279,2,36,0.5501165986061096,4.149792194366455,35.184934418550405,34.41968767762795,140.3860389666484,125.58356636448364,0.0001295089750783,0.0945633500814437,0,0,0
11735,405992.24647369207,2010-11-21 04:32:10,5222.676308675116,2,36,0.550297200679779,4.153192043304443,35.189522294440216,34.41968767762795,140.40508504715638,125.58356636448364,9.71794142969884e-05,0.0945633500814437,0,0,0
11736,406022.2599532144,2010-11-21 04:32:40,5252.689788182424,2,36,0.5501165986061096,4.156591415405273,35.19410958367741,34.41968767762795,140.42414451959343,125.58356636448364,9.70840483205393e-05,0.0945633500814437,0,0,0
11737,406052.2754027191,2010-11-21 04:33:10,5282.705237616975,2,36,0.5504778623580933,4.160152912139893,35.1986972476958,34.41968767762795,140.4432214648476,125.58356636448364,0.0001295089750783,0.0945633500814437,0,0,0
11738,406082.2907109161,2010-11-21 04:33:40,5312.720545914224,2,36,0.5501165986061096,4.163552761077881,35.20328492966749,34.41968767762795,140.4623146152908,125.58356636448364,9.71794142969884e-05,0.0945633500814437,0,0,0
11739,406112.306219774,2010-11-21 04:34:10,5342.736054752055,2,36,0.550297200679779,4.167275905609131,35.20787268652353,34.41968767762795,140.48142427324902,125.58356636448364,9.70840483205393e-05,0.0945633500814437,0,0,0
11740,406142.32155799086,2010-11-21 04:34:40,5372.751392883775,2,36,0.550297200679779,4.170675754547119,35.21246034875418,34.41968767762795,140.5005498319608,125.58356636448364,9.71794142969884e-05,0.0945633500814437,0,0,0
11741,406172.33713697386,2010-11-21 04:35:10,5402.76697195191,2,36,0.5501165986061096,4.174237251281738,35.21704809270091,34.41968767762795,140.51969206459785,125.58356636448364,9.71794142969884e-05,0.0945633500814437,0,0,0
11742,406202.35223567794,2010-11-21 04:35:40,5432.782070676033,2,36,0.550297200679779,4.177960395812988,35.22163575203319,34.41968767762795,140.53885034354116,125.58356636448364,0.0001295089750783,0.0945633500814437,0,0,0
11743,406232.3676008722,2010-11-21 04:36:10,5462.79743577507,2,36,0.550297200679779,4.181521892547607,35.22622339161399,34.41968767762795,140.55802515806755,125.58356636448364,9.70840483205393e-05,0.0945633500814437,0,0,0
11744,406262.3830418607,2010-11-21 04:36:40,5492.812876858775,2,36,0.550297200679779,4.185083389282227,35.23081105870741,34.41968767762795,140.57721680118604,125.58356636448364,9.70840483205393e-05,0.0945633500814437,0,0,0
11745,406292.3983549298,2010-11-21 04:37:10,5522.828189802623,2,36,0.550297200679779,4.188807010650635,35.23539865411352,34.41968767762795,140.596424813715,125.58356636448364,9.71794142969884e-05,0.0945633500814437,0,0,0
11746,406322.41372077074,2010-11-21 04:37:40,5552.843555753785,2,36,0.5504778623580933,4.192530155181885,35.2399862685142,34.41968767762795,140.61564995478176,125.58356636448364,9.70840483205393e-05,0.0945633500814437,0,0,0
11747,406352.429114411,2010-11-21 04:38:10,5582.858949313864,2,36,0.5501165986061096,4.196091651916504,35.24457392117273,34.41968767762795,140.63489224155506,125.58356636448364,0.0001295089750783,0.0945633500814437,0,0,0
11748,406381.74122185074,2010-11-21 04:38:40,5612.171056728526,2,36,0.550297200679779,4.200138568878174,35.24905405195634,34.41968767762795,140.6537000656628,125.58356636448364,0.0001295089750783,0.0945633500814437,0,0,0
11749,406411.7708170784,2010-11-21 04:39:10,30.01533406156136,3,36,0.0,4.117577075958252,35.24905405195634,34.41968767762795,140.6537000656628,125.58356636448364,-0.0003885269106831,0.0945633500814437,0,0,0
11750,406441.7861905082,2010-11-21 04:39:40,60.030707501417,3,36,0.0,4.107378482818604,35.24905405195634,34.41968767762795,140.6537000656628,125.58356636448364,-0.0002590179501567,0.0945633500814437,0,0,0
11751,406471.8015610308,2010-11-21 04:40:10,90.04607802900317,3,36,0.0,4.101874351501465,35.24905405195634,34.41968767762795,140.6537000656628,125.58356636448364,-6.47544875391759e-05,0.0945633500814437,0,0,0
11752,406501.7700759496,2010-11-21 04:40:40,120.01459294276869,3,36,0.0,4.097989082336426,35.24905405195634,34.41968767762795,140.6537000656628,125.58356636448364,-9.70840483205393e-05,0.0945633500814437,0,0,0
11753,406501.785357383,2010-11-21 04:40:40,0.015638531179753,4,36,0.9846625328063964,4.199653148651123,35.24905832936616,34.41968767762795,140.65371802930036,125.58356636448364,0.0,0.0945633500814437,0,0,0
11754,406502.6917152968,2010-11-21 04:40:41,0.921996439959746,4,36,0.9339113235473632,4.199653148651123,35.24929815384065,34.41968767762795,140.65472521158154,125.58356636448364,0.0,0.0945633500814437,0,0,0
11755,406504.8011741306,2010-11-21 04:40:43,3.031455258703456,4,36,0.8833407163619995,4.199653148651123,35.24982948024366,34.41968767762795,140.6569566147138,125.58356636448364,0.0,0.0945633500814437,0,0,0
11756,406508.0353380613,2010-11-21 04:40:46,6.265619189438252,4,36,0.8333119750022888,4.199653148651123,35.25059943828347,34.41968767762795,140.66019020365022,125.58356636448364,0.0,0.0945633500814437,0,0,0
11757,406512.4883769114,2010-11-21 04:40:51,10.718658039490885,4,36,0.7829219698905945,4.199653148651123,35.25159776894419,34.41968767762795,140.6643828993012,125.58356636448364,3.24249267578125e-05,0.0945633500814437,0,0,0
11758,406518.34772504575,2010-11-21 04:40:57,16.57800618891001,4,36,0.7328932285308838,4.199653148651123,35.25282987134103,34.41968767762795,140.66955737461754,125.58356636448364,0.0,0.0945633500814437,0,0,0
11759,406526.0195195351,2010-11-21 04:41:04,24.24980066319389,4,36,0.6828644275665283,4.199653148651123,35.25433602838512,34.41968767762795,140.67588279240732,125.58356636448364,0.0,0.0945633500814437,0,0,0
11760,406536.2850746249,2010-11-21 04:41:15,34.5153557730643,4,36,0.6326550245285034,4.199653148651123,35.25620806619225,34.41968767762795,140.68374484315652,125.58356636448364,0.0,0.0945633500814437,0,0,0
11761,406550.7538547712,2010-11-21 04:41:29,48.98413589922538,4,36,0.5826262831687927,4.199491024017334,35.25864490516126,34.41968767762795,140.69397890779828,125.58356636448364,-6.47544875391759e-05,0.0945633500814437,0,0,0
11762,406573.25350857846,2010-11-21 04:41:52,71.48378971162633,4,36,0.532597541809082,4.199653148651123,35.262119126693946,34.41968767762795,140.70856970898916,125.58356636448364,-3.23295607813634e-05,0.0945633500814437,0,0,0
11763,406611.9408800246,2010-11-21 04:42:30,110.1711612729467,4,36,0.4825687408447265,4.199814796447754,35.267549862941344,34.41968767762795,140.73137735606673,125.58356636448364,0.0,0.0945633500814437,0,0,0
11764,406680.67444980406,2010-11-21 04:43:39,178.9047309472491,4,36,0.432359367609024,4.199653148651123,35.27624911946907,34.41968767762795,140.7679118708786,125.58356636448364,0.0,0.0945633500814437,0,0,0
11765,406780.33002415433,2010-11-21 04:45:19,278.5603052824165,4,36,0.3823305964469909,4.199653148651123,35.28750049583128,34.41968767762795,140.81516457133125,125.58356636448364,-3.23295607813634e-05,0.0945633500814437,0,0,0
11766,406902.469462899,2010-11-21 04:47:21,400.6997440272064,4,36,0.3323018252849579,4.199653148651123,35.299607733929925,34.41968767762795,140.86601175233528,125.58356636448364,-3.23295607813634e-05,0.0945633500814437,0,0,0
11767,407047.2655381642,2010-11-21 04:49:46,545.4958194327379,4,36,0.2822730541229248,4.199814796447754,35.31194750461292,34.41968767762795,140.91783547847095,125.58356636448364,0.0,0.0945633500814437,0,0,0
11768,407221.7323588097,2010-11-21 04:52:40,719.9626399377678,4,36,0.2322442829608917,4.199653148651123,35.324386259945314,34.41968767762795,140.9700749967418,125.58356636448364,-3.23295607813634e-05,0.0945633500814437,0,0,0
11769,407439.980503716,2010-11-21 04:56:18,938.2107848641416,4,36,0.1822155117988586,4.199491024017334,35.336900033155466,34.41968767762795,141.02262961010746,125.58356636448364,-3.24249267578125e-05,0.0945633500814437,0,0,0
11770,407734.2436336696,2010-11-21 05:01:13,1232.4739148127442,4,36,0.1321867406368255,4.199653148651123,35.349659527725755,34.41968767762795,141.0762161222648,125.58356636448364,0.0,0.0945633500814437,0,0,0
11771,408202.1459376202,2010-11-21 05:09:00,1700.3762187483371,4,36,0.082157976925373,4.199653148651123,35.363339951160505,34.41968767762795,141.13367027895896,125.58356636448364,0.0,0.0945633500814437,0,0,0
11772,408740.9071755614,2010-11-21 05:17:59,2239.1374568048705,4,36,0.0498289167881011,4.199653148651123,35.37302148052012,34.41968767762795,141.17433013686363,125.58356636448364,0.0,0.0945633500814437,0,0,0
11773,408770.90785195737,2010-11-21 05:18:29,30.01347002363592,5,36,0.0,4.192206382751465,35.37302148052012,34.41968767762795,141.17433013686363,125.58356636448364,-3.24249267578125e-05,0.0945633500814437,0,0,0
11774,408800.907598871,2010-11-21 05:18:59,60.013216937278045,5,36,0.0,4.191073417663574,35.37302148052012,34.41968767762795,141.17433013686363,125.58356636448364,0.0,0.0945633500814437,0,0,0
11775,408801.0829112292,2010-11-21 05:19:00,0.187378736152936,6,36,-1.9243103452026844e-05,4.191073417663574,35.37302148052012,34.41968767862954,141.17433013686363,125.5835663686814,0.0,0.0946486890316009,0,0,0
11776,408805.91110860766,2010-11-21 05:19:04,5.015576114609159,6,36,0.0008838032954372,4.191073417663574,35.37302254166354,34.419687678714105,141.17433458423244,125.58356636903582,-3.23295607813634e-05,0.0946486890316009,0,0,0
11777,408835.9142175327,2010-11-21 05:19:35,30.01525493905942,7,36,-1.0997490882873535,4.021255016326904,35.37302254172322,34.428856509437374,141.17433458448258,125.6206251896196,-0.0008742332574911,0.0946486890316009,0,0,0
11778,408865.9295710228,2010-11-21 05:20:05,60.03060843914232,7,36,-1.0997490882873535,3.99616265296936,35.37302254172322,34.438025458531605,141.17433458448258,125.65737198012864,-0.0005180359003134,0.0946486890316009,0,0,0
11779,408895.9449402772,2010-11-21 05:20:35,90.04597769355046,7,36,-1.0997490882873535,3.9788410663604736,35.37302254172322,34.44719449273125,141.17433458448258,125.69392930645768,-0.0003885269106831,0.0946486890316009,0,0,0
11780,408925.9622485768,2010-11-21 05:21:05,120.06328597807604,7,36,-1.0997490882873535,3.965404510498047,35.37302254172322,34.456364002252414,141.17433458448258,125.73034905864064,-0.0003237724304199,0.0946486890316009,0,0,0
11781,408955.9756960491,2010-11-21 05:21:35,150.07673345042048,7,36,-1.0997490882873535,3.9537487030029297,35.37302254172322,34.46553235251302,141.17433458448258,125.76665034968494,-0.0003237724304199,0.0946486890316009,0,0,0
11782,408985.9912027766,2010-11-21 05:22:05,180.09224017798272,7,36,-1.099929690361023,3.943387985229492,35.37302254172322,34.47470133679349,141.17433458448258,125.80285382868809,-0.0002266406954731,0.0946486890316009,0,0,0
11783,409016.00649930455,2010-11-21 05:22:35,210.10753670585424,7,36,-1.0997490882873535,3.933512926101685,35.37302254172322,34.48387020111824,141.17433458448258,125.83896428711446,-0.0002590179501567,0.0946486890316009,0,0,0
11784,409046.02216501895,2010-11-21 05:23:05,240.12320243530968,7,36,-1.0997490882873535,3.924123525619507,35.37302254172322,34.493039178263395,141.17433458448258,125.8749869235534,-0.0002266406954731,0.0946486890316009,0,0,0
11785,409076.03716642014,2010-11-21 05:23:35,270.13820382146207,7,36,-1.099568486213684,3.915057897567749,35.37302254172322,34.50220797704303,141.17433458448258,125.91092409272214,-0.0002590179501567,0.0946486890316009,0,0,0
11786,409106.0525228626,2010-11-21 05:24:05,300.1535602638895,7,36,-1.099568486213684,3.90615439414978,35.37302254172322,34.51137691994461,141.17433458448258,125.94677970060565,-0.0002266406954731,0.0946486890316009,0,0,0
11787,409136.0679007686,2010-11-21 05:24:35,330.1689381698933,7,36,-1.0997490882873535,3.897574424743652,35.37302254172322,34.520545839184315,141.17433458448258,125.98255567006524,-0.0001942634553415,0.0946486890316009,0,0,0
11788,409166.0832942134,2010-11-21 05:25:05,360.1843316146844,7,36,-1.099568486213684,3.889318227767944,35.37302254172322,34.52971475186675,141.17433458448258,126.01825363669596,-0.0001942634553415,0.0946486890316009,0,0,0
11789,409196.09865479113,2010-11-21 05:25:35,390.1996921974467,7,36,-1.0997490882873535,3.8809001445770255,35.37302254172322,34.538883666127504,141.17433458448258,126.05387528632193,-0.0002266406954731,0.0946486890316009,0,0,0
11790,409226.11408989993,2010-11-21 05:26:05,420.215127301225,7,36,-1.099929690361023,3.8726439476013184,35.37302254172322,34.54805261597499,141.17433458448258,126.0894218399796,-0.0002266406954731,0.0946486890316009,0,0,0
11791,409256.12938792654,2010-11-21 05:26:35,450.2304253428751,7,36,-1.0997490882873535,3.86454963684082,35.37302254172322,34.55722154539079,141.17433458448258,126.1248931775028,-0.0002266406954731,0.0946486890316009,0,0,0
11792,409286.14490954624,2010-11-21 05:27:05,480.2459469525854,7,36,-1.0997490882873535,3.856617212295532,35.37302254172322,34.566390474750115,141.17433458448258,126.16029077263497,-0.0002266406954731,0.0946486890316009,0,0,0
11793,409316.16026277567,2010-11-21 05:27:35,510.2613001769802,7,36,-1.099568486213684,3.849008560180664,35.37302254172322,34.575559336876765,141.17433458448258,126.19561585098592,-0.0001295089750783,0.0946486890316009,0,0,0
11794,409346.17548667226,2010-11-21 05:28:05,540.2765240735528,7,36,-1.0997490882873535,3.841076135635376,35.37302254172322,34.584728283846,141.17433458448258,126.23087007254536,-0.0002266406954731,0.0946486890316009,0,0,0
11795,409376.1908680069,2010-11-21 05:28:35,570.2919054231523,7,36,-1.0997490882873535,3.833467483520508,35.37302254172322,34.59389723558399,141.17433458448258,126.2660536420244,-0.0001942634553415,0.0946486890316009,0,0,0
11796,409406.2062412512,2010-11-21 05:29:05,600.3072786524825,7,36,-1.0997490882873535,3.8260209560394287,35.37302254172322,34.603066170511006,141.17433458448258,126.30116851710672,-0.0002266406954731,0.0946486890316009,0,0,0
11797,409436.221658716,2010-11-21 05:29:35,630.3226961172311,7,36,-1.0997490882873535,3.8185741901397705,35.37302254172322,34.61223513036174,141.17433458448258,126.3362157083142,-0.0001942634553415,0.0946486890316009,0,0,0
11798,409466.23713999,2010-11-21 05:30:05,660.3381773912573,7,36,-1.0997490882873535,3.811451196670532,35.37302254172322,34.62140414241387,141.17433458448258,126.3711961679716,-0.0001295089750783,0.0946486890316009,0,0,0
11799,409496.2524481569,2010-11-21 05:30:35,690.353485658432,7,36,-1.0997490882873535,3.804328203201294,35.37302254172322,34.63057307790839,141.17433458448258,126.40611083888052,-0.0002266406954731,0.0946486890316009,0,0,0
11800,409526.2696527275,2010-11-21 05:31:05,720.3706901288215,7,36,-1.099568486213684,3.797528982162476,35.37302254172322,34.6397425644028,141.17433458448258,126.440963690959,-0.0001942634553415,0.0946486890316009,0,0,0
11801,409556.2831164354,2010-11-21 05:31:35,750.3841538366923,7,36,-1.0997490882873535,3.790729761123657,35.37302254172322,34.64891099273348,141.17433458448258,126.47574952231028,-0.0001942634553415,0.0946486890316009,0,0,0
11802,409586.2831554031,2010-11-21 05:32:05,780.3841928344212,7,36,-1.0997490882873535,3.784092426300049,35.37302254172322,34.65807526054682,141.17433458448258,126.5104582155438,-0.0001295089750783,0.0946486890316009,0,0,0
11803,409616.29850710864,2010-11-21 05:32:35,810.399544540025,7,36,-1.0997490882873535,3.7776169776916495,35.37302254172322,34.667244194786974,141.17433458448258,126.5451243689034,-0.0001618862152099,0.0946486890316009,0,0,0
11804,409646.313918784,2010-11-21 05:33:05,840.4149563055473,7,36,-1.0997490882873535,3.771303415298462,35.37302254172322,34.67641329888233,141.17433458448258,126.57973279190682,-0.0001618862152099,0.0946486890316009,0,0,0
11805,409676.32908733736,2010-11-21 05:33:35,870.4301247837872,7,36,-1.099929690361023,3.7649898529052734,35.37302254172322,34.68558218512298,141.17433458448258,126.61428216450568,-0.0001618862152099,0.0946486890316009,0,0,0
11806,409706.34447682224,2010-11-21 05:34:05,900.445514358919,7,36,-1.0997490882873535,3.759000062942505,35.37302254172322,34.69475123078533,141.17433458448258,126.64877574050688,-0.0001618862152099,0.0946486890316009,0,0,0
11807,409736.35981817706,2010-11-21 05:34:35,930.460855613435,7,36,-1.099568486213684,3.753010272979736,35.37302254172322,34.70392026528516,141.17433458448258,126.68321396520638,-0.0001295089750783,0.0946486890316009,0,0,0
11808,409766.3752069452,2010-11-21 05:35:05,960.4762444316774,7,36,-1.099568486213684,3.747020721435547,35.37302254172322,34.71308927466947,141.17433458448258,126.71759778760048,-0.0001295089750783,0.0946486890316009,0,0,0
11809,409796.3906714423,2010-11-21 05:35:35,990.4917089488764,7,36,-1.099568486213684,3.7413547039031982,35.37302254172322,34.72225835601112,141.17433458448258,126.7519287125299,-0.0001942634553415,0.0946486890316009,0,0,0
11810,409826.40624749294,2010-11-21 05:36:05,1020.5072849293044,7,36,-1.099568486213684,3.73552680015564,35.37302254172322,34.73142738725252,141.17433458448258,126.786206916233,-0.0001618862152099,0.0946486890316009,0,0,0
11811,409856.4213084678,2010-11-21 05:36:35,1050.522345969362,7,36,-1.099568486213684,3.730022668838501,35.37302254172322,34.74059630677459,141.17433458448258,126.82043288172616,-0.0001618862152099,0.0946486890316009,0,0,0
11812,409886.4368063082,2010-11-21 05:37:05,1080.5378437947031,7,36,-1.0997490882873535,3.7245185375213614,35.37302254172322,34.749765314201575,141.17433458448258,126.85460833379688,-0.0001295089750783,0.0946486890316009,0,0,0
11813,409916.4520660041,2010-11-21 05:37:35,1110.5531034254736,7,36,-1.0997490882873535,3.719014406204224,35.37302254172322,34.75893425010396,141.17433458448258,126.88873321182,-0.0001618862152099,0.0946486890316009,0,0,0
11814,409946.4674115093,2010-11-21 05:38:05,1140.5684489105497,7,36,-1.099568486213684,3.713672161102295,35.37302254172322,34.7681032362149,141.17433458448258,126.92280892119965,-0.0001618862152099,0.0946486890316009,0,0,0
11815,409976.4827716358,2010-11-21 05:38:35,1170.5838091374235,7,36,-1.0997490882873535,3.708491802215576,35.37302254172322,34.777272276997955,141.17433458448258,126.9568363216048,-0.0001295089750783,0.0946486890316009,0,0,0
11816,410006.4982189702,2010-11-21 05:39:05,1200.599256361456,7,36,-1.0997490882873535,3.7033114433288574,35.37302254172322,34.78644134449586,141.17433458448258,126.9908161821154,-0.0001295089750783,0.0946486890316009,0,0,0
11817,410036.5164317776,2010-11-21 05:39:35,1230.617469299135,7,36,-1.099929690361023,3.6981310844421382,35.37302254172322,34.795611242797044,141.17433458448258,127.02475180324116,-0.0001295089750783,0.0946486890316009,0,0,0
11818,410066.529091233,2010-11-21 05:40:05,1260.6301287494553,7,36,-1.099929690361023,3.69295072555542,35.37302254172322,34.80477940220951,141.17433458448258,127.0586341330966,-0.0001295089750783,0.0946486890316009,0,0,0
11819,410096.5442749291,2010-11-21 05:40:35,1290.6453123755066,7,36,-1.099568486213684,3.688094139099121,35.37302254172322,34.81394843051355,141.17433458448258,127.09247316080298,-0.0001295089750783,0.0946486890316009,0,0,0
11820,410126.5597563886,2010-11-21 05:41:05,1320.6607939101834,7,36,-1.099568486213684,3.6832375526428223,35.37302254172322,34.82311747577822,141.17433458448258,127.12626677981498,-0.0001295089750783,0.0946486890316009,0,0,0
11821,410156.5769014156,2010-11-21 05:41:35,1350.6779389472183,7,36,-1.0997490882873535,3.678380966186523,35.37302254172322,34.83228703406956,141.17433458448258,127.16001741317524,-9.713172767078504e-05,0.0946486890316009,0,0,0
11822,410186.59037843166,2010-11-21 05:42:05,1380.6914159332334,7,36,-1.0997490882873535,3.673362493515015,35.37302254172322,34.84145554195731,141.17433458448258,127.19371981948142,-0.0001618862152099,0.0946486890316009,0,0,0
11823,410216.60580026737,2010-11-21 05:42:35,1410.7068377939547,7,36,-1.0997490882873535,3.668991804122925,35.37302254172322,34.850624582388065,141.17433458448258,127.2273807846996,-6.47544875391759e-05,0.0946486890316009,0,0,0
11824,410246.6211038629,2010-11-21 05:43:05,1440.722141389468,7,36,-1.0997490882873535,3.663973331451416,35.37302254172322,34.85979367004385,141.17433458448258,127.26099908825849,-0.0001618862152099,0.0946486890316009,0,0,0
11825,410276.6364951824,2010-11-21 05:43:35,1470.7375327189793,7,36,-1.0997490882873535,3.659440517425537,35.37302254172322,34.868962731201066,141.17433458448258,127.29457503370578,-0.0001618862152099,0.0946486890316009,0,0,0
11826,410306.65196552913,2010-11-21 05:44:05,1500.7530030456794,7,36,-1.0997490882873535,3.655069589614868,35.37302254172322,34.87813179340342,141.17433458448258,127.32810930345354,-0.0001295089750783,0.0946486890316009,0,0,0
11827,410336.6673390391,2010-11-21 05:44:35,1530.7683764805226,7,36,-1.0997490882873535,3.650698661804199,35.37302254172322,34.887300884321405,141.17433458448258,127.36160312649668,-0.0001295089750783,0.0946486890316009,0,0,0
11828,410366.6826210608,2010-11-21 05:45:05,1560.783658597422,7,36,-1.0997490882873535,3.64616584777832,35.37302254172322,34.896469922190114,141.17433458448258,127.39505641693977,-0.0001295089750783,0.0946486890316009,0,0,0
11829,410396.6979967212,2010-11-21 05:45:35,1590.799034222733,7,36,-1.0997490882873535,3.6421186923980713,35.37302254172322,34.90563894343182,141.17433458448258,127.42847000658288,-9.713172767078504e-05,0.0946486890316009,0,0,0
11830,410426.7134027073,2010-11-21 05:46:05,1620.814440228879,7,36,-1.0997490882873535,3.6377477645874015,35.37302254172322,34.91480795695537,141.17433458448258,127.46184506118747,-0.0001618862152099,0.0946486890316009,0,0,0
11831,410456.7287023128,2010-11-21 05:46:35,1650.8297397492202,7,36,-1.099929690361023,3.6338624954223633,35.37302254172322,34.92397698109956,141.17433458448258,127.49518240726844,-0.0001295089750783,0.0946486890316009,0,0,0
11832,410486.744068264,2010-11-21 05:47:05,1680.8451058708083,7,36,-1.0997490882873535,3.629815340042114,35.37302254172322,34.933146024564486,141.17433458448258,127.52848275768407,-9.713172767078504e-05,0.0946486890316009,0,0,0
11833,410516.75961914175,2010-11-21 05:47:35,1710.8606565731384,7,36,-1.0997490882873535,3.625768184661865,35.37302254172322,34.94231515111967,141.17433458448258,127.56174691750086,-9.713172767078504e-05,0.0946486890316009,0,0,0
11834,410546.7748361712,2010-11-21 05:48:05,1740.8758736727448,7,36,-1.0997490882873535,3.622044801712036,35.37302254172322,34.951484105380665,141.17433458448258,127.59497509141438,-9.713172767078504e-05,0.0946486890316009,0,0,0
11835,410576.7903383925,2010-11-21 05:48:35,1770.8913757938085,7,36,-1.0997490882873535,3.618159532546997,35.37302254172322,34.9606531480077,141.17433458448258,127.62816905137214,-0.0001295089750783,0.0946486890316009,0,0,0
11836,410606.8056724891,2010-11-21 05:49:05,1800.9067100107577,7,36,-1.099568486213684,3.614759922027588,35.37302254172322,34.96982217306298,141.17433458448258,127.66132916242856,-9.713172767078504e-05,0.0946486890316009,0,0,0
11837,410636.8210151271,2010-11-21 05:49:35,1830.9220525685269,7,36,-1.099568486213684,3.6111984252929688,35.37302254172322,34.978991227515365,141.17433458448258,127.69445692189784,-0.0001295089750783,0.0946486890316009,0,0,0
11838,410666.8363015899,2010-11-21 05:50:06,1860.9373391214992,7,36,-1.099568486213684,3.6079607009887695,35.37302254172322,34.98816029085344,141.17433458448258,127.72755303809416,-0.0001295089750783,0.0946486890316009,0,0,0
11839,410696.8516589296,2010-11-21 05:50:36,1890.9526964611664,7,36,-1.0997490882873535,3.6043992042541504,35.37302254172322,34.9973293701076,141.17433458448258,127.76061820959444,-9.713172767078504e-05,0.0946486890316009,0,0,0
11840,410726.8670588505,2010-11-21 05:51:06,1920.9680962668351,7,36,-1.0997490882873535,3.601485252380371,35.37302254172322,35.00649840885636,141.17433458448258,127.79365328987792,-3.237724376958795e-05,0.0946486890316009,0,0,0
11841,410756.88432288455,2010-11-21 05:51:36,1950.9853604161929,7,36,-1.099568486213684,3.598247528076172,35.37302254172322,35.01566803218914,141.17433458448258,127.82666122427516,-9.713172767078504e-05,0.0946486890316009,0,0,0
11842,410786.8977958305,2010-11-21 05:52:06,1980.9988332468351,7,36,-1.0997490882873535,3.5950098037719727,35.37302254172322,35.024836521483465,141.17433458448258,127.85963654736328,-9.713172767078504e-05,0.0946486890316009,0,0,0
11843,410816.91315067885,2010-11-21 05:52:36,2011.0141881002965,7,36,-1.099568486213684,3.5920960903167725,35.37302254172322,35.03400554580264,141.17433458448258,127.89258596666106,-6.470680091297254e-05,0.0946486890316009,0,0,0
11844,410846.9286017978,2010-11-21 05:53:06,2041.0296393293256,7,36,-1.0997490882873535,3.589182138442993,35.37302254172322,35.0431747036134,141.17433458448258,127.9255083927276,-9.713172767078504e-05,0.0946486890316009,0,0,0
11845,410876.94388921285,2010-11-21 05:53:36,2071.0449266041,7,36,-1.0997490882873535,3.586106300354004,35.37302254172322,35.05234378247475,141.17433458448258,127.95840333678782,-9.713172767078504e-05,0.0946486890316009,0,0,0
11846,410906.95926498855,2010-11-21 05:54:06,2101.060302429912,7,36,-1.099568486213684,3.5833542346954346,35.37302254172322,35.06151285612214,141.17433458448258,127.99127138311762,-3.237724376958795e-05,0.0946486890316009,0,0,0
11847,410936.97463200736,2010-11-21 05:54:36,2131.07566952894,7,36,-1.099568486213684,3.5804402828216557,35.37302254172322,35.070681917202435,141.17433458448258,128.02411301641123,-6.47544875391759e-05,0.0946486890316009,0,0,0
11848,410966.9900122392,2010-11-21 05:55:06,2161.0910496404485,7,36,-1.099929690361023,3.577364444732666,35.37302254172322,35.07985101252124,141.17433458448258,128.05692833578763,-6.47544875391759e-05,0.0946486890316009,0,0,0
11849,410997.0055703349,2010-11-21 05:55:36,2191.1066077362343,7,36,-1.0997490882873535,3.574774265289306,35.37302254172322,35.089020147470244,141.17433458448258,128.08971777436352,-6.47544875391759e-05,0.0946486890316009,0,0,0
11850,411027.02086531895,2010-11-21 05:56:06,2221.1219027403017,7,36,-1.0997490882873535,3.5716984272003174,35.37302254172322,35.09818914203219,141.17433458448258,128.12248041918147,-9.713172767078504e-05,0.0946486890316009,0,0,0
11851,411057.036179135,2010-11-21 05:56:36,2251.137216611465,7,36,-1.0997490882873535,3.568784475326538,35.37302254172322,35.10735822701647,141.17433458448258,128.15521674980764,-9.713172767078504e-05,0.0946486890316009,0,0,0
11852,411087.0514949259,2010-11-21 05:57:06,2281.1525323472824,7,36,-1.0997490882873535,3.565870523452759,35.37302254172322,35.1165279924582,141.17433458448258,128.18792811982814,-9.713172767078504e-05,0.0946486890316009,0,0,0
11853,411117.06688096223,2010-11-21 05:57:36,2311.167918438718,7,36,-1.099929690361023,3.562794685363769,35.37302254172322,35.12569786636995,141.17433458448258,128.2206124097695,-9.713172767078504e-05,0.0946486890316009,0,0,0
11854,411147.082351299,2010-11-21 05:58:06,2341.1833888055185,7,36,-1.0997490882873535,3.5600426197052,35.37302254172322,35.134867750052955,141.17433458448258,128.25326946757775,-3.237724376958795e-05,0.0946486890316009,0,0,0
11855,411177.0975955864,2010-11-21 05:58:36,2371.198633037852,7,36,-1.099929690361023,3.556643009185791,35.37302254172322,35.14403755982935,141.17433458448258,128.28589805415388,-9.713172767078504e-05,0.0946486890316009,0,0,0
11856,411207.1129920788,2010-11-21 05:59:06,2401.214029515213,7,36,-1.0997490882873535,3.553405284881592,35.37302254172322,35.15320671483153,141.17433458448258,128.31849557750482,-9.713172767078504e-05,0.0946486890316009,0,0,0
11857,411237.1283854534,2010-11-21 05:59:36,2431.229422990079,7,36,-1.0997490882873535,3.5501675605773926,35.37302254172322,35.16237575275195,141.17433458448258,128.35106304128288,-9.713172767078504e-05,0.0946486890316009,0,0,0
11858,411267.1438033091,2010-11-21 06:00:06,2461.2448407956786,7,36,-1.099568486213684,3.5469298362731934,35.37302254172322,35.17154485557746,141.17433458448258,128.38359997990676,-6.47544875391759e-05,0.0946486890316009,0,0,0
11859,411297.1592001074,2010-11-21 06:00:36,2491.260237558752,7,36,-1.0997490882873535,3.5432064533233643,35.37302254172322,35.18071401229531,141.17433458448258,128.4161053886648,-9.713172767078504e-05,0.0946486890316009,0,0,0
11860,411327.1744576528,2010-11-21 06:01:06,2521.275495189531,7,36,-1.099568486213684,3.539806842803955,35.37302254172322,35.18988308567404,141.17433458448258,128.44857792780735,-9.713172767078504e-05,0.0946486890316009,0,0,0
11861,411357.1918591652,2010-11-21 06:01:36,2551.292896701767,7,36,-1.099568486213684,3.536083459854126,35.37302254172322,35.19905281323082,141.17433458448258,128.48101913353767,-9.713172767078504e-05,0.0946486890316009,0,0,0
11862,411387.20519219176,2010-11-21 06:02:06,2581.3062297284373,7,36,-1.0997490882873535,3.532198190689087,35.37302254172322,35.20822131235569,141.17433458448258,128.5134208199908,-6.47544875391759e-05,0.0946486890316009,0,0,0
11863,411417.2205846993,2010-11-21 06:02:36,2611.3216222358888,7,36,-1.0997490882873535,3.528151035308838,35.37302254172322,35.21739047478712,141.17433458448258,128.5457885630468,-9.713172767078504e-05,0.0946486890316009,0,0,0
11864,411447.2359459688,2010-11-21 06:03:06,2641.3369834201526,7,36,-1.0997490882873535,3.523941993713379,35.37302254172322,35.226559602266136,141.17433458448258,128.5781187016568,-0.0001295089750783,0.0946486890316009,0,0,0
11865,411477.2515930366,2010-11-21 06:03:36,2671.352630488026,7,36,-1.0997490882873535,3.5194091796875,35.37302254172322,35.23572882393442,141.17433458448258,128.61041019560733,-0.0001618862152099,0.0946486890316009,0,0,0
11866,411507.2666883773,2010-11-21 06:04:06,2701.3677258136654,7,36,-1.0997490882873535,3.515038251876831,35.37302254172322,35.244897867648874,141.17433458448258,128.642660309386,-9.713172767078504e-05,0.0946486890316009,0,0,0
11867,411537.2823078011,2010-11-21 06:04:36,2731.383345337785,7,36,-1.099929690361023,3.5103437900543213,35.37302254172322,35.2540670877392,141.17433458448258,128.67486824780548,-9.713172767078504e-05,0.0946486890316009,0,0,0
11868,411567.2974691666,2010-11-21 06:05:06,2761.398506603021,7,36,-1.099929690361023,3.5050015449523926,35.37302254172322,35.26323614432468,141.17433458448258,128.70703025887013,-0.0001618862152099,0.0946486890316009,0,0,0
11869,411597.3128244762,2010-11-21 06:05:36,2791.41386191262,7,36,-1.0997490882873535,3.499497413635254,35.37302254172322,35.272405373791166,141.17433458448258,128.73914361219792,-0.0001295089750783,0.0946486890316009,0,0,0
11870,411627.3281603924,2010-11-21 06:06:06,2821.429197828811,7,36,-1.0997490882873535,3.4933457374572754,35.37302254172322,35.28157452270666,141.17433458448258,128.77120305441,-0.0001618862152099,0.0946486890316009,0,0,0
11871,411657.343521712,2010-11-21 06:06:36,2851.4445591484127,7,36,-1.0997490882873535,3.486384630203247,35.37302254172322,35.29074368257044,141.17433458448258,128.80320257677178,-0.0001942634553415,0.0946486890316009,0,0,0
11872,411687.3589658584,2010-11-21 06:07:06,2881.4600033098004,7,36,-1.0997490882873535,3.478452205657959,35.37302254172322,35.299912836708515,141.17433458448258,128.83513410196662,-0.0001942634553415,0.0946486890316009,0,0,0
11873,411717.3743169576,2010-11-21 06:07:36,2911.47535440889,7,36,-1.099568486213684,3.469062805175781,35.37302254172322,35.30908198902564,141.17433458448258,128.86698642171427,-0.0002590179501567,0.0946486890316009,0,0,0
11874,411747.3898933639,2010-11-21 06:08:06,2941.490930780294,7,36,-1.0997490882873535,3.457730770111084,35.37302254172322,35.31825128396791,141.17433458448258,128.8987450421518,-0.0003237724304199,0.0946486890316009,0,0,0
11875,411777.4052102276,2010-11-21 06:08:36,2971.5062476790145,7,36,-1.099929690361023,3.4436466693878174,35.37302254172322,35.32742042480292,141.17433458448258,128.93038772159844,-0.0004532813909463,0.0946486890316009,0,0,0
11876,411807.4205813016,2010-11-21 06:09:06,3001.521618722889,7,36,-1.099568486213684,3.425839424133301,35.37302254172322,35.336589550564874,141.17433458448258,128.96188460677052,-0.0004856586456298,0.0946486890316009,0,0,0
11877,411837.435790346,2010-11-21 06:09:36,3031.536827762376,7,36,-1.0997490882873535,3.4017183780670166,35.37302254172322,35.34575860949447,141.17433458448258,128.99319042690132,-0.0007122993702068,0.0946486890316009,0,0,0
11878,411867.4511459764,2010-11-21 06:10:06,3061.5521834278643,7,36,-1.099929690361023,3.3690173625946045,35.37302254172322,35.354927739916455,141.17433458448258,129.0242393465768,-0.0010360718006268,0.0946486890316009,0,0,0
11879,411897.46656229335,2010-11-21 06:10:36,3091.5675998149227,7,36,-1.0997490882873535,3.3236894607543945,35.37302254172322,35.364096869073016,141.17433458448258,129.0549337634642,-0.0013598442310467,0.0946486890316009,0,0,0
11880,411927.48188059055,2010-11-21 06:11:06,3121.582918077046,7,36,-1.0997490882873535,3.259906530380249,35.37302254172322,35.373265967761974,141.17433458448258,129.08513247142977,-0.0019102573860436,0.0946486890316009,0,0,0
11881,411957.4974764355,2010-11-21 06:11:36,3151.5985138719343,7,36,-1.099929690361023,3.1671459674835205,35.37302254172322,35.382435155929215,141.17433458448258,129.114626436626,-0.002978706266731,0.0946486890316009,0,0,0
11882,411987.4997007181,2010-11-21 06:12:06,3181.600738204595,7,36,-1.0997490882873535,3.021772623062134,35.37302254172322,35.39160031761411,141.17433458448258,129.14304884438772,-0.0049536703154444,0.0946486890316009,0,0,0
11883,412008.7154601576,2010-11-21 06:12:27,3202.816497573944,7,36,-1.0997490882873535,2.8215198516845703,35.37302254172322,35.39808132727922,141.17433458448258,129.16205946743816,-0.0097778793424367,0.0946486890316009,0,0,0
11884,412017.71550046286,2010-11-21 06:12:36,3211.816537879168,7,36,-1.0997490882873535,2.699943780899048,35.37302254172322,35.400830678396574,141.17433458448258,129.16965200104713,-0.011008215136826,0.0946486890316009,0,0,0
11885,412077.7300644742,2010-11-21 06:13:37,60.01511976202135,8,36,0.0,3.3024823665618896,35.37302254172322,35.400830678396574,141.17433458448258,129.16965200104713,0.0012627125252038,0.0946486890316009,0,0,0
11886,412077.9178416428,2010-11-21 06:13:37,0.187708033128849,9,36,-1.9243103452026844e-05,3.3026442527771,35.37302254172322,35.40083067939993,141.17433458448258,129.16965200436087,0.0,0.0938397273421287,0,0,0
11887,412082.73015016015,2010-11-21 06:13:42,5.000016550543472,9,36,0.0007031940040178,3.310091018676758,35.37302349800556,35.40083067956602,141.17433774687467,129.16965200490938,0.0010360718006268,0.0938397273421287,0,0,0
