Data_Point,Test_Time(s),Date_Time,Step_Time(s),Step_Index,Cycle_Index,Current(A),Voltage(V),Charge_Capacity(Ah),Discharge_Capacity(Ah),Charge_Energy(Wh),Discharge_Energy(Wh),dV/dt(V/s),Internal_Resistance(Ohm),Is_FC_Data,AC_Impedance(Ohm),ACI_Phase_Angle(Deg)
996,34583.03547385828,2010-11-16 21:21:23,30.015369896009656,1,4,0.0,3.360437393188477,2.952031963134989,2.98416903234966,11.794548840553276,10.90340535397686,0.0008418083307333,0.0930307656526565,0,0,0
997,34613.05081982456,2010-11-16 21:21:53,60.0307158572745,1,4,0.0,3.3852059841156006,2.952031963134989,2.98416903234966,11.794548840553276,10.90340535397686,0.0006475448608398,0.0930307656526565,0,0,0
998,34643.0661809186,2010-11-16 21:22:23,90.04607697136314,1,4,0.0,3.403822898864746,2.952031963134989,2.98416903234966,11.794548840553276,10.90340535397686,0.0004532813909463,0.0930307656526565,0,0,0
999,34673.03468435372,2010-11-16 21:22:53,120.01458041148868,1,4,0.0,3.4188783168792725,2.952031963134989,2.98416903234966,11.794548840553276,10.90340535397686,0.0003561496851034,0.0930307656526565,0,0,0
1000,34703.05068114148,2010-11-16 21:23:23,30.015346873542036,2,4,0.550297200679779,3.5763931274414062,2.95661879526536,2.98416903234966,11.810783564010412,10.90340535397686,0.0016836166614666,0.0930307656526565,0,0,0
1001,34733.0661777588,2010-11-16 21:23:53,60.03084350089261,2,4,0.5501165986061096,3.626253843307495,2.961205697356832,2.98416903234966,11.827309608311808,10.90340535397686,0.0011655807029455,0.0930307656526565,0,0,0
1002,34763.0814913242,2010-11-16 21:24:23,90.04615706629241,2,4,0.550297200679779,3.662354469299317,2.965792511019927,2.98416903234966,11.844028876098912,10.90340535397686,0.0008418083307333,0.0930307656526565,0,0,0
1003,34793.096712905,2010-11-16 21:24:53,120.06137863705943,2,4,0.5501165986061096,3.690360546112061,2.970379288148645,2.98416903234966,11.860893591848797,10.90340535397686,0.0006799221155233,0.0930307656526565,0,0,0
1004,34823.11202750798,2010-11-16 21:25:23,150.0766932400492,2,4,0.5501165986061096,3.713186502456665,2.974966154914419,2.98416903234966,11.877874747247356,10.90340535397686,0.0005504131549969,0.0930307656526565,0,0,0
1005,34853.12736157456,2010-11-16 21:25:54,180.09202730662307,2,4,0.5499359965324402,3.731965303421021,2.979552951223702,2.98416903234966,11.894951018100508,10.90340535397686,0.0004532813909463,0.0930307656526565,0,0,0
1006,34883.14283374085,2010-11-16 21:26:24,210.1074994779276,2,4,0.5499359965324402,3.747344493865967,2.984139745296214,2.98416903234966,11.912105675751894,10.90340535397686,0.0003561496851034,0.0930307656526565,0,0,0
1007,34913.15806386297,2010-11-16 21:26:54,240.1227295950276,2,4,0.5499359965324402,3.758676290512085,2.988726543279907,2.98416903234966,11.929321945953363,10.90340535397686,0.0002266406954731,0.0930307656526565,0,0,0
1008,34943.17341282171,2010-11-16 21:27:24,270.1380785788372,2,4,0.5501165986061096,3.7654755115509033,2.993313332827441,2.98416903234966,11.946579381586124,10.90340535397686,6.47544875391759e-05,0.0930307656526565,0,0,0
1009,34973.188737199096,2010-11-16 21:27:54,300.1534029311628,2,4,0.550297200679779,3.7700083255767822,2.997900128274459,2.98416903234966,11.963861825183375,10.90340535397686,0.0001618862152099,0.0930307656526565,0,0,0
1010,35003.204082278164,2010-11-16 21:28:24,330.1687480102256,2,4,0.5501165986061096,3.773407936096192,3.00248693071973,2.98416903234966,11.981162005440824,10.90340535397686,6.47544875391759e-05,0.0930307656526565,0,0,0
1011,35033.21944552257,2010-11-16 21:28:54,360.1841112546318,2,4,0.5499359965324402,3.7768075466156006,3.00707378804971,2.98416903234966,11.998478140507013,10.90340535397686,9.713172767078504e-05,0.0930307656526565,0,0,0
1012,35063.2347818548,2010-11-16 21:29:24,390.199447586861,2,4,0.5501165986061096,3.7800452709198,3.011660586813194,2.98416903234966,12.01580914872955,10.90340535397686,6.47544875391759e-05,0.0930307656526565,0,0,0
1013,35093.250118126874,2010-11-16 21:29:54,420.21478385894017,2,4,0.5501165986061096,3.783121109008789,3.016247408652867,2.98416903234966,12.033154873561342,10.90340535397686,6.47544875391759e-05,0.0930307656526565,0,0,0
1014,35123.26546860943,2010-11-16 21:30:24,450.2301343414909,2,4,0.5501165986061096,3.7861969470977774,3.020834205032292,2.98416903234966,12.050514858795031,10.90340535397686,6.47544875391759e-05,0.0930307656526565,0,0,0
1015,35153.28083206937,2010-11-16 21:30:54,480.2454978264976,2,4,0.5501165986061096,3.7894346714019775,3.025420987583153,2.98416903234966,12.067888732658378,10.90340535397686,6.47544875391759e-05,0.0930307656526565,0,0,0
1016,35183.29618163965,2010-11-16 21:31:24,510.26084739175866,2,4,0.5501165986061096,3.792186737060547,3.030007817559728,2.98416903234966,12.08527649845696,10.90340535397686,9.713172767078504e-05,0.0930307656526565,0,0,0
1017,35213.31150786665,2010-11-16 21:31:54,540.2761735987137,2,4,0.550297200679779,3.795262575149536,3.034594577448087,2.98416903234966,12.102677382488103,10.90340535397686,9.713172767078504e-05,0.0930307656526565,0,0,0
1018,35243.326849457,2010-11-16 21:32:24,570.291515189068,2,4,0.5499359965324402,3.7980146408081055,3.039181321959565,2.98416903234966,12.120091472188877,10.90340535397686,9.713172767078504e-05,0.0930307656526565,0,0,0
1019,35273.34221404978,2010-11-16 21:32:54,600.30687978184,2,4,0.5499359965324402,3.800766706466675,3.043768073139002,2.98416903234966,12.137518669656789,10.90340535397686,3.237724376958795e-05,0.0930307656526565,0,0,0
1020,35303.35754690332,2010-11-16 21:33:24,630.322212635386,2,4,0.5499359965324402,3.803680658340454,3.048354889806411,2.98416903234966,12.154959157837158,10.90340535397686,3.237724376958795e-05,0.0930307656526565,0,0,0
1021,35333.37289471922,2010-11-16 21:33:54,660.3375604512803,2,4,0.5501165986061096,3.8067564964294434,3.052941711664512,2.98416903234966,12.172412747977448,10.90340535397686,9.713172767078504e-05,0.0930307656526565,0,0,0
1022,35363.388404033234,2010-11-16 21:34:24,690.3530697703112,2,4,0.550297200679779,3.8095085620880127,3.05752854461342,2.98416903234966,12.189879468383737,10.90340535397686,9.713172767078504e-05,0.0930307656526565,0,0,0
1023,35393.40360554393,2010-11-16 21:34:54,720.3682712860178,2,4,0.5499359965324402,3.812260627746582,3.06211539966713,2.98416903234966,12.207359622641592,10.90340535397686,3.237724376958795e-05,0.0930307656526565,0,0,0
1024,35423.419414505915,2010-11-16 21:35:24,750.3840802580287,2,4,0.5501165986061096,3.8153364658355713,3.066702274322935,2.98416903234966,12.224853926110145,10.90340535397686,6.47544875391759e-05,0.0930307656526565,0,0,0
1025,35453.43431229347,2010-11-16 21:35:54,780.3989780255328,2,4,0.5501165986061096,3.8185741901397705,3.07128899694639,2.98416903234966,12.242361719473292,10.90340535397686,6.47544875391759e-05,0.0930307656526565,0,0,0
1026,35483.449643222215,2010-11-16 21:36:24,810.4143089542742,2,4,0.5501165986061096,3.82197380065918,3.075875821562661,2.98416903234966,12.259884496966867,10.90340535397686,9.713172767078504e-05,0.0930307656526565,0,0,0
1027,35513.46499511829,2010-11-16 21:36:54,840.4296608503535,2,4,0.5501165986061096,3.825049638748169,3.0804625807057,2.98416903234966,12.277421972359456,10.90340535397686,6.47544875391759e-05,0.0930307656526565,0,0,0
1028,35543.48032946055,2010-11-16 21:37:24,870.4449951976278,2,4,0.5501165986061096,3.828611135482788,3.085049397338772,2.98416903234966,12.294975110057743,10.90340535397686,9.713172767078504e-05,0.0930307656526565,0,0,0
1029,35573.49570990289,2010-11-16 21:37:54,900.4603756550003,2,4,0.5501165986061096,3.832010746002197,3.08963620900874,2.98416903234966,12.312543948827896,10.90340535397686,0.0001295089750783,0.0930307656526565,0,0,0
1030,35603.51103374394,2010-11-16 21:38:24,930.4756994759996,2,4,0.5501165986061096,3.8354101181030273,3.094222973070611,2.98416903234966,12.330128327562951,10.90340535397686,9.713172767078504e-05,0.0930307656526565,0,0,0
1031,35633.52639317382,2010-11-16 21:38:54,960.4910589058844,2,4,0.5501165986061096,3.838809728622437,3.098809809331704,2.98416903234966,12.347728749554673,10.90340535397686,6.47544875391759e-05,0.0930307656526565,0,0,0
1032,35663.541774493344,2010-11-16 21:39:24,990.5064402304214,2,4,0.5501165986061096,3.8422093391418457,3.103396589014053,2.98416903234966,12.365344556590832,10.90340535397686,3.237724376958795e-05,0.0930307656526565,0,0,0
1033,35693.557092559975,2010-11-16 21:39:54,1020.5217582920444,2,4,0.5501165986061096,3.845608949661255,3.107983428229868,2.98416903234966,12.38297598722396,10.90340535397686,6.47544875391759e-05,0.0930307656526565,0,0,0
1034,35723.572558255124,2010-11-16 21:40:24,1050.537223987183,2,4,0.5501165986061096,3.848846673965454,3.112570253974756,2.98416903234966,12.400622533278217,10.90340535397686,9.713172767078504e-05,0.0930307656526565,0,0,0
1035,35753.58782047234,2010-11-16 21:40:54,1080.5524862394975,2,4,0.5499359965324402,3.852084398269653,3.117157048045598,2.98416903234966,12.418283917043444,10.90340535397686,9.713172767078504e-05,0.0930307656526565,0,0,0
1036,35783.60315885469,2010-11-16 21:41:24,1110.5678246118196,2,4,0.5501165986061096,3.855322122573853,3.121743900122704,2.98416903234966,12.435960016040552,10.90340535397686,0.0001295089750783,0.0930307656526565,0,0,0
1037,35813.61846226475,2010-11-16 21:41:54,1140.5831280168577,2,4,0.5499359965324402,3.858074188232422,3.126330617698791,2.98416903234966,12.453649750170724,10.90340535397686,3.237724376958795e-05,0.0930307656526565,0,0,0
1038,35843.63394285707,2010-11-16 21:42:24,1170.5986085941447,2,4,0.5501165986061096,3.861150026321411,3.13091733722856,2.98416903234966,12.471353112220994,10.90340535397686,6.47544875391759e-05,0.0930307656526565,0,0,0
1039,35873.649213375014,2010-11-16 21:42:54,1200.613879137154,2,4,0.5501165986061096,3.863902091979981,3.135504107688854,2.98416903234966,12.489069811443107,10.90340535397686,6.47544875391759e-05,0.0930307656526565,0,0,0
1040,35903.66468047365,2010-11-16 21:43:24,1230.629346205721,2,4,0.5501165986061096,3.86665415763855,3.140090878612764,2.98416903234966,12.506799015736767,10.90340535397686,6.47544875391759e-05,0.0930307656526565,0,0,0
1041,35933.68019735657,2010-11-16 21:43:54,1260.644863118708,2,4,0.550297200679779,3.869082450866699,3.144677735591016,2.98416903234966,12.524540545904136,10.90340535397686,3.237724376958795e-05,0.0930307656526565,0,0,0
1042,35963.695260712404,2010-11-16 21:44:24,1290.659926444471,2,4,0.5501165986061096,3.871348857879639,3.149264516017456,2.98416903234966,12.542293119585189,10.90340535397686,0.0,0.0930307656526565,0,0,0
1043,35993.71063594173,2010-11-16 21:44:54,1320.6753016938435,2,4,0.5501165986061096,3.873777151107788,3.153851325484721,2.98416903234966,12.560056566338403,10.90340535397686,3.237724376958795e-05,0.0930307656526565,0,0,0
1044,36023.725959687545,2010-11-16 21:45:24,1350.6906254246176,2,4,0.550297200679779,3.876043558120728,3.158438223744156,2.98416903234966,12.57783036564571,10.90340535397686,6.47544875391759e-05,0.0930307656526565,0,0,0
1045,36053.741316806656,2010-11-16 21:45:54,1380.705982538722,2,4,0.550297200679779,3.877986192703247,3.163025036059108,2.98416903234966,12.595613395810105,10.90340535397686,6.47544875391759e-05,0.0930307656526565,0,0,0
1046,36083.75667016639,2010-11-16 21:46:24,1410.7213358984543,2,4,0.5501165986061096,3.879928827285767,3.16761188755858,2.98416903234966,12.61340553691616,10.90340535397686,3.237724376958795e-05,0.0930307656526565,0,0,0
1047,36113.77278406455,2010-11-16 21:46:54,1440.7374498016202,2,4,0.5501165986061096,3.881547689437866,3.17219891207962,2.98416903234966,12.631206721889203,10.90340535397686,3.237724376958795e-05,0.0930307656526565,0,0,0
1048,36143.77474596213,2010-11-16 21:47:24,1470.7394118044658,2,4,0.550297200679779,3.8834903240203857,3.176783672685771,2.98416903234966,12.649006871953752,10.90340535397686,9.713172767078504e-05,0.0930307656526565,0,0,0
1049,36173.7871189524,2010-11-16 21:47:54,1500.7517846944877,2,4,0.5501165986061096,3.884623527526856,3.181370091120645,2.98416903234966,12.666820768904296,10.90340535397686,3.237724376958795e-05,0.0930307656526565,0,0,0
1050,36203.8024544325,2010-11-16 21:48:24,1530.7671201745895,2,4,0.5501165986061096,3.886242389678955,3.185956913159552,2.98416903234966,12.68464312147178,10.90340535397686,3.237724376958795e-05,0.0930307656526565,0,0,0
1051,36233.81781110049,2010-11-16 21:48:54,1560.7824768325552,2,4,0.550297200679779,3.8876993656158447,3.190543754524402,2.98416903234966,12.702472193274277,10.90340535397686,0.0,0.0930307656526565,0,0,0
1052,36263.83317349778,2010-11-16 21:49:24,1590.7978392298469,2,4,0.550297200679779,3.8891563415527344,3.195130583397048,2.98416903234966,12.720307609217668,10.90340535397686,3.237724376958795e-05,0.0930307656526565,0,0,0
1053,36293.84852369964,2010-11-16 21:49:54,1620.8131894367093,2,4,0.5501165986061096,3.890289545059204,3.199717513619425,2.98416903234966,12.738149567209804,10.90340535397686,0.0,0.0930307656526565,0,0,0
1054,36323.86401215158,2010-11-16 21:50:24,1650.8286778936654,2,4,0.550297200679779,3.8917465209960938,3.204304414779776,2.98416903234966,12.75599742782362,10.90340535397686,6.47544875391759e-05,0.0930307656526565,0,0,0
1055,36353.87927269964,2010-11-16 21:50:54,1680.8439384467383,2,4,0.550297200679779,3.893041610717773,3.208891285628129,2.98416903234966,12.773851024906556,10.90340535397686,6.47544875391759e-05,0.0930307656526565,0,0,0
1056,36383.89478886074,2010-11-16 21:51:24,1710.8594546128604,2,4,0.550297200679779,3.894336700439453,3.213478287269023,2.98416903234966,12.791710977471404,10.90340535397686,6.47544875391759e-05,0.0930307656526565,0,0,0
1057,36413.90990833667,2010-11-16 21:51:54,1740.874574068733,2,4,0.550297200679779,3.895469903945923,3.218065279064113,2.98416903234966,12.809576272638084,10.90340535397686,6.47544875391759e-05,0.0930307656526565,0,0,0
1058,36443.925263044766,2010-11-16 21:52:24,1770.8899287868564,2,4,0.5501165986061096,3.8966031074523926,3.22265222499792,2.98416903234966,12.827447044097276,10.90340535397686,3.237724376958795e-05,0.0930307656526565,0,0,0
1059,36473.94066491559,2010-11-16 21:52:54,1800.9053306677051,2,4,0.5501165986061096,3.898060083389282,3.227239147879656,2.98416903234966,12.845323434667154,10.90340535397686,6.47544875391759e-05,0.0930307656526565,0,0,0
1060,36503.95598650101,2010-11-16 21:53:24,1830.9206522330744,2,4,0.5501165986061096,3.899193286895752,3.231826092350145,2.98416903234966,12.863205644316947,10.90340535397686,3.237724376958795e-05,0.0930307656526565,0,0,0
1061,36533.9713325124,2010-11-16 21:53:54,1860.935998244464,2,4,0.550297200679779,3.9006502628326416,3.236413143627799,2.98416903234966,12.88109398578769,10.90340535397686,9.713172767078504e-05,0.0930307656526565,0,0,0
1062,36563.98670321543,2010-11-16 21:54:24,1890.951368977563,2,4,0.5501165986061096,3.901621580123901,3.241000118422295,2.98416903234966,12.8989877541796,10.90340535397686,3.237724376958795e-05,0.0930307656526565,0,0,0
1063,36594.00203694616,2010-11-16 21:54:54,1920.966702678224,2,4,0.5501165986061096,3.902754783630371,3.245587105358326,2.98416903234966,12.91688736121047,10.90340535397686,0.0,0.0930307656526565,0,0,0
1064,36624.017413985,2010-11-16 21:55:24,1950.9820797170628,2,4,0.5501165986061096,3.9042117595672607,3.250174143105829,2.98416903234966,12.934792987971244,10.90340535397686,6.47544875391759e-05,0.0930307656526565,0,0,0
1065,36654.03276795125,2010-11-16 21:55:54,1980.9974336833093,2,4,0.5501165986061096,3.9053449630737305,3.254761174756327,2.98416903234966,12.952704410644802,10.90340535397686,3.237724376958795e-05,0.0930307656526565,0,0,0
1066,36684.04810719574,2010-11-16 21:56:24,2011.0127729478584,2,4,0.5501165986061096,3.90680193901062,3.259348123479384,2.98416903234966,12.970621251274268,10.90340535397686,3.237724376958795e-05,0.0930307656526565,0,0,0
1067,36714.06370409839,2010-11-16 21:56:54,2041.0283698404864,2,4,0.5499359965324402,3.90777325630188,3.263935159868721,2.98416903234966,12.988544416224972,10.90340535397686,-3.237724376958795e-05,0.0930307656526565,0,0,0
1068,36744.07882067208,2010-11-16 21:57:24,2071.043486409152,2,4,0.5501165986061096,3.9092302322387695,3.268522061869145,2.98416903234966,13.006472989703273,10.90340535397686,0.0,0.0930307656526565,0,0,0
1069,36774.09418093905,2010-11-16 21:57:54,2101.058846701189,2,4,0.5504778623580933,3.910687208175659,3.273109037928799,2.98416903234966,13.024407852225988,10.90340535397686,6.47544875391759e-05,0.0930307656526565,0,0,0
1070,36804.10967554636,2010-11-16 21:58:25,2131.0743412884467,2,4,0.550297200679779,3.911982297897339,3.277696077313888,2.98416903234966,13.042348981551212,10.90340535397686,6.47544875391759e-05,0.0930307656526565,0,0,0
1071,36834.12490537774,2010-11-16 21:58:55,2161.0895711148214,2,4,0.5501165986061096,3.9132773876190186,3.282283054672085,2.98416903234966,13.060295998870483,10.90340535397686,0.0,0.0930307656526565,0,0,0
1072,36864.14025236157,2010-11-16 21:59:25,2191.104918093626,2,4,0.5501165986061096,3.914572238922119,3.286870086482073,2.98416903234966,13.078249397465871,10.90340535397686,3.237724376958795e-05,0.0930307656526565,0,0,0
1073,36894.15559804714,2010-11-16 21:59:55,2221.1202637792026,2,4,0.5499359965324402,3.915867328643799,3.291457117097111,2.98416903234966,13.096208903275771,10.90340535397686,0.0,0.0930307656526565,0,0,0
1074,36924.170951978296,2010-11-16 22:00:25,2251.1356177103617,2,4,0.5501165986061096,3.917324304580689,3.296044085660693,2.98416903234966,13.114174434920889,10.90340535397686,6.47544875391759e-05,0.0930307656526565,0,0,0
1075,36954.18631218512,2010-11-16 22:00:55,2281.1509779171856,2,4,0.5501165986061096,3.918619394302368,3.30063110924071,2.98416903234966,13.132146485239712,10.90340535397686,0.0,0.0930307656526565,0,0,0
1076,36984.2017704467,2010-11-16 22:01:25,2311.16643619882,2,4,0.5501165986061096,3.920076370239258,3.305218099357422,2.98416903234966,13.150124831055196,10.90340535397686,0.0,0.0930307656526565,0,0,0
1077,37014.21704714006,2010-11-16 22:01:55,2341.181712872131,2,4,0.5501165986061096,3.921695232391357,3.309805041538088,2.98416903234966,13.16810931761033,10.90340535397686,6.47544875391759e-05,0.0930307656526565,0,0,0
1078,37044.232385357,2010-11-16 22:02:25,2371.1970510890646,2,4,0.5501165986061096,3.922990322113037,3.314392050272429,2.98416903234966,13.186100582599025,10.90340535397686,0.0,0.0930307656526565,0,0,0
1079,37074.247778952165,2010-11-16 22:02:55,2401.2124446792186,2,4,0.5501165986061096,3.924285411834717,3.318978999416061,2.98416903234966,13.20409808892806,10.90340535397686,0.0,0.0930307656526565,0,0,0
1080,37104.263627001725,2010-11-16 22:03:25,2431.228292803961,2,4,0.5501165986061096,3.9257423877716064,3.323566097804654,2.98416903234966,13.22210271944034,10.90340535397686,3.237724376958795e-05,0.0930307656526565,0,0,0
1081,37134.278481130284,2010-11-16 22:03:55,2461.2431468673726,2,4,0.5501165986061096,3.927199363708496,3.32815306589594,2.98416903234966,13.240113304857134,10.90340535397686,3.237724376958795e-05,0.0930307656526565,0,0,0
1082,37164.293814279576,2010-11-16 22:04:25,2491.258480011644,2,4,0.550297200679779,3.9286563396453857,3.332740057172705,2.98416903234966,13.25813064684735,10.90340535397686,6.47544875391759e-05,0.0930307656526565,0,0,0
1083,37194.309192325934,2010-11-16 22:04:55,2521.2738580579985,2,4,0.5501165986061096,3.9301133155822754,3.337327057438726,2.98416903234966,13.276154682709963,10.90340535397686,6.47544875391759e-05,0.0930307656526565,0,0,0
1084,37224.32454764055,2010-11-16 22:05:25,2551.289213372611,2,4,0.5501165986061096,3.931408405303955,3.34191405328716,2.98416903234966,13.294185473088993,10.90340535397686,0.0,0.0930307656526565,0,0,0
1085,37254.3398793362,2010-11-16 22:05:55,2581.304545068266,2,4,0.550297200679779,3.9331891536712646,3.346501007906038,2.98416903234966,13.312222887930997,10.90340535397686,6.47544875391759e-05,0.0930307656526565,0,0,0
1086,37284.3552554377,2010-11-16 22:06:25,2611.319921169766,2,4,0.5501165986061096,3.9346461296081534,3.351087987129367,2.98416903234966,13.33026723001516,10.90340535397686,3.237724376958795e-05,0.0930307656526565,0,0,0
1087,37314.370628847486,2010-11-16 22:06:55,2641.3352945795464,2,4,0.550297200679779,3.936103105545044,3.35567499584241,2.98416903234966,13.348318657022224,10.90340535397686,3.237724376958795e-05,0.0930307656526565,0,0,0
1088,37344.38597857314,2010-11-16 22:07:25,2671.350644310221,2,4,0.5501165986061096,3.9375600814819336,3.360261991550273,2.98416903234966,13.366376814149184,10.90340535397686,3.237724376958795e-05,0.0930307656526565,0,0,0
1089,37374.4013168803,2010-11-16 22:07:55,2701.365982622392,2,4,0.550297200679779,3.9390170574188232,3.364848960452828,2.98416903234966,13.384441924622744,10.90340535397686,3.237724376958795e-05,0.0930307656526565,0,0,0
1090,37404.416774951416,2010-11-16 22:08:25,2731.381440768688,2,4,0.5501165986061096,3.940635919570923,3.369435927397252,2.98416903234966,13.402514028349673,10.90340535397686,6.47544875391759e-05,0.0930307656526565,0,0,0
1091,37434.432034376674,2010-11-16 22:08:55,2761.396700108733,2,4,0.550297200679779,3.942092895507813,3.374022868701442,2.98416903234966,13.420593108496352,10.90340535397686,3.237724376958795e-05,0.0930307656526565,0,0,0
1092,37464.44752553036,2010-11-16 22:09:25,2791.412191257408,2,4,0.5501165986061096,3.943711757659912,3.378609797850877,2.98416903234966,13.438679262384795,10.90340535397686,3.237724376958795e-05,0.0930307656526565,0,0,0
1093,37494.46275592816,2010-11-16 22:09:55,2821.427421660221,2,4,0.5501165986061096,3.945330619812012,3.383196721530699,2.98416903234966,13.456772507912367,10.90340535397686,6.47544875391759e-05,0.0930307656526565,0,0,0
1094,37524.47810506736,2010-11-16 22:10:25,2851.4427708294934,2,4,0.5501165986061096,3.946787595748901,3.387783658823041,2.98416903234966,13.474873081023825,10.90340535397686,3.237724376958795e-05,0.0930307656526565,0,0,0
1095,37554.49347000599,2010-11-16 22:10:55,2881.4581357631164,2,4,0.5501165986061096,3.948568344116211,3.392370558482504,2.98416903234966,13.492980756545148,10.90340535397686,3.237724376958795e-05,0.0930307656526565,0,0,0
1096,37584.50884367141,2010-11-16 22:11:25,2911.473509393448,2,4,0.550297200679779,3.9500253200531006,3.396957583492244,2.98416903234966,13.511096356984387,10.90340535397686,0.0,0.0930307656526565,0,0,0
1097,37614.52421006869,2010-11-16 22:11:55,2941.488875825811,2,4,0.5501165986061096,3.95180606842041,3.401544495080361,2.98416903234966,13.529218951688309,10.90340535397686,3.237724376958795e-05,0.0930307656526565,0,0,0
1098,37644.53955861641,2010-11-16 22:12:25,2971.504224348469,2,4,0.5501165986061096,3.9534249305725098,3.406131385829725,2.98416903234966,13.547348924854706,10.90340535397686,6.47544875391759e-05,0.0930307656526565,0,0,0
1099,37674.55493826176,2010-11-16 22:12:55,3001.51960400384,2,4,0.5501165986061096,3.95504379272461,3.410718348387056,2.98416903234966,13.565486853515353,10.90340535397686,3.237724376958795e-05,0.0930307656526565,0,0,0
1100,37704.57024075953,2010-11-16 22:13:25,3031.534906501613,2,4,0.5499359965324402,3.956662654876709,3.415304473330681,2.98416903234966,13.583629024134648,10.90340535397686,3.237724376958795e-05,0.0930307656526565,0,0,0
1101,37734.58551688647,2010-11-16 22:13:55,3061.550182618536,2,4,0.5501165986061096,3.9582815170288086,3.419890605353149,2.98416903234966,13.601778801875916,10.90340535397686,3.237724376958795e-05,0.0930307656526565,0,0,0
1102,37764.6009631481,2010-11-16 22:14:25,3091.5656288801665,2,4,0.5501165986061096,3.960224151611328,3.424476830472342,2.98416903234966,13.619936804785157,10.90340535397686,9.713172767078504e-05,0.0930307656526565,0,0,0
1103,37794.616470011,2010-11-16 22:14:55,3121.5811357781536,2,4,0.5499359965324402,3.961843013763428,3.429062969476037,2.98416903234966,13.638102346719426,10.90340535397686,3.237724376958795e-05,0.0930307656526565,0,0,0
1104,37824.63187032795,2010-11-16 22:15:25,3151.596536065024,2,4,0.5501165986061096,3.9634618759155273,3.433649067255659,2.98416903234966,13.6562755723734,10.90340535397686,3.237724376958795e-05,0.0930307656526565,0,0,0
1105,37854.64705271591,2010-11-16 22:15:55,3181.611718478048,2,4,0.550297200679779,3.965404510498047,3.438235152223846,2.98416903234966,13.674456822432283,10.90340535397686,6.47544875391759e-05,0.0930307656526565,0,0,0
1106,37884.66268233523,2010-11-16 22:16:25,3211.627348072303,2,4,0.5501165986061096,3.967185258865357,3.442822152792357,2.98416903234966,13.692650035460003,10.90340535397686,3.237724376958795e-05,0.0930307656526565,0,0,0
1107,37914.67766457358,2010-11-16 22:16:55,3241.642330300635,2,4,0.550297200679779,3.968966007232666,3.447409191081384,2.98416903234966,13.7108515666484,10.90340535397686,3.237724376958795e-05,0.0930307656526565,0,0,0
1108,37944.69332986696,2010-11-16 22:17:25,3271.6579955889893,2,4,0.5501165986061096,3.970746755599976,3.451996267670762,2.98416903234966,13.729061555934225,10.90340535397686,3.237724376958795e-05,0.0930307656526565,0,0,0
1109,37974.708589001486,2010-11-16 22:17:55,3301.6732547285337,2,4,0.5501165986061096,3.972527503967285,3.456583267110134,2.98416903234966,13.74727963625594,10.90340535397686,0.0,0.0930307656526565,0,0,0
1110,38004.72383307342,2010-11-16 22:18:25,3331.6884988305424,2,4,0.5501165986061096,3.9744701385498047,3.461170353956527,2.98416903234966,13.765506591842827,10.90340535397686,6.47544875391759e-05,0.0930307656526565,0,0,0
1111,38034.7391952251,2010-11-16 22:18:55,3361.7038609471333,2,4,0.550297200679779,3.976574659347534,3.465757403749093,2.98416903234966,13.783742066244312,10.90340535397686,9.713172767078504e-05,0.0930307656526565,0,0,0
1112,38064.75734915047,2010-11-16 22:19:25,3391.7220148825336,2,4,0.5501165986061096,3.978031635284424,3.47034500934787,2.98416903234966,13.801988238621904,10.90340535397686,3.237724376958795e-05,0.0930307656526565,0,0,0
1113,38094.76992455099,2010-11-16 22:19:55,3421.7345902780403,2,4,0.5501165986061096,3.980136156082153,3.474931685138963,2.98416903234966,13.820239757769825,10.90340535397686,6.47544875391759e-05,0.0930307656526565,0,0,0
1114,38124.78526717894,2010-11-16 22:20:25,3451.749932900972,2,4,0.550297200679779,3.982240676879883,3.479518738586828,2.98416903234966,13.838501853935057,10.90340535397686,6.47544875391759e-05,0.0930307656526565,0,0,0
1115,38154.80062040834,2010-11-16 22:20:55,3481.765286135392,2,4,0.550297200679779,3.984345197677612,3.484105793591114,2.98416903234966,13.856773050501738,10.90340535397686,6.47544875391759e-05,0.0930307656526565,0,0,0
1116,38184.81601145715,2010-11-16 22:21:25,3511.7806771892147,2,4,0.5501165986061096,3.986125946044922,3.488692807803199,2.98416903234966,13.875053237659102,10.90340535397686,3.237724376958795e-05,0.0930307656526565,0,0,0
1117,38214.83147847559,2010-11-16 22:21:55,3541.7961442076567,2,4,0.550297200679779,3.9882304668426514,3.493279860738426,2.98416903234966,13.89334301800135,10.90340535397686,3.237724376958795e-05,0.0930307656526565,0,0,0
1118,38244.846718327,2010-11-16 22:22:25,3571.811384074093,2,4,0.5504778623580933,3.990658760070801,3.49786685612551,2.98416903234966,13.911641988032978,10.90340535397686,9.713172767078504e-05,0.0930307656526565,0,0,0
1119,38274.8620667494,2010-11-16 22:22:55,3601.8267324814638,2,4,0.550297200679779,3.99260139465332,3.502453847297574,2.98416903234966,13.929950610293975,10.90340535397686,9.713172767078504e-05,0.0930307656526565,0,0,0
1120,38304.87767432871,2010-11-16 22:23:25,3631.8423400858296,2,4,0.5501165986061096,3.9945437908172607,3.507040941482984,2.98416903234966,13.948269366388804,10.90340535397686,3.237724376958795e-05,0.0930307656526565,0,0,0
1121,38334.8927886267,2010-11-16 22:23:55,3661.8574543587647,2,4,0.5499359965324402,3.9966483116149902,3.511627979125556,2.98416903234966,13.966597706890807,10.90340535397686,3.237724376958795e-05,0.0930307656526565,0,0,0
1122,38364.90828331922,2010-11-16 22:24:25,3691.8729490412607,2,4,0.550297200679779,3.9989147186279297,3.516215047230574,2.98416903234966,13.984936011518712,10.90340535397686,9.713172767078504e-05,0.0930307656526565,0,0,0
1123,38394.92363388699,2010-11-16 22:24:55,3721.888299609024,2,4,0.5501165986061096,4.001181125640869,3.520802050957538,2.98416903234966,14.003284084542852,10.90340535397686,9.70840483205393e-05,0.0930307656526565,0,0,0
1124,38424.93889858541,2010-11-16 22:25:25,3751.9035643124566,2,4,0.5501165986061096,4.003285884857178,3.525389060903977,2.98416903234966,14.021642237295014,10.90340535397686,6.47544875391759e-05,0.0930307656526565,0,0,0
1125,38454.9542601005,2010-11-16 22:25:55,3781.918925852609,2,4,0.5501165986061096,4.005390167236328,3.529976035293871,2.98416903234966,14.040010383567491,10.90340535397686,0.0,0.0930307656526565,0,0,0
1126,38484.969592638256,2010-11-16 22:26:25,3811.934258370317,2,4,0.550297200679779,4.007818698883057,3.534563072683711,2.98416903234966,14.058389038409535,10.90340535397686,9.71794142969884e-05,0.0930307656526565,0,0,0
1127,38514.98509667911,2010-11-16 22:26:55,3841.949762411172,2,4,0.5501165986061096,4.010085105895996,3.539150149918702,2.98416903234966,14.076778196892676,10.90340535397686,6.47544875391759e-05,0.0930307656526565,0,0,0
1128,38545.000481707895,2010-11-16 22:27:25,3871.965147434943,2,4,0.550297200679779,4.0121893882751465,3.543737165075322,2.98416903234966,14.095177539961885,10.90340535397686,3.23295607813634e-05,0.0930307656526565,0,0,0
1129,38575.01568659201,2010-11-16 22:27:55,3901.980352329083,2,4,0.5501165986061096,4.014617919921875,3.548324167823795,2.98416903234966,14.11358746664678,10.90340535397686,6.47544875391759e-05,0.0930307656526565,0,0,0
1130,38605.031171455,2010-11-16 22:28:25,3931.995837187056,2,4,0.5501165986061096,4.017045974731445,3.552911322953031,2.98416903234966,14.132008768640306,10.90340535397686,9.70840483205393e-05,0.0930307656526565,0,0,0
1131,38635.046540594114,2010-11-16 22:28:55,3962.011206326176,2,4,0.5499359965324402,4.019312381744385,3.557498426882054,2.98416903234966,14.150440607205493,10.90340535397686,6.47544875391759e-05,0.0930307656526565,0,0,0
1132,38665.06179162341,2010-11-16 22:29:25,3992.026457355476,2,4,0.550297200679779,4.021902561187744,3.562086032871591,2.98416903234966,14.168885246988506,10.90340535397686,9.70840483205393e-05,0.0930307656526565,0,0,0
1133,38695.07712860726,2010-11-16 22:29:55,4022.041794339332,2,4,0.550297200679779,4.024168968200684,3.566673752751557,2.98416903234966,14.187341373665369,10.90340535397686,9.70840483205393e-05,0.0930307656526565,0,0,0
1134,38725.09249595692,2010-11-16 22:30:26,4052.0571616889856,2,4,0.550297200679779,4.026597499847412,3.57126146232022,2.98416903234966,14.205808452854344,10.90340535397686,6.47544875391759e-05,0.0930307656526565,0,0,0
1135,38755.10785652966,2010-11-16 22:30:56,4082.0725222617225,2,4,0.550297200679779,4.029025554656982,3.575849162245112,2.98416903234966,14.22428670424932,10.90340535397686,6.47544875391759e-05,0.0930307656526565,0,0,0
1136,38785.12325249074,2010-11-16 22:31:26,4112.087918217782,2,4,0.5501165986061096,4.031454086303711,3.580436284559965,2.98416903234966,14.242773894903106,10.90340535397686,6.47544875391759e-05,0.0930307656526565,0,0,0
1137,38815.13859119889,2010-11-16 22:31:56,4142.103256930955,2,4,0.5499359965324402,4.033882141113281,3.585023293831996,2.98416903234966,14.261272076562054,10.90340535397686,6.47544875391759e-05,0.0930307656526565,0,0,0
1138,38845.15395538064,2010-11-16 22:32:26,4172.118621107688,2,4,0.5501165986061096,4.036472320556641,3.589610313557074,2.98416903234966,14.279781871992476,10.90340535397686,6.47544875391759e-05,0.0930307656526565,0,0,0
1139,38875.1693279834,2010-11-16 22:32:56,4202.133993735516,2,4,0.5501165986061096,4.0390625,3.594197271649628,2.98416903234966,14.298303043020574,10.90340535397686,6.47544875391759e-05,0.0930307656526565,0,0,0
1140,38905.18469645085,2010-11-16 22:33:26,4232.149362197948,2,4,0.550297200679779,4.041652679443359,3.598784241354097,2.98416903234966,14.316835927941232,10.90340535397686,9.71794142969884e-05,0.0930307656526565,0,0,0
1141,38935.20003819158,2010-11-16 22:33:56,4262.164703918627,2,4,0.5501165986061096,4.044242858886719,3.603371196570254,2.98416903234966,14.335380667151018,10.90340535397686,6.47544875391759e-05,0.0930307656526565,0,0,0
1142,38965.215444709,2010-11-16 22:34:26,4292.180110466125,2,4,0.5501165986061096,4.046833038330078,3.607958145591171,2.98416903234966,14.353937288680028,10.90340535397686,3.24249267578125e-05,0.0930307656526565,0,0,0
1143,38995.23079318654,2010-11-16 22:34:56,4322.195458943671,2,4,0.5501165986061096,4.0494232177734375,3.612545105164272,2.98416903234966,14.372506011041477,10.90340535397686,6.47544875391759e-05,0.0930307656526565,0,0,0
1144,39025.246360189565,2010-11-16 22:35:26,4352.211025916615,2,4,0.5501165986061096,4.052175045013428,3.617132171616083,2.98416903234966,14.39108727688388,10.90340535397686,9.70840483205393e-05,0.0930307656526565,0,0,0
1145,39055.26150860272,2010-11-16 22:35:56,4382.226174359844,2,4,0.5501165986061096,4.054927349090576,3.621719086641102,2.98416903234966,14.409680091237645,10.90340535397686,9.71794142969884e-05,0.0930307656526565,0,0,0
1146,39085.276880208,2010-11-16 22:36:26,4412.24154594507,2,4,0.550297200679779,4.057517528533936,3.626306091909718,2.98416903234966,14.42828561502584,10.90340535397686,3.24249267578125e-05,0.0930307656526565,0,0,0
1147,39115.29222332216,2010-11-16 22:36:56,4442.256889079278,2,4,0.5501165986061096,4.060107707977295,3.630893142152895,2.98416903234966,14.446903763377172,10.90340535397686,3.24249267578125e-05,0.0930307656526565,0,0,0
1148,39145.30760234595,2010-11-16 22:37:26,4472.272268067984,2,4,0.5501165986061096,4.062859535217285,3.635480171151693,2.98416903234966,14.465533878675412,10.90340535397686,6.47544875391759e-05,0.0930307656526565,0,0,0
1149,39175.32307421148,2010-11-16 22:37:56,4502.287739963602,2,4,0.550297200679779,4.0657734870910645,3.640067147766926,2.98416903234966,14.484176401094738,10.90340535397686,9.70840483205393e-05,0.0930307656526565,0,0,0
1150,39205.33831978216,2010-11-16 22:38:26,4532.302985514226,2,4,0.5501165986061096,4.068363666534424,3.644654054562314,2.98416903234966,14.502831312689818,10.90340535397686,6.47544875391759e-05,0.0930307656526565,0,0,0
1151,39235.35381959246,2010-11-16 22:38:56,4562.318485359609,2,4,0.550297200679779,4.071115970611572,3.649241072593163,2.98416903234966,14.52149956903698,10.90340535397686,6.47544875391759e-05,0.0930307656526565,0,0,0
1152,39265.36907940869,2010-11-16 22:39:26,4592.33374513073,2,4,0.550297200679779,4.074191570281982,3.653828026470074,2.98416903234966,14.540180453724789,10.90340535397686,0.0001295089750783,0.0930307656526565,0,0,0
1153,39295.38451846233,2010-11-16 22:39:56,4622.349184304669,2,4,0.550297200679779,4.076943874359131,3.658414961055776,2.98416903234966,14.558874328893362,10.90340535397686,9.71794142969884e-05,0.0930307656526565,0,0,0
1154,39325.39989959639,2010-11-16 22:40:26,4652.364565353518,2,4,0.550297200679779,4.079695701599121,3.663001953036381,2.98416903234966,14.577581655369908,10.90340535397686,6.47544875391759e-05,0.0930307656526565,0,0,0
1155,39355.4151405355,2010-11-16 22:40:56,4682.3798062876185,2,4,0.5501165986061096,4.0826096534729,3.66758889412445,2.98416903234966,14.59630198414846,10.90340535397686,3.23295607813634e-05,0.0930307656526565,0,0,0
1156,39385.43052079739,2010-11-16 22:41:26,4712.395186554515,2,4,0.550297200679779,4.085685729980469,3.672175733661071,2.98416903234966,14.615035270508836,10.90340535397686,9.71794142969884e-05,0.0930307656526565,0,0,0
1157,39415.44600597616,2010-11-16 22:41:56,4742.410671723264,2,4,0.5501165986061096,4.088599681854248,3.676762707227428,2.98416903234966,14.633782589604046,10.90340535397686,6.47544875391759e-05,0.0930307656526565,0,0,0
1158,39445.46123552184,2010-11-16 22:42:26,4772.425901248887,2,4,0.5501165986061096,4.091675281524658,3.681349644376672,2.98416903234966,14.652543291847891,10.90340535397686,9.70840483205393e-05,0.0930307656526565,0,0,0
1159,39475.47660843036,2010-11-16 22:42:56,4802.441274182479,2,4,0.5499359965324402,4.094265460968018,3.685936635908016,2.98416903234966,14.671317863717762,10.90340535397686,0.0,0.0930307656526565,0,0,0
1160,39505.49213520296,2010-11-16 22:43:26,4832.456800965101,2,4,0.550297200679779,4.097665309906006,3.690523640747642,2.98416903234966,14.690106501123475,10.90340535397686,0.0001619339018361,0.0930307656526565,0,0,0
1161,39535.50733325001,2010-11-16 22:43:56,4862.471999002124,2,4,0.550297200679779,4.100579261779785,3.695110595771331,2.98416903234966,14.708908868347752,10.90340535397686,6.47544875391759e-05,0.0930307656526565,0,0,0
1162,39565.522695867854,2010-11-16 22:44:26,4892.487361589891,2,4,0.5501165986061096,4.103654861450195,3.699697590472616,2.98416903234966,14.727725332182652,10.90340535397686,6.47544875391759e-05,0.0930307656526565,0,0,0
1163,39595.53820084104,2010-11-16 22:44:56,4922.5028665931495,2,4,0.5501165986061096,4.1068925857543945,3.70428459472117,2.98416903234966,14.746556009175096,10.90340535397686,9.70840483205393e-05,0.0930307656526565,0,0,0
1164,39625.553442687415,2010-11-16 22:45:26,4952.518108409453,2,4,0.5499359965324402,4.109806537628174,3.708871520360868,2.98416903234966,14.765400495137207,10.90340535397686,6.47544875391759e-05,0.0930307656526565,0,0,0
1165,39655.56879446319,2010-11-16 22:45:56,4982.533460215307,2,4,0.5499359965324402,4.112882614135742,3.71345848794522,2.98416903234966,14.784259480717468,10.90340535397686,6.47544875391759e-05,0.0930307656526565,0,0,0
1166,39685.58417548197,2010-11-16 22:46:26,5012.548841209018,2,4,0.5499359965324402,4.116119861602783,3.718045430497591,2.98416903234966,14.803132777942974,10.90340535397686,6.47544875391759e-05,0.0930307656526565,0,0,0
1167,39715.5995493529,2010-11-16 22:46:56,5042.5642150799495,2,4,0.550297200679779,4.119519710540772,3.722632379165807,2.98416903234966,14.822020760797953,10.90340535397686,9.71794142969884e-05,0.0930307656526565,0,0,0
1168,39745.61489814623,2010-11-16 22:47:26,5072.579563878296,2,4,0.5499359965324402,4.122433662414551,3.727219309623373,2.98416903234966,14.84092343556199,10.90340535397686,6.47544875391759e-05,0.0930307656526565,0,0,0
1169,39775.63024822277,2010-11-16 22:47:56,5102.594913954834,2,4,0.5501165986061096,4.12599515914917,3.731806356242828,2.98416903234966,14.859841403513974,10.90340535397686,0.0001295089750783,0.0930307656526565,0,0,0
1170,39805.64591621788,2010-11-16 22:48:26,5132.610581954957,2,4,0.5501165986061096,4.129232883453369,3.736393388787292,2.98416903234966,14.878774434320912,10.90340535397686,0.0001295089750783,0.0930307656526565,0,0,0
1171,39835.660990541095,2010-11-16 22:48:56,5162.6256562932085,2,4,0.5501165986061096,4.132470607757568,3.740980379175002,2.98416903234966,14.897722388838822,10.90340535397686,9.71794142969884e-05,0.0930307656526565,0,0,0
1172,39865.67636387067,2010-11-16 22:49:26,5192.641029627802,2,4,0.5501165986061096,4.135869979858398,3.745567432910027,2.98416903234966,14.916685755371146,10.90340535397686,9.70840483205393e-05,0.0930307656526565,0,0,0
1173,39895.691714378285,2010-11-16 22:49:56,5222.656380135415,2,4,0.5499359965324402,4.138946056365967,3.750154441970963,2.98416903234966,14.935664242305435,10.90340535397686,6.47544875391759e-05,0.0930307656526565,0,0,0
1174,39925.7070994973,2010-11-16 22:50:26,5252.671765254424,2,4,0.5501165986061096,4.142669200897217,3.754741421411667,2.98416903234966,14.954658064185772,10.90340535397686,0.0001295089750783,0.0930307656526565,0,0,0
1175,39955.72245886202,2010-11-16 22:50:56,5282.687124614133,2,4,0.550297200679779,4.146069049835205,3.759328446682603,2.98416903234966,14.973667680966525,10.90340535397686,0.0001295089750783,0.0930307656526565,0,0,0
1176,39985.74083888678,2010-11-16 22:51:26,5312.705504729112,2,4,0.5501165986061096,4.149468421936035,3.763915941453841,2.98416903234966,14.99269515756688,10.90340535397686,9.70840483205393e-05,0.0930307656526565,0,0,0
1177,40015.75324734558,2010-11-16 22:51:56,5342.717913157844,2,4,0.5499359965324402,4.152706146240234,3.768502480820763,2.98416903234966,15.01173436965268,10.90340535397686,9.70840483205393e-05,0.0930307656526565,0,0,0
1178,40045.76857318662,2010-11-16 22:52:26,5372.733238938736,2,4,0.5499359965324402,4.1562676429748535,3.773089435660399,2.98416903234966,15.030791092544764,10.90340535397686,9.70840483205393e-05,0.0930307656526565,0,0,0
1179,40075.78412432003,2010-11-16 22:52:56,5402.748790162367,2,4,0.5501165986061096,4.159829139709473,3.777676501206237,2.98416903234966,15.04986440790702,10.90340535397686,9.70840483205393e-05,0.0930307656526565,0,0,0
1180,40105.79930538469,2010-11-16 22:53:26,5432.763971126775,2,4,0.5504778623580933,4.163552761077881,3.782263489505736,2.98416903234966,15.068953595807104,10.90340535397686,0.0001619339018361,0.0930307656526565,0,0,0
1181,40135.81468729067,2010-11-16 22:53:56,5462.779353042788,2,4,0.5501165986061096,4.16679048538208,3.786850468712157,2.98416903234966,15.088058957755925,10.90340535397686,6.47544875391759e-05,0.0930307656526565,0,0,0
1182,40165.83001733722,2010-11-16 22:54:26,5492.794683094339,2,4,0.5501165986061096,4.17051362991333,3.791437495283532,2.98416903234966,15.107180897789068,10.90340535397686,0.0001295089750783,0.0930307656526565,0,0,0
1183,40195.8454920248,2010-11-16 22:54:56,5522.810157776913,2,4,0.5501165986061096,4.174075126647949,3.796024514015008,2.98416903234966,15.126319130001615,10.90340535397686,9.70840483205393e-05,0.0930307656526565,0,0,0
1184,40225.860769364765,2010-11-16 22:55:26,5552.8254351219,2,4,0.5501165986061096,4.177636623382568,3.800611483980399,2.98416903234966,15.145473678926631,10.90340535397686,9.70840483205393e-05,0.0930307656526565,0,0,0
1185,40255.87615036851,2010-11-16 22:55:56,5582.840816125637,2,4,0.5499359965324402,4.181360244750977,3.805198473238961,2.98416903234966,15.16464494636465,10.90340535397686,0.0001295089750783,0.0930307656526565,0,0,0
1186,40285.891506921216,2010-11-16 22:56:26,5612.856172678339,2,4,0.5499359965324402,4.184921741485596,3.809785423856409,2.98416903234966,15.183832801081238,10.90340535397686,9.71794142969884e-05,0.0930307656526565,0,0,0
1187,40315.90699640573,2010-11-16 22:56:56,5642.871662137798,2,4,0.5501165986061096,4.188807010650635,3.814372369466518,2.98416903234966,15.20303728674795,10.90340535397686,0.0001295089750783,0.0930307656526565,0,0,0
1188,40345.92226325452,2010-11-16 22:57:26,5672.886929011648,2,4,0.5501165986061096,4.192368507385254,3.818959281869224,2.98416903234966,15.222258630911671,10.90340535397686,0.0001295089750783,0.0930307656526565,0,0,0
1189,40375.93761309547,2010-11-16 22:57:56,5702.902278852598,2,4,0.550297200679779,4.196091651916504,3.823546238643715,2.98416903234966,15.241497240069648,10.90340535397686,0.0001295089750783,0.0930307656526565,0,0,0
1190,40405.95298097646,2010-11-16 22:58:26,5732.917646708514,2,4,0.5501165986061096,4.199814796447754,3.828133187765579,2.98416903234966,15.260752927829396,10.90340535397686,6.47544875391759e-05,0.0930307656526565,0,0,0
1191,40406.98422370696,2010-11-16 22:58:27,5733.948889459072,2,4,0.550297200679779,4.200138568878174,3.828290790659263,2.98416903234966,15.261414845512611,10.90340535397686,0.0001295089750783,0.0930307656526565,0,0,0
1192,40437.00062206661,2010-11-16 22:58:58,30.015370547636216,3,4,0.0,4.119681358337402,3.828290790659263,2.98416903234966,15.261414845512611,10.90340535397686,-0.0003561973571777,0.0930307656526565,0,0,0
1193,40467.01600427334,2010-11-16 22:59:28,60.030752779437904,3,4,0.0,4.110130310058594,3.828290790659263,2.98416903234966,15.261414845512611,10.90340535397686,-0.0002266883820993,0.0930307656526565,0,0,0
1194,40497.03136182354,2010-11-16 22:59:58,90.04611030456793,3,4,0.0,4.104788303375244,3.828290790659263,2.98416903234966,15.261414845512611,10.90340535397686,-9.70840483205393e-05,0.0930307656526565,0,0,0
1195,40526.99985019104,2010-11-16 23:00:28,120.01459869713246,3,4,0.0,4.101226806640625,3.828290790659263,2.98416903234966,15.261414845512611,10.90340535397686,-9.70840483205393e-05,0.0930307656526565,0,0,0
1196,40527.00191644296,2010-11-16 23:00:28,2.681693921e-06,4,4,0.967143416404724,4.199814796447754,3.828290791379703,2.98416903234966,15.261414848538324,10.90340535397686,0.0,0.0930307656526565,0,0,0
1197,40528.06436237144,2010-11-16 23:00:29,1.062448635247213,4,4,0.916934072971344,4.199653148651123,3.828567312876288,2.98416903234966,15.262576157813797,10.90340535397686,-3.23295607813634e-05,0.0930307656526565,0,0,0
1198,40530.39250108384,2010-11-16 23:00:31,3.39058733762353,4,4,0.8667246699333191,4.199814796447754,3.82914291657367,2.98416903234966,15.264993529020566,10.90340535397686,0.0,0.0930307656526565,0,0,0
1199,40533.89245559877,2010-11-16 23:00:35,6.890541857559833,4,4,0.8166959285736084,4.199653148651123,3.829959989367036,2.98416903234966,15.26842500550324,10.90340535397686,3.24249267578125e-05,0.0930307656526565,0,0,0
1200,40538.62678339431,2010-11-16 23:00:39,11.624869653095612,4,4,0.7663059234619141,4.199653148651123,3.830999881932327,2.98416903234966,15.272792263588888,10.90340535397686,0.0,0.0930307656526565,0,0,0
1201,40544.95485667877,2010-11-16 23:00:46,17.95294291250082,4,4,0.7162771224975586,4.199814796447754,3.832301684856589,2.98416903234966,15.27825948578078,10.90340535397686,3.23295607813634e-05,0.0930307656526565,0,0,0
1202,40553.22041110424,2010-11-16 23:00:54,26.218497337970547,4,4,0.6662483811378479,4.199814796447754,3.833886155835135,2.98416903234966,15.284913840960796,10.90340535397686,3.23295607813634e-05,0.0930307656526565,0,0,0
1203,40564.3768337716,2010-11-16 23:01:05,37.37492001033349,4,4,0.6162195801734924,4.199814796447754,3.835869393192354,2.98416903234966,15.293242938665438,10.90340535397686,0.0,0.0930307656526565,0,0,0
1204,40580.42328876694,2010-11-16 23:01:21,53.42137502072481,4,4,0.5661908388137817,4.199653148651123,3.838498144060538,2.98416903234966,15.304283027262564,10.90340535397686,0.0,0.0930307656526565,0,0,0
1205,40606.251194292665,2010-11-16 23:01:47,79.24928055145344,4,4,0.516162097454071,4.199653148651123,3.84236660985956,2.98416903234966,15.320529592789264,10.90340535397686,0.0,0.0930307656526565,0,0,0
1206,40651.01643945655,2010-11-16 23:02:32,124.01452570531828,4,4,0.4661332964897156,4.199653148651123,3.84844872408952,2.98416903234966,15.34607285773482,10.90340535397686,-3.23295607813634e-05,0.0930307656526565,0,0,0
1207,40727.65642184837,2010-11-16 23:03:48,200.65450810715976,4,4,0.4161045253276825,4.199814796447754,3.857811605622336,2.98416903234966,15.385394588526967,10.90340535397686,-3.24249267578125e-05,0.0930307656526565,0,0,0
1208,40830.62429066013,2010-11-16 23:05:31,303.62237691391203,4,4,0.3660757541656494,4.199653148651123,3.868979362047622,2.98416903234966,15.4322963440746,10.90340535397686,-3.23295607813634e-05,0.0930307656526565,0,0,0
1209,40956.654483039565,2010-11-16 23:07:37,429.652569298364,4,4,0.3160469830036163,4.199653148651123,3.880901776146909,2.98416903234966,15.48236745736572,10.90340535397686,-3.23295607813634e-05,0.0930307656526565,0,0,0
1210,41106.35645832095,2010-11-16 23:10:07,579.3545445596893,4,4,0.2660182118415832,4.199653148651123,3.892983564072087,2.98416903234966,15.53310791003732,10.90340535397686,-3.23295607813634e-05,0.0930307656526565,0,0,0
1211,41290.089142557365,2010-11-16 23:13:11,763.0872288161604,4,4,0.2159894555807113,4.199491024017334,3.905250848351815,2.98416903234966,15.584627413266665,10.90340535397686,-3.24249267578125e-05,0.0930307656526565,0,0,0
1212,41525.07152573692,2010-11-16 23:17:06,998.0696119957124,4,4,0.1659606844186782,4.199653148651123,3.91765589396874,2.98416903234966,15.63672544284426,10.90340535397686,-3.23295607813634e-05,0.0930307656526565,0,0,0
1213,41852.94374264721,2010-11-16 23:22:34,1325.941828906,4,4,0.1155706942081451,4.199814796447754,3.930366036595085,2.98416903234966,15.690104822041242,10.90340535397686,3.23295607813634e-05,0.0930307656526565,0,0,0
1214,42405.14221937874,2010-11-16 23:31:46,1878.1403056124711,4,4,0.065361313521862,4.199814796447754,3.943918497883595,2.98416903234966,15.747021727074902,10.90340535397686,-3.24249267578125e-05,0.0930307656526565,0,0,0
1215,42687.280421682575,2010-11-16 23:36:28,2160.2785079162986,4,4,0.0498289167881011,4.199814796447754,3.948442467871318,2.98416903234966,15.7660212561351,10.90340535397686,3.23295607813634e-05,0.0930307656526565,0,0,0
1216,42717.29697827145,2010-11-16 23:36:58,30.01569361405971,5,4,0.0,4.192368507385254,3.948442467871318,2.98416903234966,15.7660212561351,10.90340535397686,-3.23295607813634e-05,0.0930307656526565,0,0,0
1217,42747.296732733936,2010-11-16 23:37:28,60.01544800636975,5,4,0.0,4.191235065460205,3.948442467871318,2.98416903234966,15.7660212561351,10.90340535397686,-3.24249267578125e-05,0.0930307656526565,0,0,0
1218,42747.48526209242,2010-11-16 23:37:28,0.187603286665561,6,4,-1.9243103452026844e-05,4.191397190093994,3.948442467871318,2.984169033352457,15.7660212561351,10.90340535817998,0.0,0.0884964689612388,0,0,0
1219,42752.31319091552,2010-11-16 23:37:33,5.015532109766301,6,4,0.0008838032954372,4.191235065460205,3.948443302323012,2.984169033435454,15.766024753617044,10.903405358527854,-3.24249267578125e-05,0.0884964689612388,0,0,0
1220,42782.33010852235,2010-11-16 23:38:03,30.01549727897714,7,4,-1.0997490882873535,4.027082920074463,3.948443302323012,2.993338773063534,15.766024753617044,10.940509575199052,-0.000809478748124,0.0884964689612388,0,0,0
1221,42812.34534084495,2010-11-16 23:38:33,60.03072957651985,7,4,-1.0997490882873535,4.003447532653809,3.948443302323012,3.002508413407765,15.766024753617044,10.977319435631385,-0.0005504608270712,0.0884964689612388,0,0,0
1222,42842.36070141268,2010-11-16 23:39:03,90.04609012419462,7,4,-1.0997490882873535,3.9874210357666016,3.948443302323012,3.011678073288048,15.766024753617044,11.01395319370317,-0.0003885269106831,0.0884964689612388,0,0,0
1223,42872.376067819976,2010-11-16 23:39:33,120.06145655154596,7,4,-1.099929690361023,3.9747939109802246,3.948443302323012,3.020847651664071,15.766024753617044,11.05045710648372,-0.0003237724304199,0.0884964689612388,0,0,0
1224,42902.39145461317,2010-11-16 23:40:03,150.07684336478363,7,4,-1.1001102924346924,3.963947534561157,3.948443302323012,3.030017223482782,15.766024753617044,11.086854903695302,-0.0003237724304199,0.0884964689612388,0,0,0
1225,42932.40682022348,2010-11-16 23:40:33,180.09220895504546,7,4,-1.099929690361023,3.9540724754333496,3.948443302323012,3.039186761597468,15.766024753617044,11.123157835680272,-0.0002913951757363,0.0884964689612388,0,0,0
1226,42962.42219643024,2010-11-16 23:41:03,210.10758516180772,7,4,-1.099929690361023,3.944683074951172,3.948443302323012,3.048356339713019,15.766024753617044,11.159372467990108,-0.0002590179501567,0.0884964689612388,0,0,0
1227,42992.43758964445,2010-11-16 23:41:33,240.12297839607328,7,4,-1.0997490882873535,3.935617446899414,3.948443302323012,3.057525883089715,15.766024753617044,11.195502664877276,-0.0002913951757363,0.0884964689612388,0,0,0
1228,43022.45306672802,2010-11-16 23:42:03,270.13845545958947,7,4,-1.099929690361023,3.927037477493286,3.948443302323012,3.066695493816528,15.766024753617044,11.23155141204956,-0.0002266406954731,0.0884964689612388,0,0,0
1229,43052.46832553173,2010-11-16 23:42:33,300.1537142632957,7,4,-1.099929690361023,3.918619394302368,3.948443302323012,3.075865008565195,15.766024753617044,11.26752151552378,-0.0002266406954731,0.0884964689612388,0,0,0
1230,43082.483674294985,2010-11-16 23:43:03,330.16906302655474,7,4,-1.0997490882873535,3.910201549530029,3.948443302323012,3.085034588862533,15.766024753617044,11.303414949596045,-0.0002266406954731,0.0884964689612388,0,0,0
1231,43112.49910302787,2010-11-16 23:43:34,360.184491854668,7,4,-1.099929690361023,3.901945352554321,3.948443302323012,3.094204238998884,15.766024753617044,11.339232769250469,-0.0002266406954731,0.0884964689612388,0,0,0
1232,43142.51442003686,2010-11-16 23:44:04,390.1998087684258,7,4,-1.0997490882873535,3.894174814224243,3.948443302323012,3.10337379139176,15.766024753617044,11.374975267194149,-0.0001618862152099,0.0884964689612388,0,0,0
1233,43172.52980700047,2010-11-16 23:44:34,420.2151957320388,7,4,-1.0997490882873535,3.885918617248535,3.948443302323012,3.112543387532552,15.766024753617044,11.4106450518288,-0.0002266406954731,0.0884964689612388,0,0,0
1234,43202.54519013452,2010-11-16 23:45:04,450.2305788861427,7,4,-1.0997490882873535,3.877824306488037,3.948443302323012,3.121712993519535,15.766024753617044,11.446240566860354,-0.0002266406954731,0.0884964689612388,0,0,0
1235,43232.56055838142,2010-11-16 23:45:34,480.2459471129859,7,4,-1.099568486213684,3.870215654373169,3.948443302323012,3.1308826194122,15.766024753617044,11.48176336758211,-0.0001618862152099,0.0884964689612388,0,0,0
1236,43262.57603552012,2010-11-16 23:46:04,510.2614242516897,7,4,-1.099929690361023,3.862445116043091,3.948443302323012,3.14005219473373,15.766024753617044,11.517215129754351,-0.0001942634553415,0.0884964689612388,0,0,0
1237,43292.59135722083,2010-11-16 23:46:34,540.2767460626718,7,4,-1.099568486213684,3.8549983501434326,3.948443302323012,3.149221808767333,15.766024753617044,11.55259697337314,-0.0001942634553415,0.0884964689612388,0,0,0
1238,43322.60663047059,2010-11-16 23:47:04,570.2920191971498,7,4,-1.099568486213684,3.8475515842437744,3.948443302323012,3.158391289973044,15.766024753617044,11.587909492166306,-0.0001618862152099,0.0884964689612388,0,0,0
1239,43352.62200489792,2010-11-16 23:47:34,600.3073936244704,7,4,-1.099929690361023,3.839942932128906,3.948443302323012,3.167560860338518,15.766024753617044,11.623153919184498,-0.0001942634553415,0.0884964689612388,0,0,0
1240,43382.63738268362,2010-11-16 23:48:04,630.3227714151864,7,4,-1.0997490882873535,3.832658290863037,3.948443302323012,3.176730445043604,15.766024753617044,11.658330120611463,-0.0001618385285837,0.0884964689612388,0,0,0
1241,43412.652962558765,2010-11-16 23:48:34,660.3383513103863,7,4,-1.0997490882873535,3.825535297393799,3.948443302323012,3.18590005595454,15.766024753617044,11.693440256482775,-0.0001618862152099,0.0884964689612388,0,0,0
1242,43442.668153362734,2010-11-16 23:49:04,690.3535420943045,7,4,-1.0997490882873535,3.818412303924561,3.948443302323012,3.195069575074662,15.766024753617044,11.728485301737546,-0.0001618862152099,0.0884964689612388,0,0,0
1243,43472.68350639666,2010-11-16 23:49:34,720.3688951282239,7,4,-1.099929690361023,3.811289310455322,3.948443302323012,3.204239218553796,15.766024753617044,11.763465927348747,-0.0001942634553415,0.0884964689612388,0,0,0
1244,43502.698881911696,2010-11-16 23:50:04,750.3842706432595,7,4,-1.099929690361023,3.804490089416504,3.948443302323012,3.213408881873058,15.766024753617044,11.798383308476874,-0.0001942634553415,0.0884964689612388,0,0,0
1245,43532.71425278514,2010-11-16 23:50:34,780.399641506684,7,4,-1.099929690361023,3.797852754592896,3.948443302323012,3.222579326465259,15.766024753617044,11.83324123646372,-0.0001295089750783,0.0884964689612388,0,0,0
1246,43562.72962263102,2010-11-16 23:51:04,810.4150113625936,7,4,-1.0997490882873535,3.791215419769287,3.948443302323012,3.231749842348036,15.766024753617044,11.868038156332696,-0.0001618862152099,0.0884964689612388,0,0,0
1247,43592.744988973165,2010-11-16 23:51:34,840.4303777247823,7,4,-1.0997490882873535,3.784901857376098,3.948443302323012,3.240920381884271,15.766024753617044,11.902775890462566,-0.0001618862152099,0.0884964689612388,0,0,0
1248,43622.760387229966,2010-11-16 23:52:04,870.4457759765723,7,4,-1.099929690361023,3.7784264087677,3.948443302323012,3.25009098610416,15.766024753617044,11.937455144781106,-0.0001618862152099,0.0884964689612388,0,0,0
1249,43652.775754158574,2010-11-16 23:52:34,900.4611428851248,7,4,-1.1001102924346924,3.772112846374512,3.948443302323012,3.259260753803793,15.766024753617044,11.9720746336969,-0.0001942634553415,0.0884964689612388,0,0,0
1250,43682.79112348316,2010-11-16 23:53:04,930.476512229758,7,4,-1.0997490882873535,3.766446828842163,3.948443302323012,3.268430451102927,15.766024753617044,12.006637481129596,-0.0001295089750783,0.0884964689612388,0,0,0
1251,43712.80648031656,2010-11-16 23:53:34,960.4918690531364,7,4,-1.0997490882873535,3.7604570388793945,3.948443302323012,3.27760010135961,15.766024753617044,12.041145675904588,-0.0001295089750783,0.0884964689612388,0,0,0
1252,43742.821861355376,2010-11-16 23:54:04,990.5072501019852,7,4,-1.0997490882873535,3.754629135131836,3.948443302323012,3.286769785461744,15.766024753617044,12.075600214599206,-0.0001295089750783,0.0884964689612388,0,0,0
1253,43772.83726293047,2010-11-16 23:54:34,1020.5226516570208,7,4,-1.0997490882873535,3.748801469802856,3.948443302323012,3.295939458858262,15.766024753617044,12.110001522906026,-0.0001618862152099,0.0884964689612388,0,0,0
1254,43802.85274869069,2010-11-16 23:55:04,1050.5381375375457,7,4,-1.0997490882873535,3.743135452270508,3.948443302323012,3.305109222903099,15.766024753617044,12.144350806652453,-0.0001618862152099,0.0884964689612388,0,0,0
1255,43832.86801203072,2010-11-16 23:55:34,1080.5534007773251,7,4,-1.0997490882873535,3.737469434738159,3.948443302323012,3.314278941921291,15.766024753617044,12.178648426016643,-0.0001618862152099,0.0884964689612388,0,0,0
1256,43862.88335761605,2010-11-16 23:56:04,1110.5687463426011,7,4,-1.099929690361023,3.7318034172058105,3.948443302323012,3.323448639403319,15.766024753617044,12.212895051920622,-0.0001618862152099,0.0884964689612388,0,0,0
1257,43892.89874816361,2010-11-16 23:56:34,1140.5841368951733,7,4,-1.0997490882873535,3.7267849445343018,3.948443302323012,3.332618333017011,15.766024753617044,12.2470915703992,-9.713172767078504e-05,0.0884964689612388,0,0,0
1258,43922.914101789,2010-11-16 23:57:04,1170.5994905155562,7,4,-1.099929690361023,3.721442699432373,3.948443302323012,3.341788078817689,15.766024753617044,12.281239785846616,-0.0001295089750783,0.0884964689612388,0,0,0
1259,43952.929483238855,2010-11-16 23:57:34,1200.614871975431,7,4,-1.0997490882873535,3.716100454330444,3.948443302323012,3.350957757391107,15.766024753617044,12.315339539340735,-0.0001618862152099,0.0884964689612388,0,0,0
1260,43982.94503567551,2010-11-16 23:58:04,1230.6304244471776,7,4,-1.099929690361023,3.7109200954437256,3.948443302323012,3.360127562723727,15.766024753617044,12.34939190466589,-0.0001942634553415,0.0884964689612388,0,0,0
1261,44012.96025686532,2010-11-16 23:58:34,1260.6456456219564,7,4,-1.099929690361023,3.705739736557007,3.948443302323012,3.369297297678685,15.766024753617044,12.38339657429452,-0.0001295089750783,0.0884964689612388,0,0,0
1262,44042.97559703213,2010-11-16 23:59:04,1290.6609857787323,7,4,-1.099929690361023,3.700721263885498,3.948443302323012,3.378467007078479,15.766024753617044,12.417354535400367,-9.713172767078504e-05,0.0884964689612388,0,0,0
1263,44072.99095543445,2010-11-16 23:59:34,1320.676344171027,7,4,-1.099929690361023,3.695702791213989,3.948443302323012,3.387636714209378,15.766024753617044,12.451266951839104,-0.0001295089750783,0.0884964689612388,0,0,0
1264,44103.00631473902,2010-11-17 00:00:04,1350.6917034655737,7,4,-1.099568486213684,3.691008090972901,3.948443302323012,3.39680643880069,15.766024753617044,12.485134486360524,-0.0001295089750783,0.0884964689612388,0,0,0
1265,44133.021824704665,2010-11-17 00:00:34,1380.7072134362313,7,4,-1.099929690361023,3.685989618301392,3.948443302323012,3.405976178426551,15.766024753617044,12.518957565673556,-0.0001618862152099,0.0884964689612388,0,0,0
1266,44163.03706382424,2010-11-17 00:01:04,1410.7224525507902,7,4,-1.099929690361023,3.681294918060303,3.948443302323012,3.415145822727114,15.766024753617044,12.552736528761953,-0.0001942634553415,0.0884964689612388,0,0,0
1267,44193.05272803991,2010-11-17 00:01:34,1440.738116776492,7,4,-1.0997490882873535,3.676762104034424,3.948443302323012,3.424315663570993,15.766024753617044,12.58647259005306,-9.713172767078504e-05,0.0884964689612388,0,0,0
1268,44223.068016377336,2010-11-17 00:02:04,1470.7534051089065,7,4,-1.099568486213684,3.672067642211914,3.948443302323012,3.433485316086873,15.766024753617044,12.62016491807465,-0.0001294612884521,0.0884964689612388,0,0,0
1269,44253.08333820837,2010-11-17 00:02:34,1500.7687269449511,7,4,-1.0997490882873535,3.667534828186035,3.948443302323012,3.442655066382652,15.766024753617044,12.653815534157255,-0.0001618862152099,0.0884964689612388,0,0,0
1270,44283.09855963378,2010-11-17 00:03:04,1530.7839483603302,7,4,-1.0997490882873535,3.663163900375366,3.948443302323012,3.451824696553711,15.766024753617044,12.687424571911492,-9.713172767078504e-05,0.0884964689612388,0,0,0
1271,44313.11393990067,2010-11-17 00:03:34,1560.7993286222147,7,4,-1.099929690361023,3.6586310863494873,3.948443302323012,3.4609944480128,15.766024753617044,12.720993526067438,-9.713172767078504e-05,0.0884964689612388,0,0,0
1272,44343.12931803223,2010-11-17 00:04:04,1590.814706758794,7,4,-1.0997490882873535,3.654422044754028,3.948443302323012,3.470164127378304,15.766024753617044,12.75452228511084,-9.713172767078504e-05,0.0884964689612388,0,0,0
1273,44373.14750126577,2010-11-17 00:04:34,1620.8328900775398,7,4,-1.099568486213684,3.650213003158569,3.948443302323012,3.479334682433615,15.766024753617044,12.788014769238904,-6.47544875391759e-05,0.0884964689612388,0,0,0
1274,44403.16008575397,2010-11-17 00:05:04,1650.845474595818,7,4,-1.099929690361023,3.645842075347901,3.948443302323012,3.48850357133438,15.766024753617044,12.821461932098895,-6.47544875391759e-05,0.0884964689612388,0,0,0
1275,44433.17544973021,2010-11-17 00:05:34,1680.8608384617758,7,4,-1.0997490882873535,3.6416330337524414,3.948443302323012,3.497673301860999,15.766024753617044,12.854874104240798,-0.0001295089750783,0.0884964689612388,0,0,0
1276,44463.19096344521,2010-11-17 00:06:04,1710.876352186805,7,4,-1.0997490882873535,3.6377477645874015,3.948443302323012,3.50684305460463,15.766024753617044,12.888249192325206,-9.713172767078504e-05,0.0884964689612388,0,0,0
1277,44493.20619093575,2010-11-17 00:06:34,1740.891579662311,7,4,-1.0997490882873535,3.6338624954223633,3.948443302323012,3.516012697339697,15.766024753617044,12.921587509032388,-6.47544875391759e-05,0.0884964689612388,0,0,0
1278,44523.22155186438,2010-11-17 00:07:04,1770.906940585924,7,4,-1.099929690361023,3.629815340042114,3.948443302323012,3.525182434445146,15.766024753617044,12.954890458293276,-9.713172767078504e-05,0.0884964689612388,0,0,0
1279,44553.23692887816,2010-11-17 00:07:34,1800.922317629776,7,4,-1.0997490882873535,3.626253843307495,3.948443302323012,3.534352168302613,15.766024753617044,12.988158758045406,-6.47544875391759e-05,0.0884964689612388,0,0,0
1280,44583.252303917005,2010-11-17 00:08:04,1830.93769264356,7,4,-1.0997490882873535,3.622530460357666,3.948443302323012,3.543521866724789,15.766024753617044,13.021392926680749,-9.713172767078504e-05,0.0884964689612388,0,0,0
1281,44613.26798946593,2010-11-17 00:08:34,1860.9533781975008,7,4,-1.0997490882873535,3.618968963623047,3.948443302323012,3.552691672063914,15.766024753617044,13.054594346483148,-6.47544875391759e-05,0.0884964689612388,0,0,0
1282,44643.28308184922,2010-11-17 00:09:04,1890.968470580796,7,4,-1.0997490882873535,3.615731239318848,3.948443302323012,3.561861339759952,15.766024753617044,13.087763054226594,-3.237724376958795e-05,0.0884964689612388,0,0,0
1283,44673.29845559484,2010-11-17 00:09:34,1920.9838443214023,7,4,-1.0997490882873535,3.612169742584229,3.948443302323012,3.571031035432067,15.766024753617044,13.12090091300059,-9.713172767078504e-05,0.0884964689612388,0,0,0
1284,44703.31392884885,2010-11-17 00:10:04,1950.999317580422,7,4,-1.0997490882873535,3.608932018280029,3.948443302323012,3.580200876462179,15.766024753617044,13.154009110699608,-6.47544875391759e-05,0.0884964689612388,0,0,0
1285,44733.32919812871,2010-11-17 00:10:34,1981.0145868552656,7,4,-1.099929690361023,3.60553240776062,3.948443302323012,3.58937064274837,15.766024753617044,13.187087354691634,-0.0001295089750783,0.0884964689612388,0,0,0
1286,44763.34456539816,2010-11-17 00:11:04,2011.0299541247189,7,4,-1.0997490882873535,3.602618455886841,3.948443302323012,3.598540323236577,15.766024753617044,13.220136365877828,-9.713172767078504e-05,0.0884964689612388,0,0,0
1287,44793.360015915416,2010-11-17 00:11:34,2041.045404641972,7,4,-1.0997490882873535,3.599542617797852,3.948443302323012,3.607710095509459,15.766024753617044,13.25315735951583,-6.47544875391759e-05,0.0884964689612388,0,0,0
1288,44823.375319546016,2010-11-17 00:12:04,2071.060708272573,7,4,-1.0997490882873535,3.5966286659240723,3.948443302323012,3.61687985255194,15.766024753617044,13.286150610128283,-6.47544875391759e-05,0.0884964689612388,0,0,0
1289,44853.390698294126,2010-11-17 00:12:34,2101.076087020678,7,4,-1.1002910137176514,3.593552827835083,3.948443302323012,3.626049613015393,15.766024753617044,13.31911679220727,-9.713172767078504e-05,0.0884964689612388,0,0,0
1290,44883.40621257554,2010-11-17 00:13:04,2131.091601307109,7,4,-1.0997490882873535,3.5908010005950928,3.948443302323012,3.635219384808741,15.766024753617044,13.352056460464588,-6.47544875391759e-05,0.0884964689612388,0,0,0
1291,44913.42156168968,2010-11-17 00:13:34,2161.106950421244,7,4,-1.0997490882873535,3.5880489349365234,3.948443302323012,3.644389120365808,15.766024753617044,13.384969387344732,-3.237724376958795e-05,0.0884964689612388,0,0,0
1292,44943.43705230202,2010-11-17 00:14:04,2191.122441038593,7,4,-1.099929690361023,3.584973096847534,3.948443302323012,3.653558909496319,15.766024753617044,13.417856460342858,-9.713172767078504e-05,0.0884964689612388,0,0,0
1293,44973.45219550216,2010-11-17 00:14:34,2221.137584223697,7,4,-1.0997490882873535,3.582221031188965,3.948443302323012,3.662728528311098,15.766024753617044,13.450716962836538,-9.713172767078504e-05,0.0884964689612388,0,0,0
1294,45003.46759147826,2010-11-17 00:15:04,2251.152980204819,7,4,-1.099929690361023,3.579307079315185,3.948443302323012,3.671898246994457,15.766024753617044,13.483552113532848,-6.47544875391759e-05,0.0884964689612388,0,0,0
1295,45033.48296321888,2010-11-17 00:15:35,2281.168351955458,7,4,-1.0997490882873535,3.576716899871826,3.948443302323012,3.681068025756837,15.766024753617044,13.516361592507392,-3.237724376958795e-05,0.0884964689612388,0,0,0
1296,45063.4983165736,2010-11-17 00:16:05,2311.1837053051654,7,4,-1.0997490882873535,3.573641061782837,3.948443302323012,3.690237685489665,15.766024753617044,13.549144407624397,-6.47544875391759e-05,0.0884964689612388,0,0,0
1297,45093.51371502088,2010-11-17 00:16:35,2341.1991037524435,7,4,-1.0997490882873535,3.5707271099090576,3.948443302323012,3.699407365604431,15.766024753617044,13.581900718818376,-9.713172767078504e-05,0.0884964689612388,0,0,0
1298,45123.529073227706,2010-11-17 00:17:05,2371.21446194925,7,4,-1.099929690361023,3.5678131580352783,3.948443302323012,3.708577068152967,15.766024753617044,13.6146295801338,-6.47544875391759e-05,0.0884964689612388,0,0,0
1299,45153.54445369009,2010-11-17 00:17:35,2401.2298424417104,7,4,-1.0997490882873535,3.564575433731079,3.948443302323012,3.717746857597151,15.766024753617044,13.647330505005831,-6.47544875391759e-05,0.0884964689612388,0,0,0
1300,45183.55983352091,2010-11-17 00:18:05,2431.245222247456,7,4,-1.099929690361023,3.56133770942688,3.948443302323012,3.726916555374114,15.766024753617044,13.68000239092658,-0.0001295089750783,0.0884964689612388,0,0,0
1301,45213.57521128655,2010-11-17 00:18:35,2461.26060003316,7,4,-1.0997490882873535,3.5580999851226807,3.948443302323012,3.736086243230897,15.766024753617044,13.712644853971636,-9.713172767078504e-05,0.0884964689612388,0,0,0
1302,45243.59068323229,2010-11-17 00:19:05,2491.276071963864,7,4,-1.099929690361023,3.5547003746032715,3.948443302323012,3.745256017415893,15.766024753617044,13.745257147874762,-9.713172767078504e-05,0.0884964689612388,0,0,0
1303,45273.605968692544,2010-11-17 00:19:35,2521.291357424109,7,4,-1.099929690361023,3.5513007640838623,3.948443302323012,3.754425702859673,15.766024753617044,13.777837578620655,-9.713172767078504e-05,0.0884964689612388,0,0,0
1304,45303.62136806713,2010-11-17 00:20:05,2551.306756818751,7,4,-1.0997490882873535,3.547739267349243,3.948443302323012,3.763595508094471,15.766024753617044,13.81038611806254,-6.47544875391759e-05,0.0884964689612388,0,0,0
1305,45333.63693441853,2010-11-17 00:20:35,2581.322323180169,7,4,-1.099929690361023,3.544015884399414,3.948443302323012,3.772765303862528,15.766024753617044,13.84290174722928,-0.0001295089750783,0.0884964689612388,0,0,0
1306,45363.65210812983,2010-11-17 00:21:05,2611.337496861396,7,4,-1.1001102924346924,3.540130615234375,3.948443302323012,3.781935000719152,15.766024753617044,13.875383431974395,-0.0001295089750783,0.0884964689612388,0,0,0
1307,45393.66760472209,2010-11-17 00:21:35,2641.3529934636845,7,4,-1.0997490882873535,3.536731004714966,3.948443302323012,3.791104825396167,15.766024753617044,13.907831336678996,-9.713172767078504e-05,0.0884964689612388,0,0,0
1308,45423.68298783109,2010-11-17 00:22:05,2671.3683765676637,7,4,-1.0997490882873535,3.5328457355499268,3.948443302323012,3.800274731254505,15.766024753617044,13.940244344852038,-9.713172767078504e-05,0.0884964689612388,0,0,0
1309,45453.69824373756,2010-11-17 00:22:35,2701.383632494188,7,4,-1.0997490882873535,3.528636693954468,3.948443302323012,3.80944452701789,15.766024753617044,13.972620787517023,-0.0001295089750783,0.0884964689612388,0,0,0
1310,45483.71375910167,2010-11-17 00:23:05,2731.39914784327,7,4,-1.099929690361023,3.524427652359009,3.948443302323012,3.818614442356438,15.766024753617044,14.0049601071474,-0.0001618862152099,0.0884964689612388,0,0,0
1311,45513.729018847735,2010-11-17 00:23:35,2761.4144076043663,7,4,-1.0997490882873535,3.52038049697876,3.948443302323012,3.827784208812246,15.766024753617044,14.037259892956712,-9.713172767078504e-05,0.0884964689612388,0,0,0
1312,45543.74436810724,2010-11-17 00:24:05,2791.429756843814,7,4,-1.099929690361023,3.515685796737671,3.948443302323012,3.836953992722382,15.766024753617044,14.069519313196349,-9.713172767078504e-05,0.0884964689612388,0,0,0
1313,45573.75975888537,2010-11-17 00:24:35,2821.445147616936,7,4,-1.099568486213684,3.510829448699951,3.948443302323012,3.846123761875148,15.766024753617044,14.101735510861058,-0.0001295089750783,0.0884964689612388,0,0,0
1314,45603.77511932277,2010-11-17 00:25:05,2851.460508054336,7,4,-1.099929690361023,3.5054872035980225,3.948443302323012,3.855293658962682,15.766024753617044,14.133905429521194,-0.0001295089750783,0.0884964689612388,0,0,0
1315,45633.79062593504,2010-11-17 00:25:35,2881.4760146716226,7,4,-1.0997490882873535,3.499659299850464,3.948443302323012,3.864463570205305,15.766024753617044,14.16602389617799,-0.0001618862152099,0.0884964689612388,0,0,0
1316,45663.80599978091,2010-11-17 00:26:05,2911.491388522504,7,4,-1.0997490882873535,3.492860078811645,3.948443302323012,3.873633391188183,15.766024753617044,14.198084238854168,-0.0001942634553415,0.0884964689612388,0,0,0
1317,45693.82126249438,2010-11-17 00:26:35,2941.506651230957,7,4,-1.0997490882873535,3.4850895404815674,3.948443302323012,3.882803203956759,15.766024753617044,14.2300783185862,-0.0002590179501567,0.0884964689612388,0,0,0
1318,45723.83679814413,2010-11-17 00:27:05,2971.522186905776,7,4,-1.099929690361023,3.4757001399993896,3.948443302323012,3.891973107039771,15.766024753617044,14.261994709324098,-0.0002913951757363,0.0884964689612388,0,0,0
1319,45753.85213607536,2010-11-17 00:27:35,3001.5375248119344,7,4,-1.099929690361023,3.4645299911499023,3.948443302323012,3.901142940480677,15.766024753617044,14.293817267967746,-0.0003237724304199,0.0884964689612388,0,0,0
1320,45783.86738715979,2010-11-17 00:28:05,3031.5527758913595,7,4,-1.0997490882873535,3.4506077766418457,3.948443302323012,3.91031270539428,15.766024753617044,14.325525260283795,-0.0004209041653666,0.0884964689612388,0,0,0
1321,45813.88278734641,2010-11-17 00:28:35,3061.568176077979,7,4,-1.099929690361023,3.43280029296875,3.948443302323012,3.919482564968283,15.766024753617044,14.357089265547808,-0.0005504131549969,0.0884964689612388,0,0,0
1322,45843.89814175877,2010-11-17 00:29:05,3091.5835304903394,7,4,-1.0997490882873535,3.4099745750427246,3.948443302323012,3.928652482312069,15.766024753617044,14.388468209940855,-0.0006799221155233,0.0884964689612388,0,0,0
1323,45873.91364229087,2010-11-17 00:29:35,3121.599031042487,7,4,-1.099929690361023,3.379216194152832,3.948443302323012,3.937822675346814,15.766024753617044,14.419603966752664,-0.0009389400365762,0.0884964689612388,0,0,0
1324,45903.92916884793,2010-11-17 00:30:05,3151.6145575845094,7,4,-1.0997490882873535,3.3371260166168213,3.948443302323012,3.946993464806303,15.766024753617044,14.450411273724086,-0.0012950897216796,0.0884964689612388,0,0,0
1325,45933.94432127109,2010-11-17 00:30:35,3181.629710027723,7,4,-1.099929690361023,3.278361320495605,3.948443302323012,3.956163782918096,15.766024753617044,14.480759635804292,-0.0018131255637854,0.0884964689612388,0,0,0
1326,45963.959799297016,2010-11-17 00:31:05,3211.645188038604,7,4,-1.099929690361023,3.194018840789795,3.948443302323012,3.965333710677214,15.766024753617044,14.510460197198444,-0.0026549338363111,0.0884964689612388,0,0,0
1327,45993.97506064707,2010-11-17 00:31:35,3241.6604493786413,7,4,-1.0997490882873535,3.0637009143829346,3.948443302323012,3.974503537269532,15.766024753617044,14.539200496871407,-0.0042737959884107,0.0884964689612388,0,0,0
1328,46017.63132910758,2010-11-17 00:31:59,3265.316717859195,7,4,-1.0997490882873535,2.86361026763916,3.948443302323012,3.981730635833736,15.766024753617044,14.560715882016844,-0.0092274667695164,0.0884964689612388,0,0,0
1329,46029.75603617676,2010-11-17 00:32:11,3277.441424908329,7,4,-1.099568486213684,2.699943780899048,3.948443302323012,3.985434774194016,15.766024753617044,14.571026776871332,-0.0111053464934229,0.0884964689612388,0,0,0
1330,46089.77252939533,2010-11-17 00:33:11,60.01512025324753,8,4,0.0,3.294873714447021,3.948443302323012,3.985434774194016,15.766024753617044,14.571026776871332,0.0012627125252038,0.0884964689612388,0,0,0
1331,46089.9615531648,2010-11-17 00:33:11,0.187148977640341,9,4,-1.9243103452026844e-05,3.295359373092652,3.948443302323012,3.985434775194384,15.766024753617044,14.571026780167909,0.0,0.0914128422737121,0,0,0
1332,46094.78981372096,2010-11-17 00:33:16,5.015409543822851,9,4,0.0007031940040178,3.303129911422729,3.94844404235464,3.985434775194384,15.76602719558981,14.571026780167909,0.0011332035064697,0.0914128422737121,0,0,0
