Data_Point,Test_Time(s),Date_Time,Step_Time(s),Step_Index,Cycle_Index,Current(A),Voltage(V),Charge_Capacity(Ah),Discharge_Capacity(Ah),Charge_Energy(Wh),Discharge_Energy(Wh),dV/dt(V/s),Internal_Resistance(Ohm),Is_FC_Data,AC_Impedance(Ohm),ACI_Phase_Angle(Deg)
4011,138665.34755010536,2010-11-18 02:16:16,30.015364522596787,1,13,0.0,3.3246607780456543,11.913420345920768,11.951449621706884,47.52777897043515,43.68344932158639,0.0007122993702068,0.0929468795657157,0,0,0
4012,138695.36294197623,2010-11-18 02:16:46,60.03075639345906,1,13,0.0,3.3476486206054688,11.913420345920768,11.951449621706884,47.52777897043515,43.68344932158639,0.0005180359003134,0.0929468795657157,0,0,0
4013,138725.37830020813,2010-11-18 02:17:16,90.04611462535328,1,13,0.0,3.3652939796447754,11.913420345920768,11.951449621706884,47.52777897043515,43.68344932158639,0.0004532813909463,0.0929468795657157,0,0,0
4014,138755.3468091871,2010-11-18 02:17:46,120.0146236093171,1,13,0.0,3.379216194152832,11.913420345920768,11.951449621706884,47.52777897043515,43.68344932158639,0.0003561496851034,0.0929468795657157,0,0,0
4015,138785.36661975711,2010-11-18 02:18:16,30.015391830762173,2,13,0.5501165986061096,3.5432064533233643,11.918007192847757,11.951449621706884,47.543849352809474,43.68344932158639,0.0017807483673095,0.0929468795657157,0,0,0
4016,138815.38185452082,2010-11-18 02:18:46,60.030626594460784,2,13,0.550297200679779,3.597438097000122,11.92259405754482,11.951449621706884,47.56023381101752,43.68344932158639,0.0011655330890789,0.0929468795657157,0,0,0
4017,138845.39723591052,2010-11-18 02:19:16,90.04600798416045,2,13,0.550297200679779,3.637262105941773,11.927180938691842,11.951449621706884,47.5768307508284,43.68344932158639,0.0009065627818927,0.0929468795657157,0,0,0
4018,138875.41261186166,2010-11-18 02:19:46,120.0613839352846,2,13,0.5501165986061096,3.668991804122925,11.931767752812249,11.951449621706884,47.59359001280511,43.68344932158639,0.0007446765666827,0.0929468795657157,0,0,0
4019,138905.42801468985,2010-11-18 02:20:16,150.07678678354816,2,13,0.5501165986061096,3.69489336013794,11.936354573148634,11.951449621706884,47.610480395908205,43.68344932158639,0.0006151676061563,0.0929468795657157,0,0,0
4020,138935.44339505702,2010-11-18 02:20:46,180.09216713064532,2,13,0.5499359965324402,3.716586112976074,11.940941368160372,11.951449621706884,47.62747952843675,43.68344932158639,0.0005504131549969,0.0929468795657157,0,0,0
4021,138965.45887425082,2010-11-18 02:21:16,210.1076463244792,2,13,0.5501165986061096,3.7348792552948,11.945528193374324,11.951449621706884,47.64457043141826,43.68344932158639,0.0003885269106831,0.0929468795657157,0,0,0
4022,138995.47425441246,2010-11-18 02:21:46,240.1230264811009,2,13,0.5501165986061096,3.749610900878906,11.950115002999238,11.951449621706884,47.661737191546216,43.68344932158639,0.0003237724304199,0.0929468795657157,0,0,0
4023,139025.48954465467,2010-11-18 02:22:16,270.13831673330736,2,13,0.5501165986061096,3.7598094940185542,11.954701816457153,11.951449621706884,47.67896150082519,43.68344932158639,0.0002266406954731,0.0929468795657157,0,0,0
4024,139055.50488285653,2010-11-18 02:22:46,300.1536549352037,2,13,0.5501165986061096,3.765961170196533,11.9592886373999,11.951449621706884,47.6962223646321,43.68344932158639,0.0001295089750783,0.0929468795657157,0,0,0
4025,139085.5202694643,2010-11-18 02:23:17,330.1690415379158,2,13,0.5499359965324402,3.7700083255767822,11.963875468852487,11.951449621706884,47.71350626949288,43.68344932158639,3.237724376958795e-05,0.0929468795657157,0,0,0
4026,139115.5357655202,2010-11-18 02:23:47,360.18453759384,2,13,0.5501165986061096,3.773893594741821,11.968462309292748,11.951449621706884,47.730808063578905,43.68344932158639,0.0001295089750783,0.0929468795657157,0,0,0
4027,139145.55102157206,2010-11-18 02:24:17,390.1997936456771,2,13,0.550297200679779,3.7772932052612314,11.973049103015882,11.951449621706884,47.74812603913294,43.68344932158639,9.713172767078504e-05,0.0929468795657157,0,0,0
4028,139175.56656381828,2010-11-18 02:24:47,420.2153359219744,2,13,0.550297200679779,3.78069281578064,11.977635896876208,11.951449621706884,47.7654595356472,43.68344932158639,9.713172767078504e-05,0.0929468795657157,0,0,0
4029,139205.58188298263,2010-11-18 02:25:17,450.2306550562751,2,13,0.5499359965324402,3.783768653869629,11.982222753661963,11.951449621706884,47.78280811746668,43.68344932158639,9.713172767078504e-05,0.0929468795657157,0,0,0
4030,139235.59725175082,2010-11-18 02:25:47,480.24602382948206,2,13,0.5501165986061096,3.786844491958618,11.986809542869906,11.951449621706884,47.80017089319493,43.68344932158639,9.713172767078504e-05,0.0929468795657157,0,0,0
4031,139265.61251780763,2010-11-18 02:26:17,510.26128988128056,2,13,0.5501165986061096,3.789920330047608,11.991396302652277,11.951449621706884,47.81754755780655,43.68344932158639,6.47544875391759e-05,0.0929468795657157,0,0,0
4032,139295.6280139638,2010-11-18 02:26:47,540.276786037455,2,13,0.5501165986061096,3.7928342819213863,11.995983163579792,11.951449621706884,47.83493829333694,43.68344932158639,6.47544875391759e-05,0.0929468795657157,0,0,0
4033,139325.64327502818,2010-11-18 02:27:17,570.2920471218541,2,13,0.5501165986061096,3.795910120010376,12.000570014904058,11.951449621706884,47.85234239439191,43.68344932158639,9.713172767078504e-05,0.0929468795657157,0,0,0
4034,139355.65863530015,2010-11-18 02:27:47,600.3074073737907,2,13,0.5501165986061096,3.798662185668945,12.00515685635254,11.951449621706884,47.869759635326886,43.68344932158639,9.713172767078504e-05,0.0929468795657157,0,0,0
4035,139385.6742351702,2010-11-18 02:28:17,630.323007243851,2,13,0.550297200679779,3.8015761375427246,12.009743783617536,11.951449621706884,47.88719039174744,43.68344932158639,6.47544875391759e-05,0.0929468795657157,0,0,0
4036,139415.68952524697,2010-11-18 02:28:47,660.3382973206196,2,13,0.5501165986061096,3.804328203201294,12.014330594869747,11.951449621706884,47.90463368606702,43.68344932158639,9.713172767078504e-05,0.0929468795657157,0,0,0
4037,139445.7047594192,2010-11-18 02:29:17,690.3535314928417,2,13,0.5501165986061096,3.807242155075073,12.018917445756392,11.951449621706884,47.92209030415368,43.68344932158639,6.47544875391759e-05,0.0929468795657157,0,0,0
4038,139475.7201432951,2010-11-18 02:29:47,720.3689153687474,2,13,0.5501165986061096,3.810156106948853,12.023504336154208,11.951449621706884,47.93956038094577,43.68344932158639,9.713172767078504e-05,0.0929468795657157,0,0,0
4039,139505.73552991787,2010-11-18 02:30:17,750.3843019915096,2,13,0.550297200679779,3.813231945037842,12.028091258637732,11.951449621706884,47.9570442396768,43.68344932158639,6.47544875391759e-05,0.0929468795657157,0,0,0
4040,139535.75090759833,2010-11-18 02:30:47,780.3996796920004,2,13,0.5501165986061096,3.816307783126831,12.03267815693073,11.951449621706884,47.97454243634569,43.68344932158639,6.47544875391759e-05,0.0929468795657157,0,0,0
4041,139565.76629918846,2010-11-18 02:31:17,810.415071262112,2,13,0.5499359965324402,3.81938362121582,12.037265029893623,11.951449621706884,47.99205507541497,43.68344932158639,6.47544875391759e-05,0.0929468795657157,0,0,0
4042,139595.7816433603,2010-11-18 02:31:47,840.43041543391,2,13,0.5501165986061096,3.82294511795044,12.041851922749284,11.951449621706884,48.00958278713044,43.68344932158639,9.713172767078504e-05,0.0929468795657157,0,0,0
4043,139625.79703019856,2010-11-18 02:32:17,870.4458022722102,2,13,0.5501165986061096,3.8263447284698486,12.046438762107147,11.951449621706884,48.027125723596846,43.68344932158639,6.47544875391759e-05,0.0929468795657157,0,0,0
4044,139655.81239888657,2010-11-18 02:32:47,900.4611709602045,2,13,0.5501165986061096,3.829906225204468,12.051025571659132,11.951449621706884,48.04468419581068,43.68344932158639,0.0001295089750783,0.0929468795657157,0,0,0
4045,139685.82779531882,2010-11-18 02:33:17,930.4765673924528,2,13,0.5501165986061096,3.833143949508667,12.055612387000393,11.951449621706884,48.06225845589539,43.68344932158639,9.713172767078504e-05,0.0929468795657157,0,0,0
4046,139715.8431498565,2010-11-18 02:33:47,960.4919219602008,2,13,0.550297200679779,3.836705207824707,12.060199152570153,11.951449621706884,48.07984820058601,43.68344932158639,9.713172767078504e-05,0.0929468795657157,0,0,0
4047,139745.8585608551,2010-11-18 02:34:17,990.5073329537962,2,13,0.5501165986061096,3.839942932128906,12.06478598664284,11.951449621706884,48.09745379551824,43.68344932158639,6.47544875391759e-05,0.0929468795657157,0,0,0
4048,139775.87391282135,2010-11-18 02:34:47,1020.5226849000004,2,13,0.550297200679779,3.843504428863525,12.0693728227915,11.951449621706884,48.11507477737989,43.68344932158639,9.713172767078504e-05,0.0929468795657157,0,0,0
4049,139805.88927742917,2010-11-18 02:35:17,1050.538049502797,2,13,0.5501165986061096,3.846580266952514,12.073959606505897,11.951449621706884,48.13271061769812,43.68344932158639,9.713172767078504e-05,0.0929468795657157,0,0,0
4050,139835.9046550795,2010-11-18 02:35:47,1080.5534271581755,2,13,0.550297200679779,3.849817991256714,12.078546413921565,11.951449621706884,48.15036144168442,43.68344932158639,6.47544875391759e-05,0.0929468795657157,0,0,0
4051,139865.92017184716,2010-11-18 02:36:17,1110.5689439257994,2,13,0.5501165986061096,3.852893829345703,12.0831333073454,11.951449621706884,48.16802716349958,43.68344932158639,9.713172767078504e-05,0.0929468795657157,0,0,0
4052,139895.93541954816,2010-11-18 02:36:47,1140.5841916217787,2,13,0.5501165986061096,3.8558077812194815,12.087720115963444,11.951449621706884,48.18570662001029,43.68344932158639,6.47544875391759e-05,0.0929468795657157,0,0,0
4053,139925.95078603062,2010-11-18 02:37:17,1170.599558104268,2,13,0.5499359965324402,3.8587217330932617,12.092306970813675,11.951449621706884,48.20340001587708,43.68344932158639,6.47544875391759e-05,0.0929468795657157,0,0,0
4054,139955.96631048244,2010-11-18 02:37:47,1200.6150825660975,2,13,0.5501165986061096,3.861635684967041,12.0968938587197,11.951449621706884,48.22110674792206,43.68344932158639,9.713172767078504e-05,0.0929468795657157,0,0,0
4055,139985.9815516872,2010-11-18 02:38:17,1230.6303237608493,2,13,0.5501165986061096,3.86454963684082,12.101480704188342,11.951449621706884,48.238825989067,43.68344932158639,6.47544875391759e-05,0.0929468795657157,0,0,0
4056,140015.9969164454,2010-11-18 02:38:47,1260.6456885240464,2,13,0.5501165986061096,3.8669779300689697,12.106067532367282,11.951449621706884,48.25655721940463,43.68344932158639,6.47544875391759e-05,0.0929468795657157,0,0,0
4057,140046.0123055995,2010-11-18 02:39:17,1290.6610776781272,2,13,0.5499359965324402,3.869406223297119,12.110654372923776,11.951449621706884,48.2742999806852,43.68344932158639,9.713172767078504e-05,0.0929468795657157,0,0,0
4058,140076.0278233646,2010-11-18 02:39:47,1320.6765955284538,2,13,0.550297200679779,3.8716726303100586,12.115241227500045,11.951449621706884,48.29205366604581,43.68344932158639,6.47544875391759e-05,0.0929468795657157,0,0,0
4059,140106.0430660581,2010-11-18 02:40:17,1350.6918381367336,2,13,0.5501165986061096,3.873939037322998,12.119828071814998,11.951449621706884,48.30981755758512,43.68344932158639,3.237724376958795e-05,0.0929468795657157,0,0,0
4060,140136.05842641025,2010-11-18 02:40:47,1380.707198483908,2,13,0.550297200679779,3.876043558120728,12.124414914823369,11.951449621706884,48.32759089150041,43.68344932158639,9.713172767078504e-05,0.0929468795657157,0,0,0
4061,140166.07408974876,2010-11-18 02:41:17,1410.7228618274078,2,13,0.5501165986061096,3.877662420272827,12.129001780045746,11.951449621706884,48.34537326809897,43.68344932158639,6.47544875391759e-05,0.0929468795657157,0,0,0
4062,140196.08917617216,2010-11-18 02:41:47,1440.7379482458136,2,13,0.5501165986061096,3.8794431686401367,12.133588598879218,11.951449621706884,48.363163804533485,43.68344932158639,3.237724376958795e-05,0.0929468795657157,0,0,0
4063,140226.10456499044,2010-11-18 02:42:17,1470.7533370690685,2,13,0.5501165986061096,3.8812239170074463,12.138175482873883,11.951449621706884,48.3809623703576,43.68344932158639,6.47544875391759e-05,0.0929468795657157,0,0,0
4064,140256.11995800916,2010-11-18 02:42:47,1500.7687300827836,2,13,0.5499359965324402,3.882680892944336,12.14276229793624,11.951449621706884,48.39876794764665,43.68344932158639,3.237724376958795e-05,0.0929468795657157,0,0,0
4065,140286.13535067198,2010-11-18 02:43:17,1530.7841227706851,2,13,0.550297200679779,3.8841378688812256,12.147349182769544,11.951449621706884,48.416580789043934,43.68344932158639,6.47544875391759e-05,0.0929468795657157,0,0,0
4066,140316.15068734006,2010-11-18 02:43:47,1560.7994594136903,2,13,0.5501165986061096,3.8855948448181152,12.151936032029749,11.951449621706884,48.434400039537735,43.68344932158639,3.237724376958795e-05,0.0929468795657157,0,0,0
4067,140346.16905819697,2010-11-18 02:44:17,1590.817830300635,2,13,0.5501165986061096,3.887051820755005,12.156523338038584,11.951449621706884,48.4522274736762,43.68344932158639,6.47544875391759e-05,0.0929468795657157,0,0,0
4068,140376.18161320654,2010-11-18 02:44:47,1620.8303852801805,2,13,0.5501165986061096,3.8881850242614746,12.161109753193548,11.951449621706884,48.47005759411435,43.68344932158639,3.237724376958795e-05,0.0929468795657157,0,0,0
4069,140406.1969456641,2010-11-18 02:45:17,1650.8457177477628,2,13,0.5501165986061096,3.889642000198364,12.165696608606858,11.951449621706884,48.48789552527148,43.68344932158639,3.237724376958795e-05,0.0929468795657157,0,0,0
4070,140436.2121907636,2010-11-18 02:45:47,1680.860962837236,2,13,0.5501165986061096,3.890937089920044,12.170283524416067,11.951449621706884,48.50573949904,43.68344932158639,6.47544875391759e-05,0.0929468795657157,0,0,0
4071,140466.22779248326,2010-11-18 02:46:17,1710.8765645970134,2,13,0.5501165986061096,3.8920702934265137,12.174870455044132,11.951449621706884,48.52358939392336,43.68344932158639,3.237724376958795e-05,0.0929468795657157,0,0,0
4072,140496.2429445556,2010-11-18 02:46:47,1740.891716634214,2,13,0.550297200679779,3.893365383148194,12.17945735563695,11.951449621706884,48.54144492927176,43.68344932158639,3.237724376958795e-05,0.0929468795657157,0,0,0
4073,140526.24309153282,2010-11-18 02:47:17,1770.891863746814,2,13,0.5501165986061096,3.894660472869873,12.184041965178295,11.951449621706884,48.559297390894,43.68344932158639,6.47544875391759e-05,0.0929468795657157,0,0,0
4074,140556.2580742223,2010-11-18 02:47:47,1800.9068463009587,2,13,0.5501165986061096,3.895793676376343,12.188628824640904,11.951449621706884,48.577163870302265,43.68344932158639,3.237724376958795e-05,0.0929468795657157,0,0,0
4075,140586.2734196222,2010-11-18 02:48:17,1830.9221917409227,2,13,0.5501165986061096,3.896926879882813,12.19321499051932,11.951449621706884,48.595033414633136,43.68344932158639,0.0,0.0929468795657157,0,0,0
4076,140616.28882750298,2010-11-18 02:48:47,1860.9375995766352,2,13,0.5501165986061096,3.898545742034912,12.197800953305354,11.951449621706884,48.61290795845599,43.68344932158639,6.47544875391759e-05,0.0929468795657157,0,0,0
4077,140646.3041993138,2010-11-18 02:49:17,1890.952971427525,2,13,0.5499359965324402,3.899517059326172,12.20238703212168,11.951449621706884,48.63078878781472,43.68344932158639,3.237724376958795e-05,0.0929468795657157,0,0,0
4078,140676.31959157062,2010-11-18 02:49:47,1920.968363669313,2,13,0.5501165986061096,3.9009740352630615,12.206973022910368,11.951449621706884,48.64867499880934,43.68344932158639,6.47544875391759e-05,0.0929468795657157,0,0,0
4079,140706.33512515022,2010-11-18 02:50:17,1950.9838972639395,2,13,0.550297200679779,3.902269124984741,12.211559037271298,11.951449621706884,48.666567170480285,43.68344932158639,3.237724376958795e-05,0.0929468795657157,0,0,0
4080,140736.35037286623,2010-11-18 02:50:47,1980.999144964932,2,13,0.5501165986061096,3.903402328491211,12.216144912419145,11.951449621706884,48.68446468678041,43.68344932158639,3.237724376958795e-05,0.0929468795657157,0,0,0
4081,140766.3657313337,2010-11-18 02:51:17,2011.0145034073512,2,13,0.5501165986061096,3.90469741821289,12.220731453741289,11.951449621706884,48.70237100117562,43.68344932158639,0.0,0.0929468795657157,0,0,0
4082,140796.38110730491,2010-11-18 02:51:47,2041.0298793785253,2,13,0.550297200679779,3.90615439414978,12.225318427690269,11.951449621706884,48.720284975668655,43.68344932158639,6.47544875391759e-05,0.0929468795657157,0,0,0
4083,140826.39648720587,2010-11-18 02:52:17,2071.045259279509,2,13,0.5501165986061096,3.90728759765625,12.229905315886084,11.951449621706884,48.738204708356,43.68344932158639,0.0,0.0929468795657157,0,0,0
4084,140856.41188060053,2010-11-18 02:52:47,2101.060652674176,2,13,0.5501165986061096,3.90874457359314,12.23449219659001,11.951449621706884,48.7561304831163,43.68344932158639,0.0,0.0929468795657157,0,0,0
4085,140886.42726478222,2010-11-18 02:53:17,2131.076036855844,2,13,0.550297200679779,3.910201549530029,12.239079020941237,11.951449621706884,48.77406229081761,43.68344932158639,3.237724376958795e-05,0.0929468795657157,0,0,0
4086,140916.44263197144,2010-11-18 02:53:47,2161.091404045097,2,13,0.5501165986061096,3.911334753036499,12.24366592129346,11.951449621706884,48.79200058019127,43.68344932158639,3.237724376958795e-05,0.0929468795657157,0,0,0
4087,140946.45814675416,2010-11-18 02:54:17,2191.1069188377915,2,13,0.5501165986061096,3.9127917289733887,12.248252791519292,11.951449621706884,48.80994507579821,43.68344932158639,0.0,0.0929468795657157,0,0,0
4088,140976.4733911819,2010-11-18 02:54:47,2221.122163255588,2,13,0.550297200679779,3.914248466491699,12.252839680550869,11.951449621706884,48.827895974191165,43.68344932158639,3.237724376958795e-05,0.0929468795657157,0,0,0
4089,141006.4887608925,2010-11-18 02:55:17,2251.1375329661346,2,13,0.5501165986061096,3.915381669998169,12.2574266787743,11.951449621706884,48.845853720748885,43.68344932158639,-3.237724376958795e-05,0.0929468795657157,0,0,0
4090,141036.50414270326,2010-11-18 02:55:48,2281.152914756836,2,13,0.5499359965324402,3.9168386459350586,12.262013584075891,11.951449621706884,48.863817308285,43.68344932158639,0.0,0.0929468795657157,0,0,0
4091,141066.51952001278,2010-11-18 02:56:18,2311.1682920864,2,13,0.550297200679779,3.918295621871948,12.266600459522971,11.951449621706884,48.88178730260967,43.68344932158639,0.0,0.0929468795657157,0,0,0
4092,141096.53490623954,2010-11-18 02:56:48,2341.183678313174,2,13,0.5499359965324402,3.919752597808838,12.271187351576788,11.951449621706884,48.89976387948094,43.68344932158639,3.237724376958795e-05,0.0929468795657157,0,0,0
4093,141126.55027761924,2010-11-18 02:57:18,2371.1990496928875,2,13,0.5501165986061096,3.921209573745728,12.275774256596632,11.951449621706884,48.917747030405934,43.68344932158639,0.0,0.0929468795657157,0,0,0
4094,141156.56566908912,2010-11-18 02:57:48,2401.2144411827985,2,13,0.550297200679779,3.922828435897827,12.280361153904009,11.951449621706884,48.93573674512164,43.68344932158639,6.47544875391759e-05,0.0929468795657157,0,0,0
4095,141186.58103099518,2010-11-18 02:58:18,2431.229803068814,2,13,0.5501165986061096,3.924123525619507,12.284948107809171,11.951449621706884,48.95373332053815,43.68344932158639,0.0,0.0929468795657157,0,0,0
4096,141216.5964305402,2010-11-18 02:58:48,2461.245202618845,2,13,0.550297200679779,3.9257423877716064,12.289535056422045,11.951449621706884,48.97173666115633,43.68344932158639,6.47544875391759e-05,0.0929468795657157,0,0,0
4097,141246.61178847135,2010-11-18 02:59:18,2491.260560524925,2,13,0.5501165986061096,3.927037477493286,12.294122000056314,11.951449621706884,48.9897465845088,43.68344932158639,3.237724376958795e-05,0.0929468795657157,0,0,0
4098,141276.6272913092,2010-11-18 02:59:48,2521.276063387841,2,13,0.5501165986061096,3.928494453430176,12.298708900227004,11.951449621706884,49.00776316576378,43.68344932158639,3.237724376958795e-05,0.0929468795657157,0,0,0
4099,141306.64256037853,2010-11-18 03:00:18,2551.291332452159,2,13,0.5501165986061096,3.9301133155822754,12.303295795556522,11.951449621706884,49.02578657002441,43.68344932158639,6.47544875391759e-05,0.0929468795657157,0,0,0
4100,141336.65826456397,2010-11-18 03:00:48,2581.30703666267,2,13,0.5501165986061096,3.931408405303955,12.307882802377494,11.951449621706884,49.04381729440525,43.68344932158639,0.0,0.0929468795657157,0,0,0
4101,141366.67334079696,2010-11-18 03:01:18,2611.3221128906384,2,13,0.550297200679779,3.9333510398864746,12.312469674726872,11.951449621706884,49.06185440620627,43.68344932158639,6.47544875391759e-05,0.0929468795657157,0,0,0
4102,141396.68868076825,2010-11-18 03:01:48,2641.3374528419017,2,13,0.550297200679779,3.9346461296081534,12.317056573495575,11.951449621706884,49.07989856140144,43.68344932158639,6.47544875391759e-05,0.0929468795657157,0,0,0
4103,141426.70406620807,2010-11-18 03:02:18,2671.3528382817112,2,13,0.5501165986061096,3.936103105545044,12.321643524313586,11.951449621706884,49.09794998330814,43.68344932158639,3.237724376958795e-05,0.0929468795657157,0,0,0
4104,141456.71945439978,2010-11-18 03:02:48,2701.3682264733893,2,13,0.5501165986061096,3.937721967697144,12.326230496597034,11.951449621706884,49.11600839151735,43.68344932158639,3.237724376958795e-05,0.0929468795657157,0,0,0
4105,141486.73481404016,2010-11-18 03:03:18,2731.3835861137995,2,13,0.5501165986061096,3.939178943634033,12.3308173648732,11.951449621706884,49.13407360760576,43.68344932158639,3.237724376958795e-05,0.0929468795657157,0,0,0
4106,141516.75022902372,2010-11-18 03:03:48,2761.399001102367,2,13,0.550297200679779,3.940959692001343,12.335404217129188,11.951449621706884,49.15214589338563,43.68344932158639,9.713172767078504e-05,0.0929468795657157,0,0,0
4107,141546.76557804763,2010-11-18 03:04:18,2791.414350141314,2,13,0.5499359965324402,3.9422547817230233,12.33999108064196,11.951449621706884,49.1702254001622,43.68344932158639,3.237724376958795e-05,0.0929468795657157,0,0,0
4108,141576.78100404367,2010-11-18 03:04:48,2821.429776137358,2,13,0.550297200679779,3.944035530090332,12.344577908025274,11.951449621706884,49.18831212788452,43.68344932158639,6.47544875391759e-05,0.0929468795657157,0,0,0
4109,141606.79636686202,2010-11-18 03:05:18,2851.445138925626,2,13,0.550297200679779,3.945654392242432,12.349164761028517,11.951449621706884,49.20640631777802,43.68344932158639,6.47544875391759e-05,0.0929468795657157,0,0,0
4110,141636.81174941963,2010-11-18 03:05:48,2881.460521473216,2,13,0.5501165986061096,3.9472732543945312,12.353751714117497,11.951449621706884,49.22450831668991,43.68344932158639,3.237724376958795e-05,0.0929468795657157,0,0,0
4111,141666.8270897318,2010-11-18 03:06:18,2911.4758618054298,2,13,0.5501165986061096,3.948730230331421,12.358338631458755,11.951449621706884,49.24261763024236,43.68344932158639,0.0,0.0929468795657157,0,0,0
4112,141696.84261287533,2010-11-18 03:06:48,2941.491384948969,2,13,0.5499359965324402,3.950349092483521,12.362925542882396,11.951449621706884,49.26073447055754,43.68344932158639,0.0,0.0929468795657157,0,0,0
4113,141726.85784563402,2010-11-18 03:07:18,2971.506617707663,2,13,0.550297200679779,3.95229172706604,12.367512397055384,11.951449621706884,49.27885878703294,43.68344932158639,9.713172767078504e-05,0.0929468795657157,0,0,0
4114,141756.873228733,2010-11-18 03:07:48,3001.522000836704,2,13,0.5501165986061096,3.95391058921814,12.372099293862522,11.951449621706884,49.29699101787951,43.68344932158639,3.237724376958795e-05,0.0929468795657157,0,0,0
4115,141786.8886305186,2010-11-18 03:08:18,3031.537402617302,2,13,0.550297200679779,3.955691337585449,12.376686164876714,11.951449621706884,49.31513089122611,43.68344932158639,6.47544875391759e-05,0.0929468795657157,0,0,0
4116,141816.90400257,2010-11-18 03:08:48,3061.552774668692,2,13,0.5501165986061096,3.957310199737549,12.381273073017049,11.951449621706884,49.33327869068927,43.68344932158639,3.237724376958795e-05,0.0929468795657157,0,0,0
4117,141846.9193851176,2010-11-18 03:09:18,3091.5681571962323,2,13,0.550297200679779,3.9590909481048575,12.385859952672607,11.951449621706884,49.351434283129336,43.68344932158639,6.47544875391759e-05,0.0929468795657157,0,0,0
4118,141876.9347458357,2010-11-18 03:09:48,3121.5835179143323,2,13,0.5501165986061096,3.960709810256958,12.390446836884696,11.951449621706884,49.36959794471829,43.68344932158639,3.237724376958795e-05,0.0929468795657157,0,0,0
4119,141906.95025392162,2010-11-18 03:10:18,3151.5990259952728,2,13,0.5501165986061096,3.9626524448394775,12.395033723561916,11.951449621706884,49.38776971602911,43.68344932158639,6.47544875391759e-05,0.0929468795657157,0,0,0
4120,141936.9655158281,2010-11-18 03:10:48,3181.614287901724,2,13,0.5501165986061096,3.964433193206787,12.399620602392686,11.951449621706884,49.4059497130274,43.68344932158639,6.47544875391759e-05,0.0929468795657157,0,0,0
4121,141966.980880476,2010-11-18 03:11:18,3211.6296525546463,2,13,0.550297200679779,3.9662139415740967,12.404207409716328,11.951449621706884,49.424137696852206,43.68344932158639,3.237724376958795e-05,0.0929468795657157,0,0,0
4122,141996.99614033234,2010-11-18 03:11:48,3241.6449124059677,2,13,0.5501165986061096,3.9679946899414062,12.408794494102434,11.951449621706884,49.44233513361725,43.68344932158639,6.47544875391759e-05,0.0929468795657157,0,0,0
4123,142027.01158946112,2010-11-18 03:12:18,3271.6603615347544,2,13,0.550297200679779,3.969775438308716,12.413382110330604,11.951449621706884,49.46054311532258,43.68344932158639,0.0,0.0929468795657157,0,0,0
4124,142057.0270035775,2010-11-18 03:12:48,3301.6757756511447,2,13,0.550297200679779,3.971879959106445,12.417969637910575,11.951449621706884,49.478759190317405,43.68344932158639,9.713172767078504e-05,0.0929468795657157,0,0,0
4125,142087.04236916278,2010-11-18 03:13:18,3331.6911412614563,2,13,0.550297200679779,3.973660707473755,12.422557319259726,11.951449621706884,49.496984584373855,43.68344932158639,3.237724376958795e-05,0.0929468795657157,0,0,0
4126,142117.0579630529,2010-11-18 03:13:48,3361.7067351265277,2,13,0.550297200679779,3.9756033420562735,12.427145000685892,11.951449621706884,49.51521870302437,43.68344932158639,6.47544875391759e-05,0.0929468795657157,0,0,0
4127,142147.0731346038,2010-11-18 03:14:18,3391.721906677437,2,13,0.5504778623580933,3.977545976638794,12.431732724729937,11.951449621706884,49.533461866304286,43.68344932158639,9.713172767078504e-05,0.0929468795657157,0,0,0
4128,142177.08852983304,2010-11-18 03:14:48,3421.7373019066827,2,13,0.550297200679779,3.9794886112213135,12.436320279296398,11.951449621706884,49.55171287603213,43.68344932158639,3.237724376958795e-05,0.0929468795657157,0,0,0
4129,142207.1039336938,2010-11-18 03:15:18,3451.7527057975485,2,13,0.550297200679779,3.981431245803833,12.440907269941476,11.951449621706884,49.56997113210279,43.68344932158639,3.237724376958795e-05,0.0929468795657157,0,0,0
4130,142237.11927832678,2010-11-18 03:15:48,3481.7680504004225,2,13,0.5501165986061096,3.9835357666015625,12.445494251906831,11.951449621706884,49.58823847701199,43.68344932158639,6.47544875391759e-05,0.0929468795657157,0,0,0
4131,142267.1346521426,2010-11-18 03:16:18,3511.7834242262416,2,13,0.5501165986061096,3.985478401184082,12.450081127393544,11.951449621706884,49.6065146314479,43.68344932158639,6.47544875391759e-05,0.0929468795657157,0,0,0
4132,142297.15303204203,2010-11-18 03:16:48,3541.8018042008703,2,13,0.5501165986061096,3.9874210357666016,12.45466857548378,11.951449621706884,49.62480243452319,43.68344932158639,3.237724376958795e-05,0.0929468795657157,0,0,0
4133,142327.16543521264,2010-11-18 03:17:18,3571.8142072862647,2,13,0.5501165986061096,3.989525556564331,12.459255072602016,11.951449621706884,49.643095812620444,43.68344932158639,3.237724376958795e-05,0.0929468795657157,0,0,0
4134,142357.18079026157,2010-11-18 03:17:48,3601.8295623352137,2,13,0.5501165986061096,3.991630077362061,12.463841987743066,11.951449621706884,49.66140041056519,43.68344932158639,3.237724376958795e-05,0.0929468795657157,0,0,0
4135,142387.1961725435,2010-11-18 03:18:18,3631.8449446171408,2,13,0.5501165986061096,3.99373459815979,12.468428888675549,11.951449621706884,49.67971468919091,43.68344932158639,3.237724376958795e-05,0.0929468795657157,0,0,0
4136,142417.21203539,2010-11-18 03:18:48,3661.8608074636304,2,13,0.5501165986061096,3.995838880538941,12.473015892861923,11.951449621706884,49.69803917121952,43.68344932158639,0.0,0.0929468795657157,0,0,0
4137,142447.2269610722,2010-11-18 03:19:18,3691.8757331508255,2,13,0.5501165986061096,3.99810528755188,12.477602806200684,11.951449621706884,49.71637326881778,43.68344932158639,3.237724376958795e-05,0.0929468795657157,0,0,0
4138,142477.24244000035,2010-11-18 03:19:48,3721.891212068972,2,13,0.5499359965324402,4.000209808349609,12.482189716119167,11.951449621706884,49.734717110902615,43.68344932158639,6.47544875391759e-05,0.0929468795657157,0,0,0
4139,142507.25768861364,2010-11-18 03:20:18,3751.9064606872535,2,13,0.5501165986061096,4.002476215362549,12.486776616660975,11.951449621706884,49.75307099373685,43.68344932158639,3.23295607813634e-05,0.0929468795657157,0,0,0
4140,142537.27324340114,2010-11-18 03:20:48,3781.922015474782,2,13,0.550297200679779,4.004742622375488,12.491363588365422,11.951449621706884,49.7714353543521,43.68344932158639,3.23295607813634e-05,0.0929468795657157,0,0,0
4141,142567.28845422008,2010-11-18 03:21:18,3811.93722629371,2,13,0.5501165986061096,4.007009029388428,12.4959505296754,11.951449621706884,49.789809843209966,43.68344932158639,3.23295607813634e-05,0.0929468795657157,0,0,0
4142,142597.30388628124,2010-11-18 03:21:48,3841.952658379956,2,13,0.5501165986061096,4.009275436401367,12.50053750863522,11.951449621706884,49.80819487113316,43.68344932158639,9.70840483205393e-05,0.0929468795657157,0,0,0
4143,142627.3193821918,2010-11-18 03:22:18,3871.9681542905178,2,13,0.5501165986061096,4.011541843414307,12.505124472977997,11.951449621706884,49.82659031263298,43.68344932158639,6.47544875391759e-05,0.0929468795657157,0,0,0
4144,142657.3346111059,2010-11-18 03:22:48,3901.983383179552,2,13,0.5499359965324402,4.013808250427246,12.509711422498548,11.951449621706884,49.844996212508526,43.68344932158639,6.47544875391759e-05,0.0929468795657157,0,0,0
4145,142687.34995986917,2010-11-18 03:23:18,3931.998731942811,2,13,0.550297200679779,4.016236782073975,12.514298390394686,11.951449621706884,49.86341275388051,43.68344932158639,9.71794142969884e-05,0.0929468795657157,0,0,0
4146,142717.36545930352,2010-11-18 03:23:48,3962.014231517519,2,13,0.5501165986061096,4.018341064453125,12.518885441360618,11.951449621706884,49.88184030918772,43.68344932158639,3.23295607813634e-05,0.0929468795657157,0,0,0
4147,142747.38072583656,2010-11-18 03:24:18,3992.02949793523,2,13,0.5501165986061096,4.0206074714660645,12.523472472454673,11.951449621706884,49.9002785149453,43.68344932158639,3.23295607813634e-05,0.0929468795657157,0,0,0
4148,142777.39612385773,2010-11-18 03:24:48,4022.044895931383,2,13,0.5499359965324402,4.023197650909424,12.52805944378119,11.951449621706884,49.91872747487431,43.68344932158639,6.47544875391759e-05,0.0929468795657157,0,0,0
4149,142807.4115007763,2010-11-18 03:25:18,4052.0602728499216,2,13,0.550297200679779,4.025626182556152,12.532646438510778,11.951449621706884,49.937187598876406,43.68344932158639,6.47544875391759e-05,0.0929468795657157,0,0,0
4150,142837.426896186,2010-11-18 03:25:48,4082.07566828468,2,13,0.550297200679779,4.028216361999512,12.537233458000603,11.951449621706884,49.95565887943549,43.68344932158639,0.0001295089750783,0.0929468795657157,0,0,0
4151,142867.44239946493,2010-11-18 03:26:18,4112.091171543584,2,13,0.5501165986061096,4.030482769012451,12.541820457630491,11.951449621706884,49.97414119952349,43.68344932158639,6.47544875391759e-05,0.0929468795657157,0,0,0
4152,142897.45766717085,2010-11-18 03:26:48,4142.1064392645485,2,13,0.5501165986061096,4.0330729484558105,12.546407378713196,11.951449621706884,49.99263448668922,43.68344932158639,6.47544875391759e-05,0.0929468795657157,0,0,0
4153,142927.47300912713,2010-11-18 03:27:18,4172.121781225829,2,13,0.5501165986061096,4.035501003265381,12.550994351456415,11.951449621706884,50.01113935256876,43.68344932158639,6.47544875391759e-05,0.0929468795657157,0,0,0
4154,142957.4884030431,2010-11-18 03:27:49,4202.137175136784,2,13,0.550297200679779,4.03809118270874,12.555581362380993,11.951449621706884,50.02965578581506,43.68344932158639,9.71794142969884e-05,0.0929468795657157,0,0,0
4155,142987.5037642073,2010-11-18 03:28:19,4232.152536300997,2,13,0.550297200679779,4.040519237518311,12.560168374594506,11.951449621706884,50.0481838361461,43.68344932158639,6.47544875391759e-05,0.0929468795657157,0,0,0
4156,143017.51915757693,2010-11-18 03:28:49,4262.167929640526,2,13,0.5499359965324402,4.042947769165039,12.564755369098483,11.951449621706884,50.06672359101119,43.68344932158639,3.24249267578125e-05,0.0929468795657157,0,0,0
4157,143047.53455177357,2010-11-18 03:29:19,4292.183323867269,2,13,0.5501165986061096,4.045699596405029,12.569342353822064,11.951449621706884,50.08527517512539,43.68344932158639,9.70840483205393e-05,0.0929468795657157,0,0,0
4158,143077.54989868723,2010-11-18 03:29:49,4322.19867076086,2,13,0.5501165986061096,4.048289775848389,12.573929364978817,11.951449621706884,50.10383887050212,43.68344932158639,6.47544875391759e-05,0.0929468795657157,0,0,0
4159,143107.56541038718,2010-11-18 03:30:19,4352.214182465847,2,13,0.5501165986061096,4.050879955291748,12.578516444086882,11.951449621706884,50.122414859602415,43.68344932158639,3.23295607813634e-05,0.0929468795657157,0,0,0
4160,143137.58067278485,2010-11-18 03:30:49,4382.229444848487,2,13,0.550297200679779,4.0536322593688965,12.583103450115162,11.951449621706884,50.14100265730735,43.68344932158639,9.71794142969884e-05,0.0929468795657157,0,0,0
4161,143167.59604041523,2010-11-18 03:31:19,4412.244812518941,2,13,0.550297200679779,4.056384086608887,12.587690448172625,11.951449621706884,50.15960263439853,43.68344932158639,6.47544875391759e-05,0.0929468795657157,0,0,0
4162,143197.61168333775,2010-11-18 03:31:49,4442.260455551743,2,13,0.550297200679779,4.058974266052246,12.592277557772398,11.951449621706884,50.17821550243209,43.68344932158639,6.47544875391759e-05,0.0929468795657157,0,0,0
4163,143227.62695155496,2010-11-18 03:32:19,4472.275723628596,2,13,0.5499359965324402,4.061402797698975,12.59686460593002,11.951449621706884,50.1968404060961,43.68344932158639,0.0,0.0929468795657157,0,0,0
4164,143257.64243426258,2010-11-18 03:32:49,4502.291206356251,2,13,0.5501165986061096,4.064478397369385,12.601451607585313,11.951449621706884,50.21547754686129,43.68344932158639,9.70840483205393e-05,0.0929468795657157,0,0,0
4165,143287.65757174842,2010-11-18 03:33:19,4532.306343827091,2,13,0.550297200679779,4.067230701446533,12.606038662816337,11.951449621706884,50.23412760851924,43.68344932158639,6.47544875391759e-05,0.0929468795657157,0,0,0
4166,143317.67307555873,2010-11-18 03:33:49,4562.3218476423845,2,13,0.550297200679779,4.0701446533203125,12.61062569541509,11.951449621706884,50.25279038385846,43.68344932158639,9.71794142969884e-05,0.0929468795657157,0,0,0
4167,143347.68832415194,2010-11-18 03:34:19,4592.3370962255785,2,13,0.5501165986061096,4.072896480560303,12.615212704902635,11.951449621706884,50.27146596608612,43.68344932158639,9.70840483205393e-05,0.0929468795657157,0,0,0
4168,143377.70372927087,2010-11-18 03:34:49,4622.352501344511,2,13,0.550297200679779,4.075648784637451,12.61979968118544,11.951449621706884,50.29015440776261,43.68344932158639,6.47544875391759e-05,0.0929468795657157,0,0,0
4169,143407.71908557296,2010-11-18 03:35:19,4652.367857646587,2,13,0.5501165986061096,4.078562736511231,12.624386694862332,11.951449621706884,50.30885609905507,43.68344932158639,6.47544875391759e-05,0.0929468795657157,0,0,0
4170,143437.73470532263,2010-11-18 03:35:49,4682.38347741632,2,13,0.5499359965324402,4.081314563751221,12.628973755094478,11.951449621706884,50.327571226257085,43.68344932158639,6.47544875391759e-05,0.0929468795657157,0,0,0
4171,143467.74987019188,2010-11-18 03:36:19,4712.398642290564,2,13,0.550297200679779,4.084390640258789,12.633560713085997,11.951449621706884,50.34629919884573,43.68344932158639,6.47544875391759e-05,0.0929468795657157,0,0,0
4172,143497.765241346,2010-11-18 03:36:49,4742.414013419651,2,13,0.5499359965324402,4.087304592132568,12.638147696478097,11.951449621706884,50.36504079035124,43.68344932158639,6.47544875391759e-05,0.0929468795657157,0,0,0
4173,143527.78062553267,2010-11-18 03:37:19,4772.429397616357,2,13,0.5501165986061096,4.090218544006348,12.642734645119406,11.951449621706884,50.38379585521372,43.68344932158639,6.47544875391759e-05,0.0929468795657157,0,0,0
4174,143557.79598950892,2010-11-18 03:37:49,4802.444761582566,2,13,0.5501165986061096,4.093294143676758,12.647321698255942,11.951449621706884,50.40256505789706,43.68344932158639,6.47544875391759e-05,0.0929468795657157,0,0,0
4175,143587.81138003644,2010-11-18 03:38:19,4832.4601521000495,2,13,0.5501165986061096,4.096370220184326,12.651908713787448,11.951449621706884,50.42134793950584,43.68344932158639,0.0001295089750783,0.0929468795657157,0,0,0
4176,143617.82691062355,2010-11-18 03:38:49,4862.475682692181,2,13,0.5501165986061096,4.0992841720581055,12.656495744266543,11.951449621706884,50.44014487426541,43.68344932158639,6.47544875391759e-05,0.0929468795657157,0,0,0
4177,143647.84213717675,2010-11-18 03:39:19,4892.490909245385,2,13,0.5501165986061096,4.102198123931885,12.661082752724088,11.951449621706884,50.4589558183131,43.68344932158639,3.24249267578125e-05,0.0929468795657157,0,0,0
4178,143677.85765207972,2010-11-18 03:39:49,4922.506424163393,2,13,0.5501165986061096,4.105597496032715,12.66566979737312,11.951449621706884,50.47778118969073,43.68344932158639,6.47544875391759e-05,0.0929468795657157,0,0,0
4179,143707.87288825697,2010-11-18 03:40:19,4952.521660330594,2,13,0.550297200679779,4.108835220336914,12.67025676683337,11.951449621706884,50.4966206090953,43.68344932158639,0.0001295089750783,0.0929468795657157,0,0,0
4180,143737.8882632607,2010-11-18 03:40:49,4982.537035354404,2,13,0.5501165986061096,4.112072944641113,12.674843802891507,11.951449621706884,50.51547478392697,43.68344932158639,0.0001295089750783,0.0929468795657157,0,0,0
4181,143767.9036484599,2010-11-18 03:41:19,5012.552420558625,2,13,0.5501165986061096,4.115148544311523,12.679430858670806,11.951449621706884,50.53434351994661,43.68344932158639,0.0001294136018259,0.0929468795657157,0,0,0
4182,143797.91908037072,2010-11-18 03:41:49,5042.567852444371,2,13,0.5501165986061096,4.118386268615723,12.684017916070006,11.951449621706884,50.55322693344797,43.68344932158639,0.0001295089750783,0.0929468795657157,0,0,0
4183,143827.93452605093,2010-11-18 03:42:19,5072.583298119536,2,13,0.550297200679779,4.121462345123291,12.6886050025052,11.951449621706884,50.5721252026752,43.68344932158639,9.71794142969884e-05,0.0929468795657157,0,0,0
4184,143857.94979083954,2010-11-18 03:42:49,5102.598562913196,2,13,0.5501165986061096,4.12470006942749,12.693192018973704,11.951449621706884,50.59103781934066,43.68344932158639,6.47544875391759e-05,0.0929468795657157,0,0,0
4185,143887.96517238466,2010-11-18 03:43:19,5132.61394447332,2,13,0.5501165986061096,4.1277756690979,12.697779102394277,11.951449621706884,50.60996562351081,43.68344932158639,6.47544875391759e-05,0.0929468795657157,0,0,0
4186,143917.98066590427,2010-11-18 03:43:49,5162.629437977876,2,13,0.5501165986061096,4.13133716583252,12.702366188997912,11.951449621706884,50.62890852107293,43.68344932158639,9.70840483205393e-05,0.0929468795657157,0,0,0
4187,143947.99592158015,2010-11-18 03:44:19,5192.644693653774,2,13,0.550297200679779,4.134574890136719,12.706953267477124,11.951449621706884,50.647866576715934,43.68344932158639,9.70840483205393e-05,0.0929468795657157,0,0,0
4188,143978.01134406243,2010-11-18 03:44:49,5222.660116141059,2,13,0.550297200679779,4.137974739074707,12.711540417045388,11.951449621706884,50.66684023285202,43.68344932158639,9.71794142969884e-05,0.0929468795657157,0,0,0
4189,144008.02681079513,2010-11-18 03:45:19,5252.6755828687765,2,13,0.550297200679779,4.141374111175537,12.716127604982724,11.951449621706884,50.68582967861014,43.68344932158639,0.0001295089750783,0.0929468795657157,0,0,0
4190,144038.0423366354,2010-11-18 03:45:49,5282.691108709047,2,13,0.550297200679779,4.144935607910156,12.72071480743643,11.951449621706884,50.70483482422628,43.68344932158639,6.47544875391759e-05,0.0929468795657157,0,0,0
4191,144068.0574538958,2010-11-18 03:46:19,5312.706225974452,2,13,0.5501165986061096,4.148173332214356,12.725301900573346,11.951449621706884,50.72385558461538,43.68344932158639,3.23295607813634e-05,0.0929468795657157,0,0,0
4192,144098.07285585685,2010-11-18 03:46:49,5342.721627925475,2,13,0.5501165986061096,4.151734828948975,12.72988902821004,11.951449621706884,50.7428923479241,43.68344932158639,9.70840483205393e-05,0.0929468795657157,0,0,0
4193,144128.08821068026,2010-11-18 03:47:19,5372.736982753874,2,13,0.550297200679779,4.155296325683594,12.734476121374083,11.951449621706884,50.76194488515328,43.68344932158639,9.70840483205393e-05,0.0929468795657157,0,0,0
4194,144158.10359620026,2010-11-18 03:47:49,5402.752368273884,2,13,0.550297200679779,4.158696174621582,12.739063213153305,11.951449621706884,50.78101343816665,43.68344932158639,9.71794142969884e-05,0.0929468795657157,0,0,0
4195,144188.1189746075,2010-11-18 03:48:19,5432.767746681139,2,13,0.550297200679779,4.162257671356201,12.743650364036132,11.951449621706884,50.80009842457497,43.68344932158639,9.71794142969884e-05,0.0929468795657157,0,0,0
4196,144218.13537695564,2010-11-18 03:48:49,5462.784149024295,2,13,0.550297200679779,4.165980815887451,12.748237602963382,11.951449621706884,50.81920003608172,43.68344932158639,0.0001295089750783,0.0929468795657157,0,0,0
4197,144248.14979801825,2010-11-18 03:49:19,5492.798570172084,2,13,0.5501165986061096,4.16938066482544,12.7528245982252,11.951449621706884,50.83831696958266,43.68344932158639,9.71794142969884e-05,0.0929468795657157,0,0,0
4198,144278.16512929785,2010-11-18 03:49:49,5522.813901371501,2,13,0.5499359965324402,4.172942161560059,12.757411676512357,11.951449621706884,50.85745070234428,43.68344932158639,9.71794142969884e-05,0.0929468795657157,0,0,0
4199,144308.1805211236,2010-11-18 03:50:19,5552.829293227325,2,13,0.5501165986061096,4.176503658294678,12.761998758047708,11.951449621706884,50.876601050626086,43.68344932158639,6.47544875391759e-05,0.0929468795657157,0,0,0
4200,144338.19589989175,2010-11-18 03:50:49,5582.844671965407,2,13,0.550297200679779,4.180388927459717,12.7665858800148,11.951449621706884,50.89576832975934,43.68344932158639,9.71794142969884e-05,0.0929468795657157,0,0,0
4201,144368.2112538931,2010-11-18 03:51:19,5612.86002596674,2,13,0.5501165986061096,4.183950424194336,12.771173012028028,11.951449621706884,50.91495233399099,43.68344932158639,0.0001295089750783,0.0929468795657157,0,0,0
4202,144398.2266331124,2010-11-18 03:51:49,5642.875405165973,2,13,0.5499359965324402,4.187511920928955,12.775760114634496,11.951449621706884,50.93415288411276,43.68344932158639,6.47544875391759e-05,0.0929468795657157,0,0,0
4203,144428.24202233163,2010-11-18 03:52:19,5672.890794405265,2,13,0.550297200679779,4.191397190093994,12.78034721213931,11.951449621706884,50.95337043057658,43.68344932158639,0.0001295089750783,0.0929468795657157,0,0,0
4204,144458.25740797195,2010-11-18 03:52:49,5702.906180045575,2,13,0.5501165986061096,4.195120334625244,12.78493434049188,11.951449621706884,50.97260522286767,43.68344932158639,6.47544875391759e-05,0.0929468795657157,0,0,0
4205,144488.27281608334,2010-11-18 03:53:19,5732.921588151964,2,13,0.5501165986061096,4.198843479156494,12.789521448671888,11.951449621706884,50.99185701111338,43.68344932158639,9.70840483205393e-05,0.0929468795657157,0,0,0
4206,144495.9133434802,2010-11-18 03:53:27,5740.562115553826,2,13,0.5504778623580933,4.200138568878174,12.790689125752952,11.951449621706884,50.99676043871981,43.68344932158639,0.0001942634553415,0.0929468795657157,0,0,0
4207,144525.93367630916,2010-11-18 03:53:57,30.015643739565306,3,13,0.0,4.118872165679932,12.790689125752952,11.951449621706884,50.99676043871981,43.68344932158639,-0.0003561019839253,0.0929468795657157,0,0,0
4208,144555.9488092888,2010-11-18 03:54:27,60.030776744257786,3,13,0.0,4.109158992767334,12.790689125752952,11.951449621706884,50.99676043871981,43.68344932158639,-0.0001942634553415,0.0929468795657157,0,0,0
4209,144585.96420496918,2010-11-18 03:54:57,90.04617239956661,3,13,0.0,4.103816986083984,12.790689125752952,11.951449621706884,50.99676043871981,43.68344932158639,-9.70840483205393e-05,0.0929468795657157,0,0,0
4210,144615.93296242837,2010-11-18 03:55:27,120.01492986878786,3,13,0.0,4.100255489349365,12.790689125752952,11.951449621706884,50.99676043871981,43.68344932158639,-6.47544875391759e-05,0.0929468795657157,0,0,0
4211,144615.93835087295,2010-11-18 03:55:27,2.656631361e-06,4,13,0.9776187539100648,4.199653148651123,12.79068912647439,11.951449621706884,50.99676044174959,43.68344932158639,0.0,0.0929468795657157,0,0,0
4212,144616.8632176477,2010-11-18 03:55:28,0.924869471488446,4,13,0.9274094104766846,4.199653148651123,12.790932188401952,11.951449621706884,50.9977812148464,43.68344932158639,0.0,0.0929468795657157,0,0,0
4213,144619.0321923372,2010-11-18 03:55:30,3.09384414596435,4,13,0.8768388032913208,4.199653148651123,12.791474487338682,11.951449621706884,51.00005869463239,43.68344932158639,0.0,0.0929468795657157,0,0,0
4214,144622.3289204127,2010-11-18 03:55:34,6.390572216417134,4,13,0.8268100023269653,4.199491024017334,12.792253445269123,11.951449621706884,51.00333005142738,43.68344932158639,-6.47544875391759e-05,0.0929468795657157,0,0,0
4215,144626.90702006372,2010-11-18 03:55:38,10.968671862456672,4,13,0.7767812609672546,4.199491024017334,12.793271870346302,11.951449621706884,51.00760709446613,43.68344932158639,-6.47544875391759e-05,0.0929468795657157,0,0,0
4216,144632.92260971095,2010-11-18 03:55:44,16.9842615096915,4,13,0.7267524600028992,4.199976921081543,12.794526299853237,11.951449621706884,51.01287529145669,43.68344932158639,6.47544875391759e-05,0.0929468795657157,0,0,0
4217,144640.76653792756,2010-11-18 03:55:52,24.82818974131582,4,13,0.6763625144958496,4.199653148651123,12.79605271659906,11.951449621706884,51.01928577166503,43.68344932158639,0.0,0.0929468795657157,0,0,0
4218,144651.3911805401,2010-11-18 03:56:03,35.452832348824565,4,13,0.6263337135314941,4.199653148651123,12.797971594375204,11.951449621706884,51.02734445513657,43.68344932158639,-3.23295607813634e-05,0.0929468795657157,0,0,0
4219,144666.360147289,2010-11-18 03:56:18,50.42179909273533,4,13,0.5763049721717834,4.199653148651123,12.800465270801745,11.951449621706884,51.03781713109193,43.68344932158639,-3.23295607813634e-05,0.0929468795657157,0,0,0
4220,144689.92226295965,2010-11-18 03:56:41,73.98391476339016,4,13,0.526276171207428,4.199653148651123,12.804060767629284,11.951449621706884,51.05291714991575,43.68344932158639,0.0,0.0929468795657157,0,0,0
4221,144730.81243355625,2010-11-18 03:57:22,114.87408538505731,4,13,0.4762474298477173,4.199653148651123,12.80972776555905,11.951449621706884,51.0767168538022,43.68344932158639,3.24249267578125e-05,0.0929468795657157,0,0,0
4222,144801.6712607603,2010-11-18 03:58:33,185.7329125640541,4,13,0.4262186586856842,4.199653148651123,12.818573289374685,11.951449621706884,51.11386539829076,43.68344932158639,-3.23295607813634e-05,0.0929468795657157,0,0,0
4223,144900.73295630264,2010-11-18 04:00:12,284.79460810638864,4,13,0.3761898875236511,4.199653148651123,12.829591888518364,11.951449621706884,51.16014022812005,43.68344932158639,3.24249267578125e-05,0.0929468795657157,0,0,0
4224,145023.20068422274,2010-11-18 04:02:15,407.262336026466,4,13,0.326161116361618,4.199653148651123,12.841520960591764,11.951449621706884,51.210238788827866,43.68344932158639,0.0,0.0929468795657157,0,0,0
4225,145169.7308971523,2010-11-18 04:04:41,553.7925490613108,4,13,0.2761323451995849,4.199814796447754,12.853758415319792,11.951449621706884,51.261632383089164,43.68344932158639,3.23295607813634e-05,0.0929468795657157,0,0,0
4226,145346.24496378866,2010-11-18 04:07:38,730.3066155923825,4,13,0.2259229570627212,4.199653148651123,12.866041752767476,11.951449621706884,51.313218670153525,43.68344932158639,-3.23295607813634e-05,0.0929468795657157,0,0,0
4227,145567.6181964899,2010-11-18 04:11:19,951.6798482936252,4,13,0.1758941859006881,4.199491024017334,12.878360869212306,11.951449621706884,51.36495514216658,43.68344932158639,-6.47544875391759e-05,0.0929468795657157,0,0,0
4228,145872.3970048897,2010-11-18 04:16:24,1256.4586566934386,4,13,0.1256848126649856,4.199653148651123,12.89105222516434,11.951449621706884,51.41825492351981,43.68344932158639,-3.23295607813634e-05,0.0929468795657157,0,0,0
4229,146363.08052543676,2010-11-18 04:24:34,1747.1421772404965,4,13,0.0756560415029525,4.199653148651123,12.90450222077769,11.951449621706884,51.47474083587302,43.68344932158639,0.0,0.0929468795657157,0,0,0
4230,146790.76457469628,2010-11-18 04:31:42,2174.8262265050066,4,13,0.0498289167881011,4.199814796447754,12.911872027484256,11.951449621706884,51.50569165385205,43.68344932158639,3.23295607813634e-05,0.0929468795657157,0,0,0
4231,146820.78750334342,2010-11-18 04:32:12,30.015363845907668,5,13,0.0,4.192368507385254,12.911872027484256,11.951449621706884,51.50569165385205,43.68344932158639,0.0,0.0929468795657157,0,0,0
4232,146850.78726360542,2010-11-18 04:32:42,60.015124107869255,5,13,0.0,4.191235065460205,12.911872027484256,11.951449621706884,51.50569165385205,43.68344932158639,-3.24249267578125e-05,0.0929468795657157,0,0,0
4233,146850.98283770884,2010-11-18 04:32:43,0.187528800737225,6,13,-1.9243103452026844e-05,4.191073417663574,12.911872027484256,11.951449622709282,51.50569165385205,43.68344932578752,0.0,0.0923051163554191,0,0,0
4234,146855.81113766835,2010-11-18 04:32:47,5.015828740201503,6,13,0.0007031940040178,4.191073417663574,12.911872895191292,11.95144962279372,51.50569529061526,43.68344932614141,-3.23295607813634e-05,0.0923051163554191,0,0,0
4235,146885.83449879716,2010-11-18 04:33:17,30.015511148597845,7,13,-1.099929690361023,4.025140285491943,12.911872895191292,11.960619482844525,51.50569529061526,43.72054149316109,-0.0008418083307333,0.0923051163554191,0,0,0
4236,146915.84974547062,2010-11-18 04:33:47,60.03075782202498,7,13,-1.0997490882873535,4.001343250274658,12.911872895191292,11.969789223883236,51.50569529061526,43.75733329250121,-0.0004856109735555,0.0923051163554191,0,0,0
4237,146945.86525698012,2010-11-18 04:34:17,90.04626933152369,7,13,-1.0997490882873535,3.985154628753662,12.911872895191292,11.978958965731572,51.50569529061526,43.79394508008836,-0.0003237724304199,0.0923051163554191,0,0,0
4238,146975.88051952314,2010-11-18 04:34:47,120.06153187456384,7,13,-1.099568486213684,3.972203731536865,12.911872895191292,11.988128570683946,51.50569529061526,43.830424487527175,-0.0002913951757363,0.0923051163554191,0,0,0
4239,147005.89590264717,2010-11-18 04:35:17,150.07691500360517,7,13,-1.099929690361023,3.961195468902588,12.911872895191292,11.997298202570724,51.50569529061526,43.86679608090338,-0.0002590179501567,0.0923051163554191,0,0,0
4240,147035.91130036765,2010-11-18 04:35:48,180.09231271905642,7,13,-1.0997490882873535,3.9511585235595694,12.911872895191292,12.006467912887874,51.50569529061526,43.90307188631154,-0.0002590179501567,0.0923051163554191,0,0,0
4241,147065.92676860915,2010-11-18 04:36:18,210.1077809906266,7,13,-1.0997490882873535,3.941607236862183,12.911872895191292,12.015637587410364,51.50569529061526,43.93925814340626,-0.0002266406954731,0.0923051163554191,0,0,0
4242,147095.94203988396,2010-11-18 04:36:48,240.12305223538755,7,13,-1.099929690361023,3.932541608810425,12.911872895191292,12.024807194903184,51.50569529061526,43.97535892998732,-0.0002266406954731,0.0923051163554191,0,0,0
4243,147125.95753527826,2010-11-18 04:37:18,270.1385476346727,7,13,-1.099929690361023,3.923637866973877,12.911872895191292,12.033976871439751,51.50569529061526,44.01137795305796,-0.0002266406954731,0.0923051163554191,0,0,0
4244,147155.9727946033,2010-11-18 04:37:48,300.15380695466763,7,13,-1.0997490882873535,3.915219783782959,12.911872895191292,12.043146502700363,51.50569529061526,44.04731770022115,-0.0002266406954731,0.0923051163554191,0,0,0
4245,147185.98818308566,2010-11-18 04:38:18,330.1691954470968,7,13,-1.0997490882873535,3.90696382522583,12.911872895191292,12.052316183143915,51.50569529061526,44.08317999206815,-0.0001942634553415,0.0923051163554191,0,0,0
4246,147216.00358370837,2010-11-18 04:38:48,360.18459608985506,7,13,-1.099929690361023,3.898545742034912,12.911872895191292,12.06148581223524,51.50569529061526,44.11896531071173,-0.0002266406954731,0.0923051163554191,0,0,0
4247,147246.0189487172,2010-11-18 04:39:18,390.1999610685905,7,13,-1.0997490882873535,3.890451431274414,12.911872895191292,12.070655444952507,51.50569529061526,44.15467537211286,-0.0002266406954731,0.0923051163554191,0,0,0
4248,147276.03433498406,2010-11-18 04:39:48,420.21534733546434,7,13,-1.099568486213684,3.882195234298706,12.911872895191292,12.07982511356584,51.50569529061526,44.1903114736405,-0.0002590179501567,0.0923051163554191,0,0,0
4249,147306.0497301782,2010-11-18 04:40:18,450.2307425396471,7,13,-1.0997490882873535,3.874262809753418,12.911872895191292,12.088994762890527,51.50569529061526,44.225873684145455,-0.0001942634553415,0.0923051163554191,0,0,0
4250,147336.06533151693,2010-11-18 04:40:48,480.24634386834833,7,13,-1.099568486213684,3.86633038520813,12.911872895191292,12.098164532024288,51.50569529061526,44.26136395528153,-0.0002266406954731,0.0923051163554191,0,0,0
4251,147366.08049949893,2010-11-18 04:41:18,510.2615118703996,7,13,-1.099929690361023,3.8587217330932617,12.911872895191292,12.107334096379594,51.50569529061526,44.29678157258903,-0.0001942634553415,0.0923051163554191,0,0,0
4252,147396.0959925674,2010-11-18 04:41:48,540.2770049288416,7,13,-1.099568486213684,3.850951194763184,12.911872895191292,12.116503787084667,51.50569529061526,44.33212913621746,-0.0001942634553415,0.0923051163554191,0,0,0
4253,147426.11127202265,2010-11-18 04:42:18,570.2922843840972,7,13,-1.0997490882873535,3.843504428863525,12.911872895191292,12.12567345272705,51.50569529061526,44.367407196756695,-0.0001942634553415,0.0923051163554191,0,0,0
4254,147456.12664619935,2010-11-18 04:42:48,600.3076585507671,7,13,-1.0997490882873535,3.835895776748657,12.911872895191292,12.134843164285558,51.50569529061526,44.40261681707164,-0.0002590179501567,0.0923051163554191,0,0,0
4255,147486.14204045618,2010-11-18 04:43:18,630.3230528075851,7,13,-1.099929690361023,3.828773021697998,12.911872895191292,12.144012825345932,51.50569529061526,44.437758659071385,-0.0001942634553415,0.0923051163554191,0,0,0
4256,147516.1576357899,2010-11-18 04:43:48,660.338648161372,7,13,-1.0997490882873535,3.82165002822876,12.911872895191292,12.153182586732685,51.50569529061526,44.47283412592538,-0.0001618862152099,0.0923051163554191,0,0,0
4257,147546.1727897068,2010-11-18 04:44:18,690.3538020582146,7,13,-1.0997490882873535,3.8145270347595215,12.911872895191292,12.162352189868454,51.50569529061526,44.50784337454041,-0.0001618862152099,0.0923051163554191,0,0,0
4258,147576.1881725401,2010-11-18 04:44:48,720.3691848965302,7,13,-1.099929690361023,3.807242155075073,12.911872895191292,12.171521864843132,51.50569529061526,44.54278774869846,-0.0001942634553415,0.0923051163554191,0,0,0
4259,147606.20354752382,2010-11-18 04:45:18,750.3845598752271,7,13,-1.0997490882873535,3.800766706466675,12.911872895191292,12.180691465492057,51.50569529061526,44.57766889587067,-0.0001295089750783,0.0923051163554191,0,0,0
4260,147636.2189465325,2010-11-18 04:45:48,780.399958908969,7,13,-1.0997490882873535,3.793967485427856,12.911872895191292,12.189860840611804,51.50569529061526,44.61248770513596,-0.0001618862152099,0.0923051163554191,0,0,0
4261,147666.23430511024,2010-11-18 04:46:18,810.415317461664,7,13,-1.099929690361023,3.787168264389038,12.911872895191292,12.199029852019716,51.50569529061526,44.64724392097346,-0.0001618862152099,0.0923051163554191,0,0,0
4262,147696.24984278006,2010-11-18 04:46:48,840.4308551314627,7,13,-1.0997490882873535,3.78101658821106,12.911872895191292,12.208198915458528,51.50569529061526,44.68194095467664,-0.0001618862152099,0.0923051163554191,0,0,0
4263,147726.265100887,2010-11-18 04:47:18,870.4461132384298,7,13,-1.0997490882873535,3.774864912033081,12.911872895191292,12.217367917329282,51.50569529061526,44.716580534601945,-0.0001295089750783,0.0923051163554191,0,0,0
4264,147756.28046061765,2010-11-18 04:47:48,900.4614729790901,7,13,-1.0997490882873535,3.768875122070313,12.911872895191292,12.226537151755352,51.50569529061526,44.75116450903426,-9.713172767078504e-05,0.0923051163554191,0,0,0
4265,147786.29584393214,2010-11-18 04:48:18,930.476856288582,7,13,-1.0997490882873535,3.762723445892334,12.911872895191292,12.235706884099722,51.50569529061526,44.78569462332049,-0.0001618862152099,0.0923051163554191,0,0,0
4266,147816.3112464947,2010-11-18 04:48:48,960.4922588461196,7,13,-1.099929690361023,3.756571769714356,12.911872895191292,12.244876620909018,51.50569529061526,44.82017003392978,-0.0002266406954731,0.0923051163554191,0,0,0
4267,147846.32675881626,2010-11-18 04:49:18,990.5077711977204,7,13,-1.099929690361023,3.750905990600586,12.911872895191292,12.2540464339582,51.50569529061526,44.85459176842316,-0.0001618862152099,0.0923051163554191,0,0,0
4268,147876.34199746462,2010-11-18 04:49:48,1020.5230098310784,7,13,-1.099929690361023,3.7450780868530273,12.911872895191292,12.263216116576148,51.50569529061526,44.888959651616695,-0.0001618862152099,0.0923051163554191,0,0,0
4269,147906.35750970597,2010-11-18 04:50:18,1050.5385220824287,7,13,-1.099929690361023,3.739412069320679,12.911872895191292,12.272385900607018,51.50569529061526,44.92327575978382,-0.0001295089750783,0.0923051163554191,0,0,0
4270,147936.37278214868,2010-11-18 04:50:48,1080.5537945301926,7,13,-1.0997490882873535,3.73406982421875,12.911872895191292,12.281555617377505,51.50569529061526,44.957540077959976,-9.713172767078504e-05,0.0923051163554191,0,0,0
4271,147966.3882704653,2010-11-18 04:51:18,1110.569282826748,7,13,-1.0997490882873535,3.7285656929016113,12.911872895191292,12.290725330913848,51.50569529061526,44.99175380783287,-9.713172767078504e-05,0.0923051163554191,0,0,0
4272,147996.4035261412,2010-11-18 04:51:48,1140.5845385226971,7,13,-1.0997490882873535,3.7232234477996826,12.911872895191292,12.299895009129337,51.50569529061526,45.02591887554193,-0.0001295089750783,0.0923051163554191,0,0,0
4273,148026.41891515994,2010-11-18 04:52:18,1170.599927531415,7,13,-1.0997490882873535,3.718043088912964,12.911872895191292,12.309064773458188,51.50569529061526,45.06003558464543,-0.0001295089750783,0.0923051163554191,0,0,0
4274,148056.4343262538,2010-11-18 04:52:48,1200.6153386302733,7,13,-1.0997490882873535,3.712700843811035,12.911872895191292,12.318234480972846,51.50569529061526,45.094104288242406,-0.0001295089750783,0.0923051163554191,0,0,0
4275,148086.44969732274,2010-11-18 04:53:18,1230.630709694198,7,13,-1.0997490882873535,3.7076823711395264,12.911872895191292,12.327404237246244,51.50569529061526,45.1281260974824,-9.713172767078504e-05,0.0923051163554191,0,0,0
4276,148116.46533662122,2010-11-18 04:53:48,1260.646348972628,7,13,-1.0997490882873535,3.7026638984680176,12.911872895191292,12.336574088647245,51.50569529061526,45.16210183498948,-9.713172767078504e-05,0.0923051163554191,0,0,0
4277,148146.4804463428,2010-11-18 04:54:18,1290.661458704227,7,13,-1.099568486213684,3.697807312011719,12.911872895191292,12.345743788443464,51.50569529061526,45.19603079062414,-6.47544875391759e-05,0.0923051163554191,0,0,0
4278,148176.49597217303,2010-11-18 04:54:48,1320.67698454951,7,13,-1.099929690361023,3.69278883934021,12.911872895191292,12.354913674869753,51.50569529061526,45.22991497355935,-0.0001295089750783,0.0923051163554191,0,0,0
4279,148206.51121614972,2010-11-18 04:55:18,1350.6922285061555,7,13,-1.099929690361023,3.687608480453491,12.911872895191292,12.364083468758016,51.50569529061526,45.26375401233156,-0.0001942634553415,0.0923051163554191,0,0,0
4280,148236.52659955446,2010-11-18 04:55:48,1380.7076119309354,7,13,-1.099929690361023,3.683075666427612,12.911872895191292,12.373253282508529,51.50569529061526,45.29754870642454,-6.47544875391759e-05,0.0923051163554191,0,0,0
4281,148266.54200309946,2010-11-18 04:56:18,1410.7230154659128,7,13,-1.099929690361023,3.6782190799713135,12.911872895191292,12.38242314636746,51.50569529061526,45.331299541897685,-0.0001295089750783,0.0923051163554191,0,0,0
4282,148296.56038958035,2010-11-18 04:56:48,1440.741402016958,7,13,-1.0997490882873535,3.6736862659454346,12.911872895191292,12.391593887745062,51.50569529061526,45.36501011196469,-6.47544875391759e-05,0.0923051163554191,0,0,0
4283,148326.5606558654,2010-11-18 04:57:18,1470.7416683020308,7,13,-1.0997490882873535,3.668991804122925,12.911872895191292,12.400759054961446,51.50569529061526,45.39865763078413,-0.0001295089750783,0.0923051163554191,0,0,0
4284,148356.57253953928,2010-11-18 04:57:48,1500.753551900706,7,13,-1.099929690361023,3.664297103881836,12.911872895191292,12.409927765267907,51.50569529061526,45.4322766097087,-0.0001618862152099,0.0923051163554191,0,0,0
4285,148386.58794274842,2010-11-18 04:58:18,1530.7689550998452,7,13,-1.0997490882873535,3.660249948501587,12.911872895191292,12.4190976033343,51.50569529061526,45.46585909608047,-6.47544875391759e-05,0.0923051163554191,0,0,0
4286,148416.60330560687,2010-11-18 04:58:48,1560.784317958288,7,13,-1.099929690361023,3.655717134475708,12.911872895191292,12.428267395716508,51.50569529061526,45.499401306734605,-9.713172767078504e-05,0.0923051163554191,0,0,0
4287,148446.61870157797,2010-11-18 04:59:18,1590.7997139243728,7,13,-1.099568486213684,3.651508092880249,12.911872895191292,12.437437151287591,51.50569529061526,45.53290390050269,-9.713172767078504e-05,0.0923051163554191,0,0,0
4288,148476.63420872658,2010-11-18 04:59:48,1620.815221093036,7,13,-1.099929690361023,3.64697527885437,12.911872895191292,12.44660700383365,51.50569529061526,45.56636739027678,-0.0001295089750783,0.0923051163554191,0,0,0
4289,148506.6494280618,2010-11-18 05:00:18,1650.8304404332357,7,13,-1.099568486213684,3.643090009689331,12.911872895191292,12.45577665474724,51.50569529061526,45.59979108930998,-6.47544875391759e-05,0.0923051163554191,0,0,0
4290,148536.66479858934,2010-11-18 05:00:48,1680.845810965834,7,13,-1.0997490882873535,3.638719081878662,12.911872895191292,12.464946316519873,51.50569529061526,45.63317684495641,-0.0001295089750783,0.0923051163554191,0,0,0
4291,148566.68025416925,2010-11-18 05:01:18,1710.861266666024,7,13,-1.099929690361023,3.634348154067993,12.911872895191292,12.474115975393614,51.50569529061526,45.6665232408506,-0.0001618862152099,0.0923051163554191,0,0,0
4292,148596.69554504298,2010-11-18 05:01:48,1740.8765574194815,7,13,-1.099929690361023,3.630139112472534,12.911872895191292,12.483285523906163,51.50569529061526,45.6998306144135,-0.0001618862152099,0.0923051163554191,0,0,0
4293,148626.71093237755,2010-11-18 05:02:18,1770.891944728958,7,13,-1.0997490882873535,3.626253843307495,12.911872895191292,12.492455178048523,51.50569529061526,45.73310019143863,-9.713172767078504e-05,0.0923051163554191,0,0,0
4294,148656.72641120548,2010-11-18 05:02:48,1800.9074235568785,7,13,-1.0997490882873535,3.622368574142456,12.911872895191292,12.501624809696136,51.50569529061526,45.76633263707594,-6.47544875391759e-05,0.0923051163554191,0,0,0
4295,148686.7416762648,2010-11-18 05:03:18,1830.9226886162,7,13,-1.0997490882873535,3.618321418762207,12.911872895191292,12.51079440494709,51.50569529061526,45.79952851307412,-6.47544875391759e-05,0.0923051163554191,0,0,0
4296,148716.75703599543,2010-11-18 05:03:48,1860.9380483718976,7,13,-1.099929690361023,3.614274263381958,12.911872895191292,12.519964000683142,51.50569529061526,45.83268885596424,-0.0001618862152099,0.0923051163554191,0,0,0
4297,148746.77239610703,2010-11-18 05:04:18,1890.9534084634336,7,13,-1.0997490882873535,3.610712766647339,12.911872895191292,12.529134308065926,51.50569529061526,45.86581677699223,-6.47544875391759e-05,0.0923051163554191,0,0,0
4298,148776.78789518547,2010-11-18 05:04:48,1920.9689075419028,7,13,-1.1001102924346924,3.6068274974823,12.911872895191292,12.538304623082723,51.50569529061526,45.89891062205161,-0.0001295089750783,0.0923051163554191,0,0,0
4299,148806.80317207932,2010-11-18 05:05:18,1950.9841844307523,7,13,-1.099929690361023,3.60342788696289,12.911872895191292,12.547474122021503,51.50569529061526,45.93196895626641,-9.713172767078504e-05,0.0923051163554191,0,0,0
4300,148836.81867232072,2010-11-18 05:05:48,1980.999684687161,7,13,-1.0997490882873535,3.6001901626586914,12.911872895191292,12.556643661151668,51.50569529061526,45.96499537440072,-3.237724376958795e-05,0.0923051163554191,0,0,0
4301,148866.8338895757,2010-11-18 05:06:18,2011.0149019521805,7,13,-1.0997490882873535,3.5966286659240723,12.911872895191292,12.565813073514718,51.50569529061526,45.9979904124958,-0.0001295089750783,0.0923051163554191,0,0,0
4302,148896.84937490485,2010-11-18 05:06:48,2041.030387271304,7,13,-1.0997490882873535,3.593390941619873,12.911872895191292,12.574982609987387,51.50569529061526,46.03095561577919,-6.47544875391759e-05,0.0923051163554191,0,0,0
4303,148926.86460839538,2010-11-18 05:07:18,2071.045620726737,7,13,-1.0997490882873535,3.590153455734253,12.911872895191292,12.584152030342052,51.50569529061526,46.06389082152226,-6.47544875391759e-05,0.0923051163554191,0,0,0
4304,148956.87996189043,2010-11-18 05:07:48,2101.060974221808,7,13,-1.0997490882873535,3.5869157314300537,12.911872895191292,12.5933214744903,51.50569529061526,46.09679683702106,-9.713172767078504e-05,0.0923051163554191,0,0,0
4305,148986.8952949595,2010-11-18 05:08:19,2131.0763073009166,7,13,-1.0997490882873535,3.5840017795562744,12.911872895191292,12.602490856483806,51.50569529061526,46.12967398377804,-9.713172767078504e-05,0.0923051163554191,0,0,0
4306,149016.91077766713,2010-11-18 05:08:49,2161.0917900185464,7,13,-1.099568486213684,3.581249713897705,12.911872895191292,12.61166026263497,51.50569529061526,46.162523234266416,-3.237724376958795e-05,0.0923051163554191,0,0,0
4307,149046.92601746338,2010-11-18 05:09:19,2191.107029839869,7,13,-1.0997490882873535,3.578011989593506,12.911872895191292,12.62082964423344,51.50569529061526,46.19534456603967,-6.47544875391759e-05,0.0923051163554191,0,0,0
4308,149076.94134226686,2010-11-18 05:09:49,2221.122354643321,7,13,-1.0997490882873535,3.5749361515045166,12.911872895191292,12.629999067973392,51.50569529061526,46.2281385142619,-9.713172767078504e-05,0.0923051163554191,0,0,0
4309,149106.95669303008,2010-11-18 05:10:19,2251.1377053865226,7,13,-1.0997490882873535,3.5720221996307373,12.911872895191292,12.639168413795646,51.50569529061526,46.26090479126932,-9.713172767078504e-05,0.0923051163554191,0,0,0
4310,149136.97215495084,2010-11-18 05:10:49,2281.15316732729,7,13,-1.0997490882873535,3.568784475326538,12.911872895191292,12.64833783788428,51.50569529061526,46.29364365829902,-6.47544875391759e-05,0.0923051163554191,0,0,0
4311,149166.9873954037,2010-11-18 05:11:19,2311.168407755127,7,13,-1.0997490882873535,3.565870523452759,12.911872895191292,12.657507147457547,51.50569529061526,46.32635395971405,-6.47544875391759e-05,0.0923051163554191,0,0,0
4312,149197.0027200668,2010-11-18 05:11:49,2341.1837324182284,7,13,-1.099929690361023,3.562794685363769,12.911872895191292,12.666676452480424,51.50569529061526,46.35903570189591,-3.237724376958795e-05,0.0923051163554191,0,0,0
4313,149227.01807236893,2010-11-18 05:12:19,2371.199084745384,7,13,-1.0997490882873535,3.5595569610595703,12.911872895191292,12.675845783346388,51.50569529061526,46.39168913431424,-6.47544875391759e-05,0.0923051163554191,0,0,0
4314,149257.03342790907,2010-11-18 05:12:49,2401.2144402805466,7,13,-1.099929690361023,3.556157350540161,12.911872895191292,12.685015152166534,51.50569529061526,46.42431304220953,-9.713172767078504e-05,0.0923051163554191,0,0,0
4315,149287.04911872617,2010-11-18 05:13:19,2431.2301311026367,7,13,-1.0997490882873535,3.552919626235962,12.911872895191292,12.694184573102364,51.50569529061526,46.45690684030724,-9.713172767078504e-05,0.0923051163554191,0,0,0
4316,149317.0640912202,2010-11-18 05:13:49,2461.2451036016823,7,13,-1.099929690361023,3.5495200157165527,12.911872895191292,12.703353792571097,51.50569529061526,46.48946902785461,-9.713172767078504e-05,0.0923051163554191,0,0,0
4317,149347.07939103126,2010-11-18 05:14:19,2491.2604034027245,7,13,-1.099929690361023,3.545796632766724,12.911872895191292,12.712523093299785,51.50569529061526,46.52199936878331,-0.0001295089750783,0.0923051163554191,0,0,0
4318,149377.09473226574,2010-11-18 05:14:49,2521.2757446171404,7,13,-1.0997490882873535,3.5423970222473145,12.911872895191292,12.721692398714074,51.50569529061526,46.554496702007626,-3.237724376958795e-05,0.0923051163554191,0,0,0
4319,149407.11007872823,2010-11-18 05:15:19,2551.2910911097315,7,13,-1.099568486213684,3.5386736392974854,12.911872895191292,12.73086171785279,51.50569529061526,46.586961220597175,-0.0001295089750783,0.0923051163554191,0,0,0
4320,149437.12552550616,2010-11-18 05:15:49,2581.3065378826377,7,13,-1.0997490882873535,3.534950256347656,12.911872895191292,12.74003112134336,51.50569529061526,46.61939215945566,-0.0001295089750783,0.0923051163554191,0,0,0
4321,149467.14078071588,2010-11-18 05:16:19,2611.3217930673104,7,13,-1.0997490882873535,3.531064987182617,12.911872895191292,12.749200397724303,51.50569529061526,46.65178775209738,-0.0001618862152099,0.0923051163554191,0,0,0
4322,149497.15607023126,2010-11-18 05:16:49,2641.337082582678,7,13,-1.0997490882873535,3.527017831802368,12.911872895191292,12.758369648181413,51.50569529061526,46.68414716715292,-0.0001295089750783,0.0923051163554191,0,0,0
4323,149527.17143018747,2010-11-18 05:17:19,2671.3524425689507,7,13,-1.099929690361023,3.522808790206909,12.911872895191292,12.767538938903206,51.50569529061526,46.71646930973601,-0.0001295089750783,0.0923051163554191,0,0,0
4324,149557.1867315524,2010-11-18 05:17:49,2701.367743928884,7,13,-1.0997490882873535,3.51843786239624,12.911872895191292,12.776708155510422,51.50569529061526,46.74875261798716,-0.0001942634553415,0.0923051163554191,0,0,0
4325,149587.20205687717,2010-11-18 05:18:19,2731.383069253637,7,13,-1.0997490882873535,3.5140669345855717,12.911872895191292,12.785877396534918,51.50569529061526,46.78099556339735,-9.713172767078504e-05,0.0923051163554191,0,0,0
4326,149617.2173878059,2010-11-18 05:18:49,2761.398400187391,7,13,-1.0997490882873535,3.509372472763061,12.911872895191292,12.795046706795198,51.50569529061526,46.813196105101184,-0.0001295089750783,0.0923051163554191,0,0,0
4327,149647.23272954163,2010-11-18 05:19:19,2791.413741893033,7,13,-1.0997490882873535,3.5043540000915527,12.911872895191292,12.804216003273147,51.50569529061526,46.84535193421199,-0.0001618862152099,0.0923051163554191,0,0,0
4328,149677.24806519717,2010-11-18 05:19:49,2821.429077573636,7,13,-1.0997490882873535,3.499011754989624,12.911872895191292,12.813385254648916,51.50569529061526,46.877460297596585,-0.0001618862152099,0.0923051163554191,0,0,0
4329,149707.2633712087,2010-11-18 05:20:19,2851.4443835901925,7,13,-1.099929690361023,3.4930219650268555,12.911872895191292,12.82255454959023,51.50569529061526,46.90951722190222,-0.0001942634553415,0.0923051163554191,0,0,0
4330,149737.27869872894,2010-11-18 05:20:49,2881.459711105413,7,13,-1.0997490882873535,3.486546516418457,12.911872895191292,12.831723834115824,51.50569529061526,46.941517055863805,-0.0001942634553415,0.0923051163554191,0,0,0
4331,149767.29408721637,2010-11-18 05:21:19,2911.47509959283,7,13,-1.0997490882873535,3.479099750518799,12.911872895191292,12.840893081630089,51.50569529061526,46.97345344556926,-0.0001942634553415,0.0923051163554191,0,0,0
4332,149797.3093581353,2010-11-18 05:21:49,2941.4903704867147,7,13,-1.099568486213684,3.470681667327881,12.911872895191292,12.850062262955516,51.50569529061526,47.00531611169697,-0.0002266406954731,0.0923051163554191,0,0,0
4333,149827.32468093376,2010-11-18 05:22:19,2971.5056933102246,7,13,-1.099568486213684,3.4604828357696533,12.911872895191292,12.859231505208133,51.50569529061526,47.03709363004403,-0.0002913951757363,0.0923051163554191,0,0,0
4334,149857.34025822746,2010-11-18 05:22:49,3001.521270593905,7,13,-1.0997490882873535,3.4480175971984863,12.911872895191292,12.868400751239223,51.50569529061526,47.068768147611365,-0.0003561496851034,0.0923051163554191,0,0,0
4335,149887.3553632974,2010-11-18 05:23:19,3031.536375668881,7,13,-1.099568486213684,3.43231463432312,12.911872895191292,12.877569869340002,51.50569529061526,47.10031333040823,-0.0004856586456298,0.0923051163554191,0,0,0
4336,149917.37066519872,2010-11-18 05:23:49,3061.5516775501155,7,13,-1.099568486213684,3.4112696647644043,12.911872895191292,12.886739043863948,51.50569529061526,47.131692703271774,-0.0006475448608398,0.0923051163554191,0,0,0
4337,149947.38598242824,2010-11-18 05:24:19,3091.5669948047243,7,13,-1.099929690361023,3.383587121963501,12.911872895191292,12.895908362180611,51.50569529061526,47.16285240188578,-0.0009065627818927,0.0923051163554191,0,0,0
4338,149977.4013032668,2010-11-18 05:24:49,3121.582315618216,7,13,-1.099568486213684,3.346353530883789,12.911872895191292,12.905077629478017,51.50569529061526,47.19371606233423,-0.0011331557761877,0.0923051163554191,0,0,0
4339,150007.41664460654,2010-11-18 05:25:19,3151.5976569579448,7,13,-1.0997490882873535,3.2942261695861816,12.911872895191292,12.914246838134003,51.50569529061526,47.2241737966877,-0.0016512393485754,0.0923051163554191,0,0,0
4340,150037.4319516306,2010-11-18 05:25:49,3181.612964007079,7,13,-1.0997490882873535,3.2208919525146484,12.911872895191292,12.923415981018223,51.50569529061526,47.25406333823632,-0.0022664070129394,0.0923051163554191,0,0,0
4341,150067.4475437413,2010-11-18 05:26:19,3211.6285560927085,7,13,-1.0997490882873535,3.111618995666504,12.911872895191292,12.93258525101615,51.50569529061526,47.28313198291566,-0.0034967423416674,0.0923051163554191,0,0,0
4342,150097.46262271612,2010-11-18 05:26:49,3241.6436350925965,7,13,-1.099568486213684,2.9157373905181885,12.911872895191292,12.9417544380762,51.50569529061526,47.310886154504125,-0.0074143409729003,0.0923051163554191,0,0,0
4343,150113.54354853093,2010-11-18 05:27:05,3257.724560967569,7,13,-1.099929690361023,2.715484619140625,12.911872895191292,12.94666693954607,51.50569529061526,47.324748256750624,-0.0111377714201807,0.0923051163554191,0,0,0
4344,150114.6499671821,2010-11-18 05:27:06,3258.830979533528,7,13,-1.0997490882873535,2.699620008468628,12.911872895191292,12.947004930551117,51.50569529061526,47.325663437880834,-0.0112996101379394,0.0923051163554191,0,0,0
4345,150174.67020563717,2010-11-18 05:28:06,60.01501553685931,8,13,0.0,3.30232048034668,12.911872895191292,12.947004930551117,51.50569529061526,47.325663437880834,0.0011979580158367,0.0923051163554191,0,0,0
4346,150174.86371167246,2010-11-18 05:28:07,0.187634700078272,9,13,-1.9243103452026844e-05,3.3024823665618896,12.911872895191292,12.947004931554082,51.50569529061526,47.32566344119311,0.0,0.0954576581716537,0,0,0
4347,150179.69166180876,2010-11-18 05:28:12,5.015584841392554,9,13,0.0003419754502829,3.309767246246338,12.911873699696246,12.94700493163716,51.50569795095588,47.32566344146747,0.0010684489971026,0.0954576581716537,0,0,0
