Data_Point,Test_Time(s),Date_Time,Step_Time(s),Step_Index,Cycle_Index,Current(A),Voltage(V),Charge_Capacity(Ah),Discharge_Capacity(Ah),Charge_Energy(Wh),Discharge_Energy(Wh),dV/dt(V/s),Internal_Resistance(Ohm),Is_FC_Data,AC_Impedance(Ohm),ACI_Phase_Angle(Deg)
7321,254119.4129911096,2010-11-19 10:20:42,30.015482196328527,1,23,0.0,3.3971855640411377,21.78548451077216,21.80756597490904,86.93813403795335,79.60892591241448,0.0006799221155233,0.0931989923119545,0,0,0
7322,254149.4280363352,2010-11-19 10:21:12,60.03052741689834,1,23,0.0,3.4185545444488525,21.78548451077216,21.80756597490904,86.93813403795335,79.60892591241448,0.0004532813909463,0.0931989923119545,0,0,0
7323,254179.4432980361,2010-11-19 10:21:42,90.04578911783645,1,23,0.0,3.435066699981689,21.78548451077216,21.80756597490904,86.93813403795335,79.60892591241448,0.0003561496851034,0.0931989923119545,0,0,0
7324,254209.41189347085,2010-11-19 10:22:12,120.01438455760726,1,23,0.0,3.4481794834136963,21.78548451077216,21.80756597490904,86.93813403795335,79.60892591241448,0.0003237724304199,0.0931989923119545,0,0,0
7325,254239.4337684576,2010-11-19 10:22:42,30.01520386657464,2,23,0.5497553944587708,3.610550880432129,21.79007038459102,21.80756597490904,86.9545322068888,79.60892591241448,0.0015541076427325,0.0931989923119545,0,0,0
7326,254269.44902155703,2010-11-19 10:23:12,60.03045699611723,2,23,0.5501165986061096,3.6571741104125977,21.79465614160687,21.80756597490904,86.97120327664165,79.60892591241448,0.0010360718006268,0.0931989923119545,0,0,0
7327,254299.46428160384,2010-11-19 10:23:42,90.0457170078388,2,23,0.5501165986061096,3.691008090972901,21.799241964682512,21.80756597490904,86.98805569895298,79.60892591241448,0.0008094310760498,0.0931989923119545,0,0,0
7328,254329.47955632728,2010-11-19 10:24:12,120.0609917362956,2,23,0.550297200679779,3.717719316482544,21.80382772422551,21.80756597490904,87.0050445394644,79.60892591241448,0.0007122993702068,0.0931989923119545,0,0,0
7329,254359.49492941127,2010-11-19 10:24:42,150.07636482026288,2,23,0.5501165986061096,3.739088296890259,21.80841353671855,21.80756597490904,87.02214332479613,79.60892591241448,0.0005504131549969,0.0931989923119545,0,0,0
7330,254389.5099912032,2010-11-19 10:25:12,180.09142661219735,2,23,0.5499359965324402,3.756733655929565,21.81299924601294,21.80756597490904,87.03933166209532,79.60892591241448,0.0004209041653666,0.0931989923119545,0,0,0
7331,254419.5256093288,2010-11-19 10:25:42,210.10704477792643,2,23,0.5501165986061096,3.769846439361572,21.817584995503925,21.80756597490904,87.05659110485593,79.60892591241448,0.0002913951757363,0.0931989923119545,0,0,0
7332,254449.5405619883,2010-11-19 10:26:12,240.12199740236207,2,23,0.5499359965324402,3.77810263633728,21.82217069293601,21.80756597490904,87.07389915185777,79.60892591241448,0.0001618862152099,0.0931989923119545,0,0,0
7333,254479.5558089023,2010-11-19 10:26:42,270.13724431137723,2,23,0.550297200679779,3.783768653869629,21.82675640307146,21.80756597490904,87.09123804102614,79.60892591241448,0.0001295089750783,0.0931989923119545,0,0,0
7334,254509.5710852448,2010-11-19 10:27:12,300.1525207390756,2,23,0.550297200679779,3.787977695465088,21.831342171892597,21.80756597490904,87.10859918864443,79.60892591241448,0.0001295089750783,0.0931989923119545,0,0,0
7335,254539.58633300097,2010-11-19 10:27:42,330.1677684099926,2,23,0.5501165986061096,3.791862964630127,21.83592797582212,21.80756597490904,87.12597942461824,79.60892591241448,6.47544875391759e-05,0.0931989923119545,0,0,0
7336,254569.60160381967,2010-11-19 10:28:12,360.18303921866504,2,23,0.5499359965324402,3.795748233795166,21.84051372593975,21.80756597490904,87.1433772409046,79.60892591241448,6.47544875391759e-05,0.0931989923119545,0,0,0
7337,254599.6168823827,2010-11-19 10:28:42,390.1983177917186,2,23,0.5499359965324402,3.799471616744995,21.84509954759901,21.80756597490904,87.16079256460121,79.60892591241448,6.47544875391759e-05,0.0931989923119545,0,0,0
7338,254629.6321310862,2010-11-19 10:29:12,420.21356649521306,2,23,0.5501165986061096,3.803194999694824,21.84968528142892,21.80756597490904,87.1782244097065,79.60892591241448,9.713172767078504e-05,0.0931989923119545,0,0,0
7339,254659.64761513213,2010-11-19 10:29:42,450.22905054617104,2,23,0.5499359965324402,3.8065946102142334,21.854271128825985,21.80756597490904,87.19567297563812,79.60892591241448,9.713172767078504e-05,0.0931989923119545,0,0,0
7340,254689.66279489856,2010-11-19 10:30:12,480.244230312588,2,23,0.5501165986061096,3.810156106948853,21.85885693885525,21.80756597490904,87.21313723813735,79.60892591241448,0.0001295089750783,0.0931989923119545,0,0,0
7341,254719.6779121038,2010-11-19 10:30:42,510.25934751283006,2,23,0.5501165986061096,3.8135557174682617,21.863442768215386,21.80756597490904,87.23061714599326,79.60892591241448,0.0001295089750783,0.0931989923119545,0,0,0
7342,254749.6931590429,2010-11-19 10:31:13,540.2745944519204,2,23,0.5499359965324402,3.816793441772461,21.86802858342923,21.80756597490904,87.24811256413494,79.60892591241448,6.47544875391759e-05,0.0931989923119545,0,0,0
7343,254779.70841197195,2010-11-19 10:31:43,570.2898473809624,2,23,0.5499359965324402,3.81986927986145,21.872614285630377,21.80756597490904,87.26562252876575,79.60892591241448,6.47544875391759e-05,0.0931989923119545,0,0,0
7344,254809.7236884247,2010-11-19 10:32:13,600.305123838736,2,23,0.5499359965324402,3.8232688903808594,21.87720006951982,21.80756597490904,87.2831475025925,79.60892591241448,9.713172767078504e-05,0.0931989923119545,0,0,0
7345,254839.73894588507,2010-11-19 10:32:43,630.3203812990888,2,23,0.5501165986061096,3.8265066146850586,21.88178579883293,21.80756597490904,87.30068684724301,79.60892591241448,9.713172767078504e-05,0.0931989923119545,0,0,0
7346,254869.7541925535,2010-11-19 10:33:13,660.3356279574786,2,23,0.5499359965324402,3.829582452774048,21.886371523533185,21.80756597490904,87.31824076006738,79.60892591241448,9.713172767078504e-05,0.0931989923119545,0,0,0
7347,254899.76944861532,2010-11-19 10:33:43,690.3508840243531,2,23,0.5501165986061096,3.832820177078247,21.89095727069899,21.80756597490904,87.33580955806003,79.60892591241448,9.713172767078504e-05,0.0931989923119545,0,0,0
7348,254929.78477005532,2010-11-19 10:34:13,720.3662054644092,2,23,0.5499359965324402,3.836057662963867,21.89554306708957,21.80756597490904,87.35339339417443,79.60892591241448,0.0001295089750783,0.0931989923119545,0,0,0
7349,254959.7999646338,2010-11-19 10:34:43,750.3814000427992,2,23,0.5499359965324402,3.8392953872680655,21.90012879746559,21.80756597490904,87.37099218850095,79.60892591241448,6.47544875391759e-05,0.0931989923119545,0,0,0
7350,254989.815227252,2010-11-19 10:35:13,780.3966626610269,2,23,0.5501165986061096,3.8428568840026855,21.90471456302497,21.80756597490904,87.38860654623863,79.60892591241448,6.47544875391759e-05,0.0931989923119545,0,0,0
7351,255019.83061894745,2010-11-19 10:35:43,810.4120543564512,2,23,0.5499359965324402,3.846256494522095,21.90930039819128,21.80756597490904,87.40623669390139,79.60892591241448,9.713172767078504e-05,0.0931989923119545,0,0,0
7352,255049.84598476827,2010-11-19 10:36:13,840.4274202023513,2,23,0.5499359965324402,3.849656105041504,21.91388618336904,21.80756597490904,87.42388235333635,79.60892591241448,9.713172767078504e-05,0.0931989923119545,0,0,0
7353,255079.8610342896,2010-11-19 10:36:43,870.4424696985939,2,23,0.5501165986061096,3.853055715560913,21.918471970315096,21.80756597490904,87.44154379360673,79.60892591241448,9.713172767078504e-05,0.0931989923119545,0,0,0
7354,255109.8762715044,2010-11-19 10:37:13,900.4577069134107,2,23,0.5501165986061096,3.856455326080322,21.923057791300163,21.80756597490904,87.45922096240469,79.60892591241448,9.713172767078504e-05,0.0931989923119545,0,0,0
7355,255139.89153564643,2010-11-19 10:37:43,930.4729710554424,2,23,0.5501165986061096,3.859854936599731,21.92764363166481,21.80756597490904,87.47691381852789,79.60892591241448,6.47544875391759e-05,0.0931989923119545,0,0,0
7356,255169.90682647005,2010-11-19 10:38:13,960.4882618790753,2,23,0.5501165986061096,3.86309266090393,21.93222938595742,21.80756597490904,87.49462170065415,79.60892591241448,6.47544875391759e-05,0.0931989923119545,0,0,0
7357,255199.922050512,2010-11-19 10:38:43,990.503485926023,2,23,0.5499359965324402,3.86633038520813,21.93681516465457,21.80756597490904,87.51234466844167,79.60892591241448,6.47544875391759e-05,0.0931989923119545,0,0,0
7358,255229.93732579183,2010-11-19 10:39:13,1020.5187612008436,2,23,0.5499359965324402,3.869568109512329,21.941400971677965,21.80756597490904,87.53008257079908,79.60892591241448,9.713172767078504e-05,0.0931989923119545,0,0,0
7359,255259.95260282105,2010-11-19 10:39:43,1050.5340382300433,2,23,0.5499359965324402,3.8726439476013184,21.9459867318425,21.80756597490904,87.54783469741156,79.60892591241448,6.47544875391759e-05,0.0931989923119545,0,0,0
7360,255289.96783346945,2010-11-19 10:40:13,1080.5492688834822,2,23,0.5499359965324402,3.8755578994750977,21.950572557476768,21.80756597490904,87.56560104746389,79.60892591241448,6.47544875391759e-05,0.0931989923119545,0,0,0
7361,255319.98311642848,2010-11-19 10:40:43,1110.5645518374713,2,23,0.5499359965324402,3.878633737564087,21.95515831977175,21.80756597490904,87.5833807329782,79.60892591241448,6.47544875391759e-05,0.0931989923119545,0,0,0
7362,255349.9983936632,2010-11-19 10:41:13,1140.5798291022593,2,23,0.5501165986061096,3.8812239170074463,21.95974409985454,21.80756597490904,87.6011735146821,79.60892591241448,3.237724376958795e-05,0.0931989923119545,0,0,0
7363,255380.0136610583,2010-11-19 10:41:43,1170.5950964673357,2,23,0.5501165986061096,3.8841378688812256,21.96432993530691,21.80756597490904,87.61897899166385,79.60892591241448,6.47544875391759e-05,0.0931989923119545,0,0,0
7364,255410.0289491301,2010-11-19 10:42:13,1200.6103845390994,2,23,0.5499359965324402,3.886566162109375,21.968915761908104,21.80756597490904,87.63679621934861,79.60892591241448,9.713172767078504e-05,0.0931989923119545,0,0,0
7365,255440.0441752522,2010-11-19 10:42:43,1230.6256106612277,2,23,0.5499359965324402,3.8888325691223145,21.973501548129164,21.80756597490904,87.65462446941751,79.60892591241448,6.47544875391759e-05,0.0931989923119545,0,0,0
7366,255470.05947339413,2010-11-19 10:43:13,1260.6409087880904,2,23,0.5499359965324402,3.891098976135254,21.97808737805434,21.80756597490904,87.67246332629796,79.60892591241448,6.47544875391759e-05,0.0931989923119545,0,0,0
7367,255500.07475701475,2010-11-19 10:43:43,1290.6561925440813,2,23,0.5501165986061096,3.893203496932984,21.982673195350557,21.80756597490904,87.69031181420273,79.60892591241448,6.47544875391759e-05,0.0931989923119545,0,0,0
7368,255530.08996052545,2010-11-19 10:44:13,1320.6713959194296,2,23,0.5497553944587708,3.894822359085083,21.987259004948115,21.80756597490904,87.70816929889747,79.60892591241448,0.0,0.0931989923119545,0,0,0
7369,255560.1052122064,2010-11-19 10:44:43,1350.6866476254188,2,23,0.5499359965324402,3.896926879882813,21.991844820897096,21.80756597490904,87.72603474098358,79.60892591241448,9.713172767078504e-05,0.0931989923119545,0,0,0
7370,255590.12047219303,2010-11-19 10:45:13,1380.701907612078,2,23,0.5501165986061096,3.898383855819702,21.99643068003919,21.80756597490904,87.74390835304447,79.60892591241448,3.237724376958795e-05,0.0931989923119545,0,0,0
7371,255620.13592543209,2010-11-19 10:45:43,1410.717360846112,2,23,0.5501165986061096,3.9000027179718018,22.001016554536545,21.80756597490904,87.76178945739768,79.60892591241448,6.47544875391759e-05,0.0931989923119545,0,0,0
7372,255650.15119394503,2010-11-19 10:46:13,1440.7326294041666,2,23,0.5501165986061096,3.9012978076934814,22.00560242224626,21.80756597490904,87.77967738564978,79.60892591241448,0.0,0.0931989923119545,0,0,0
7373,255680.16625392743,2010-11-19 10:46:43,1470.7476893364592,2,23,0.5501165986061096,3.902916669845581,22.01018819995408,21.80756597490904,87.79757161080191,79.60892591241448,6.47544875391759e-05,0.0931989923119545,0,0,0
7374,255710.1814915031,2010-11-19 10:47:13,1500.7629269171896,2,23,0.5501165986061096,3.9042117595672607,22.014774000605083,21.80756597490904,87.81547228899402,79.60892591241448,6.47544875391759e-05,0.0931989923119545,0,0,0
7375,255740.19680998585,2010-11-19 10:47:43,1530.7782453998634,2,23,0.5499359965324402,3.9053449630737305,22.01935980878292,21.80756597490904,87.83337908150138,79.60892591241448,0.0,0.0931989923119545,0,0,0
7376,255770.21207098503,2010-11-19 10:48:13,1560.79350639905,2,23,0.5499359965324402,3.90664005279541,22.02394556266191,21.80756597490904,87.85129158529745,79.60892591241448,0.0,0.0931989923119545,0,0,0
7377,255800.2273221998,2010-11-19 10:48:43,1590.8087576088003,2,23,0.5495747923851013,3.90793514251709,22.028531287284032,21.80756597490904,87.86920995289384,79.60892591241448,3.237724376958795e-05,0.0931989923119545,0,0,0
7378,255830.24280572945,2010-11-19 10:49:13,1620.8242411434696,2,23,0.5499359965324402,3.90939211845398,22.033117049438463,21.80756597490904,87.88713444846879,79.60892591241448,6.47544875391759e-05,0.0931989923119545,0,0,0
7379,255860.257842529,2010-11-19 10:49:43,1650.8392779630692,2,23,0.5499359965324402,3.910525321960449,22.03770279859525,21.80756597490904,87.90506482794021,79.60892591241448,3.237724376958795e-05,0.0931989923119545,0,0,0
7380,255890.2731275732,2010-11-19 10:50:13,1680.8545629922382,2,23,0.5499359965324402,3.911820411682129,22.04228858461064,21.80756597490904,87.92300114843846,79.60892591241448,0.0,0.0931989923119545,0,0,0
7381,255920.2884032991,2010-11-19 10:50:43,1710.869838698135,2,23,0.5499359965324402,3.9132773876190186,22.046874604102065,21.80756597490904,87.94094434735351,79.60892591241448,6.47544875391759e-05,0.0931989923119545,0,0,0
7382,255950.3036139075,2010-11-19 10:51:13,1740.8850493215757,2,23,0.5501165986061096,3.914572238922119,22.051461165701227,21.80756597490904,87.95889562535126,79.60892591241448,6.47544875391759e-05,0.0931989923119545,0,0,0
7383,255980.31887366864,2010-11-19 10:51:43,1770.9003090776591,2,23,0.5501165986061096,3.915867328643799,22.05604774226396,21.80756597490904,87.97685286573831,79.60892591241448,6.47544875391759e-05,0.0931989923119545,0,0,0
7384,256010.33718200945,2010-11-19 10:52:13,1800.9186175287546,2,23,0.5501165986061096,3.917000532150269,22.060634699631084,21.80756597490904,87.99481753729683,79.60892591241448,0.0,0.0931989923119545,0,0,0
7385,256040.3494341581,2010-11-19 10:52:43,1830.9308696723745,2,23,0.5501165986061096,3.918619394302368,22.06522054561403,21.80756597490904,88.01278396376225,79.60892591241448,3.237724376958795e-05,0.0931989923119545,0,0,0
7386,256070.364667804,2010-11-19 10:53:13,1860.9461032330703,2,23,0.5499359965324402,3.919752597808838,22.069806301045823,21.80756597490904,88.0307561668731,79.60892591241448,3.237724376958795e-05,0.0931989923119545,0,0,0
7387,256100.3799413595,2010-11-19 10:53:43,1890.9613767735616,2,23,0.5501165986061096,3.921209573745728,22.074392086594937,21.80756597490904,88.04873462550285,79.60892591241448,3.237724376958795e-05,0.0931989923119545,0,0,0
7388,256130.3952066143,2010-11-19 10:54:13,1920.976642033383,2,23,0.5501165986061096,3.9225046634674072,22.078977762472924,21.80756597490904,88.06671881162433,79.60892591241448,3.237724376958795e-05,0.0931989923119545,0,0,0
7389,256160.41044514743,2010-11-19 10:54:43,1950.991880566491,2,23,0.5501165986061096,3.923961639404297,22.083563555799284,21.80756597490904,88.08470969714051,79.60892591241448,6.47544875391759e-05,0.0931989923119545,0,0,0
7390,256190.42570393617,2010-11-19 10:55:13,1981.007139340122,2,23,0.5499359965324402,3.9254186153411865,22.088149286824898,21.80756597490904,88.10270660229804,79.60892591241448,6.47544875391759e-05,0.0931989923119545,0,0,0
7391,256220.4411034811,2010-11-19 10:55:43,2011.022538895165,2,23,0.5497553944587708,3.9263899326324463,22.09273509992901,21.80756597490904,88.12071001036331,79.60892591241448,0.0,0.0931989923119545,0,0,0
7392,256250.456238566,2010-11-19 10:56:13,2041.0376739800504,2,23,0.5501165986061096,3.928008794784546,22.09732077864957,21.80756597490904,88.13871928901811,79.60892591241448,6.47544875391759e-05,0.0931989923119545,0,0,0
7393,256280.47148687355,2010-11-19 10:56:43,2071.0529222775317,2,23,0.5499359965324402,3.9293038845062256,22.10190650304408,21.80756597490904,88.15673518911386,79.60892591241448,0.0,0.0931989923119545,0,0,0
7394,256310.48675750176,2010-11-19 10:57:13,2101.068192910766,2,23,0.5499359965324402,3.9307608604431152,22.10649216101551,21.80756597490904,88.17475732137105,79.60892591241448,0.0,0.0931989923119545,0,0,0
7395,256340.50213563832,2010-11-19 10:57:43,2131.083571047345,2,23,0.5499359965324402,3.932217836380005,22.11107787563424,21.80756597490904,88.19278617985606,79.60892591241448,3.237724376958795e-05,0.0931989923119545,0,0,0
7396,256370.5174198655,2010-11-19 10:58:13,2161.0988552945623,2,23,0.5497553944587708,3.933512926101685,22.11566350567129,21.80756597490904,88.21082128564717,79.60892591241448,0.0,0.0931989923119545,0,0,0
7397,256400.532557196,2010-11-19 10:58:43,2191.1139926050027,2,23,0.5499359965324402,3.934969902038574,22.12024921996419,21.80756597490904,88.22886335477534,79.60892591241448,0.0,0.0931989923119545,0,0,0
7398,256430.54780411505,2010-11-19 10:59:13,2221.129239549105,2,23,0.5499359965324402,3.936426877975464,22.1248349676312,21.80756597490904,88.24691209595349,79.60892591241448,3.237724376958795e-05,0.0931989923119545,0,0,0
7399,256460.5630494301,2010-11-19 10:59:43,2251.1444848290544,2,23,0.5499359965324402,3.9378838539123535,22.12942066908703,21.80756597490904,88.26496733414743,79.60892591241448,0.0,0.0931989923119545,0,0,0
7400,256490.5783377274,2010-11-19 11:00:13,2281.159773136406,2,23,0.5499359965324402,3.939340829849243,22.134006428992045,21.80756597490904,88.28302956601374,79.60892591241448,0.0,0.0931989923119545,0,0,0
7401,256520.59359583436,2010-11-19 11:00:43,2311.175031243373,2,23,0.5501165986061096,3.940959692001343,22.138592169742378,21.80756597490904,88.30109851704987,79.60892591241448,3.237724376958795e-05,0.0931989923119545,0,0,0
7402,256550.6088323424,2010-11-19 11:01:13,2341.1902677564385,2,23,0.5501165986061096,3.942416667938232,22.1431778302594,21.80756597490904,88.3191738534903,79.60892591241448,3.237724376958795e-05,0.0931989923119545,0,0,0
7403,256580.62422103537,2010-11-19 11:01:43,2371.205656449368,2,23,0.5499359965324402,3.943873643875122,22.14776350225064,21.80756597490904,88.33725613388376,79.60892591241448,0.0,0.0931989923119545,0,0,0
7404,256610.63937403995,2010-11-19 11:02:13,2401.2208094539837,2,23,0.5501165986061096,3.945654392242432,22.15234915773373,21.80756597490904,88.35534527371364,79.60892591241448,6.47544875391759e-05,0.0931989923119545,0,0,0
7405,256640.65461448283,2010-11-19 11:02:43,2431.236049896858,2,23,0.5499359965324402,3.9469494819641113,22.15693488852189,21.80756597490904,88.37344175068311,79.60892591241448,3.237724376958795e-05,0.0931989923119545,0,0,0
7406,256670.66987982785,2010-11-19 11:03:14,2461.251315231867,2,23,0.5499359965324402,3.948568344116211,22.16152060571273,21.80756597490904,88.39154516185991,79.60892591241448,3.237724376958795e-05,0.0931989923119545,0,0,0
7407,256700.68515933325,2010-11-19 11:03:44,2491.266594752285,2,23,0.5501165986061096,3.9500253200531006,22.16610627571098,21.80756597490904,88.40965547161936,79.60892591241448,3.237724376958795e-05,0.0931989923119545,0,0,0
7408,256730.70042999656,2010-11-19 11:04:14,2521.2818654105827,2,23,0.5499359965324402,3.9516441822052,22.17069196171628,21.80756597490904,88.42777303718134,79.60892591241448,3.237724376958795e-05,0.0931989923119545,0,0,0
7409,256760.71566553216,2010-11-19 11:04:44,2551.297100936183,2,23,0.5501165986061096,3.9534249305725098,22.17527760305654,21.80756597490904,88.44589752396148,79.60892591241448,6.47544875391759e-05,0.0931989923119545,0,0,0
7410,256790.730918767,2010-11-19 11:05:14,2581.3123541810137,2,23,0.5501165986061096,3.9548819065094,22.17986321803001,21.80756597490904,88.46402921868945,79.60892591241448,6.47544875391759e-05,0.0931989923119545,0,0,0
7411,256820.74618152052,2010-11-19 11:05:44,2611.327616924554,2,23,0.5499359965324402,3.956500768661499,22.18444885514228,21.80756597490904,88.48216832804083,79.60892591241448,6.47544875391759e-05,0.0931989923119545,0,0,0
7412,256850.761574028,2010-11-19 11:06:14,2641.343009416968,2,23,0.5499359965324402,3.9577958583831783,22.189034532667485,21.80756597490904,88.50031484551842,79.60892591241448,0.0,0.0931989923119545,0,0,0
7413,256880.7766960252,2010-11-19 11:06:44,2671.3581314342337,2,23,0.5499359965324402,3.959576606750488,22.19362008244147,21.80756597490904,88.5184683277727,79.60892591241448,3.237724376958795e-05,0.0931989923119545,0,0,0
7414,256910.79208768057,2010-11-19 11:07:14,2701.373523094571,2,23,0.5499359965324402,3.961357355117798,22.198205706393527,21.80756597490904,88.53662959704948,79.60892591241448,6.47544875391759e-05,0.0931989923119545,0,0,0
7415,256940.8072395473,2010-11-19 11:07:44,2731.388674956333,2,23,0.5499359965324402,3.9631381034851074,22.20279133442797,21.80756597490904,88.55479832360271,79.60892591241448,6.47544875391759e-05,0.0931989923119545,0,0,0
7416,256970.8227195131,2010-11-19 11:08:14,2761.404154922094,2,23,0.5501165986061096,3.964756965637207,22.2073770136212,21.80756597490904,88.57297470432525,79.60892591241448,6.47544875391759e-05,0.0931989923119545,0,0,0
7417,257000.8377647988,2010-11-19 11:08:44,2791.419200212839,2,23,0.5499359965324402,3.9662139415740967,22.21196265083488,21.80756597490904,88.59115850927614,79.60892591241448,6.47544875391759e-05,0.0931989923119545,0,0,0
7418,257030.8530107053,2010-11-19 11:09:14,2821.434446124364,2,23,0.5501165986061096,3.967832803726196,22.21654833043355,21.80756597490904,88.60935010330746,79.60892591241448,3.237724376958795e-05,0.0931989923119545,0,0,0
7419,257060.8682692384,2010-11-19 11:09:44,2851.449704652382,2,23,0.5499359965324402,3.969613552093506,22.22113396198161,21.80756597490904,88.6275492282178,79.60892591241448,6.47544875391759e-05,0.0931989923119545,0,0,0
7420,257090.8835770193,2010-11-19 11:10:14,2881.465012438356,2,23,0.5499359965324402,3.9712324142456055,22.225719619550453,21.80756597490904,88.64575626332004,79.60892591241448,0.0,0.0931989923119545,0,0,0
7421,257120.8988297328,2010-11-19 11:10:44,2911.480265973912,2,23,0.5499359965324402,3.973013162612915,22.23030538481328,21.80756597490904,88.66397164846173,79.60892591241448,6.47544875391759e-05,0.0931989923119545,0,0,0
7422,257150.91408670697,2010-11-19 11:11:14,2941.495522131012,2,23,0.5499359965324402,3.9747939109802246,22.23489105921457,21.80756597490904,88.68219456746647,79.60892591241448,6.47544875391759e-05,0.0931989923119545,0,0,0
7423,257180.92932492428,2010-11-19 11:11:44,2971.510760333293,2,23,0.5501165986061096,3.976574659347534,22.23947675472313,21.80756597490904,88.70042560418737,79.60892591241448,6.47544875391759e-05,0.0931989923119545,0,0,0
7424,257210.94460091088,2010-11-19 11:12:14,3001.526036319891,2,23,0.5499359965324402,3.977869749069214,22.24406259876812,21.80756597490904,88.71866496194738,79.60892591241448,0.0,0.0931989923119545,0,0,0
7425,257240.9598428124,2010-11-19 11:12:44,3031.541278221406,2,23,0.5501165986061096,3.980136156082153,22.248648234238765,21.80756597490904,88.73691162829128,79.60892591241448,6.47544875391759e-05,0.0931989923119545,0,0,0
7426,257270.97510007725,2010-11-19 11:13:14,3061.5565354862715,2,23,0.5499359965324402,3.981916904449463,22.253233809102703,21.80756597490904,88.75516630150648,79.60892591241448,9.713172767078504e-05,0.0931989923119545,0,0,0
7427,257300.9904870409,2010-11-19 11:13:44,3091.5719224498844,2,23,0.5499359965324402,3.9835357666015625,22.25781949106373,21.80756597490904,88.77342956744003,79.60892591241448,6.47544875391759e-05,0.0931989923119545,0,0,0
7428,257331.0057623959,2010-11-19 11:14:14,3121.587197804906,2,23,0.5501165986061096,3.985478401184082,22.262405067034045,21.80756597490904,88.79170073761415,79.60892591241448,6.47544875391759e-05,0.0931989923119545,0,0,0
7429,257361.02091440803,2010-11-19 11:14:44,3151.6023498120308,2,23,0.5499359965324402,3.987259149551392,22.26699065683348,21.80756597490904,88.80998038595285,79.60892591241448,3.237724376958795e-05,0.0931989923119545,0,0,0
7430,257391.0362941887,2010-11-19 11:15:14,3181.617729597727,2,23,0.5501165986061096,3.989039897918701,22.27157629633891,21.80756597490904,88.82826872990506,79.60892591241448,3.237724376958795e-05,0.0931989923119545,0,0,0
7431,257421.0515307218,2010-11-19 11:15:44,3211.632966130842,2,23,0.5499359965324402,3.9909825325012207,22.27616181735125,21.80756597490904,88.8465652083754,79.60892591241448,3.237724376958795e-05,0.0931989923119545,0,0,0
7432,257451.06667707983,2010-11-19 11:16:14,3241.6481124888664,2,23,0.5499359965324402,3.99292516708374,22.28074740978079,21.80756597490904,88.86487071646216,79.60892591241448,3.237724376958795e-05,0.0931989923119545,0,0,0
7433,257481.08193568807,2010-11-19 11:16:44,3271.6633710920723,2,23,0.5499359965324402,3.9948675632476807,22.285333015664268,21.80756597490904,88.88318500203303,79.60892591241448,6.47544875391759e-05,0.0931989923119545,0,0,0
7434,257511.0971883715,2010-11-19 11:17:14,3301.6786237805136,2,23,0.5497553944587708,3.9966483116149902,22.289918657197106,21.80756597490904,88.90150832392999,79.60892591241448,3.237724376958795e-05,0.0931989923119545,0,0,0
7435,257541.1126082272,2010-11-19 11:17:44,3331.6940436412438,2,23,0.5501165986061096,3.99875283241272,22.29450428266346,21.80756597490904,88.91984055884932,79.60892591241448,6.47544875391759e-05,0.0931989923119545,0,0,0
7436,257571.1277818232,2010-11-19 11:18:14,3361.709217232245,2,23,0.5501165986061096,4.000695705413818,22.299089870665288,21.80756597490904,88.93818174805915,79.60892591241448,3.24249267578125e-05,0.0931989923119545,0,0,0
7437,257601.14298474244,2010-11-19 11:18:44,3391.724420151455,2,23,0.5499359965324402,4.002799987792969,22.30367543694869,21.80756597490904,88.95653224462013,79.60892591241448,6.47544875391759e-05,0.0931989923119545,0,0,0
7438,257631.1582327492,2010-11-19 11:19:14,3421.739668153198,2,23,0.5495747923851013,4.004742622375488,22.30826102411008,21.80756597490904,88.97489230009637,79.60892591241448,3.23295607813634e-05,0.0931989923119545,0,0,0
7439,257661.1734922396,2010-11-19 11:19:44,3451.754927658656,2,23,0.5501165986061096,4.007009029388428,22.312846628954063,21.80756597490904,88.99326195797538,79.60892591241448,6.47544875391759e-05,0.0931989923119545,0,0,0
7440,257691.18876023623,2010-11-19 11:20:14,3481.770195645284,2,23,0.5501165986061096,4.008951663970947,22.317432272608272,21.80756597490904,89.0116413480514,79.60892591241448,3.23295607813634e-05,0.0931989923119545,0,0,0
7441,257721.2040194059,2010-11-19 11:20:44,3511.785454819916,2,23,0.5501165986061096,4.011380195617676,22.322017861013588,21.80756597490904,89.03003020491875,79.60892591241448,9.71794142969884e-05,0.0931989923119545,0,0,0
7442,257751.2195059982,2010-11-19 11:21:14,3541.8009414172298,2,23,0.5501165986061096,4.013484477996826,22.326603467421947,21.80756597490904,89.04842897816206,79.60892591241448,9.70840483205393e-05,0.0931989923119545,0,0,0
7443,257781.2345622313,2010-11-19 11:21:44,3571.815997640264,2,23,0.5501165986061096,4.015589237213135,22.33118905404476,21.80756597490904,89.06683764426928,79.60892591241448,3.24249267578125e-05,0.0931989923119545,0,0,0
7444,257811.24981629316,2010-11-19 11:22:14,3601.8312517021336,2,23,0.5501165986061096,4.017855644226074,22.33577462665332,21.80756597490904,89.08525634182628,79.60892591241448,6.47544875391759e-05,0.0931989923119545,0,0,0
7445,257841.26508015444,2010-11-19 11:22:44,3631.846515583514,2,23,0.5499359965324402,4.019959926605225,22.340360292953623,21.80756597490904,89.10368553976063,79.60892591241448,6.47544875391759e-05,0.0931989923119545,0,0,0
7446,257871.2805846565,2010-11-19 11:23:14,3661.8620202108336,2,23,0.550297200679779,4.022388458251953,22.34494584040383,21.80756597490904,89.12212459135208,79.60892591241448,9.71794142969884e-05,0.0931989923119545,0,0,0
7447,257901.29558121052,2010-11-19 11:23:44,3691.8770166245754,2,23,0.5499359965324402,4.024492740631104,22.349531408123436,21.80756597490904,89.14057418874921,79.60892591241448,6.47544875391759e-05,0.0931989923119545,0,0,0
7448,257931.313863366,2010-11-19 11:24:14,3721.895298860232,2,23,0.5501165986061096,4.026921272277832,22.35411746990536,21.80756597490904,89.1590361967727,79.60892591241448,9.71794142969884e-05,0.0931989923119545,0,0,0
7449,257961.32613805588,2010-11-19 11:24:44,3751.907573474943,2,23,0.5499359965324402,4.029025554656982,22.358702636299345,21.80756597490904,89.17750518571084,79.60892591241448,0.0,0.0931989923119545,0,0,0
7450,257991.34142567657,2010-11-19 11:25:14,3781.9228610955806,2,23,0.5499359965324402,4.031454086303711,22.36328818559925,21.80756597490904,89.19598620573308,79.60892591241448,3.24249267578125e-05,0.0931989923119545,0,0,0
7451,258021.35662971355,2010-11-19 11:25:44,3811.938065132581,2,23,0.5501165986061096,4.03372049331665,22.367873740320448,21.80756597490904,89.21447802766708,79.60892591241448,6.47544875391759e-05,0.0931989923119545,0,0,0
7452,258051.3720342811,2010-11-19 11:26:14,3841.953469700136,2,23,0.5499359965324402,4.036148548126221,22.37245930777866,21.80756597490904,89.23298067999052,79.60892591241448,3.24249267578125e-05,0.0931989923119545,0,0,0
7453,258081.3871442082,2010-11-19 11:26:44,3871.968579617198,2,23,0.5501165986061096,4.038576602935791,22.377044857485338,21.80756597490904,89.2514942315926,79.60892591241448,6.47544875391759e-05,0.0931989923119545,0,0,0
7454,258111.4025306956,2010-11-19 11:27:14,3901.983966114647,2,23,0.5499359965324402,4.04100513458252,22.381630458292847,21.80756597490904,89.27001900676115,79.60892591241448,3.24249267578125e-05,0.0931989923119545,0,0,0
7455,258141.4176724672,2010-11-19 11:27:44,3931.999107876198,2,23,0.5499359965324402,4.04343318939209,22.386216051912225,21.80756597490904,89.28855495422673,79.60892591241448,9.70840483205393e-05,0.0931989923119545,0,0,0
7456,258171.432946128,2010-11-19 11:28:14,3962.0143815269657,2,23,0.5499359965324402,4.045861721038818,22.390801660818937,21.80756597490904,89.3071022701962,79.60892591241448,3.24249267578125e-05,0.0931989923119545,0,0,0
7457,258201.4482165306,2010-11-19 11:28:44,3992.029651949674,2,23,0.5499359965324402,4.048451900482178,22.39538719647725,21.80756597490904,89.32566068611763,79.60892591241448,6.47544875391759e-05,0.0931989923119545,0,0,0
7458,258231.4634536703,2010-11-19 11:29:14,4022.044889079279,2,23,0.5501165986061096,4.051042079925537,22.39997280138023,21.80756597490904,89.34423084935892,79.60892591241448,0.0001295089750783,0.0931989923119545,0,0,0
7459,258261.47935671208,2010-11-19 11:29:44,4052.060792251428,2,23,0.5499359965324402,4.053308486938477,22.40455842583756,21.80756597490904,89.36281262851541,79.60892591241448,3.24249267578125e-05,0.0931989923119545,0,0,0
7460,258291.49411297136,2010-11-19 11:30:14,4082.075548375368,2,23,0.5499359965324402,4.056060314178467,22.40914387061175,21.80756597490904,89.38140538614464,79.60892591241448,9.70840483205393e-05,0.0931989923119545,0,0,0
7461,258321.50922994604,2010-11-19 11:30:44,4112.090665355059,2,23,0.5499359965324402,4.058650493621826,22.41372939150513,21.80756597490904,89.40001032620575,79.60892591241448,9.70840483205393e-05,0.0931989923119545,0,0,0
7462,258351.52450754165,2010-11-19 11:31:14,4142.105942940648,2,23,0.5499359965324402,4.060916900634766,22.418314993162213,21.80756597490904,89.41862736723213,79.60892591241448,6.47544875391759e-05,0.0931989923119545,0,0,0
7463,258381.53978332772,2010-11-19 11:31:44,4172.12121873677,2,23,0.5501165986061096,4.063830852508545,22.42290051038828,21.80756597490904,89.43725579162077,79.60892591241448,9.70840483205393e-05,0.0931989923119545,0,0,0
7464,258411.55504977057,2010-11-19 11:32:14,4202.136485174532,2,23,0.5499359965324402,4.066421031951904,22.427486092009868,21.80756597490904,89.45589655975027,79.60892591241448,6.47544875391759e-05,0.0931989923119545,0,0,0
7465,258441.57029632863,2010-11-19 11:32:44,4232.151731737684,2,23,0.5499359965324402,4.069011211395264,22.432071637149622,21.80756597490904,89.47454939349832,79.60892591241448,6.47544875391759e-05,0.0931989923119545,0,0,0
7466,258471.5855347916,2010-11-19 11:33:14,4262.166970195603,2,23,0.5499359965324402,4.071763515472412,22.43665713835761,21.80756597490904,89.49321450572566,79.60892591241448,9.71794142969884e-05,0.0931989923119545,0,0,0
7467,258501.6009286224,2010-11-19 11:33:44,4292.1823640313705,2,23,0.5499359965324402,4.074515342712402,22.441242727952773,21.80756597490904,89.51189252773027,79.60892591241448,0.0,0.0931989923119545,0,0,0
7468,258531.61607522093,2010-11-19 11:34:14,4322.197510629996,2,23,0.5499359965324402,4.077267646789551,22.44582824957015,21.80756597490904,89.53058288074676,79.60892591241448,9.71794142969884e-05,0.0931989923119545,0,0,0
7469,258561.631291283,2010-11-19 11:34:44,4352.212726692012,2,23,0.5499359965324402,4.080019474029541,22.450413837318752,21.80756597490904,89.54928631273022,79.60892591241448,6.47544875391759e-05,0.0931989923119545,0,0,0
7470,258591.64655941,2010-11-19 11:35:15,4382.22799481899,2,23,0.5499359965324402,4.08293342590332,22.454999377848583,21.80756597490904,89.56800237310061,79.60892591241448,6.47544875391759e-05,0.0931989923119545,0,0,0
7471,258621.6618268703,2010-11-19 11:35:45,4412.243262279305,2,23,0.5501165986061096,4.0858473777771,22.459584877530435,21.80756597490904,89.58673119029605,79.60892591241448,6.47544875391759e-05,0.0931989923119545,0,0,0
7472,258651.67709826544,2010-11-19 11:36:15,4442.258533679454,2,23,0.5499359965324402,4.088599681854248,22.46417043792598,21.80756597490904,89.6054732819185,79.60892591241448,9.71794142969884e-05,0.0931989923119545,0,0,0
7473,258681.69233485367,2010-11-19 11:36:45,4472.273770262694,2,23,0.5499359965324402,4.091513633728027,22.468756041990357,21.80756597490904,89.62422877197164,79.60892591241448,6.47544875391759e-05,0.0931989923119545,0,0,0
7474,258711.70759401828,2010-11-19 11:37:15,4502.289029422289,2,23,0.5501165986061096,4.094427585601807,22.473341614469597,21.80756597490904,89.64299741862756,79.60892591241448,6.47544875391759e-05,0.0931989923119545,0,0,0
7475,258741.7228321304,2010-11-19 11:37:45,4532.304267559408,2,23,0.5499359965324402,4.097341537475586,22.47792720467419,21.80756597490904,89.66177983650537,79.60892591241448,9.71794142969884e-05,0.0931989923119545,0,0,0
7476,258771.73811259813,2010-11-19 11:38:15,4562.319548022178,2,23,0.5499359965324402,4.100417137145996,22.48251277479887,21.80756597490904,89.68057584054878,79.60892591241448,6.47544875391759e-05,0.0931989923119545,0,0,0
7477,258801.7533569658,2010-11-19 11:38:45,4592.33479238985,2,23,0.5501165986061096,4.1034932136535645,22.48709837181054,21.80756597490904,89.69938559735743,79.60892591241448,9.71794142969884e-05,0.0931989923119545,0,0,0
7478,258831.76863040103,2010-11-19 11:39:15,4622.350065835103,2,23,0.5501165986061096,4.106568813323975,22.491683956874787,21.80756597490904,89.71820920078629,79.60892591241448,0.0001295089750783,0.0931989923119545,0,0,0
7479,258861.7838805281,2010-11-19 11:39:45,4652.365315937089,2,23,0.5499359965324402,4.109482765197754,22.49626953682201,21.80756597490904,89.73704660823788,79.60892591241448,9.70840483205393e-05,0.0931989923119545,0,0,0
7480,258891.79935084976,2010-11-19 11:40:15,4682.380786283839,2,23,0.5499359965324402,4.112558841705322,22.500855154626628,21.80756597490904,89.75589812908619,79.60892591241448,6.47544875391759e-05,0.0931989923119545,0,0,0
7481,258921.8144125064,2010-11-19 11:40:45,4712.395847915373,2,23,0.5499359965324402,4.115634441375732,22.505440758610955,21.80756597490904,89.77476365340763,79.60892591241448,6.47544875391759e-05,0.0931989923119545,0,0,0
7482,258951.82966665344,2010-11-19 11:41:15,4742.411102062456,2,23,0.5499359965324402,4.118710041046143,22.510026383520604,21.80756597490904,89.79364348974381,79.60892591241448,9.70840483205393e-05,0.0931989923119545,0,0,0
7483,258981.84493422403,2010-11-19 11:41:45,4772.426369633046,2,23,0.5501165986061096,4.121947765350342,22.51461203391693,21.80756597490904,89.81253781699652,79.60892591241448,0.0001295089750783,0.0931989923119545,0,0,0
7484,259011.86035371383,2010-11-19 11:42:15,4802.441789112824,2,23,0.5497553944587708,4.12502384185791,22.51919776582644,21.80756597490904,89.83144685941076,79.60892591241448,6.47544875391759e-05,0.0931989923119545,0,0,0
7485,259041.87547654813,2010-11-19 11:42:45,4832.456911957155,2,23,0.5501165986061096,4.12809944152832,22.52378340198,21.80756597490904,89.85037003962346,79.60892591241448,6.47544875391759e-05,0.0931989923119545,0,0,0
7486,259071.890833958,2010-11-19 11:43:15,4862.472269366997,2,23,0.5497553944587708,4.13133716583252,22.528369105705806,21.80756597490904,89.8693082308542,79.60892591241448,6.47544875391759e-05,0.0931989923119545,0,0,0
7487,259101.90613168385,2010-11-19 11:43:45,4892.4875670878455,2,23,0.5499359965324402,4.134737014770508,22.532954790122776,21.80756597490904,89.88826110718105,79.60892591241448,0.0001295089750783,0.0931989923119545,0,0,0
7488,259131.9212679216,2010-11-19 11:44:15,4922.502703330621,2,23,0.5499359965324402,4.137974739074707,22.53754046553557,21.80756597490904,89.90722883109102,79.60892591241448,9.71794142969884e-05,0.0931989923119545,0,0,0
7489,259161.93649982812,2010-11-19 11:44:45,4952.517935237188,2,23,0.5499359965324402,4.141212463378906,22.542126213609983,21.80756597490904,89.92621211463609,79.60892591241448,6.47544875391759e-05,0.0931989923119545,0,0,0
7490,259191.95175736872,2010-11-19 11:45:15,4982.5331927777415,2,23,0.5499359965324402,4.144611835479736,22.54671204217884,21.80756597490904,89.94521104532966,79.60892591241448,6.47544875391759e-05,0.0931989923119545,0,0,0
7491,259221.96702370123,2010-11-19 11:45:45,5012.54845911024,2,23,0.5501165986061096,4.148173332214356,22.551297703541184,21.80756597490904,89.96422510229873,79.60892591241448,9.70840483205393e-05,0.0931989923119545,0,0,0
7492,259251.9823088156,2010-11-19 11:46:15,5042.563744224622,2,23,0.5499359965324402,4.151411056518555,22.55588337250914,21.80756597490904,89.98325468975156,79.60892591241448,6.47544875391759e-05,0.0931989923119545,0,0,0
7493,259281.9975382961,2010-11-19 11:46:45,5072.578973705134,2,23,0.5499359965324402,4.154810905456543,22.56046902003812,21.80756597490904,90.00229994327599,79.60892591241448,3.24249267578125e-05,0.0931989923119545,0,0,0
7494,259312.01279873893,2010-11-19 11:47:15,5102.59423414793,2,23,0.5501165986061096,4.158372402191162,22.56505467749368,21.80756597490904,90.02136098938577,79.60892591241448,9.71794142969884e-05,0.0931989923119545,0,0,0
7495,259342.0280715526,2010-11-19 11:47:45,5132.609506956596,2,23,0.5499359965324402,4.161610126495361,22.569640280703677,21.80756597490904,90.04043760622962,79.60892591241448,3.24249267578125e-05,0.0931989923119545,0,0,0
7496,259372.04342335343,2010-11-19 11:48:15,5162.624858787512,2,23,0.5499359965324402,4.165333271026611,22.57422596284284,21.80756597490904,90.05953045746612,79.60892591241448,9.70840483205393e-05,0.0931989923119545,0,0,0
7497,259402.05871375103,2010-11-19 11:48:45,5192.640149165031,2,23,0.550297200679779,4.16905689239502,22.578811566583752,21.80756597490904,90.07863917062868,79.60892591241448,0.0001295089750783,0.0931989923119545,0,0,0
7498,259432.0738711516,2010-11-19 11:49:15,5222.655306560607,2,23,0.5501165986061096,4.17245626449585,22.58339790541881,21.80756597490904,90.09776718633464,79.60892591241448,9.70840483205393e-05,0.0931989923119545,0,0,0
7499,259462.08924030076,2010-11-19 11:49:45,5252.670675709753,2,23,0.5499359965324402,4.175856113433838,22.587984487615618,21.80756597490904,90.1169123755121,79.60892591241448,6.47544875391759e-05,0.0931989923119545,0,0,0
7500,259492.1047413692,2010-11-19 11:50:15,5282.686176788214,2,23,0.5501165986061096,4.179579257965088,22.59257024506112,21.80756597490904,90.13607040412788,79.60892591241448,0.0001295089750783,0.0931989923119545,0,0,0
7501,259522.11964336724,2010-11-19 11:50:45,5312.70107877124,2,23,0.5499359965324402,4.183140754699707,22.5971558525328,21.80756597490904,90.15524432749214,79.60892591241448,9.70840483205393e-05,0.0931989923119545,0,0,0
7502,259552.13490968468,2010-11-19 11:51:15,5342.716345088703,2,23,0.5499359965324402,4.186864376068115,22.60174147474855,21.80756597490904,90.174434903188,79.60892591241448,0.0001295089750783,0.0931989923119545,0,0,0
7503,259582.1501656864,2010-11-19 11:51:45,5372.731601095426,2,23,0.5499359965324402,4.190263748168945,22.606327054698937,21.80756597490904,90.19364191542164,79.60892591241448,6.47544875391759e-05,0.0931989923119545,0,0,0
7504,259612.16543287103,2010-11-19 11:52:15,5402.746868300103,2,23,0.5499359965324402,4.1939873695373535,22.61091264678365,21.80756597490904,90.21286591465906,79.60892591241448,9.71794142969884e-05,0.0931989923119545,0,0,0
7505,259642.1808192632,2010-11-19 11:52:45,5432.76225467224,2,23,0.5501165986061096,4.197872161865234,22.615498260489257,21.80756597490904,90.2321070590159,79.60892591241448,9.70840483205393e-05,0.0931989923119545,0,0,0
7506,259659.19634475265,2010-11-19 11:53:02,5449.777780166646,2,23,0.5499359965324402,4.200138568878174,22.61809783438372,21.80756597490904,90.24302237401125,79.60892591241448,0.0001295089750783,0.0931989923119545,0,0,0
7507,259689.2033105724,2010-11-19 11:53:32,30.012284569560173,3,23,0.0,4.110777854919434,22.61809783438372,21.80756597490904,90.24302237401125,79.60892591241448,-0.0003561973571777,0.0931989923119545,0,0,0
7508,259719.21863361145,2010-11-19 11:54:02,60.02760752339493,3,23,0.0,4.099607944488525,22.61809783438372,21.80756597490904,90.24302237401125,79.60892591241448,-0.0002590179501567,0.0931989923119545,0,0,0
7509,259749.2337841198,2010-11-19 11:54:32,90.04275803177933,3,23,0.0,4.092970371246338,22.61809783438372,21.80756597490904,90.24302237401125,79.60892591241448,-0.0001619339018361,0.0931989923119545,0,0,0
7510,259779.2021737659,2010-11-19 11:55:02,120.01114770291996,3,23,0.0,4.088599681854248,22.61809783438372,21.80756597490904,90.24302237401125,79.60892591241448,-9.70840483205393e-05,0.0931989923119545,0,0,0
7511,259779.2141729472,2010-11-19 11:55:02,0.015639694082537,4,23,0.9913450479507446,4.199653148651123,22.618102141143176,21.80756597490904,90.24304046090715,79.60892591241448,0.0,0.0931989923119545,0,0,0
7512,259780.08914903709,2010-11-19 11:55:03,0.890615763964666,4,23,0.9409551024436952,4.199814796447754,22.618335163297868,21.80756597490904,90.24401908832844,79.60892591241448,3.23295607813634e-05,0.0931989923119545,0,0,0
7513,259782.3079887624,2010-11-19 11:55:05,3.109455499304032,4,23,0.8903844952583313,4.199814796447754,22.618898301041277,21.80756597490904,90.24638411134308,79.60892591241448,3.23295607813634e-05,0.0931989923119545,0,0,0
7514,259785.6359494894,2010-11-19 11:55:09,6.437416216247479,4,23,0.839994490146637,4.199653148651123,22.61969681213748,21.80756597490904,90.24973763487311,79.60892591241448,0.0,0.0931989923119545,0,0,0
7515,259790.16713090028,2010-11-19 11:55:13,10.968597652216497,4,23,0.7899657487869263,4.199814796447754,22.620721323041536,21.80756597490904,90.25404031969376,79.60892591241448,0.0,0.0931989923119545,0,0,0
7516,259796.08893504448,2010-11-19 11:55:19,16.890401796407186,4,23,0.7399369478225708,4.199814796447754,22.621978217303383,21.80756597490904,90.2593189384303,79.60892591241448,3.23295607813634e-05,0.0931989923119545,0,0,0
7517,259803.8700929668,2010-11-19 11:55:27,24.67155969863235,4,23,0.6899082064628601,4.199653148651123,22.623521344216645,21.80756597490904,90.26579966977629,79.60892591241448,0.0,0.0931989923119545,0,0,0
7518,259814.27623450191,2010-11-19 11:55:37,35.077701228836595,4,23,0.6398794054985046,4.199653148651123,22.62543953184436,21.80756597490904,90.27385556974907,79.60892591241448,-3.23295607813634e-05,0.0931989923119545,0,0,0
7519,259828.76045017765,2010-11-19 11:55:52,49.561916924553984,4,23,0.5896700620651245,4.199814796447754,22.627907273492,21.80756597490904,90.28421947957688,79.60892591241448,0.0,0.0931989923119545,0,0,0
7520,259851.52590841372,2010-11-19 11:56:15,72.32737513562701,4,23,0.539641261100769,4.199814796447754,22.631465771517743,21.80756597490904,90.2991642503345,79.60892591241448,3.23295607813634e-05,0.0931989923119545,0,0,0
7521,259891.4004158739,2010-11-19 11:56:55,112.20188262586224,4,23,0.4896125197410583,4.199814796447754,22.63713865749528,21.80756597490904,90.32298891678666,79.60892591241448,3.23295607813634e-05,0.0931989923119545,0,0,0
7522,259965.0244122657,2010-11-19 11:58:08,185.82587899256225,4,23,0.4394031167030334,4.199653148651123,22.64659836962936,21.80756597490904,90.36271726244318,79.60892591241448,-3.23295607813634e-05,0.0931989923119545,0,0,0
7523,260075.33568212623,2010-11-19 11:59:58,296.13714885309867,4,23,0.3891937434673309,4.199653148651123,22.659269945508807,21.80756597490904,90.4159346570983,79.60892591241448,0.0,0.0931989923119545,0,0,0
7524,260209.693428256,2010-11-19 12:02:13,430.4948950079237,4,23,0.3391649723052978,4.199653148651123,22.672841665024105,21.80756597490904,90.47293256749336,79.60892591241448,0.0,0.0931989923119545,0,0,0
7525,260370.4101199792,2010-11-19 12:04:54,591.2115867110596,4,23,0.2889555990695953,4.199653148651123,22.686846953713616,21.80756597490904,90.53175131951974,79.60892591241448,-3.23295607813634e-05,0.0931989923119545,0,0,0
7526,260567.6264319799,2010-11-19 12:08:11,788.4278987117843,4,23,0.2389268279075622,4.199653148651123,22.70128792202941,21.80756597490904,90.59239983753736,79.60892591241448,-6.47544875391759e-05,0.0931989923119545,0,0,0
7527,260813.06095578548,2010-11-19 12:12:16,1033.8624225073356,4,23,0.1888980567455291,4.199653148651123,22.71582729779814,21.80756597490904,90.65346162096016,79.60892591241448,0.0,0.0931989923119545,0,0,0
7528,261137.72891398304,2010-11-19 12:17:41,1358.5303807400012,4,23,0.1386886835098266,4.199814796447754,22.73051931152912,21.80756597490904,90.71516449672308,79.60892591241448,0.0,0.0931989923119545,0,0,0
7529,261628.0076198554,2010-11-19 12:25:51,1848.8090866674893,4,23,0.0886599123477935,4.199814796447754,22.74579301422198,21.80756597490904,90.77931029822378,79.60892591241448,0.0,0.0931989923119545,0,0,0
7530,262307.27755305177,2010-11-19 12:37:10,2528.0790197836136,4,23,0.0498289167881011,4.199653148651123,22.75852360290935,21.80756597490904,90.83277567869848,79.60892591241448,-3.23295607813634e-05,0.0931989923119545,0,0,0
7531,262337.2880803089,2010-11-19 12:37:41,30.0150568295476,5,23,0.0,4.191397190093994,22.75852360290935,21.80756597490904,90.83277567869848,79.60892591241448,-6.47544875391759e-05,0.0931989923119545,0,0,0
7532,262367.28773299226,2010-11-19 12:38:11,60.01470949292657,5,23,0.0,4.190263748168945,22.75852360290935,21.80756597490904,90.83277567869848,79.60892591241448,0.0,0.0931989923119545,0,0,0
7533,262367.47180051217,2010-11-19 12:38:11,0.187622178823294,6,23,-1.9243103452026844e-05,4.1901021003723145,22.75852360290935,21.80756597591193,90.83277567869848,79.6089259166167,0.0,0.0971632748842239,0,0,0
7534,262372.299734398,2010-11-19 12:38:16,5.015556039498594,6,23,0.0005225847125984,4.1901021003723145,22.758524209890812,21.807565976078436,90.83277822209094,79.60892591731434,-6.47544875391759e-05,0.0971632748842239,0,0,0
7535,262402.3271256153,2010-11-19 12:38:46,30.015239219821787,7,23,-1.0997490882873535,4.005552291870117,22.758524209890812,21.816734638723585,90.83277822209094,79.64585602306542,-0.0009713172912597,0.0971632748842239,0,0,0
7536,262432.342396429,2010-11-19 12:39:16,60.03051000343165,7,23,-1.099568486213684,3.977545976638794,22.758524209890812,21.82590324670908,90.83277822209094,79.68244273951623,-0.0005827903514727,0.0971632748842239,0,0,0
7537,262462.35764521774,2010-11-19 12:39:46,90.04575879715135,7,23,-1.099568486213684,3.958119630813599,22.758524209890812,21.835071707535626,90.83277822209094,79.71881580148398,-0.0004532813909463,0.0971632748842239,0,0,0
7538,262492.3730443467,2010-11-19 12:40:16,120.061157926131,7,23,-1.099568486213684,3.943064212799072,22.758524209890812,21.84424030149024,90.83277822209094,79.75503436644648,-0.0003885269106831,0.0971632748842239,0,0,0
7539,262522.38818045415,2010-11-19 12:40:46,150.07629403356842,7,23,-1.099568486213684,3.9307608604431152,22.758524209890812,21.85340871171527,90.83277822209094,79.79112796314115,-0.0002913951757363,0.0971632748842239,0,0,0
7540,262552.4034630222,2010-11-19 12:41:16,180.09157662665655,7,23,-1.0997490882873535,3.919590711593628,22.758524209890812,21.862577160875272,90.83277822209094,79.82711468753975,-0.0003237724304199,0.0971632748842239,0,0,0
7541,262582.4189868073,2010-11-19 12:41:46,210.10710039174708,7,23,-1.099929690361023,3.90939211845398,22.758524209890812,21.87174570121517,90.83277822209094,79.8630051098204,-0.0002590179501567,0.0971632748842239,0,0,0
7542,262612.4339647249,2010-11-19 12:42:16,240.12207832936832,7,23,-1.0993878841400146,3.9000027179718018,22.758524209890812,21.880914129297604,90.83277822209094,79.89880443696566,-0.0002266406954731,0.0971632748842239,0,0,0
7543,262642.4492237441,2010-11-19 12:42:46,270.13733732355,7,23,-1.099568486213684,3.890775203704834,22.758524209890812,21.89008262863637,90.83277822209094,79.93451870289697,-0.0002590179501567,0.0971632748842239,0,0,0
7544,262672.46460868267,2010-11-19 12:43:16,300.15272228717066,7,23,-1.0997490882873535,3.881871461868286,22.758524209890812,21.89925112375983,90.83277822209094,79.97015072673977,-0.0002590179501567,0.0971632748842239,0,0,0
7545,262702.47974535153,2010-11-19 12:43:46,330.16785893094686,7,23,-1.0997490882873535,3.873291492462158,22.758524209890812,21.908419592790825,90.83277822209094,80.00570222453659,-0.0001942634553415,0.0971632748842239,0,0,0
7546,262732.49501499726,2010-11-19 12:44:16,360.1831285767165,7,23,-1.0997490882873535,3.8647115230560303,22.758524209890812,21.91758803154422,90.83277822209094,80.0411755421894,-0.0002590179501567,0.0971632748842239,0,0,0
7547,262762.5102812045,2010-11-19 12:44:46,390.1983948089654,7,23,-1.0997490882873535,3.856455326080322,22.758524209890812,21.92675651333996,90.83277822209094,80.07657158934498,-0.0001942634553415,0.0971632748842239,0,0,0
7548,262792.5255374869,2010-11-19 12:45:16,420.2136510663155,7,23,-1.099929690361023,3.8481991291046143,22.758524209890812,21.93592502820104,90.83277822209094,80.11189202585867,-0.0002590179501567,0.0971632748842239,0,0,0
7549,262822.5409309517,2010-11-19 12:45:46,450.2290445562192,7,23,-1.0997490882873535,3.840266704559326,22.758524209890812,21.94509359685737,90.83277822209094,80.1471382516189,-0.0002266406954731,0.0971632748842239,0,0,0
7550,262852.5560673248,2010-11-19 12:46:16,480.2441809142822,7,23,-1.0997490882873535,3.832334518432617,22.758524209890812,21.954262088395648,90.83277822209094,80.18231093239363,-0.0002265930233988,0.0971632748842239,0,0,0
7551,262882.57153773174,2010-11-19 12:46:46,510.2596513211825,7,23,-1.099568486213684,3.824563980102539,22.758524209890812,21.96343067077134,90.83277822209094,80.21741121891648,-0.0001618862152099,0.0971632748842239,0,0,0
7552,262912.5865774035,2010-11-19 12:47:16,540.274691007939,7,23,-1.0997490882873535,3.816793441772461,22.758524209890812,21.972599043296377,90.83277822209094,80.2524401143422,-0.0002266406954731,0.0971632748842239,0,0,0
7553,262942.6018561419,2010-11-19 12:47:46,570.2899697213429,7,23,-1.0997490882873535,3.8091847896575928,22.758524209890812,21.981767488762063,90.83277822209094,80.28739919570397,-0.0002266406954731,0.0971632748842239,0,0,0
7554,262972.6170942589,2010-11-19 12:48:16,600.3052078434246,7,23,-1.099568486213684,3.801738023757935,22.758524209890812,21.99093588685725,90.83277822209094,80.32228911191156,-0.0001942634553415,0.0971632748842239,0,0,0
7555,263002.63232147385,2010-11-19 12:48:46,630.3204350632926,7,23,-1.099568486213684,3.794615030288696,22.758524209890812,22.000104294390948,90.83277822209094,80.35711228752896,-0.0001618862152099,0.0971632748842239,0,0,0
7556,263032.64763235755,2010-11-19 12:49:16,660.3357459670485,7,23,-1.0997490882873535,3.787330150604248,22.758524209890812,22.00927283417514,90.83277822209094,80.3918706744918,-0.0002266406954731,0.0971632748842239,0,0,0
7557,263062.6629026399,2010-11-19 12:49:46,690.3510162243446,7,23,-1.099568486213684,3.78036904335022,22.758524209890812,22.018441322551716,90.83277822209094,80.4265638187618,-0.0001942634553415,0.0971632748842239,0,0,0
7558,263092.6819753637,2010-11-19 12:50:16,720.3700889381572,7,23,-1.099568486213684,3.7737317085266113,22.758524209890812,22.02761095873364,90.83277822209094,80.46119737013468,-0.0001618862152099,0.0971632748842239,0,0,0
7559,263122.69342856307,2010-11-19 12:50:46,750.3815421425019,7,23,-1.099568486213684,3.766932487487793,22.758524209890812,22.03677824227156,90.83277822209094,80.4957606524501,-0.0001942634553415,0.0971632748842239,0,0,0
7560,263152.7087161135,2010-11-19 12:51:16,780.3968297230396,7,23,-1.099568486213684,3.760295152664185,22.758524209890812,22.045946802791224,90.83277822209094,80.53026803481592,-0.0001618862152099,0.0971632748842239,0,0,0
7561,263182.7239628772,2010-11-19 12:51:46,810.4120764566168,7,23,-1.099568486213684,3.753981590270996,22.758524209890812,22.055115324004703,90.83277822209094,80.56471553508436,-0.0001618862152099,0.0971632748842239,0,0,0
7562,263212.7392169441,2010-11-19 12:52:16,840.427330523499,7,23,-1.0997490882873535,3.7475063800811768,22.758524209890812,22.06428379952012,90.83277822209094,80.59910403204763,-0.0001942634553415,0.0971632748842239,0,0,0
7563,263242.75447626406,2010-11-19 12:52:46,870.442589873569,7,23,-1.0997490882873535,3.741678476333618,22.758524209890812,22.07345236620981,90.83277822209094,80.63343630916171,-0.0001295089750783,0.0971632748842239,0,0,0
7564,263272.7697277345,2010-11-19 12:53:16,900.4578413138951,7,23,-1.0997490882873535,3.7353649139404297,22.758524209890812,22.08262087158291,90.83277822209094,80.66771314520595,-0.0001618862152099,0.0971632748842239,0,0,0
7565,263302.78511334973,2010-11-19 12:53:46,930.4732269291424,7,23,-1.099568486213684,3.729213237762451,22.758524209890812,22.0917893717478,90.83277822209094,80.70193464814704,-0.0002266406954731,0.0971632748842239,0,0,0
7566,263332.80025142204,2010-11-19 12:54:16,960.4883650064968,7,23,-1.0997490882873535,3.723547220230103,22.758524209890812,22.100957814970386,90.83277822209094,80.7361013333382,-0.0001942634553415,0.0971632748842239,0,0,0
7567,263362.81550254155,2010-11-19 12:54:46,990.5036161210096,7,23,-1.0997490882873535,3.717719316482544,22.758524209890812,22.11012638067376,90.83277822209094,80.7702146589862,-0.0001618862152099,0.0971632748842239,0,0,0
7568,263392.8309218058,2010-11-19 12:55:16,1020.5190354153252,7,23,-1.099568486213684,3.7120532989501953,22.758524209890812,22.119295047256717,90.83277822209094,80.80427560016284,-0.0001942634553415,0.0971632748842239,0,0,0
7569,263422.8460241991,2010-11-19 12:55:46,1050.5341377785317,7,23,-1.099568486213684,3.7065491676330566,22.758524209890812,22.12846351618606,90.83277822209094,80.83828433184489,-0.0001295089750783,0.0971632748842239,0,0,0
7570,263452.86130380974,2010-11-19 12:56:16,1080.5494174142375,7,23,-1.0997490882873535,3.701045036315918,22.758524209890812,22.137632138059416,90.83277822209094,80.87224318515139,-0.0001295089750783,0.0971632748842239,0,0,0
7571,263482.87654375634,2010-11-19 12:56:46,1110.5646573358113,7,23,-1.099568486213684,3.6955409049987793,22.758524209890812,22.14680069359791,90.83277822209094,80.9061512614395,-0.0001295089750783,0.0971632748842239,0,0,0
7572,263512.89180341724,2010-11-19 12:57:16,1140.5799169966572,7,23,-1.099568486213684,3.6901986598968506,22.758524209890812,22.155969240794867,90.83277822209094,80.94000971686451,-0.0001618862152099,0.0971632748842239,0,0,0
7573,263542.9070711181,2010-11-19 12:57:46,1170.5951847276472,7,23,-1.099568486213684,3.684694528579712,22.758524209890812,22.16513775179445,90.83277822209094,80.97381836821916,-0.0001618862152099,0.0971632748842239,0,0,0
7574,263572.92234498943,2010-11-19 12:58:16,1200.6104585688893,7,23,-1.099568486213684,3.679514169692993,22.758524209890812,22.174306254155336,90.83277822209094,81.0075782773922,-0.0001295089750783,0.0971632748842239,0,0,0
7575,263602.9376070463,2010-11-19 12:58:46,1230.6257206257158,7,23,-1.099568486213684,3.6743338108062735,22.758524209890812,22.18347478896353,90.83277822209094,81.04129030953321,-0.0001295089750783,0.0971632748842239,0,0,0
7576,263632.9529976991,2010-11-19 12:59:16,1260.6411112885626,7,23,-1.0997490882873535,3.6693155765533447,22.758524209890812,22.192643489600325,90.83277822209094,81.07495570569404,-9.713172767078504e-05,0.0971632748842239,0,0,0
7577,263662.96810834296,2010-11-19 12:59:46,1290.6562219324392,7,23,-1.099568486213684,3.664297103881836,22.758524209890812,22.201811993499373,90.83277822209094,81.10857425200993,-0.0001295089750783,0.0971632748842239,0,0,0
7578,263692.9833879687,2010-11-19 13:00:16,1320.6715015731577,7,23,-1.0997490882873535,3.659116744995117,22.758524209890812,22.21098064319332,90.83277822209094,81.14214760414416,-0.0001618862152099,0.0971632748842239,0,0,0
7579,263722.9986252035,2010-11-19 13:00:47,1350.686738782962,7,23,-1.0997490882873535,3.6542601585388175,22.758524209890812,22.22014919295002,90.83277822209094,81.17567537966988,-0.0001295089750783,0.0971632748842239,0,0,0
7580,263753.0138922077,2010-11-19 13:01:17,1380.702005787138,7,23,-1.0993878841400146,3.64972734451294,22.758524209890812,22.22931770898621,90.83277822209094,81.20915782677095,-6.47544875391759e-05,0.0971632748842239,0,0,0
7581,263783.0291491668,2010-11-19 13:01:47,1410.7172627462396,7,23,-1.0997490882873535,3.644708871841431,22.758524209890812,22.238486255798698,90.83277822209094,81.24259564836636,-0.0001618862152099,0.0971632748842239,0,0,0
7582,263813.04442586016,2010-11-19 13:02:17,1440.7325394396012,7,23,-1.099929690361023,3.639690399169922,22.758524209890812,22.247654797036773,90.83277822209094,81.27598972918818,-0.0001618862152099,0.0971632748842239,0,0,0
7583,263843.0598087285,2010-11-19 13:02:47,1470.747922307992,7,23,-1.0997490882873535,3.634995698928833,22.758524209890812,22.256823420504347,90.83277822209094,81.30934035501092,-0.0001618862152099,0.0971632748842239,0,0,0
7584,263873.07492939744,2010-11-19 13:03:17,1500.7630429768924,7,23,-1.099568486213684,3.630624771118164,22.758524209890812,22.265992052782828,90.83277822209094,81.3426481777229,-9.713172767078504e-05,0.0971632748842239,0,0,0
7585,263903.0902143765,2010-11-19 13:03:47,1530.778327955936,7,23,-1.0997490882873535,3.625768184661865,22.758524209890812,22.27516062956085,90.83277822209094,81.37591317990567,-0.0001618862152099,0.0971632748842239,0,0,0
7586,263933.1090701789,2010-11-19 13:04:17,1560.7971838836172,7,23,-1.099568486213684,3.6215591430664062,22.758524209890812,22.284330264234395,90.83277822209094,81.40914089400749,-6.47544875391759e-05,0.0971632748842239,0,0,0
7587,263963.1207225504,2010-11-19 13:04:47,1590.808836129801,7,23,-1.099568486213684,3.617188215255737,22.758524209890812,22.29349768761737,90.83277822209094,81.44232033603454,-9.713172767078504e-05,0.0971632748842239,0,0,0
7588,263993.1360267925,2010-11-19 13:05:17,1620.8241403669158,7,23,-1.0993878841400146,3.613141059875488,22.758524209890812,22.302666257014813,90.83277822209094,81.47546444206164,-6.47544875391759e-05,0.0971632748842239,0,0,0
7589,264023.1512675612,2010-11-19 13:05:47,1650.8393811506414,7,23,-1.0997490882873535,3.6087701320648193,22.758524209890812,22.31183480262773,90.83277822209094,81.50856998183532,-9.713172767078504e-05,0.0971632748842239,0,0,0
7590,264053.16687022825,2010-11-19 13:06:17,1680.8549838076583,7,23,-1.099568486213684,3.60456109046936,22.758524209890812,22.3210035443993,90.83277822209094,81.54163783864117,-9.713172767078504e-05,0.0971632748842239,0,0,0
7591,264083.1817795847,2010-11-19 13:06:47,1710.8698931640904,7,23,-1.0997490882873535,3.6003520488739014,22.758524209890812,22.33017205262645,90.83277822209094,81.57466686324015,-0.0001295089750783,0.0971632748842239,0,0,0
7592,264113.1970124336,2010-11-19 13:07:17,1740.8851260130093,7,23,-1.0997490882873535,3.5963048934936523,22.758524209890812,22.339340637277303,90.83277822209094,81.60765873093952,-9.713172767078504e-05,0.0971632748842239,0,0,0
7593,264143.2123306405,2010-11-19 13:07:47,1770.9004442199953,7,23,-1.099568486213684,3.5924196243286133,22.758524209890812,22.34850932611668,90.83277822209094,81.64061419418633,-0.0001295089750783,0.0971632748842239,0,0,0
7594,264173.22754448204,2010-11-19 13:08:17,1800.9156580614688,7,23,-1.0997490882873535,3.5885345935821533,22.758524209890812,22.35767795749357,90.83277822209094,81.67353400349594,-0.0001295089750783,0.0971632748842239,0,0,0
7595,264203.24279335595,2010-11-19 13:08:47,1830.9309069353887,7,23,-1.0997490882873535,3.584811210632324,22.758524209890812,22.36684658570735,90.83277822209094,81.70641929489943,-0.0001295089750783,0.0971632748842239,0,0,0
7596,264233.2581971566,2010-11-19 13:09:17,1860.946310741042,7,23,-1.0997490882873535,3.581249713897705,22.758524209890812,22.376015198893715,90.83277822209094,81.73927081279234,-6.47544875391759e-05,0.0971632748842239,0,0,0
7597,264263.27343858697,2010-11-19 13:09:47,1890.9615521763944,7,23,-1.099568486213684,3.577850103378296,22.758524209890812,22.385183802155083,90.83277822209094,81.77208990618324,-6.47544875391759e-05,0.0971632748842239,0,0,0
7598,264293.2885891956,2010-11-19 13:10:17,1920.9767028000665,7,23,-1.099568486213684,3.5742886066436768,22.758524209890812,22.39435238276129,90.83277822209094,81.80487695164956,-6.47544875391759e-05,0.0971632748842239,0,0,0
7599,264323.3038380144,2010-11-19 13:10:47,1950.991951593786,7,23,-1.0997490882873535,3.570888996124268,22.758524209890812,22.403520919500696,90.83277822209094,81.8376320272462,-6.47544875391759e-05,0.0971632748842239,0,0,0
7600,264353.3191210335,2010-11-19 13:11:17,1981.0072346129373,7,23,-1.099568486213684,3.5676512718200684,22.758524209890812,22.412689580168177,90.83277822209094,81.87035664258721,-9.713172767078504e-05,0.0971632748842239,0,0,0
7601,264383.33436012303,2010-11-19 13:11:47,2011.0224737325093,7,23,-1.0997490882873535,3.564089775085449,22.758524209890812,22.421858198431043,90.83277822209094,81.90305070047123,-9.713172767078504e-05,0.0971632748842239,0,0,0
7602,264413.34976143745,2010-11-19 13:12:17,2041.037875041932,7,23,-1.0997490882873535,3.56101393699646,22.758524209890812,22.43102675827542,90.83277822209094,81.93571487459039,-6.47544875391759e-05,0.0971632748842239,0,0,0
7603,264443.3649340861,2010-11-19 13:12:47,2071.053047665519,7,23,-1.099568486213684,3.5579380989074707,22.758524209890812,22.440195270727468,90.83277822209094,81.96834997700685,-6.47544875391759e-05,0.0971632748842239,0,0,0
7604,264473.3802577567,2010-11-19 13:13:17,2101.068371346168,7,23,-1.099568486213684,3.554862260818481,22.758524209890812,22.44936384413893,90.83277822209094,82.00095700905496,-9.713172767078504e-05,0.0971632748842239,0,0,0
7605,264503.39491958526,2010-11-19 13:13:47,2131.0830329591945,7,23,-1.099568486213684,3.551786422729492,22.758524209890812,22.458498809511816,90.83277822209094,82.03341654556307,-9.713172767078504e-05,0.0971632748842239,0,0,0
7606,264533.3950600764,2010-11-19 13:14:17,2161.08317365578,7,23,-1.099568486213684,3.548710584640503,22.758524209890812,22.467696222588337,90.83277822209094,82.06606984087236,-9.713172767078504e-05,0.0971632748842239,0,0,0
7607,264563.4102949303,2010-11-19 13:14:47,2191.098408509703,7,23,-1.0997490882873535,3.545796632766724,22.758524209890812,22.47686484964342,90.83277822209094,82.09859283367167,-3.237724376958795e-05,0.0971632748842239,0,0,0
7608,264593.4258592215,2010-11-19 13:15:17,2221.1139728961907,7,23,-1.099568486213684,3.5425589084625244,22.758524209890812,22.48603354936256,90.83277822209094,82.13108804015619,-9.713172767078504e-05,0.0971632748842239,0,0,0
7609,264623.4411133135,2010-11-19 13:15:47,2251.129226902923,7,23,-1.0997490882873535,3.539321184158325,22.758524209890812,22.495202140330235,90.83277822209094,82.16355419557422,-9.713172767078504e-05,0.0971632748842239,0,0,0
7610,264653.45609872974,2010-11-19 13:16:17,2281.1442123091874,7,23,-1.099568486213684,3.536407232284546,22.758524209890812,22.50437064565665,90.83277822209094,82.19599068092592,-6.47544875391759e-05,0.0971632748842239,0,0,0
7611,264683.47139274137,2010-11-19 13:16:47,2311.1595063308027,7,23,-1.099568486213684,3.5331695079803467,22.758524209890812,22.51353937374965,90.83277822209094,82.22839917189229,-6.47544875391759e-05,0.0971632748842239,0,0,0
7612,264713.48659610166,2010-11-19 13:17:17,2341.1747096810886,7,23,-1.099568486213684,3.5299317836761475,22.758524209890812,22.52270799154921,90.83277822209094,82.26077865253679,-9.713172767078504e-05,0.0971632748842239,0,0,0
7613,264743.501869968,2010-11-19 13:17:47,2371.189983547393,7,23,-1.0997490882873535,3.524427652359009,22.758524209890812,22.53187660342608,90.83277822209094,82.29312986126592,-0.0005827903514727,0.0971632748842239,0,0,0
7614,264773.51724901685,2010-11-19 13:18:17,2401.2053626213124,7,23,-1.0997490882873535,3.523456335067749,22.758524209890812,22.54104533691054,90.83277822209094,82.32545078239248,-9.713172767078504e-05,0.0971632748842239,0,0,0
7615,264803.5323779313,2010-11-19 13:18:47,2431.2204915107327,7,23,-1.099568486213684,3.52005672454834,22.758524209890812,22.550213895037515,90.83277822209094,82.35773970140346,-6.47544875391759e-05,0.0971632748842239,0,0,0
7616,264833.5478649848,2010-11-19 13:19:17,2461.235978569198,7,23,-1.0997490882873535,3.516171455383301,22.758524209890812,22.55938256745616,90.83277822209094,82.38999576508026,-6.47544875391759e-05,0.0971632748842239,0,0,0
7617,264863.5629234133,2010-11-19 13:19:47,2491.2510370127734,7,23,-1.099568486213684,3.5126099586486816,22.758524209890812,22.568551193137345,90.83277822209094,82.4222171750105,-6.47544875391759e-05,0.0971632748842239,0,0,0
7618,264893.57820032217,2010-11-19 13:20:17,2521.266313921674,7,23,-1.099568486213684,3.5087249279022217,22.758524209890812,22.577719809076093,90.83277822209094,82.45440454404938,-9.713172767078504e-05,0.0971632748842239,0,0,0
7619,264923.5934610858,2010-11-19 13:20:47,2551.281574750434,7,23,-1.099568486213684,3.5046777725219727,22.758524209890812,22.586888447072173,90.83277822209094,82.48655621219602,-9.713172767078504e-05,0.0971632748842239,0,0,0
7620,264953.6086500251,2010-11-19 13:21:17,2581.2967636045355,7,23,-1.099568486213684,3.5004687309265137,22.758524209890812,22.596057067894304,90.83277822209094,82.51867008682919,-0.0001295089750783,0.0971632748842239,0,0,0
7621,264983.6240720011,2010-11-19 13:21:47,2611.3121856958333,7,23,-1.099568486213684,3.4960978031158447,22.758524209890812,22.605225741988946,90.83277822209094,82.55074524682523,-0.0001618862152099,0.0971632748842239,0,0,0
7622,265013.6394724033,2010-11-19 13:22:17,2641.327586103004,7,23,-1.0997490882873535,3.491564989089966,22.758524209890812,22.614394381101377,90.83277822209094,82.58277901189574,-0.0001295089750783,0.0971632748842239,0,0,0
7623,265043.6584548217,2010-11-19 13:22:47,2671.3465685113997,7,23,-1.0997490882873535,3.486546516418457,22.758524209890812,22.623564091837203,90.83277822209094,82.6147724439825,-9.713172767078504e-05,0.0971632748842239,0,0,0
7624,265073.67001844663,2010-11-19 13:23:17,2701.3581321714587,7,23,-1.0997490882873535,3.4813661575317383,22.758524209890812,22.632731545213563,90.83277822209094,82.6467118662522,-0.0001295089750783,0.0971632748842239,0,0,0
7625,265103.68496168265,2010-11-19 13:23:47,2731.373075267109,7,23,-1.099568486213684,3.4757001399993896,22.758524209890812,22.64190000472624,90.83277822209094,82.67860478099009,-0.0001295089750783,0.0971632748842239,0,0,0
7626,265133.70049271086,2010-11-19 13:24:17,2761.3886063153795,7,23,-1.0997490882873535,3.469710350036621,22.758524209890812,22.651068613920696,90.83277822209094,82.7104450341036,-0.0001618862152099,0.0971632748842239,0,0,0
7627,265163.7157508379,2010-11-19 13:24:47,2791.4038644273587,7,23,-1.0997490882873535,3.4629111289978027,22.758524209890812,22.660237160565188,90.83277822209094,82.74222687893308,-0.0001942634553415,0.0971632748842239,0,0,0
7628,265193.7328054392,2010-11-19 13:25:17,2821.42091902364,7,23,-1.099568486213684,3.4553024768829346,22.758524209890812,22.66940634867689,90.83277822209094,82.77394572717452,-0.0002266406954731,0.0971632748842239,0,0,0
7629,265223.7461606011,2010-11-19 13:25:47,2851.434274180551,7,23,-1.099568486213684,3.4465606212615967,22.758524209890812,22.67857437919772,90.83277822209094,82.80558520368771,-0.0002590179501567,0.0971632748842239,0,0,0
7630,265253.761475159,2010-11-19 13:26:17,2881.449588738428,7,23,-1.0993878841400146,3.436199903488159,22.758524209890812,22.68774281095593,90.83277822209094,82.8371379044558,-0.0002590179501567,0.0971632748842239,0,0,0
7631,265283.7766886947,2010-11-19 13:26:47,2911.464802274138,7,23,-1.0993878841400146,3.4235730171203613,22.758524209890812,22.69691064621112,90.83277822209094,82.86858370397927,-0.0003561496851034,0.0971632748842239,0,0,0
7632,265313.7919337942,2010-11-19 13:27:17,2941.4800473836613,7,23,-1.0997490882873535,3.408031940460205,22.758524209890812,22.706078427971484,90.83277822209094,82.89990124831982,-0.0004532813909463,0.0971632748842239,0,0,0
7633,265343.80738094304,2010-11-19 13:27:47,2971.495494547544,7,23,-1.099568486213684,3.3884437084198,22.758524209890812,22.71524631348118,90.83277822209094,82.93105927574435,-0.0005827903514727,0.0971632748842239,0,0,0
7634,265373.8228323024,2010-11-19 13:28:17,3001.510945881836,7,23,-1.099568486213684,3.362865686416626,22.758524209890812,22.72441409184363,90.83277822209094,82.96201188166674,-0.0007446765666827,0.0971632748842239,0,0,0
7635,265403.8378386008,2010-11-19 13:28:47,3031.5259521852627,7,23,-1.099568486213684,3.329193592071533,22.758524209890812,22.73358173790953,90.83277822209094,82.99269492637713,-0.0010036944877356,0.0971632748842239,0,0,0
7636,265433.85296139505,2010-11-19 13:29:17,3061.541074974456,7,23,-1.0997490882873535,3.284351110458374,22.758524209890812,22.742749372324937,90.83277822209094,83.02302059335993,-0.0013598442310467,0.0971632748842239,0,0,0
7637,265463.8682340082,2010-11-19 13:29:47,3091.556347587632,7,23,-1.0997490882873535,3.221863269805908,22.758524209890812,22.751917129870517,90.83277822209094,83.05286094000958,-0.0019750117789953,0.0971632748842239,0,0,0
7638,265493.8836579892,2010-11-19 13:30:17,3121.571771578672,7,23,-1.0993878841400146,3.131854772567749,22.758524209890812,22.76108489171159,90.83277822209094,83.0820135839839,-0.0028491974808275,0.0971632748842239,0,0,0
7639,265523.8987735704,2010-11-19 13:30:47,3151.586887149847,7,23,-1.099568486213684,2.9890716075897217,22.758524209890812,22.770252556930387,90.83277822209094,83.11013050467297,-0.0047918320633471,0.0971632748842239,0,0,0
7640,265547.11721935816,2010-11-19 13:31:11,3174.805332937602,7,23,-1.0993878841400146,2.788818836212158,22.758524209890812,22.77734434922924,90.83277822209094,83.1306844388937,-0.0085152145475149,0.0971632748842239,0,0,0
7641,265554.7108751262,2010-11-19 13:31:18,3182.3989887056537,7,23,-1.099568486213684,2.699943780899048,22.758524209890812,22.77966373311401,90.83277822209094,83.1370515358898,-0.0095836166292428,0.0971632748842239,0,0,0
7642,265614.7292951017,2010-11-19 13:32:18,60.014649332757536,8,23,0.0,3.359142303466797,22.758524209890812,22.77966373311401,90.83277822209094,83.1370515358898,0.0011655807029455,0.0971632748842239,0,0,0
7643,265614.9192254511,2010-11-19 13:32:19,0.185604086354014,9,23,-1.9243103452026844e-05,3.359466075897217,22.758524209890812,22.77966373410612,90.83277822209094,83.13705153922277,0.0,0.0946486890316009,0,0,0
7644,265619.7472715971,2010-11-19 13:32:24,5.013650212260604,9,23,0.0005225847125984,3.366589069366455,22.758525098333045,22.77966373427296,90.83278121074528,83.13705153978344,0.0010036944877356,0.0946486890316009,0,0,0
