Data_Point,Test_Time(s),Date_Time,Step_Time(s),Step_Index,Cycle_Index,Current(A),Voltage(V),Charge_Capacity(Ah),Discharge_Capacity(Ah),Charge_Energy(Wh),Discharge_Energy(Wh),dV/dt(V/s),Internal_Resistance(Ohm),Is_FC_Data,AC_Impedance(Ohm),ACI_Phase_Angle(Deg)
4348,150209.72862477743,2010-11-18 05:28:42,30.01543875288701,1,14,0.0,3.34214448928833,12.911873699696246,12.94700493163716,51.50569795095588,47.32566344146747,0.0007770538213662,0.0954576581716537,0,0,0
4349,150239.7438287593,2010-11-18 05:29:12,60.03064275479948,1,14,0.0,3.364322662353516,12.911873699696246,12.94700493163716,51.50569795095588,47.32566344146747,0.0005180359003134,0.0954576581716537,0,0,0
4350,150269.75913254527,2010-11-18 05:29:42,90.04594651071328,1,14,0.0,3.381320714950561,12.911873699696246,12.94700493163716,51.50569795095588,47.32566344146747,0.0004532813909463,0.0954576581716537,0,0,0
4351,150299.72759225624,2010-11-18 05:30:12,120.01440624674667,1,14,0.0,3.3949191570281982,12.911873699696246,12.94700493163716,51.50569795095588,47.32566344146747,0.0003561496851034,0.0954576581716537,0,0,0
4352,150329.7500225522,2010-11-18 05:30:42,30.015305099267017,2,14,0.5499359965324402,3.56052827835083,12.916460463460664,12.94700493163716,51.52185132888256,47.32566344146747,0.0017483711708337,0.0954576581716537,0,0,0
4353,150359.76545884396,2010-11-18 05:31:12,60.03074150629842,2,14,0.550297200679779,3.613626718521118,12.92104731377312,12.94700493163716,51.538312362059095,47.32566344146747,0.0011979580158367,0.0954576581716537,0,0,0
4354,150389.7806594474,2010-11-18 05:31:42,90.04594201950253,2,14,0.5499359965324402,3.652479410171509,12.925634058633452,12.94700493163716,51.55498058466498,47.32566344146747,0.0009065627818927,0.0954576581716537,0,0,0
4355,150419.79600124326,2010-11-18 05:32:12,120.06128382038244,2,14,0.5501165986061096,3.6832375526428223,12.930220789079147,12.94700493163716,51.57180653733118,47.32566344146747,0.0007446765666827,0.0954576581716537,0,0,0
4356,150449.81144729938,2010-11-18 05:32:42,150.0767298714869,2,14,0.5501165986061096,3.708329916000366,12.934807499479769,12.94700493163716,51.5887594288997,47.32566344146747,0.0006151676061563,0.0954576581716537,0,0,0
4357,150479.82662912595,2010-11-18 05:33:12,180.0919116980463,2,14,0.550297200679779,3.729051351547241,12.939394130482126,12.94700493163716,51.60581733800991,47.32566344146747,0.0004856586456298,0.0954576581716537,0,0,0
4358,150509.84207231994,2010-11-18 05:33:42,210.1073548669564,2,14,0.5501165986061096,3.746696949005127,12.943980885858425,12.94700493163716,51.62296386651887,47.32566344146747,0.0004209041653666,0.0954576581716537,0,0,0
4359,150539.85737841667,2010-11-18 05:34:12,240.12266097373836,2,14,0.5501165986061096,3.760295152664185,12.948567515672329,12.94700493163716,51.64018164335612,47.32566344146747,0.0003237724304199,0.0954576581716537,0,0,0
4360,150569.87258248878,2010-11-18 05:34:42,270.1378650608634,2,14,0.5499359965324402,3.768875122070313,12.953154190595509,12.94700493163716,51.65745042089003,47.32566344146747,0.0001618862152099,0.0954576581716537,0,0,0
4361,150599.88789858046,2010-11-18 05:35:12,300.1531811575818,2,14,0.550297200679779,3.774379253387451,12.957740857210885,12.94700493163716,51.674750373032296,47.32566344146747,0.0001295089750783,0.0954576581716537,0,0,0
4362,150629.90334088722,2010-11-18 05:35:42,330.1686234342648,2,14,0.5501165986061096,3.77826452255249,12.96232759650391,12.94700493163716,51.692071505438,47.32566344146747,6.47544875391759e-05,0.0954576581716537,0,0,0
4363,150659.91857508954,2010-11-18 05:36:12,360.1838576616246,2,14,0.5501165986061096,3.7819879055023193,12.966914300053013,12.94700493163716,51.709409901518384,47.32566344146747,0.0001295089750783,0.0954576581716537,0,0,0
4364,150689.93385637936,2010-11-18 05:36:42,390.199138926397,2,14,0.550297200679779,3.7855494022369385,12.971500983530458,12.94700493163716,51.726764512087954,47.32566344146747,9.713172767078504e-05,0.0954576581716537,0,0,0
4365,150719.94944744243,2010-11-18 05:37:12,420.2147299944862,2,14,0.550297200679779,3.7887871265411377,12.976087697066555,12.94700493163716,51.74413482868243,47.32566344146747,6.47544875391759e-05,0.0954576581716537,0,0,0
4366,150749.9646141262,2010-11-18 05:37:42,450.2298967033095,2,14,0.550297200679779,3.792024850845337,12.980674384440396,12.94700493163716,51.76152017626675,47.32566344146747,9.713172767078504e-05,0.0954576581716537,0,0,0
4367,150779.97981742135,2010-11-18 05:38:12,480.24509999344514,2,14,0.5501165986061096,3.795100688934326,12.985261014400828,12.94700493163716,51.7789199967912,47.32566344146747,6.47544875391759e-05,0.0954576581716537,0,0,0
4368,150809.9951215983,2010-11-18 05:38:42,510.2604041453474,2,14,0.550297200679779,3.798500299453736,12.989847751047716,12.94700493163716,51.79633463015306,47.32566344146747,0.0001295089750783,0.0954576581716537,0,0,0
4369,150840.01045287793,2010-11-18 05:39:12,540.2757354500271,2,14,0.5501165986061096,3.801414251327514,12.994434454780182,12.94700493163716,51.81376315054959,47.32566344146747,6.47544875391759e-05,0.0954576581716537,0,0,0
4370,150870.02579196202,2010-11-18 05:39:42,570.291074529113,2,14,0.550297200679779,3.804328203201294,12.999021331217335,12.94700493163716,51.83120592610088,47.32566344146747,9.713172767078504e-05,0.0954576581716537,0,0,0
4371,150900.04406019775,2010-11-18 05:40:12,600.3093427447744,2,14,0.550297200679779,3.807242155075073,13.003609292145214,12.94700493163716,51.84866642173309,47.32566344146747,9.713172767078504e-05,0.0954576581716537,0,0,0
4372,150930.05643842107,2010-11-18 05:40:42,630.3217209681088,2,14,0.5501165986061096,3.810156106948853,13.008196213636538,12.94700493163716,51.866136357150445,47.32566344146747,9.713172767078504e-05,0.0954576581716537,0,0,0
4373,150960.07179901385,2010-11-18 05:41:12,660.337081676184,2,14,0.550297200679779,3.813070058822632,13.0127829661033,12.94700493163716,51.88361884448663,47.32566344146747,6.47544875391759e-05,0.0954576581716537,0,0,0
4374,150990.08704713592,2010-11-18 05:41:42,690.3523296829393,2,14,0.5501165986061096,3.815984010696411,13.017369643063285,12.94700493163716,51.90111467373502,47.32566344146747,9.713172767078504e-05,0.0954576581716537,0,0,0
4375,151020.1023819744,2010-11-18 05:42:12,720.36766452144,2,14,0.5501165986061096,3.8188979625701904,13.021956384150675,12.94700493163716,51.91862418997838,47.32566344146747,9.713172767078504e-05,0.0954576581716537,0,0,0
4376,151050.11768393585,2010-11-18 05:42:42,750.3829664828745,2,14,0.5501165986061096,3.8218119144439697,13.026543024557387,12.94700493163716,51.936147103819785,47.32566344146747,6.47544875391759e-05,0.0954576581716537,0,0,0
4377,151080.13315178634,2010-11-18 05:43:12,780.3984343534438,2,14,0.5501165986061096,3.825049638748169,13.031129729183323,12.94700493163716,51.95368436153724,47.32566344146747,9.713172767078504e-05,0.0954576581716537,0,0,0
4378,151110.14831142753,2010-11-18 05:43:42,810.4135939745751,2,14,0.550297200679779,3.828287363052368,13.035716431941008,12.94700493163716,51.97123624142088,47.32566344146747,9.713172767078504e-05,0.0954576581716537,0,0,0
4379,151140.1636595041,2010-11-18 05:44:12,840.4289420511199,2,14,0.550297200679779,3.831686973571777,13.040303097460466,12.94700493163716,51.98880292895323,47.32566344146747,0.0001295089750783,0.0954576581716537,0,0,0
4380,151170.17895173124,2010-11-18 05:44:42,870.4442342782562,2,14,0.5501165986061096,3.8349244594573975,13.044889827521237,12.94700493163716,52.00638504419021,47.32566344146747,9.713172767078504e-05,0.0954576581716537,0,0,0
4381,151200.19425853476,2010-11-18 05:45:12,900.4595410817772,2,14,0.5499359965324402,3.8381621837615967,13.049476477414869,12.94700493163716,52.023982181699104,47.32566344146747,6.47544875391759e-05,0.0954576581716537,0,0,0
4382,151230.20969577384,2010-11-18 05:45:42,930.4749783208856,2,14,0.5499359965324402,3.841723680496216,13.054063133958612,12.94700493163716,52.04159482763954,47.32566344146747,9.713172767078504e-05,0.0954576581716537,0,0,0
4383,151260.2249037156,2010-11-18 05:46:12,960.4901862626324,2,14,0.5501165986061096,3.845123291015625,13.05864977657114,12.94700493163716,52.05922275350852,47.32566344146747,9.713172767078504e-05,0.0954576581716537,0,0,0
4384,151290.24026994247,2010-11-18 05:46:42,990.5055525496336,2,14,0.5499359965324402,3.8481991291046143,13.063236485999436,12.94700493163716,52.07686616162692,47.32566344146747,9.713172767078504e-05,0.0954576581716537,0,0,0
4385,151320.255519072,2010-11-18 05:47:12,1020.520801624054,2,14,0.5501165986061096,3.851598739624024,13.06782317047108,12.94700493163716,52.09452442351847,47.32566344146747,9.713172767078504e-05,0.0954576581716537,0,0,0
4386,151350.27083828652,2010-11-18 05:47:42,1050.536120833542,2,14,0.5501165986061096,3.8546745777130127,13.072409874269086,12.94700493163716,52.1121975488689,47.32566344146747,6.47544875391759e-05,0.0954576581716537,0,0,0
4387,151380.286260448,2010-11-18 05:48:12,1080.5515430200771,2,14,0.5501165986061096,3.857912302017212,13.076996564529953,12.94700493163716,52.129885157434025,47.32566344146747,9.713172767078504e-05,0.0954576581716537,0,0,0
4388,151410.30159706093,2010-11-18 05:48:42,1110.5668796229818,2,14,0.5499359965324402,3.860664367675781,13.081583248769624,12.94700493163716,52.14758689809213,47.32566344146747,3.237724376958795e-05,0.0954576581716537,0,0,0
4389,151440.3167533788,2010-11-18 05:49:12,1140.5820359559052,2,14,0.5501165986061096,3.8637402057647705,13.086169893020807,12.94700493163716,52.1653022439501,47.32566344146747,3.237724376958795e-05,0.0954576581716537,0,0,0
4390,151470.33232296328,2010-11-18 05:49:42,1170.5976055102933,2,14,0.5499359965324402,3.86649227142334,13.09075658562914,12.94700493163716,52.183030943139634,47.32566344146747,6.47544875391759e-05,0.0954576581716537,0,0,0
4391,151500.3474382086,2010-11-18 05:50:12,1200.6127207757056,2,14,0.5501165986061096,3.869406223297119,13.09534327529483,12.94700493163716,52.20077248679301,47.32566344146747,9.713172767078504e-05,0.0954576581716537,0,0,0
4392,151530.36270807998,2010-11-18 05:50:42,1230.6279906269883,2,14,0.5501165986061096,3.8719964027404794,13.099930032916271,12.94700493163716,52.21852656752129,47.32566344146747,3.237724376958795e-05,0.0954576581716537,0,0,0
4393,151560.37801888346,2010-11-18 05:51:13,1260.643301430494,2,14,0.5501165986061096,3.874586582183838,13.104516702203188,12.94700493163716,52.23629192413586,47.32566344146747,9.713172767078504e-05,0.0954576581716537,0,0,0
4394,151590.39345403737,2010-11-18 05:51:43,1290.6587365843973,2,14,0.5501165986061096,3.876852989196777,13.109103420498718,12.94700493163716,52.254068521677375,47.32566344146747,6.47544875391759e-05,0.0954576581716537,0,0,0
4395,151620.40865697662,2010-11-18 05:52:13,1320.6739395236573,2,14,0.5501165986061096,3.878957509994507,13.113690147607976,12.94700493163716,52.27185555524248,47.32566344146747,0.0,0.0954576581716537,0,0,0
4396,151650.42408369447,2010-11-18 05:52:43,1350.6893662415027,2,14,0.550297200679779,3.881062030792236,13.118276833158522,12.94700493163716,52.28965208433283,47.32566344146747,3.237724376958795e-05,0.0954576581716537,0,0,0
4397,151680.43927705483,2010-11-18 05:53:13,1380.7045596018522,2,14,0.5501165986061096,3.883004665374756,13.12286353690304,12.94700493163716,52.30745772020575,47.32566344146747,3.237724376958795e-05,0.0954576581716537,0,0,0
4398,151710.4546042693,2010-11-18 05:53:43,1410.719886841385,2,14,0.5501165986061096,3.884623527526856,13.12745031732926,12.94700493163716,52.32527209198204,47.32566344146747,0.0,0.0954576581716537,0,0,0
4399,151740.46991449135,2010-11-18 05:54:13,1440.735197043389,2,14,0.550297200679779,3.886404275894165,13.132037054090167,12.94700493163716,52.3430940907539,47.32566344146747,6.47544875391759e-05,0.0954576581716537,0,0,0
4400,151770.48521126984,2010-11-18 05:54:43,1470.7504938168738,2,14,0.5499359965324402,3.887861251831055,13.136623802141411,12.94700493163716,52.36092344126859,47.32566344146747,6.47544875391759e-05,0.0954576581716537,0,0,0
4401,151800.50052490042,2010-11-18 05:55:13,1500.765807447436,2,14,0.5499359965324402,3.889318227767944,13.14121052379152,12.94700493163716,52.378759653825554,47.32566344146747,3.237724376958795e-05,0.0954576581716537,0,0,0
4402,151830.51584858604,2010-11-18 05:55:43,1530.7811311330977,2,14,0.5499359965324402,3.890937089920044,13.145797306097505,12.94700493163716,52.39660263917624,47.32566344146747,6.47544875391759e-05,0.0954576581716537,0,0,0
4403,151860.53136843137,2010-11-18 05:56:13,1560.796650978404,2,14,0.5501165986061096,3.8920702934265137,13.150384032723627,12.94700493163716,52.41445171884112,47.32566344146747,3.237724376958795e-05,0.0954576581716537,0,0,0
4404,151890.54649236842,2010-11-18 05:56:43,1590.811774915462,2,14,0.5499359965324402,3.893365383148194,13.15497077677536,12.94700493163716,52.432306954229816,47.32566344146747,3.237724376958795e-05,0.0954576581716537,0,0,0
4405,151920.56183086106,2010-11-18 05:57:13,1620.827113408084,2,14,0.550297200679779,3.894660472869873,13.159557597716198,12.94700493163716,52.450168494785466,47.32566344146747,0.0,0.0954576581716537,0,0,0
4406,151950.57724769422,2010-11-18 05:57:43,1650.8425302462686,2,14,0.5501165986061096,3.8959555625915527,13.164144421590398,12.94700493163716,52.46803528139922,47.32566344146747,3.237724376958795e-05,0.0954576581716537,0,0,0
4407,151980.5924348441,2010-11-18 05:58:13,1680.8577173911033,2,14,0.5501165986061096,3.8970887660980233,13.168731147337486,12.94700493163716,52.48590760875276,47.32566344146747,3.237724376958795e-05,0.0954576581716537,0,0,0
4408,152010.60775849465,2010-11-18 05:58:43,1710.8730411569647,2,14,0.5501165986061096,3.898383855819702,13.173317864914104,12.94700493163716,52.50378555358798,47.32566344146747,3.237724376958795e-05,0.0954576581716537,0,0,0
4409,152040.62319671622,2010-11-18 05:59:13,1740.888479263238,2,14,0.5501165986061096,3.899678945541382,13.177904593833292,12.94700493163716,52.52166928195806,47.32566344146747,3.237724376958795e-05,0.0954576581716537,0,0,0
4410,152070.6383708285,2010-11-18 05:59:43,1770.9036533755414,2,14,0.5501165986061096,3.9009740352630615,13.182491286383094,12.94700493163716,52.53955845246868,47.32566344146747,6.47544875391759e-05,0.0954576581716537,0,0,0
4411,152100.65367744156,2010-11-18 06:00:13,1800.9189599885867,2,14,0.5499359965324402,3.9021072387695312,13.187077976119127,12.94700493163716,52.55745334280306,47.32566344146747,3.237724376958795e-05,0.0954576581716537,0,0,0
4412,152130.66899726258,2010-11-18 06:00:43,1830.934279809601,2,14,0.5501165986061096,3.903402328491211,13.191664667310414,12.94700493163716,52.57535396110837,47.32566344146747,3.237724376958795e-05,0.0954576581716537,0,0,0
4413,152160.68428364513,2010-11-18 06:01:13,1860.9495661921487,2,14,0.5501165986061096,3.90469741821289,13.19625139445724,12.94700493163716,52.59326053438984,47.32566344146747,3.237724376958795e-05,0.0954576581716537,0,0,0
4414,152190.69959246367,2010-11-18 06:01:43,1890.9648750107,2,14,0.5501165986061096,3.9059925079345694,13.200838121872648,12.94700493163716,52.611172802631344,47.32566344146747,3.237724376958795e-05,0.0954576581716537,0,0,0
4415,152220.71491562302,2010-11-18 06:02:13,1920.9801981700475,2,14,0.5499359965324402,3.90712571144104,13.205424850546752,12.94700493163716,52.62909099235854,47.32566344146747,6.47544875391759e-05,0.0954576581716537,0,0,0
4416,152250.7302222862,2010-11-18 06:02:43,1950.9955048332183,2,14,0.5501165986061096,3.90842080116272,13.210011581689937,12.94700493163716,52.647015067553845,47.32566344146747,3.237724376958795e-05,0.0954576581716537,0,0,0
4417,152280.745965078,2010-11-18 06:03:13,1981.0112476551085,2,14,0.5501165986061096,3.9097158908844,13.214598374523948,12.94700493163716,52.66494528666019,47.32566344146747,3.237724376958795e-05,0.0954576581716537,0,0,0
4418,152310.76084791825,2010-11-18 06:03:43,2011.0261304652768,2,14,0.5499359965324402,3.911172866821289,13.219185044171224,12.94700493163716,52.68288095549042,47.32566344146747,6.47544875391759e-05,0.0954576581716537,0,0,0
4419,152340.77631085148,2010-11-18 06:04:13,2041.0415933985216,2,14,0.550297200679779,3.9124679565429688,13.223771793812473,12.94700493163716,52.70082297267328,47.32566344146747,9.713172767078504e-05,0.0954576581716537,0,0,0
4420,152370.79147906907,2010-11-18 06:04:43,2071.056761616111,2,14,0.550297200679779,3.913762807846069,13.228358535649576,12.94700493163716,52.7187710338012,47.32566344146747,3.23295607813634e-05,0.0954576581716537,0,0,0
4421,152400.80677468466,2010-11-18 06:05:13,2101.072057231705,2,14,0.5501165986061096,3.915057897567749,13.2329452289491,12.94700493163716,52.73672502614748,47.32566344146747,3.237724376958795e-05,0.0954576581716537,0,0,0
4422,152430.82221900145,2010-11-18 06:05:43,2131.0875015484808,2,14,0.5501165986061096,3.916514873504639,13.237531949661363,12.94700493163716,52.75468514112421,47.32566344146747,6.47544875391759e-05,0.0954576581716537,0,0,0
4423,152460.83736762512,2010-11-18 06:06:13,2161.1026501721603,2,14,0.5501165986061096,3.917648077011109,13.242118614846536,12.94700493163716,52.772651354874206,47.32566344146747,3.237724376958795e-05,0.0954576581716537,0,0,0
4424,152490.85270626313,2010-11-18 06:06:43,2191.117988810145,2,14,0.5499359965324402,3.919105052947998,13.246705212344605,12.94700493163716,52.79062352464437,47.32566344146747,3.237724376958795e-05,0.0954576581716537,0,0,0
4425,152520.86809843977,2010-11-18 06:07:13,2221.1333809917837,2,14,0.5501165986061096,3.920562028884888,13.251291860677126,12.94700493163716,52.80860230550402,47.32566344146747,6.47544875391759e-05,0.0954576581716537,0,0,0
4426,152550.8833755692,2010-11-18 06:07:43,2251.1486581412832,2,14,0.5501165986061096,3.921857118606568,13.255878503723627,12.94700493163716,52.82658737326216,47.32566344146747,3.237724376958795e-05,0.0954576581716537,0,0,0
4427,152580.89869177618,2010-11-18 06:08:13,2281.1639743282267,2,14,0.5501165986061096,3.923314094543457,13.260465070625658,12.94700493163716,52.84457859870328,47.32566344146747,3.237724376958795e-05,0.0954576581716537,0,0,0
4428,152610.91409882996,2010-11-18 06:08:43,2311.1793813870004,2,14,0.5501165986061096,3.9246091842651367,13.265051676289072,12.94700493163716,52.862576465458055,47.32566344146747,0.0,0.0954576581716537,0,0,0
4429,152640.92955537225,2010-11-18 06:09:13,2341.194837919268,2,14,0.5499359965324402,3.9260661602020255,13.269638362918156,12.94700493163716,52.88058121732784,47.32566344146747,3.237724376958795e-05,0.0954576581716537,0,0,0
4430,152670.94460106397,2010-11-18 06:09:43,2371.209883611013,2,14,0.5501165986061096,3.927685022354126,13.274224980696614,12.94700493163716,52.89859224606759,47.32566344146747,3.237724376958795e-05,0.0954576581716537,0,0,0
4431,152700.95993177718,2010-11-18 06:10:13,2401.2252143242167,2,14,0.5499359965324402,3.9289801120758057,13.278811589911973,12.94700493163716,52.91660991783641,47.32566344146747,0.0,0.0954576581716537,0,0,0
4432,152730.97522080134,2010-11-18 06:10:43,2431.2405033483574,2,14,0.5501165986061096,3.9304370880126953,13.283398177374064,12.94700493163716,52.93463420244025,47.32566344146747,3.237724376958795e-05,0.0954576581716537,0,0,0
4433,152760.99054279277,2010-11-18 06:11:13,2461.2558253598404,2,14,0.550297200679779,3.932055950164795,13.287984861713037,12.94700493163716,52.95266561124578,47.32566344146747,6.47544875391759e-05,0.0954576581716537,0,0,0
4434,152791.0058322931,2010-11-18 06:11:43,2491.27111484012,2,14,0.5501165986061096,3.933512926101685,13.292571496498764,12.94700493163716,52.97070365966021,47.32566344146747,6.47544875391759e-05,0.0954576581716537,0,0,0
4435,152821.02399723596,2010-11-18 06:12:13,2521.289279868209,2,14,0.5501165986061096,3.934969902038574,13.297158565433993,12.94700493163716,52.98875030286449,47.32566344146747,3.237724376958795e-05,0.0954576581716537,0,0,0
4436,152851.03650641115,2010-11-18 06:12:43,2551.3017889582075,2,14,0.550297200679779,3.936588764190674,13.301744834043106,12.94700493163716,53.006800698746,47.32566344146747,6.47544875391759e-05,0.0954576581716537,0,0,0
4437,152881.05114769845,2010-11-18 06:13:13,2581.31643033071,2,14,0.5499359965324402,3.938045740127564,13.306329142534288,12.94700493163716,53.02485030061621,47.32566344146747,3.237724376958795e-05,0.0954576581716537,0,0,0
4438,152911.05160514067,2010-11-18 06:13:43,2611.316887717804,2,14,0.5501165986061096,3.939664602279663,13.310915781881787,12.94700493163716,53.04291619916242,47.32566344146747,6.47544875391759e-05,0.0954576581716537,0,0,0
4439,152941.06689438035,2010-11-18 06:14:13,2641.33217693242,2,14,0.5499359965324402,3.9411215782165527,13.31550247207179,12.94700493163716,53.06098946852245,47.32566344146747,6.47544875391759e-05,0.0954576581716537,0,0,0
4440,152971.08221958482,2010-11-18 06:14:43,2671.34750213186,2,14,0.5501165986061096,3.942740440368652,13.320089087534727,12.94700493163716,53.07906953139709,47.32566344146747,6.47544875391759e-05,0.0954576581716537,0,0,0
4441,153001.097380018,2010-11-18 06:15:13,2701.362662565018,2,14,0.5501165986061096,3.944197416305542,13.324675677796565,12.94700493163716,53.0971567413692,47.32566344146747,3.237724376958795e-05,0.0954576581716537,0,0,0
4442,153031.11282191373,2010-11-18 06:15:43,2731.3781044657626,2,14,0.5501165986061096,3.945978164672852,13.329262405694513,12.94700493163716,53.115251821854734,47.32566344146747,9.713172767078504e-05,0.0954576581716537,0,0,0
4443,153061.12808940912,2010-11-18 06:16:13,2761.393371956152,2,14,0.5501165986061096,3.947435140609741,13.33384909826468,12.94700493163716,53.13335399095194,47.32566344146747,3.237724376958795e-05,0.0954576581716537,0,0,0
4444,153091.14337318516,2010-11-18 06:16:43,2791.408655817406,2,14,0.5501165986061096,3.949054002761841,13.338435763705776,12.94700493163716,53.15146345679855,47.32566344146747,6.47544875391759e-05,0.0954576581716537,0,0,0
4445,153121.15864136224,2010-11-18 06:17:13,2821.423923934359,2,14,0.5501165986061096,3.950672864913941,13.343022341907515,12.94700493163716,53.16957997426386,47.32566344146747,3.237724376958795e-05,0.0954576581716537,0,0,0
4446,153151.1739359804,2010-11-18 06:17:43,2851.439218527401,2,14,0.5501165986061096,3.95212984085083,13.34760908034776,12.94700493163716,53.18770468005138,47.32566344146747,3.237724376958795e-05,0.0954576581716537,0,0,0
4447,153181.18936886362,2010-11-18 06:18:13,2881.454651420662,2,14,0.5501165986061096,3.9540724754333496,13.352195788978785,12.94700493163716,53.205836892036736,47.32566344146747,6.47544875391759e-05,0.0954576581716537,0,0,0
4448,153211.20455935178,2010-11-18 06:18:43,2911.4698418988164,2,14,0.5501165986061096,3.955691337585449,13.356782441765716,12.94700493163716,53.22397658686837,47.32566344146747,3.237724376958795e-05,0.0954576581716537,0,0,0
4449,153241.21986678187,2010-11-18 06:19:13,2941.485149328902,2,14,0.550297200679779,3.957310199737549,13.361369222494982,12.94700493163716,53.24212451151012,47.32566344146747,3.237724376958795e-05,0.0954576581716537,0,0,0
4450,153271.23516215183,2010-11-18 06:19:43,2971.500444698883,2,14,0.550297200679779,3.959252834320069,13.3659559018,12.94700493163716,53.260279763077065,47.32566344146747,6.47544875391759e-05,0.0954576581716537,0,0,0
4451,153301.25059983708,2010-11-18 06:20:13,3001.515882389117,2,14,0.550297200679779,3.960871696472168,13.370542645969916,12.94700493163716,53.278443095973486,47.32566344146747,6.47544875391759e-05,0.0954576581716537,0,0,0
4452,153331.265803844,2010-11-18 06:20:43,3031.5310863960426,2,14,0.5501165986061096,3.962490558624268,13.375129267648386,12.94700493163716,53.29661381164862,47.32566344146747,6.47544875391759e-05,0.0954576581716537,0,0,0
4453,153361.2812243814,2010-11-18 06:21:13,3061.5465069284483,2,14,0.5501165986061096,3.964271306991577,13.379715952883789,12.94700493163716,53.314792724872696,47.32566344146747,6.47544875391759e-05,0.0954576581716537,0,0,0
4454,153391.29640639844,2010-11-18 06:21:43,3091.5616889454827,2,14,0.5501165986061096,3.966052055358887,13.384302612420957,12.94700493163716,53.33297957108903,47.32566344146747,3.237724376958795e-05,0.0954576581716537,0,0,0
4455,153421.31187264997,2010-11-18 06:22:13,3121.577155202024,2,14,0.5501165986061096,3.9676709175109854,13.388889393792963,12.94700493163716,53.35117497484434,47.32566344146747,3.237724376958795e-05,0.0954576581716537,0,0,0
4456,153451.32703074728,2010-11-18 06:22:43,3151.5923132943385,2,14,0.5501165986061096,3.969613552093506,13.393476103039744,12.94700493163716,53.369378275910336,47.32566344146747,6.47544875391759e-05,0.0954576581716537,0,0,0
4457,153481.34233022254,2010-11-18 06:23:13,3181.607612769567,2,14,0.5501165986061096,3.971394300460816,13.398062879822902,12.94700493163716,53.387590080897326,47.32566344146747,6.47544875391759e-05,0.0954576581716537,0,0,0
4458,153511.35763646464,2010-11-18 06:23:44,3211.622919011687,2,14,0.5501165986061096,3.973336935043335,13.40264963366976,12.94700493163716,53.40581025898173,47.32566344146747,6.47544875391759e-05,0.0954576581716537,0,0,0
4459,153541.3729593032,2010-11-18 06:24:14,3241.6382418752964,2,14,0.5501165986061096,3.975117683410645,13.407236396951884,12.94700493163716,53.42403894635185,47.32566344146747,3.237724376958795e-05,0.0954576581716537,0,0,0
4460,153571.38826700897,2010-11-18 06:24:44,3271.653549556007,2,14,0.550297200679779,3.976898431777954,13.411823150302933,12.94700493163716,53.44227614533138,47.32566344146747,0.0,0.0954576581716537,0,0,0
4461,153601.40356056942,2010-11-18 06:25:14,3301.668843146547,2,14,0.5501165986061096,3.9788410663604736,13.416409824270607,12.94700493163716,53.46052120590166,47.32566344146747,3.237724376958795e-05,0.0954576581716537,0,0,0
4462,153631.41887277144,2010-11-18 06:25:44,3331.684155318468,2,14,0.550297200679779,3.980945587158203,13.420996476652808,12.94700493163716,53.47877537590717,47.32566344146747,0.0001295089750783,0.0954576581716537,0,0,0
4463,153661.4341769835,2010-11-18 06:26:14,3361.6994595305205,2,14,0.5501165986061096,3.9827263355255127,13.425583042420596,12.94700493163716,53.49703794853553,47.32566344146747,6.47544875391759e-05,0.0954576581716537,0,0,0
4464,153691.449496198,2010-11-18 06:26:44,3391.714778745021,2,14,0.550297200679779,3.984668970108032,13.430169632310475,12.94700493163716,53.51530946818751,47.32566344146747,6.47544875391759e-05,0.0954576581716537,0,0,0
4465,153721.46481709668,2010-11-18 06:27:14,3421.7300996687886,2,14,0.5501165986061096,3.9867734909057617,13.434756242750172,12.94700493163716,53.53359009126424,47.32566344146747,6.47544875391759e-05,0.0954576581716537,0,0,0
4466,153751.48012506313,2010-11-18 06:27:44,3451.7454076352124,2,14,0.5501165986061096,3.9885542392730713,13.439342827459276,12.94700493163716,53.55187967079392,47.32566344146747,6.47544875391759e-05,0.0954576581716537,0,0,0
4467,153781.49540791183,2010-11-18 06:28:14,3481.760690468901,2,14,0.5501165986061096,3.990658760070801,13.443929356614914,12.94700493163716,53.57017828868472,47.32566344146747,3.237724376958795e-05,0.0954576581716537,0,0,0
4468,153811.511067115,2010-11-18 06:28:44,3511.776349662041,2,14,0.550297200679779,3.9927632808685294,13.448516024542652,12.94700493163716,53.58848682300397,47.32566344146747,6.47544875391759e-05,0.0954576581716537,0,0,0
4469,153841.52603384966,2010-11-18 06:29:14,3541.7913164017104,2,14,0.5499359965324402,3.9948675632476807,13.453102551747692,12.94700493163716,53.60680425502655,47.32566344146747,6.47544875391759e-05,0.0954576581716537,0,0,0
4470,153871.5413410893,2010-11-18 06:29:44,3571.806623636307,2,14,0.5501165986061096,3.9968101978302,13.457689130236114,12.94700493163716,53.625131455619474,47.32566344146747,6.47544875391759e-05,0.0954576581716537,0,0,0
4471,153901.55664679006,2010-11-18 06:30:14,3601.8219293420884,2,14,0.550297200679779,3.9989147186279297,13.462275770335609,12.94700493163716,53.64346854333248,47.32566344146747,3.237724376958795e-05,0.0954576581716537,0,0,0
4472,153931.5719925157,2010-11-18 06:30:44,3631.8372750627527,2,14,0.5501165986061096,4.001019477844238,13.466862417504244,12.94700493163716,53.66181552003569,47.32566344146747,3.24249267578125e-05,0.0954576581716537,0,0,0
4473,153961.5872798607,2010-11-18 06:31:14,3661.852562432765,2,14,0.5499359965324402,4.003285884857178,13.471449004161473,12.94700493163716,53.68017219024259,47.32566344146747,6.47544875391759e-05,0.0954576581716537,0,0,0
4474,153991.60279599173,2010-11-18 06:31:44,3691.868078558787,2,14,0.5501165986061096,4.005552291870117,13.476035653556217,12.94700493163716,53.69853909901445,47.32566344146747,3.24249267578125e-05,0.0954576581716537,0,0,0
4475,154021.6178949865,2010-11-18 06:32:14,3721.883177533536,2,14,0.550297200679779,4.007980346679688,13.480622182160763,12.94700493163716,53.716915733622486,47.32566344146747,9.70840483205393e-05,0.0954576581716537,0,0,0
4476,154051.633196973,2010-11-18 06:32:44,3751.8984795200327,2,14,0.5501165986061096,4.010085105895996,13.48520884728114,12.94700493163716,53.73530314883596,47.32566344146747,9.71794142969884e-05,0.0954576581716537,0,0,0
4477,154081.64849819258,2010-11-18 06:33:14,3781.913780744628,2,14,0.5499359965324402,4.012027740478516,13.489795409445907,12.94700493163716,53.75370049960435,47.32566344146747,0.0,0.0954576581716537,0,0,0
4478,154111.66380906626,2010-11-18 06:33:44,3811.929091613296,2,14,0.550297200679779,4.014617919921875,13.494382058870276,12.94700493163716,53.77210862253544,47.32566344146747,6.47544875391759e-05,0.0954576581716537,0,0,0
4479,154141.679125985,2010-11-18 06:34:14,3841.944408552117,2,14,0.5501165986061096,4.016884326934815,13.498968616128852,12.94700493163716,53.79052683985242,47.32566344146747,9.71794142969884e-05,0.0954576581716537,0,0,0
4480,154171.69444637749,2010-11-18 06:34:44,3871.959728924507,2,14,0.5499359965324402,4.019150733947754,13.503555223394033,12.94700493163716,53.80895581325,47.32566344146747,6.47544875391759e-05,0.0954576581716537,0,0,0
4481,154201.70975045918,2010-11-18 06:35:14,3901.975033051347,2,14,0.5501165986061096,4.021578788757324,13.508141785243575,12.94700493163716,53.827395137105775,47.32566344146747,9.70840483205393e-05,0.0954576581716537,0,0,0
4482,154231.72503136809,2010-11-18 06:35:44,3931.9903139401817,2,14,0.5501165986061096,4.023845195770264,13.512728312729926,12.94700493163716,53.84584518384639,47.32566344146747,6.47544875391759e-05,0.0954576581716537,0,0,0
4483,154261.7403408934,2010-11-18 06:36:14,3962.005623470509,2,14,0.550297200679779,4.026273727416992,13.517314828475032,12.94700493163716,53.86430592221533,47.32566344146747,9.71794142969884e-05,0.0954576581716537,0,0,0
4484,154291.75565345128,2010-11-18 06:36:44,3992.0209359983182,2,14,0.5501165986061096,4.0287017822265625,13.52190138036726,12.94700493163716,53.8827777767967,47.32566344146747,9.70840483205393e-05,0.0954576581716537,0,0,0
4485,154321.77095282625,2010-11-18 06:37:14,4022.0362353732967,2,14,0.5501165986061096,4.030968189239502,13.526487936352073,12.94700493163716,53.90126064619704,47.32566344146747,3.23295607813634e-05,0.0954576581716537,0,0,0
4486,154351.7862544669,2010-11-18 06:37:44,4052.0515370139306,2,14,0.5501165986061096,4.033396720886231,13.5310744986297,12.94700493163716,53.91975467146397,47.32566344146747,6.47544875391759e-05,0.0954576581716537,0,0,0
4487,154381.8017296808,2010-11-18 06:38:14,4082.0670122328434,2,14,0.5499359965324402,4.035662651062012,13.535661192990434,12.94700493163716,53.93826050171013,47.32566344146747,0.0,0.0954576581716537,0,0,0
4488,154411.8169109159,2010-11-18 06:38:44,4112.082193462913,2,14,0.5499359965324402,4.03841495513916,13.540247808199672,12.94700493163716,53.95677739117896,47.32566344146747,6.47544875391759e-05,0.0954576581716537,0,0,0
4489,154441.8321781957,2010-11-18 06:39:14,4142.097460742777,2,14,0.5499359965324402,4.0408430099487305,13.544834478549223,12.94700493163716,53.97530586303116,47.32566344146747,3.23295607813634e-05,0.0954576581716537,0,0,0
4490,154471.84748227245,2010-11-18 06:39:44,4172.112764824504,2,14,0.5501165986061096,4.04343318939209,13.549421071807188,12.94700493163716,53.99384562729891,47.32566344146747,9.70840483205393e-05,0.0954576581716537,0,0,0
4491,154501.86278919628,2010-11-18 06:40:14,4202.128071743313,2,14,0.5499359965324402,4.046023368835449,13.554007649843436,12.94700493163716,54.01239704310908,47.32566344146747,6.47544875391759e-05,0.0954576581716537,0,0,0
4492,154531.87810894713,2010-11-18 06:40:44,4232.143391494153,2,14,0.5501165986061096,4.048775672912598,13.558594258434663,12.94700493163716,54.030960411652295,47.32566344146747,9.71794142969884e-05,0.0954576581716537,0,0,0
4493,154561.89352384547,2010-11-18 06:41:14,4262.158806392496,2,14,0.5501165986061096,4.051042079925537,13.563180740123371,12.94700493163716,54.04953505043807,47.32566344146747,3.24249267578125e-05,0.0954576581716537,0,0,0
4494,154591.90900810694,2010-11-18 06:41:44,4292.1742906539785,2,14,0.550297200679779,4.053793907165527,13.567767325296836,12.94700493163716,54.06812203565142,47.32566344146747,6.47544875391759e-05,0.0954576581716537,0,0,0
4495,154621.924143267,2010-11-18 06:42:14,4322.189425814051,2,14,0.5501165986061096,4.056546211242676,13.572353876227272,12.94700493163716,54.08672101140408,47.32566344146747,9.71794142969884e-05,0.0954576581716537,0,0,0
4496,154651.93933688803,2010-11-18 06:42:44,4352.204619430039,2,14,0.550297200679779,4.059136390686035,13.576940406610913,12.94700493163716,54.10533202784439,47.32566344146747,6.47544875391759e-05,0.0954576581716537,0,0,0
4497,154681.9546279673,2010-11-18 06:43:14,4382.219910519335,2,14,0.5501165986061096,4.0617265701293945,13.581527071566532,12.94700493163716,54.12395550801707,47.32566344146747,9.71794142969884e-05,0.0954576581716537,0,0,0
4498,154711.96993157783,2010-11-18 06:43:44,4412.235214119861,2,14,0.5501165986061096,4.064478397369385,13.58611370989846,12.94700493163716,54.1425911010056,47.32566344146747,9.70840483205393e-05,0.0954576581716537,0,0,0
4499,154741.9852392285,2010-11-18 06:44:14,4442.250521770496,2,14,0.550297200679779,4.067230701446533,13.590700338843895,12.94700493163716,54.16123915780628,47.32566344146747,9.71794142969884e-05,0.0954576581716537,0,0,0
4500,154772.0035559502,2010-11-18 06:44:44,4472.268838602511,2,14,0.5501165986061096,4.069982528686523,13.59528742507596,12.94700493163716,54.17990173416424,47.32566344146747,9.70840483205393e-05,0.0954576581716537,0,0,0
4501,154802.0158944594,2010-11-18 06:45:14,4502.2811769964255,2,14,0.5499359965324402,4.072572708129883,13.599873676004202,12.94700493163716,54.19857362929958,47.32566344146747,6.47544875391759e-05,0.0954576581716537,0,0,0
4502,154832.03115679193,2010-11-18 06:45:44,4532.296439333953,2,14,0.5501165986061096,4.075486660003662,13.60446026061333,12.94700493163716,54.21725979596293,47.32566344146747,6.47544875391759e-05,0.0954576581716537,0,0,0
4503,154862.04646182602,2010-11-18 06:46:14,4562.311744368057,2,14,0.5501165986061096,4.078400611877441,13.609046924639363,12.94700493163716,54.23595931008062,47.32566344146747,9.70840483205393e-05,0.0954576581716537,0,0,0
4504,154892.0617847949,2010-11-18 06:46:44,4592.327067336929,2,14,0.5501165986061096,4.08115291595459,13.6136335525766,12.94700493163716,54.2546717703144,47.32566344146747,6.47544875391759e-05,0.0954576581716537,0,0,0
4505,154922.0770820496,2010-11-18 06:47:14,4622.342364586603,2,14,0.5501165986061096,4.084066867828369,13.618220188562216,12.94700493163716,54.273397390314045,47.32566344146747,6.47544875391759e-05,0.0954576581716537,0,0,0
4506,154952.0923774446,2010-11-18 06:47:44,4652.357659981647,2,14,0.5501165986061096,4.086980819702148,13.622806812203471,12.94700493163716,54.29213627457533,47.32566344146747,9.71794142969884e-05,0.0954576581716537,0,0,0
4507,154982.1077105789,2010-11-18 06:48:14,4682.372993181056,2,14,0.5501165986061096,4.089894771575928,13.627393450628782,12.94700493163716,54.31088864052142,47.32566344146747,9.71794142969884e-05,0.0954576581716537,0,0,0
4508,155012.123029643,2010-11-18 06:48:44,4712.388312205081,2,14,0.5501165986061096,4.092970371246338,13.63198012260831,12.94700493163716,54.329654705927325,47.32566344146747,6.47544875391759e-05,0.0954576581716537,0,0,0
4509,155042.1383072737,2010-11-18 06:49:14,4742.403589815732,2,14,0.5501165986061096,4.095884323120117,13.636566746467643,12.94700493163716,54.34843411389154,47.32566344146747,6.47544875391759e-05,0.0954576581716537,0,0,0
4510,155072.15373090887,2010-11-18 06:49:44,4772.419013455896,2,14,0.5501165986061096,4.0989603996276855,13.641153522507874,12.94700493163716,54.3672279428644,47.32566344146747,6.47544875391759e-05,0.0954576581716537,0,0,0
4511,155102.16902712095,2010-11-18 06:50:14,4802.434309657953,2,14,0.5501165986061096,4.101874351501465,13.64574019474098,12.94700493163716,54.38603528181283,47.32566344146747,9.71794142969884e-05,0.0954576581716537,0,0,0
4512,155132.18435147326,2010-11-18 06:50:44,4832.449634020304,2,14,0.5501165986061096,4.105112075805664,13.65032689568412,12.94700493163716,54.40485663048687,47.32566344146747,9.71794142969884e-05,0.0954576581716537,0,0,0
4513,155162.19951949536,2010-11-18 06:51:14,4862.464802042406,2,14,0.550297200679779,4.108187675476074,13.654913532347772,12.94700493163716,54.42369182042729,47.32566344146747,0.0001295089750783,0.0954576581716537,0,0,0
4514,155192.21482692545,2010-11-18 06:51:44,4892.480109467479,2,14,0.550297200679779,4.111263751983643,13.659500120671302,12.94700493163716,54.44254098367422,47.32566344146747,9.71794142969884e-05,0.0954576581716537,0,0,0
4515,155222.23011229548,2010-11-18 06:52:14,4922.495394862561,2,14,0.5499359965324402,4.114177703857422,13.66408629564129,12.94700493163716,54.46140278509228,47.32566344146747,6.47544875391759e-05,0.0954576581716537,0,0,0
4516,155252.245409891,2010-11-18 06:52:44,4952.510692453085,2,14,0.5501165986061096,4.117577075958252,13.668672056227972,12.94700493163716,54.480277427278594,47.32566344146747,0.0001295089750783,0.0954576581716537,0,0,0
4517,155282.26118289324,2010-11-18 06:53:14,4982.52646547536,2,14,0.5499359965324402,4.120814800262451,13.673258114112116,12.94700493163716,54.49916799555935,47.32566344146747,9.71794142969884e-05,0.0954576581716537,0,0,0
4518,155312.2760347311,2010-11-18 06:53:44,5012.541317293166,2,14,0.5499359965324402,4.12405252456665,13.677843805836645,12.94700493163716,54.51807190282912,47.32566344146747,9.71794142969884e-05,0.0954576581716537,0,0,0
4519,155342.29188242476,2010-11-18 06:54:14,5042.5571649868325,2,14,0.5499359965324402,4.12729024887085,13.682429705804468,12.94700493163716,54.536991602909,47.32566344146747,9.71794142969884e-05,0.0954576581716537,0,0,0
4520,155372.30668975651,2010-11-18 06:54:44,5072.571972298545,2,14,0.5499359965324402,4.130527973175049,13.687015442928654,12.94700493163716,54.555925478911085,47.32566344146747,6.47544875391759e-05,0.0954576581716537,0,0,0
4521,155402.32197653505,2010-11-18 06:55:14,5102.587259082094,2,14,0.550297200679779,4.133927345275879,13.691601634006425,12.94700493163716,54.57487632331838,47.32566344146747,0.0001295089750783,0.0954576581716537,0,0,0
4522,155432.33726811057,2010-11-18 06:55:45,5132.602550647578,2,14,0.550297200679779,4.137165069580078,13.696188348573042,12.94700493163716,54.59384472617565,47.32566344146747,9.70840483205393e-05,0.0954576581716537,0,0,0
4523,155462.35268195128,2010-11-18 06:56:15,5162.617964493294,2,14,0.5501165986061096,4.140564918518066,13.700775075592984,12.94700493163716,54.61282865165121,47.32566344146747,9.71794142969884e-05,0.0954576581716537,0,0,0
4524,155492.3678804645,2010-11-18 06:56:45,5192.633163011517,2,14,0.550297200679779,4.143802642822266,13.705361864536645,12.94700493163716,54.63182823082741,47.32566344146747,6.47544875391759e-05,0.0954576581716537,0,0,0
4525,155522.38329540292,2010-11-18 06:57:15,5222.648577959984,2,14,0.550297200679779,4.147364139556885,13.709948570212372,12.94700493163716,54.6508433442896,47.32566344146747,9.71794142969884e-05,0.0954576581716537,0,0,0
4526,155552.39859596087,2010-11-18 06:57:45,5252.663878623178,2,14,0.550297200679779,4.150925636291504,13.714535234193136,12.94700493163716,54.669873957121936,47.32566344146747,0.0001295089750783,0.0954576581716537,0,0,0
4527,155582.41387963665,2010-11-18 06:58:15,5282.679162203732,2,14,0.5501165986061096,4.154163360595703,13.719121916564108,12.94700493163716,54.688920421062285,47.32566344146747,6.47544875391759e-05,0.0954576581716537,0,0,0
4528,155612.42907929773,2010-11-18 06:58:45,5312.6943618698215,2,14,0.5501165986061096,4.157562732696533,13.723708580534405,12.94700493163716,54.70798266084952,47.32566344146747,6.47544875391759e-05,0.0954576581716537,0,0,0
4529,155642.44450388526,2010-11-18 06:59:15,5342.709786462362,2,14,0.5501165986061096,4.161286354064941,13.728295325721016,12.94700493163716,54.7270613447438,47.32566344146747,6.47544875391759e-05,0.0954576581716537,0,0,0
4530,155672.45979000715,2010-11-18 06:59:45,5372.725072584259,2,14,0.5501165986061096,4.1648478507995605,13.732882063989356,12.94700493163716,54.74615614824569,47.32566344146747,0.0001295089750783,0.0954576581716537,0,0,0
4531,155702.4751046402,2010-11-18 07:00:15,5402.740387177223,2,14,0.5501165986061096,4.16840934753418,13.7374687946964,12.94700493163716,54.76526724618242,47.32566344146747,9.71794142969884e-05,0.0954576581716537,0,0,0
4532,155732.49056868124,2010-11-18 07:00:45,5432.755851343546,2,14,0.5501165986061096,4.171970844268799,13.742055598427974,12.94700493163716,54.78439504157056,47.32566344146747,9.71794142969884e-05,0.0954576581716537,0,0,0
4533,155762.50561231782,2010-11-18 07:01:15,5462.770894854849,2,14,0.5501165986061096,4.175532341003418,13.746642333084656,12.94700493163716,54.803539012632,47.32566344146747,9.71794142969884e-05,0.0954576581716537,0,0,0
4534,155792.5210174919,2010-11-18 07:01:45,5492.786300058993,2,14,0.5501165986061096,4.179093837738037,13.751229098162698,12.94700493163716,54.82269983212961,47.32566344146747,9.71794142969884e-05,0.0954576581716537,0,0,0
4535,155822.5361912834,2010-11-18 07:02:15,5522.8014738304455,2,14,0.550297200679779,4.183140754699707,13.755815837138355,12.94700493163716,54.84187720619887,47.32566344146747,0.0001618385285837,0.0954576581716537,0,0,0
4536,155852.5516488182,2010-11-18 07:02:45,5552.816931370227,2,14,0.550297200679779,4.186702251434326,13.7604026510238,12.94700493163716,54.86107168050158,47.32566344146747,0.0001295089750783,0.0954576581716537,0,0,0
4537,155882.5668002589,2010-11-18 07:03:15,5582.832082805927,2,14,0.5501165986061096,4.190263748168945,13.764989353076553,12.94700493163716,54.88028257803806,47.32566344146747,9.70840483205393e-05,0.0954576581716537,0,0,0
4538,155912.58252168237,2010-11-18 07:03:45,5612.8478042494535,2,14,0.5499359965324402,4.1938252449035645,13.769576219595956,12.94700493163716,54.89951116873715,47.32566344146747,6.47544875391759e-05,0.0954576581716537,0,0,0
4539,155942.5974059963,2010-11-18 07:04:15,5642.862688543325,2,14,0.5501165986061096,4.197710514068604,13.774162950437482,12.94700493163716,54.9187563087926,47.32566344146747,9.71794142969884e-05,0.0954576581716537,0,0,0
4540,155960.01910327797,2010-11-18 07:04:32,5660.284385825002,2,14,0.550297200679779,4.200138568878174,13.776825231067283,12.94700493163716,54.92993466383419,47.32566344146747,0.0001942634553415,0.0954576581716537,0,0,0
4541,155990.03852301187,2010-11-18 07:05:02,30.01543495841543,3,14,0.0,4.116119861602783,13.776825231067283,12.94700493163716,54.92993466383419,47.32566344146747,-0.0003237724304199,0.0954576581716537,0,0,0
4542,156020.0538163668,2010-11-18 07:05:32,60.0307283434419,3,14,0.0,4.105759620666504,13.776825231067283,12.94700493163716,54.92993466383419,47.32566344146747,-0.0001942634553415,0.0954576581716537,0,0,0
4543,156050.06899330617,2010-11-18 07:06:02,90.045905252727,3,14,0.0,4.099445819854736,13.776825231067283,12.94700493163716,54.92993466383419,47.32566344146747,-0.0001942634553415,0.0954576581716537,0,0,0
4544,156080.03741296718,2010-11-18 07:06:32,120.01432492876448,3,14,0.0,4.096046447753906,13.776825231067283,12.94700493163716,54.92993466383419,47.32566344146747,-3.23295607813634e-05,0.0954576581716537,0,0,0
4545,156080.04267927253,2010-11-18 07:06:32,2.676681409e-06,4,14,0.981772780418396,4.199814796447754,13.776825231797254,12.94700493163716,54.92993466689994,47.32566344146747,0.0,0.0954576581716537,0,0,0
4546,156080.9957901439,2010-11-18 07:06:33,0.953113563086319,4,14,0.9317440390586852,4.199814796447754,13.777076922623763,12.94700493163716,54.93099169831996,47.32566344146747,0.0,0.0954576581716537,0,0,0
4547,156083.21473097158,2010-11-18 07:06:36,3.172054420842796,4,14,0.881354033946991,4.199653148651123,13.777634485703077,12.94700493163716,54.93333329881025,47.32566344146747,-3.23295607813634e-05,0.0954576581716537,0,0,0
4548,156086.57385695682,2010-11-18 07:06:39,6.531180376015516,4,14,0.8307834267616272,4.199653148651123,13.778432047792034,12.94700493163716,54.93668284162083,47.32566344146747,-3.23295607813634e-05,0.0954576581716537,0,0,0
4549,156091.15195964545,2010-11-18 07:06:44,11.109283084699886,4,14,0.7807546854019165,4.199814796447754,13.77945556214106,12.94700493163716,54.94098132956957,47.32566344146747,3.23295607813634e-05,0.0954576581716537,0,0,0
4550,156097.16758962837,2010-11-18 07:06:50,17.124913162856515,4,14,0.730725884437561,4.199814796447754,13.780716744387105,12.94700493163716,54.94627797304653,47.32566344146747,3.23295607813634e-05,0.0954576581716537,0,0,0
4551,156104.99553622736,2010-11-18 07:06:57,24.952859646579345,4,14,0.6805165410041809,4.199814796447754,13.782248833401672,12.94700493163716,54.9527123640611,47.32566344146747,6.47544875391759e-05,0.0954576581716537,0,0,0
4552,156115.4954258623,2010-11-18 07:07:08,35.45274928648819,4,14,0.6301265358924866,4.199653148651123,13.78415746396521,12.94700493163716,54.96072813254646,47.32566344146747,-6.47544875391759e-05,0.0954576581716537,0,0,0
4553,156130.63590561404,2010-11-18 07:07:23,50.59322906331574,4,14,0.5800977349281311,4.199814796447754,13.786696415490876,12.94700493163716,54.97139109941036,47.32566344146747,-3.24249267578125e-05,0.0954576581716537,0,0,0
4554,156153.7451397427,2010-11-18 07:07:46,73.70246317693011,4,14,0.5300689935684204,4.199653148651123,13.790247382533758,12.94700493163716,54.98630428908423,47.32566344146747,0.0,0.0954576581716537,0,0,0
4555,156194.416464331,2010-11-18 07:08:27,114.37378775520432,4,14,0.4800402224063873,4.199653148651123,13.795926807728732,12.94700493163716,55.01015648101684,47.32566344146747,-3.23295607813634e-05,0.0954576581716537,0,0,0
4556,156266.35319708814,2010-11-18 07:09:39,186.3105205073433,4,14,0.4300114512443542,4.199814796447754,13.804979710756465,12.94700493163716,55.048176487178665,47.32566344146747,3.23295607813634e-05,0.0954576581716537,0,0,0
4557,156369.96154602687,2010-11-18 07:11:22,289.91886956634056,4,14,0.3799826800823211,4.199814796447754,13.816609195296794,12.94700493163716,55.09701748386608,47.32566344146747,3.23295607813634e-05,0.0954576581716537,0,0,0
4558,156496.866335024,2010-11-18 07:13:29,416.8236584532159,4,14,0.3299539089202881,4.199653148651123,13.829103150525563,12.94700493163716,55.14948906055321,47.32566344146747,-3.23295607813634e-05,0.0954576581716537,0,0,0
4559,156649.98981207516,2010-11-18 07:16:02,569.9471354943686,4,14,0.279925137758255,4.199814796447754,13.842054323285314,12.94700493163716,55.20388086772582,47.32566344146747,0.0,0.0954576581716537,0,0,0
4560,156835.6595896646,2010-11-18 07:19:08,755.6169130988508,4,14,0.2298963665962219,4.199814796447754,13.855171513770497,12.94700493163716,55.25896998333256,47.32566344146747,3.23295607813634e-05,0.0954576581716537,0,0,0
4561,157068.32901476996,2010-11-18 07:23:01,988.2863383295226,4,14,0.1798675954341888,4.199814796447754,13.868363740201632,12.94700493163716,55.31437414199523,47.32566344146747,0.0,0.0954576581716537,0,0,0
4562,157380.7474289762,2010-11-18 07:28:13,1300.7047524004147,4,14,0.1298388242721557,4.199653148651123,13.88171203965526,12.94700493163716,55.37043376189214,47.32566344146747,-3.23295607813634e-05,0.0954576581716537,0,0,0
4563,157868.38293466426,2010-11-18 07:36:21,1788.3402581285595,4,14,0.0798100605607032,4.199653148651123,13.895690989873431,12.94700493163716,55.4291421213171,47.32566344146747,-3.23295607813634e-05,0.0954576581716537,0,0,0
4564,158384.58027833403,2010-11-18 07:44:57,2304.5376017582357,4,14,0.0498289167881011,4.199814796447754,13.9048653871619,12.94700493163716,55.4676723917876,47.32566344146747,0.0,0.0954576581716537,0,0,0
4565,158414.58112068343,2010-11-18 07:45:27,30.00192136641077,5,14,0.0,4.191882610321045,13.9048653871619,12.94700493163716,55.4676723917876,47.32566344146747,-3.24249267578125e-05,0.0954576581716537,0,0,0
4566,158444.58075133184,2010-11-18 07:45:57,60.00155190456178,5,14,0.0,4.190749645233154,13.9048653871619,12.94700493163716,55.4676723917876,47.32566344146747,-3.23295607813634e-05,0.0954576581716537,0,0,0
4567,158444.76487899528,2010-11-18 07:45:57,0.187486500148447,6,14,-1.9243103452026844e-05,4.190911293029785,13.9048653871619,12.947004932639333,55.4676723917876,47.32566344566749,0.0,0.0938397273421287,0,0,0
4568,158449.59305937123,2010-11-18 07:46:02,5.015666876163963,6,14,0.0007031940040178,4.190749645233154,13.904866317909844,12.947004932724065,55.46767629244248,47.3256634460226,-6.47544875391759e-05,0.0938397273421287,0,0,0
4569,158479.60785864593,2010-11-18 07:46:32,30.015287806100613,7,14,-1.0997490882873535,4.017045974731445,13.904866317909844,12.956173606704647,55.46767629244248,47.36268679282156,-0.0008742332574911,0.0938397273421287,0,0,0
4570,158509.62315193072,2010-11-18 07:47:02,60.03058109087683,7,14,-1.099929690361023,3.9913063049316406,13.904866317909844,12.965342250176182,55.46767629244248,47.3993920134693,-0.000615119934082,0.0938397273421287,0,0,0
4571,158539.63845164658,2010-11-18 07:47:32,90.04588081171848,7,14,-1.0997490882873535,3.973660707473755,13.904866317909844,12.974510853120483,55.46767629244248,47.43590314044836,-0.0004532813909463,0.0938397273421287,0,0,0
4572,158569.65372798906,2010-11-18 07:48:02,120.06115714919164,7,14,-1.0997490882873535,3.960062265396118,13.904866317909844,12.983679374994956,55.46767629244248,47.47227197389016,-0.0003237724304199,0.0938397273421287,0,0,0
4573,158599.66915633596,2010-11-18 07:48:32,150.07658549610375,7,14,-1.099568486213684,3.948730230331421,13.904866317909844,12.992847966431658,55.46767629244248,47.50852665048773,-0.0002266406954731,0.0938397273421287,0,0,0
4574,158629.68433468384,2010-11-18 07:49:02,180.09176384397978,7,14,-1.099568486213684,3.938207626342773,13.904866317909844,13.002016477174818,55.46767629244248,47.544680418095005,-0.0002266406954731,0.0938397273421287,0,0,0
4575,158659.69963274553,2010-11-18 07:49:32,210.10706192573,7,14,-1.1001102924346924,3.928332567214966,13.904866317909844,13.011185039249378,55.46767629244248,47.5807418516861,-0.0002266406954731,0.0938397273421287,0,0,0
4576,158689.71491189505,2010-11-18 07:50:03,240.12234106018485,7,14,-1.099568486213684,3.918943166732788,13.904866317909844,13.020353658172493,55.46767629244248,47.616715844357785,-0.0002266406954731,0.0938397273421287,0,0,0
4577,158719.73023208696,2010-11-18 07:50:33,270.1376612822005,7,14,-1.099568486213684,3.9100396633148193,13.904866317909844,13.029522314968323,55.46767629244248,47.652605835098285,-0.0002266406954731,0.0938397273421287,0,0,0
4578,158749.7455281136,2010-11-18 07:51:03,300.15295727373325,7,14,-1.0997490882873535,3.901135921478272,13.904866317909844,13.038690871060064,55.46767629244248,47.688413649998,-0.0001942634553415,0.0938397273421287,0,0,0
4579,158779.7608001353,2010-11-18 07:51:33,330.1682292954336,7,14,-1.099929690361023,3.892555952072144,13.904866317909844,13.04785946260352,55.46767629244248,47.72414214740484,-0.0002266406954731,0.0938397273421287,0,0,0
4580,158809.776100202,2010-11-18 07:52:03,360.1835293621386,7,14,-1.0997490882873535,3.8841378688812256,13.904866317909844,13.057028045578322,55.46767629244248,47.759791847607325,-0.0001942634553415,0.0938397273421287,0,0,0
4581,158839.79139250933,2010-11-18 07:52:33,390.19882167448753,7,14,-1.099568486213684,3.875719785690308,13.904866317909844,13.06619660227074,55.46767629244248,47.795364511811854,-0.0002590179501567,0.0938397273421287,0,0,0
4582,158869.80671970878,2010-11-18 07:53:03,420.21414889396993,7,14,-1.0997490882873535,3.8674635887146,13.904866317909844,13.075365124393617,55.46767629244248,47.83086173035246,-0.0002266406954731,0.0938397273421287,0,0,0
4583,158899.82198564528,2010-11-18 07:53:33,450.22941480541806,7,14,-1.0993878841400146,3.8593692779541016,13.904866317909844,13.084533726800982,55.46767629244248,47.86628380112596,-0.0002266406954731,0.0938397273421287,0,0,0
4584,158929.8372801481,2010-11-18 07:54:03,480.2447093082348,7,14,-1.099568486213684,3.851274967193604,13.904866317909844,13.093702287467112,55.46767629244248,47.90163132489676,-0.0002590179501567,0.0938397273421287,0,0,0
4585,158959.85257601933,2010-11-18 07:54:33,510.2600051794672,7,14,-1.0997490882873535,3.843342542648315,13.904866317909844,13.102870865008224,55.46767629244248,47.93690570386971,-0.0001942634553415,0.0938397273421287,0,0,0
4586,158989.8680754787,2010-11-18 07:55:03,540.275504638887,7,14,-1.0997490882873535,3.8354101181030273,13.904866317909844,13.112039487164605,55.46767629244248,47.97210844502935,-0.0002590179501567,0.0938397273421287,0,0,0
4587,159019.88318155622,2010-11-18 07:55:33,570.290610716365,7,14,-1.0997490882873535,3.8278017044067374,13.904866317909844,13.121208001953663,55.46767629244248,48.00723917147304,-0.0002266406954731,0.0938397273421287,0,0,0
4588,159049.8984653924,2010-11-18 07:56:03,600.3058945525562,7,14,-1.0997490882873535,3.82035493850708,13.904866317909844,13.130376598014294,55.46767629244248,48.0423002853352,-0.0001942634553415,0.0938397273421287,0,0,0
4589,159079.91377437135,2010-11-18 07:56:33,630.3212035315075,7,14,-1.0997490882873535,3.812908172607422,13.904866317909844,13.139545178474012,55.46767629244248,48.077292969313866,-0.0001942634553415,0.0938397273421287,0,0,0
4590,159109.929197405,2010-11-18 07:57:03,660.3366265701693,7,14,-1.0997490882873535,3.8056232929229736,13.904866317909844,13.148713732959049,55.46767629244248,48.112218025343154,-0.0001942634553415,0.0938397273421287,0,0,0
4591,159139.9444710558,2010-11-18 07:57:33,690.3519002008861,7,14,-1.0997490882873535,3.798500299453736,13.904866317909844,13.157882242272596,55.46767629244248,48.14707671223078,-0.0001942634553415,0.0938397273421287,0,0,0
4592,159169.95976722776,2010-11-18 07:58:03,720.3671963879068,7,14,-1.0997490882873535,3.791377305984497,13.904866317909844,13.167050830354253,55.46767629244248,48.18187156043264,-0.0002266406954731,0.0938397273421287,0,0,0
4593,159199.9749446082,2010-11-18 07:58:33,750.3823737683679,7,14,-1.0997490882873535,3.784578084945679,13.904866317909844,13.176219320658484,55.46767629244248,48.21660271064103,-0.0001942634553415,0.0938397273421287,0,0,0
4594,159229.99024545687,2010-11-18 07:59:03,780.3976746170248,7,14,-1.0997490882873535,3.7779407501220703,13.904866317909844,13.18538793283791,55.46767629244248,48.25127195966462,-0.0001942634553415,0.0938397273421287,0,0,0
4595,159260.00554519275,2010-11-18 07:59:33,810.412974352904,7,14,-1.0997490882873535,3.771303415298462,13.904866317909844,13.19455651114608,55.46767629244248,48.28588030108862,-0.0001942634553415,0.0938397273421287,0,0,0
4596,159290.02086066792,2010-11-18 08:00:03,840.4282898330836,7,14,-1.099929690361023,3.7649898529052734,13.904866317909844,13.20372509079398,55.46767629244248,48.32042907216032,-0.0001942634553415,0.0938397273421287,0,0,0
4597,159320.03612328615,2010-11-18 08:00:33,870.4435524462987,7,14,-1.0997490882873535,3.758676290512085,13.904866317909844,13.212893655309164,55.46767629244248,48.35491945639772,-0.0001618862152099,0.0938397273421287,0,0,0
4598,159350.05143062602,2010-11-18 08:01:03,900.4588597861585,7,14,-1.0997490882873535,3.7525248527526855,13.904866317909844,13.222062304266084,55.46767629244248,48.38935309877888,-0.0001618385285837,0.0938397273421287,0,0,0
4599,159380.0668362362,2010-11-18 08:01:33,930.4742653913036,7,14,-1.099568486213684,3.746535062789917,13.904866317909844,13.23123091610532,55.46767629244248,48.423731232941925,-0.0002266406954731,0.0938397273421287,0,0,0
4600,159410.0820030603,2010-11-18 08:02:03,960.4894322254396,7,14,-1.0997490882873535,3.740545272827149,13.904866317909844,13.240399487773038,55.46767629244248,48.45805444000299,-0.0001618862152099,0.0938397273421287,0,0,0
4601,159440.09730404426,2010-11-18 08:02:33,990.5047332094344,7,14,-1.0997490882873535,3.73471736907959,13.904866317909844,13.249568116768671,55.46767629244248,48.49232381370712,-0.0001618862152099,0.0938397273421287,0,0,0
4602,159470.11261195556,2010-11-18 08:03:03,1020.520041115708,7,14,-1.0997490882873535,3.729051351547241,13.904866317909844,13.258736719262012,55.46767629244248,48.52653963044556,-0.0001295089750783,0.0938397273421287,0,0,0
4603,159500.12792328035,2010-11-18 08:03:33,1050.535352440515,7,14,-1.0997490882873535,3.7232234477996826,13.904866317909844,13.267905319221668,55.46767629244248,48.56070350465783,-0.0001618862152099,0.0938397273421287,0,0,0
4604,159530.1431901091,2010-11-18 08:04:03,1080.5506192692528,7,14,-1.0997490882873535,3.717719316482544,13.904866317909844,13.277073883934747,55.46767629244248,48.59481489888634,-0.0001295089750783,0.0938397273421287,0,0,0
4605,159560.15861397484,2010-11-18 08:04:33,1110.5660431399915,7,14,-1.0997490882873535,3.712215185165405,13.904866317909844,13.28624251451776,55.46767629244248,48.62887556310898,-0.0001618862152099,0.0938397273421287,0,0,0
4606,159590.17379009715,2010-11-18 08:05:03,1140.581219267325,7,14,-1.099568486213684,3.706872940063477,13.904866317909844,13.295411067749072,55.46767629244248,48.66288544505412,-9.713172767078504e-05,0.0938397273421287,0,0,0
4607,159620.18920549675,2010-11-18 08:05:33,1170.5966346468686,7,14,-1.099929690361023,3.701206922531128,13.904866317909844,13.30457974470761,55.46767629244248,48.69684625854149,-0.0001618862152099,0.0938397273421287,0,0,0
4608,159650.20440929313,2010-11-18 08:06:03,1200.6118384482804,7,14,-1.099929690361023,3.696026563644409,13.904866317909844,13.313748332230412,55.46767629244248,48.73075806406455,-0.0001618862152099,0.0938397273421287,0,0,0
4609,159680.21966906928,2010-11-18 08:06:33,1230.6270982294263,7,14,-1.0997490882873535,3.6908462047576895,13.904866317909844,13.322916927915529,55.46767629244248,48.764622262748674,-0.0001295089750783,0.0938397273421287,0,0,0
4610,159710.2350391257,2010-11-18 08:07:03,1260.6424682858365,7,14,-1.099568486213684,3.685665845870972,13.904866317909844,13.332085559767869,55.46767629244248,48.79843947678742,-0.0001618862152099,0.0938397273421287,0,0,0
4611,159740.25026402978,2010-11-18 08:07:33,1290.6576931899242,7,14,-1.0997490882873535,3.680971145629883,13.904866317909844,13.341254072689432,55.46767629244248,48.83221068638135,-9.713172767078504e-05,0.0938397273421287,0,0,0
4612,159770.2660699191,2010-11-18 08:08:03,1320.673499224603,7,14,-1.099568486213684,3.675952672958374,13.904866317909844,13.350422843058572,55.46767629244248,48.86593737275212,-0.0001942634553415,0.0938397273421287,0,0,0
4613,159800.28088736613,2010-11-18 08:08:33,1350.688316556327,7,14,-1.099568486213684,3.6710963249206543,13.904866317909844,13.359591311456782,55.46767629244248,48.89961832362804,-0.0001295089750783,0.0938397273421287,0,0,0
4614,159830.29618631504,2010-11-18 08:09:03,1380.7036154751668,7,14,-1.0997490882873535,3.666239738464356,13.904866317909844,13.368759924208598,55.46767629244248,48.93325506975533,-0.0001295089750783,0.0938397273421287,0,0,0
4615,159860.3114601212,2010-11-18 08:09:33,1410.7188892813217,7,14,-1.099929690361023,3.6613831520080566,13.904866317909844,13.377928578207246,55.46767629244248,48.96684775928871,-0.0001618862152099,0.0938397273421287,0,0,0
4616,159890.32677953618,2010-11-18 08:10:03,1440.7342087263978,7,14,-1.099568486213684,3.656688451766968,13.904866317909844,13.387097270753808,55.46767629244248,49.000397288027386,-0.0001295089750783,0.0938397273421287,0,0,0
4617,159920.3413885429,2010-11-18 08:10:33,1470.748817698023,7,14,-1.099568486213684,3.652317523956299,13.904866317909844,13.39621825625515,55.46767629244248,49.0337301371907,-9.713172767078504e-05,0.0938397273421287,0,0,0
4618,159950.34180465696,2010-11-18 08:11:03,1500.7492338471802,7,14,-1.0997490882873535,3.6474609375,13.904866317909844,13.405429865138206,55.46767629244248,49.06735114365973,-0.0001295089750783,0.0938397273421287,0,0,0
4619,159980.3600390883,2010-11-18 08:11:33,1530.767468273498,7,14,-1.0997490882873535,3.642928123474121,13.904866317909844,13.414599341878914,55.46767629244248,49.10077534239991,-6.47544875391759e-05,0.0938397273421287,0,0,0
4620,160010.3724120886,2010-11-18 08:12:03,1560.7798413640205,7,14,-1.099568486213684,3.638557195663452,13.904866317909844,13.423767080302806,55.46767629244248,49.13415122225789,-6.47544875391759e-05,0.0938397273421287,0,0,0
4621,160040.38763101274,2010-11-18 08:12:33,1590.795060172893,7,14,-1.099568486213684,3.634024381637573,13.904866317909844,13.432935609669595,55.46767629244248,49.16748917362848,-9.713172767078504e-05,0.0938397273421287,0,0,0
4622,160070.40298012187,2010-11-18 08:13:03,1620.8104093120903,7,14,-1.0997490882873535,3.6294915676116943,13.904866317909844,13.442104212654412,55.46767629244248,49.20078732760568,-0.0001295089750783,0.0938397273421287,0,0,0
4623,160100.41824493557,2010-11-18 08:13:33,1650.8256740957236,7,14,-1.0997490882873535,3.625444412231445,13.904866317909844,13.451272827594106,55.46767629244248,49.23404611298466,-6.47544875391759e-05,0.0938397273421287,0,0,0
4624,160130.43351624048,2010-11-18 08:14:03,1680.8409454006346,7,14,-1.099568486213684,3.6212353706359854,13.904866317909844,13.460441436004308,55.46767629244248,49.26726651557959,-9.713172767078504e-05,0.0938397273421287,0,0,0
4625,160160.44882738483,2010-11-18 08:14:33,1710.8562565449913,7,14,-1.0997490882873535,3.617188215255737,13.904866317909844,13.469610079426184,55.46767629244248,49.30044965754522,-9.713172767078504e-05,0.0938397273421287,0,0,0
4626,160190.4641079579,2010-11-18 08:15:03,1740.8715371180367,7,14,-1.0993878841400146,3.613302946090698,13.904866317909844,13.478778697772672,55.46767629244248,49.33359619732706,-0.0001295089750783,0.0938397273421287,0,0,0
4627,160220.47941798947,2010-11-18 08:15:33,1770.8868471546282,7,14,-1.0997490882873535,3.609417676925659,13.904866317909844,13.48794730672052,55.46767629244248,49.36670733905388,-9.713172767078504e-05,0.0938397273421287,0,0,0
4628,160250.49468303876,2010-11-18 08:16:03,1800.902112198912,7,14,-1.099568486213684,3.60569429397583,13.904866317909844,13.497115908368054,55.46767629244248,49.39978363376908,-0.0001295089750783,0.0938397273421287,0,0,0
4629,160280.50999409292,2010-11-18 08:16:33,1830.9174232781056,7,14,-1.0997490882873535,3.601970911026001,13.904866317909844,13.506284339922772,55.46767629244248,49.4328251303748,-9.713172767078504e-05,0.0938397273421287,0,0,0
4630,160310.52539905644,2010-11-18 08:17:03,1860.9328282165868,7,14,-1.0997490882873535,3.598409414291382,13.904866317909844,13.515452834225163,55.46767629244248,49.46583409503144,-0.0001295089750783,0.0938397273421287,0,0,0
4631,160340.54058049704,2010-11-18 08:17:33,1890.9480096571824,7,14,-1.099568486213684,3.5951716899871826,13.904866317909844,13.524621329901963,55.46767629244248,49.49881125779,-9.713172767078504e-05,0.0938397273421287,0,0,0
4632,160370.55584598242,2010-11-18 08:18:03,1920.96327516763,7,14,-1.099568486213684,3.5916104316711426,13.904866317909844,13.533789845778108,55.46767629244248,49.531757457605295,-9.713172767078504e-05,0.0938397273421287,0,0,0
4633,160400.57113725218,2010-11-18 08:18:33,1950.9785664373765,7,14,-1.099568486213684,3.5885345935821533,13.904866317909844,13.542958474740916,55.46767629244248,49.564673138548095,-6.47544875391759e-05,0.0938397273421287,0,0,0
4634,160430.58647989013,2010-11-18 08:19:03,1980.993909060308,7,14,-1.0997490882873535,3.585134983062744,13.904866317909844,13.552127091144092,55.46767629244248,49.59755854094785,-6.47544875391759e-05,0.0938397273421287,0,0,0
4635,160460.60179386157,2010-11-18 08:19:33,2011.0092230216965,7,14,-1.099568486213684,3.582059144973755,13.904866317909844,13.561295700317604,55.46767629244248,49.630414546934944,-6.47544875391759e-05,0.0938397273421287,0,0,0
4636,160490.61709986307,2010-11-18 08:20:03,2041.024529028228,7,14,-1.0997490882873535,3.578821420669556,13.904866317909844,13.570464211425378,55.46767629244248,49.663241491529824,-6.47544875391759e-05,0.0938397273421287,0,0,0
4637,160520.63178970155,2010-11-18 08:20:33,2071.039218856685,7,14,-1.099568486213684,3.5757455825805664,13.904866317909844,13.579628058920251,55.46767629244248,49.696023588646845,-9.713172767078504e-05,0.0938397273421287,0,0,0
4638,160550.63203700926,2010-11-18 08:21:03,2101.0394661693995,7,14,-1.0997490882873535,3.572831630706787,13.904866317909844,13.588796584086552,55.46767629244248,49.72879442622008,-6.47544875391759e-05,0.0938397273421287,0,0,0
4639,160580.64746959673,2010-11-18 08:21:33,2131.054898761909,7,14,-1.0997490882873535,3.569917678833008,13.904866317909844,13.597965144669931,55.46767629244248,49.76153844541667,-6.47544875391759e-05,0.0938397273421287,0,0,0
4640,160610.66265336316,2010-11-18 08:22:03,2161.0700825232984,7,14,-1.099568486213684,3.5668418407440186,13.904866317909844,13.607133705812055,55.46767629244248,49.79425522949435,-9.713172767078504e-05,0.0938397273421287,0,0,0
4641,160640.67795617672,2010-11-18 08:22:33,2191.08538533686,7,14,-1.0997490882873535,3.5639278888702397,13.904866317909844,13.61630233585444,55.46767629244248,49.82694512298965,-6.47544875391759e-05,0.0938397273421287,0,0,0
4642,160670.69323993273,2010-11-18 08:23:04,2221.100669092851,7,14,-1.099568486213684,3.56101393699646,13.904866317909844,13.625470845576029,55.46767629244248,49.85960787710895,-9.713172767078504e-05,0.0938397273421287,0,0,0
4643,160700.70864728722,2010-11-18 08:23:34,2251.116076447363,7,14,-1.099568486213684,3.5580999851226807,13.904866317909844,13.634639408199536,55.46767629244248,49.89224375322486,-6.47544875391759e-05,0.0938397273421287,0,0,0
4644,160730.72395581505,2010-11-18 08:24:04,2281.131384975188,7,14,-1.099568486213684,3.5551860332489014,13.904866317909844,13.643807998586464,55.46767629244248,49.924852260422334,-6.47544875391759e-05,0.0938397273421287,0,0,0
4645,160760.7391137219,2010-11-18 08:24:34,2311.14654288204,7,14,-1.0997490882873535,3.552110195159912,13.904866317909844,13.652976568758495,55.46767629244248,49.95743334440497,-6.47544875391759e-05,0.0938397273421287,0,0,0
4646,160790.75438653558,2010-11-18 08:25:04,2341.161815730805,7,14,-1.0997490882873535,3.549034357070923,13.904866317909844,13.662145150621692,55.46767629244248,49.98998696813506,-9.713172767078504e-05,0.0938397273421287,0,0,0
4647,160820.76968010105,2010-11-18 08:25:34,2371.1771092712197,7,14,-1.0997490882873535,3.5459585189819336,13.904866317909844,13.671313755784572,55.46767629244248,50.022512388347344,-6.47544875391759e-05,0.0938397273421287,0,0,0
4648,160850.78500472906,2010-11-18 08:26:04,2401.1924339142706,7,14,-1.099568486213684,3.5425589084625244,13.904866317909844,13.680482423276027,55.46767629244248,50.05500902776276,-0.0001295089750783,0.0938397273421287,0,0,0
4649,160880.8002713924,2010-11-18 08:26:34,2431.207700577596,7,14,-1.099568486213684,3.539483070373535,13.904866317909844,13.68965106472624,55.46767629244248,50.087475939774194,-6.47544875391759e-05,0.0938397273421287,0,0,0
4650,160910.8155784064,2010-11-18 08:27:04,2461.22300756658,7,14,-1.099568486213684,3.536245346069336,13.904866317909844,13.698819706397524,55.46767629244248,50.1199125608784,-6.47544875391759e-05,0.0938397273421287,0,0,0
4651,160940.83086738043,2010-11-18 08:27:34,2491.2382965355832,7,14,-1.0997490882873535,3.532521963119507,13.904866317909844,13.7079885266804,55.46767629244248,50.152318698709806,-9.713172767078504e-05,0.0938397273421287,0,0,0
4652,160970.8463898473,2010-11-18 08:28:04,2521.253819032508,7,14,-1.0997490882873535,3.5291223526000977,13.904866317909844,13.717157994511007,55.46767629244248,50.1846950202004,-9.713172767078504e-05,0.0938397273421287,0,0,0
4653,161000.86147142362,2010-11-18 08:28:34,2551.2689005887773,7,14,-1.099929690361023,3.5255608558654785,13.904866317909844,13.726327381911634,55.46767629244248,50.21703880871495,-9.713172767078504e-05,0.0938397273421287,0,0,0
4654,161030.87676002673,2010-11-18 08:29:04,2581.2841892119177,7,14,-1.099568486213684,3.5218374729156494,13.904866317909844,13.735496827370069,55.46767629244248,50.24934937373053,-9.713172767078504e-05,0.0938397273421287,0,0,0
4655,161060.8920389356,2010-11-18 08:29:34,2611.2994680957468,7,14,-1.099568486213684,3.5181140899658203,13.904866317909844,13.744666123066898,55.46767629244248,50.28162533730608,-9.713172767078504e-05,0.0938397273421287,0,0,0
4656,161090.90732877178,2010-11-18 08:30:04,2641.314757956977,7,14,-1.099568486213684,3.5140669345855717,13.904866317909844,13.75383472129134,55.46767629244248,50.31386364334652,-0.0001295089750783,0.0938397273421287,0,0,0
4657,161120.92260951526,2010-11-18 08:30:34,2671.330038675386,7,14,-1.0997490882873535,3.5100200176239014,13.904866317909844,13.763003336485903,55.46767629244248,50.34606487081796,-9.713172767078504e-05,0.0938397273421287,0,0,0
4658,161150.9382180068,2010-11-18 08:31:04,2701.3456472120797,7,14,-1.099568486213684,3.5056490898132324,13.904866317909844,13.77217203372917,55.46767629244248,50.378227086432446,-9.713172767078504e-05,0.0938397273421287,0,0,0
4659,161180.95321365865,2010-11-18 08:31:34,2731.3606428087805,7,14,-1.0993878841400146,3.501116275787353,13.904866317909844,13.781340574182504,55.46767629244248,50.41034677287503,-6.47544875391759e-05,0.0938397273421287,0,0,0
4660,161210.96851064268,2010-11-18 08:32:04,2761.375939797803,7,14,-1.0997490882873535,3.495774030685425,13.904866317909844,13.79050925780232,55.46767629244248,50.442422842789725,-0.0001618862152099,0.0938397273421287,0,0,0
4661,161240.98379718562,2010-11-18 08:32:34,2791.3912263407506,7,14,-1.0997490882873535,3.490431785583496,13.904866317909844,13.799677874278126,55.46767629244248,50.47445130431361,-0.0001942634553415,0.0938397273421287,0,0,0
4662,161270.9991003801,2010-11-18 08:33:04,2821.406529555313,7,14,-1.099568486213684,3.4847657680511475,13.904866317909844,13.808846513880546,55.46767629244248,50.50642794120308,-9.713172767078504e-05,0.0938397273421287,0,0,0
4663,161301.01438247197,2010-11-18 08:33:34,2851.4218116321126,7,14,-1.0997490882873535,3.477804660797119,13.904866317909844,13.818015080865395,55.46767629244248,50.53834606414635,-0.0002266406954731,0.0938397273421287,0,0,0
4664,161331.02968970157,2010-11-18 08:34:04,2881.437118851672,7,14,-1.099568486213684,3.470519781112671,13.904866317909844,13.827183652459205,55.46767629244248,50.57019972903591,-0.0001942634553415,0.0938397273421287,0,0,0
4665,161361.04506739203,2010-11-18 08:34:34,2911.452496572213,7,14,-1.099568486213684,3.461777925491333,13.904866317909844,13.836352348812351,55.46767629244248,50.6019808278895,-0.0002590179501567,0.0938397273421287,0,0,0
4666,161391.06028341895,2010-11-18 08:35:04,2941.467712579092,7,14,-1.0993878841400146,3.4519028663635254,13.904866317909844,13.845520928074922,55.46767629244248,50.63367583748034,-0.0002590179501567,0.0938397273421287,0,0,0
4667,161421.07558752573,2010-11-18 08:35:34,2971.483016675857,7,14,-1.099568486213684,3.4391138553619385,13.904866317909844,13.854689553614286,55.46767629244248,50.66526772714628,-0.0004209041653666,0.0938397273421287,0,0,0
4668,161451.0908770411,2010-11-18 08:36:04,3001.4983061912235,7,14,-1.0997490882873535,3.4237349033355717,13.904866317909844,13.863858187742224,55.46767629244248,50.69673215037951,-0.0004209041653666,0.0938397273421287,0,0,0
4669,161481.10629445573,2010-11-18 08:36:34,3031.5137236108594,7,14,-1.0997490882873535,3.403822898864746,13.904866317909844,13.87302681309738,55.46767629244248,50.72803478382852,-0.0005504131549969,0.0938397273421287,0,0,0
4670,161511.12144142023,2010-11-18 08:37:04,3061.5288705753974,7,14,-1.099568486213684,3.3771116733551025,13.904866317909844,13.88219539831636,55.46767629244248,50.75912599289509,-0.0008094310760498,0.0938397273421287,0,0,0
4671,161541.13688356162,2010-11-18 08:37:34,3091.5443127167428,7,14,-1.0997490882873535,3.3414969444274902,13.904866317909844,13.891364013545308,55.46767629244248,50.789934180714354,-0.0010684489971026,0.0938397273421287,0,0,0
4672,161571.15206421525,2010-11-18 08:38:04,3121.559493370374,7,14,-1.0997490882873535,3.292769193649292,13.904866317909844,13.900532599250678,55.46767629244248,50.82035887218393,-0.0014569759368896,0.0938397273421287,0,0,0
4673,161601.16732417684,2010-11-18 08:38:34,3151.574753331971,7,14,-1.0997490882873535,3.2242915630340576,13.904866317909844,13.909701211289972,55.46767629244248,50.85025285859225,-0.0020721436012536,0.0938397273421287,0,0,0
4674,161631.18262318592,2010-11-18 08:39:04,3181.590052341036,7,14,-1.0997490882873535,3.123922348022461,13.904866317909844,13.918869863049032,55.46767629244248,50.87938679763899,-0.0031405924819409,0.0938397273421287,0,0,0
4675,161661.19791430526,2010-11-18 08:39:34,3211.6053434604078,7,14,-1.0997490882873535,2.9557230472564697,13.904866317909844,13.92803850958172,55.46767629244248,50.90734448415202,-0.0060545443557202,0.0938397273421287,0,0,0
4676,161680.13533405343,2010-11-18 08:39:53,3230.54276321356,7,14,-1.099568486213684,2.7553086280822754,13.904866317909844,13.933823256748816,55.46767629244248,50.923910751765696,-0.0100692752748727,0.0938397273421287,0,0,0
4677,161684.35392931622,2010-11-18 08:39:57,3234.761358471338,7,14,-1.099568486213684,2.699781894683838,13.904866317909844,13.935111884722613,55.46767629244248,50.92742589340588,-0.0105549339205026,0.0938397273421287,0,0,0
4678,161744.3727291672,2010-11-18 08:40:57,60.01492006855575,8,14,0.0,3.327736616134644,13.904866317909844,13.935111884722613,55.46767629244248,50.92742589340588,0.0011979580158367,0.0938397273421287,0,0,0
4679,161744.56489565366,2010-11-18 08:40:58,0.187627061009983,9,14,-1.9243103452026844e-05,3.327898502349853,13.904866317909844,13.935111885725536,55.46767629244248,50.92742589674352,0.0,0.0948198437690734,0,0,0
4680,161749.39295547875,2010-11-18 08:41:02,5.015686896136896,9,14,0.0007031940040178,3.335345268249512,13.90486723658943,13.93511188580854,55.46767935381769,50.92742589701975,0.0010684489971026,0.0948198437690734,0,0,0
