Data_Point,Test_Time(s),Date_Time,Step_Time(s),Step_Index,Cycle_Index,Current(A),Voltage(V),Charge_Capacity(Ah),Discharge_Capacity(Ah),Charge_Energy(Wh),Discharge_Energy(Wh),dV/dt(V/s),Internal_Resistance(Ohm),Is_FC_Data,AC_Impedance(Ohm),ACI_Phase_Angle(Deg)
327,11451.022939859116,2010-11-16 14:55:49,30.0153132796866,1,2,0.0,3.363998889923096,0.961548770767597,0.995719875020912,3.854846805238234,3.639495225495316,0.0008094310760498,0.0923051163554191,0,0,0
328,11481.038227519854,2010-11-16 14:56:19,60.03060094042437,1,2,0.0,3.3892531394958496,0.961548770767597,0.995719875020912,3.854846805238234,3.639495225495316,0.0005827903514727,0.0923051163554191,0,0,0
329,11511.053657891822,2010-11-16 14:56:49,90.04603132241634,1,2,0.0,3.408355712890625,0.961548770767597,0.995719875020912,3.854846805238234,3.639495225495316,0.0004532813909463,0.0923051163554191,0,0,0
330,11541.022085307177,2010-11-16 14:57:19,120.01445873777236,1,2,0.0,3.4235730171203613,0.961548770767597,0.995719875020912,3.854846805238234,3.639495225495316,0.0003561496851034,0.0923051163554191,0,0,0
331,11571.038183444136,2010-11-16 14:57:49,30.015293074250728,2,2,0.550297200679779,3.581897258758545,0.966135520376999,0.995719875020912,3.871106095130689,3.639495225495316,0.0016512393485754,0.0923051163554191,0,0,0
332,11601.053761895731,2010-11-16 14:58:19,60.03087153085973,2,2,0.5501165986061096,3.631757974624634,0.970722312915153,0.995719875020912,3.887656624839106,3.639495225495316,0.0011655807029455,0.0923051163554191,0,0,0
333,11631.068794013598,2010-11-16 14:58:49,90.04590367378573,2,2,0.5501165986061096,3.6672110557556152,0.975309044044764,0.995719875020912,3.904399773430801,3.639495225495316,0.0008418083307333,0.0923051163554191,0,0,0
334,11661.084113142886,2010-11-16 14:59:19,120.06122277299876,2,2,0.5501165986061096,3.69489336013794,0.979895700271788,0.995719875020912,3.921286328153656,3.639495225495316,0.0006475448608398,0.0923051163554191,0,0,0
335,11691.099418853675,2010-11-16 14:59:49,150.07652850384227,2,2,0.5499359965324402,3.717233657836914,0.984482286393925,0.995719875020912,3.938286553917842,3.639495225495316,0.0005180359003134,0.0923051163554191,0,0,0
336,11721.114710739965,2010-11-16 15:00:19,180.0918203700776,2,2,0.5501165986061096,3.73585057258606,0.989068920756329,0.995719875020912,3.955380139373392,3.639495225495316,0.0004532813909463,0.0923051163554191,0,0,0
337,11751.130014972066,2010-11-16 15:00:49,210.10712460218005,2,2,0.5501165986061096,3.750905990600586,0.993655563512107,0.995719875020912,3.972550427778927,3.639495225495316,0.0003885269106831,0.0923051163554191,0,0,0
338,11781.146219987662,2010-11-16 15:01:19,240.1233296428392,2,2,0.5501165986061096,3.761914014816284,0.998242386028664,0.995719875020912,3.989781970596573,3.639495225495316,0.0002266406954731,0.0923051163554191,0,0,0
339,11811.149130884092,2010-11-16 15:01:49,270.12624059941936,2,2,0.5499359965324402,3.768875122070313,1.002827176048783,0.995719875020912,4.007047144279964,3.639495225495316,0.0001295089750783,0.0923051163554191,0,0,0
340,11841.160371412569,2010-11-16 15:02:19,300.1374811529549,2,2,0.5501165986061096,3.773246049880981,1.007413247679899,0.995719875020912,4.024342262215339,3.639495225495316,9.713172767078504e-05,0.0923051163554191,0,0,0
341,11871.17561279278,2010-11-16 15:02:49,330.1527224228941,2,2,0.5501165986061096,3.7768075466156006,1.01199987375752,0.995719875020912,4.041657102470384,3.639495225495316,9.713172767078504e-05,0.0923051163554191,0,0,0
342,11901.190993099775,2010-11-16 15:03:19,360.16810281510385,2,2,0.5499359965324402,3.77988338470459,1.016586447308924,0.995719875020912,4.058987088306404,3.639495225495316,3.237724376958795e-05,0.0923051163554191,0,0,0
343,11931.206230780756,2010-11-16 15:03:49,390.1833404208968,2,2,0.5499359965324402,3.783282995223999,1.021173123706918,0.995719875020912,4.076332260261212,3.639495225495316,6.47544875391759e-05,0.0923051163554191,0,0,0
344,11961.221642290642,2010-11-16 15:04:19,420.1987519207561,2,2,0.5501165986061096,3.786358833312988,1.025759773198712,0.995719875020912,4.093691906384985,3.639495225495316,9.713172767078504e-05,0.0923051163554191,0,0,0
345,11991.236827791372,2010-11-16 15:04:49,450.2139374264992,2,2,0.5501165986061096,3.7894346714019775,1.030346455001742,0.995719875020912,4.11106596429508,3.639495225495316,3.237724376958795e-05,0.0923051163554191,0,0,0
346,12021.252204775075,2010-11-16 15:05:19,480.2293144051884,2,2,0.5501165986061096,3.792510509490967,1.034933184541385,0.995719875020912,4.128454220835812,3.639495225495316,9.713172767078504e-05,0.0923051163554191,0,0,0
347,12051.267455608886,2010-11-16 15:05:49,510.2445652690755,2,2,0.5499359965324402,3.795586347579956,1.039519830735922,0.995719875020912,4.145855933330689,3.639495225495316,0.0001295089750783,0.0923051163554191,0,0,0
348,12081.282754046526,2010-11-16 15:06:19,540.2598636866641,2,2,0.5501165986061096,3.798338413238525,1.04410657067672,0.995719875020912,4.163271575450156,3.639495225495316,6.47544875391759e-05,0.0923051163554191,0,0,0
349,12111.298041837588,2010-11-16 15:06:49,570.2751514727146,2,2,0.5499359965324402,3.801090478897095,1.048693233827555,0.995719875020912,4.180700267670969,3.639495225495316,6.47544875391759e-05,0.0923051163554191,0,0,0
350,12141.313597642657,2010-11-16 15:07:19,600.2907072827944,2,2,0.5501165986061096,3.804004430770874,1.053279974289174,0.995719875020912,4.198142368181983,3.639495225495316,3.237724376958795e-05,0.0923051163554191,0,0,0
351,12171.328670717754,2010-11-16 15:07:49,630.3057803478683,2,2,0.5501165986061096,3.8067564964294434,1.057866642958644,0.995719875020912,4.215597241558345,3.639495225495316,6.47544875391759e-05,0.0923051163554191,0,0,0
352,12201.343952393552,2010-11-16 15:08:19,660.3210620236669,2,2,0.5501165986061096,3.8098323345184326,1.062453369080272,0.995719875020912,4.233065343101609,3.639495225495316,6.47544875391759e-05,0.0923051163554191,0,0,0
353,12231.359233778623,2010-11-16 15:08:49,690.336343433802,2,2,0.5501165986061096,3.812584400177002,1.067040110007723,0.995719875020912,4.250546513856196,3.639495225495316,9.713172767078504e-05,0.0923051163554191,0,0,0
354,12261.374560286333,2010-11-16 15:09:19,720.3516699465204,2,2,0.5501165986061096,3.815498352050781,1.071626784864119,0.995719875020912,4.268040928667168,3.639495225495316,3.237724376958795e-05,0.0923051163554191,0,0,0
355,12291.389859646271,2010-11-16 15:09:49,750.3669693014486,2,2,0.5501165986061096,3.818736076354981,1.076213516536924,0.995719875020912,4.285548967054057,3.639495225495316,0.0001295089750783,0.0923051163554191,0,0,0
356,12321.40515469044,2010-11-16 15:10:19,780.3822643456166,2,2,0.550297200679779,3.82148814201355,1.0808002898539,0.995719875020912,4.303070920108358,3.639495225495316,6.47544875391759e-05,0.0923051163554191,0,0,0
357,12351.4204526168,2010-11-16 15:10:49,810.3975622569412,2,2,0.5499359965324402,3.824563980102539,1.085387031722634,0.995719875020912,4.320606778587979,3.639495225495316,3.237724376958795e-05,0.0923051163554191,0,0,0
358,12381.435905013748,2010-11-16 15:11:19,840.4130146488736,2,2,0.5501165986061096,3.827963590621948,1.089973881807111,0.995719875020912,4.33815769024385,3.639495225495316,9.713172767078504e-05,0.0923051163554191,0,0,0
359,12411.451217000204,2010-11-16 15:11:49,870.4283266403446,2,2,0.5499359965324402,3.831201314926148,1.094560666757144,0.995719875020912,4.355723381621734,3.639495225495316,6.47544875391759e-05,0.0923051163554191,0,0,0
360,12441.466515081956,2010-11-16 15:12:19,900.4436247220948,2,2,0.550297200679779,3.8346006870269775,1.099147442306983,0.995719875020912,4.373304235563154,3.639495225495316,6.47544875391759e-05,0.0923051163554191,0,0,0
361,12471.481695505012,2010-11-16 15:12:50,930.4588051351258,2,2,0.5499359965324402,3.8378384113311768,1.103734221475946,0.995719875020912,4.390900553067811,3.639495225495316,6.47544875391759e-05,0.0923051163554191,0,0,0
362,12501.497123937135,2010-11-16 15:13:20,960.4742335772756,2,2,0.5499359965324402,3.841399908065796,1.108320976906898,0.995719875020912,4.408512293149061,3.639495225495316,9.713172767078504e-05,0.0923051163554191,0,0,0
363,12531.512442214296,2010-11-16 15:13:50,990.4895518544366,2,2,0.550297200679779,3.844799518585205,1.112907800003137,0.995719875020912,4.426139761321565,3.639495225495316,9.713172767078504e-05,0.0923051163554191,0,0,0
364,12561.52762290803,2010-11-16 15:14:20,1020.5047325381432,2,2,0.5499359965324402,3.848037242889404,1.117494564165816,0.995719875020912,4.4437822395662,3.639495225495316,6.47544875391759e-05,0.0923051163554191,0,0,0
365,12591.542909666514,2010-11-16 15:14:50,1050.5200192966288,2,2,0.550297200679779,3.8514368534088135,1.12208137668653,0.995719875020912,4.461439886230985,3.639495225495316,9.713172767078504e-05,0.0923051163554191,0,0,0
366,12621.558212861028,2010-11-16 15:15:20,1080.5353224911412,2,2,0.5501165986061096,3.8543508052825928,1.126668217188622,0.995719875020912,4.479112356207726,3.639495225495316,6.47544875391759e-05,0.0923051163554191,0,0,0
367,12651.573531479038,2010-11-16 15:15:50,1110.5506411091533,2,2,0.5501165986061096,3.857426643371582,1.131254998570082,0.995719875020912,4.49679901435848,3.639495225495316,6.47544875391759e-05,0.0923051163554191,0,0,0
368,12681.588848312598,2010-11-16 15:16:20,1140.5659579627609,2,2,0.5501165986061096,3.8605024814605713,1.135841742010285,0.995719875020912,4.514499514838772,3.639495225495316,9.713172767078504e-05,0.0923051163554191,0,0,0
369,12711.604130860573,2010-11-16 15:16:50,1170.5812404906865,2,2,0.5501165986061096,3.8632545471191406,1.140428469707306,0.995719875020912,4.532213475870466,3.639495225495316,3.237724376958795e-05,0.0923051163554191,0,0,0
370,12741.619446601402,2010-11-16 15:17:20,1200.5965562315164,2,2,0.550297200679779,3.86633038520813,1.145015259780313,0.995719875020912,4.549940662746078,3.639495225495316,6.47544875391759e-05,0.0923051163554191,0,0,0
371,12771.63498536894,2010-11-16 15:17:50,1230.6120950191053,2,2,0.5501165986061096,3.868920564651489,1.149602040113332,0.995719875020912,4.567680422106971,3.639495225495316,6.47544875391759e-05,0.0923051163554191,0,0,0
372,12801.650062694653,2010-11-16 15:18:20,1260.6271723247646,2,2,0.5501165986061096,3.8715107440948486,1.154188789715979,0.995719875020912,4.585432073973438,3.639495225495316,9.713172767078504e-05,0.0923051163554191,0,0,0
373,12831.665361693687,2010-11-16 15:18:50,1290.6424713238046,2,2,0.5501165986061096,3.873939037322998,1.158775584059181,0.995719875020912,4.603195447490104,3.639495225495316,6.47544875391759e-05,0.0923051163554191,0,0,0
374,12861.680668146337,2010-11-16 15:19:20,1320.6577777764496,2,2,0.550297200679779,3.876367330551148,1.16336233955295,0.995719875020912,4.620969479456161,3.639495225495316,6.47544875391759e-05,0.0923051163554191,0,0,0
375,12891.695992448536,2010-11-16 15:19:50,1350.67310207865,2,2,0.5499359965324402,3.878471851348877,1.167949042897568,0.995719875020912,4.638753695781964,3.639495225495316,6.47544875391759e-05,0.0923051163554191,0,0,0
376,12921.711276560414,2010-11-16 15:20:20,1380.6883861905294,2,2,0.5501165986061096,3.880414485931397,1.172535790736811,0.995719875020912,4.656547808396413,3.639495225495316,3.237724376958795e-05,0.0923051163554191,0,0,0
377,12951.726583549398,2010-11-16 15:20:50,1410.7036931795135,2,2,0.5501165986061096,3.882357120513916,1.17712256708485,0.995719875020912,4.674351217177171,3.639495225495316,0.0,0.0923051163554191,0,0,0
378,12981.741898262664,2010-11-16 15:21:20,1440.7190079028037,2,2,0.5501165986061096,3.8841378688812256,1.181709362408985,0.995719875020912,4.692163282635502,3.639495225495316,0.0,0.0923051163554191,0,0,0
379,13011.75859704578,2010-11-16 15:21:50,1470.7357068112328,2,2,0.550297200679779,3.885918617248535,1.186296332064364,0.995719875020912,4.709983901976922,3.639495225495316,3.237724376958795e-05,0.0923051163554191,0,0,0
380,13041.77250230082,2010-11-16 15:22:20,1500.749611930935,2,2,0.5499359965324402,3.887375593185425,1.190882867538584,0.995719875020912,4.727810344605063,3.639495225495316,3.237724376958795e-05,0.0923051163554191,0,0,0
381,13071.787819139392,2010-11-16 15:22:50,1530.764928769505,2,2,0.5501165986061096,3.888994455337525,1.195469638023954,0.995719875020912,4.745644742152135,3.639495225495316,3.237724376958795e-05,0.0923051163554191,0,0,0
382,13101.803258107817,2010-11-16 15:23:20,1560.7803677479556,2,2,0.5501165986061096,3.890451431274414,1.200056486127926,0.995719875020912,4.763486099124801,3.639495225495316,3.237724376958795e-05,0.0923051163554191,0,0,0
383,13131.81843208478,2010-11-16 15:23:50,1590.795541719909,2,2,0.5501165986061096,3.8917465209960938,1.204643218625639,0.995719875020912,4.781333382728612,3.639495225495316,3.237724376958795e-05,0.0923051163554191,0,0,0
384,13161.833730226685,2010-11-16 15:24:20,1620.810839891884,2,2,0.550297200679779,3.893203496932984,1.20922997506164,0.995719875020912,4.79918691859947,3.639495225495316,9.713172767078504e-05,0.0923051163554191,0,0,0
385,13191.84901044384,2010-11-16 15:24:50,1650.8261201040289,2,2,0.550297200679779,3.894498586654663,1.213816758659942,0.995719875020912,4.817046603674535,3.639495225495316,6.47544875391759e-05,0.0923051163554191,0,0,0
386,13221.864318971666,2010-11-16 15:25:20,1680.8414286318543,2,2,0.550297200679779,3.895631790161133,1.218403602902314,0.995719875020912,4.834911961008173,3.639495225495316,9.713172767078504e-05,0.0923051163554191,0,0,0
387,13251.879648521965,2010-11-16 15:25:50,1710.8567581520797,2,2,0.5501165986061096,3.8967649936676025,1.22299030774962,0.995719875020912,4.852782550044461,3.639495225495316,3.237724376958795e-05,0.0923051163554191,0,0,0
388,13281.894933676447,2010-11-16 15:26:20,1740.8720433065614,2,2,0.550297200679779,3.898221969604492,1.227577047268059,0.995719875020912,4.87065888618131,3.639495225495316,9.713172767078504e-05,0.0923051163554191,0,0,0
389,13311.910263041284,2010-11-16 15:26:50,1770.8873726964616,2,2,0.5501165986061096,3.899193286895752,1.232163752044784,0.995719875020912,4.888540715396981,3.639495225495316,3.237724376958795e-05,0.0923051163554191,0,0,0
390,13341.925677222838,2010-11-16 15:27:20,1800.9027868529522,2,2,0.550297200679779,3.900488376617432,1.236750505614108,0.995719875020912,4.906428221228249,3.639495225495316,6.47544875391759e-05,0.0923051163554191,0,0,0
391,13371.940863685972,2010-11-16 15:27:50,1830.9179733361352,2,2,0.5499359965324402,3.901621580123901,1.24133728978347,0.995719875020912,4.924321390737145,3.639495225495316,0.0,0.0923051163554191,0,0,0
392,13401.956279326165,2010-11-16 15:28:20,1860.9333889562795,2,2,0.5501165986061096,3.902754783630371,1.245924063091907,0.995719875020912,4.942220015151815,3.639495225495316,0.0,0.0923051163554191,0,0,0
393,13431.97159842538,2010-11-16 15:28:50,1890.9487080605047,2,2,0.5499359965324402,3.904049873352051,1.250510829019755,0.995719875020912,4.960124159872553,3.639495225495316,3.237724376958795e-05,0.0923051163554191,0,0,0
394,13461.986769976287,2010-11-16 15:29:20,1920.9638796064023,2,2,0.5501165986061096,3.905183076858521,1.255097618728661,0.995719875020912,4.978033978105323,3.639495225495316,3.237724376958795e-05,0.0923051163554191,0,0,0
395,13492.002089250938,2010-11-16 15:29:50,1950.9791988810528,2,2,0.550297200679779,3.9064781665802,1.259684450456753,0.995719875020912,4.995949396309091,3.639495225495316,3.237724376958795e-05,0.0923051163554191,0,0,0
396,13522.017412435349,2010-11-16 15:30:20,1980.994522065464,2,2,0.550297200679779,3.90777325630188,1.26427122069068,0.995719875020912,5.013870289288885,3.639495225495316,6.47544875391759e-05,0.0923051163554191,0,0,0
397,13552.03297973912,2010-11-16 15:30:50,2011.0100893792585,2,2,0.550297200679779,3.9089064598083496,1.268858084426284,0.995719875020912,5.031797230401384,3.639495225495316,3.237724376958795e-05,0.0923051163554191,0,0,0
398,13582.04799490968,2010-11-16 15:31:20,2041.025104539793,2,2,0.5499359965324402,3.9100396633148193,1.27344487127432,0.995719875020912,5.049729650080684,3.639495225495316,0.0,0.0923051163554191,0,0,0
399,13612.063317612889,2010-11-16 15:31:50,2071.040427243003,2,2,0.5501165986061096,3.911496639251709,1.278031689253691,0.995719875020912,5.067667873643506,3.639495225495316,3.237724376958795e-05,0.0923051163554191,0,0,0
400,13642.078607243544,2010-11-16 15:32:20,2101.0557168736577,2,2,0.550297200679779,3.9127917289733887,1.282618472288784,0.995719875020912,5.085611910140448,3.639495225495316,3.237724376958795e-05,0.0923051163554191,0,0,0
401,13672.09391220246,2010-11-16 15:32:50,2131.071021832574,2,2,0.5501165986061096,3.9139246940612793,1.287205283967454,0.995719875020912,5.103561943062863,3.639495225495316,0.0,0.0923051163554191,0,0,0
402,13702.109789610298,2010-11-16 15:33:20,2161.086899280512,2,2,0.5501165986061096,3.915381669998169,1.291792176784915,0.995719875020912,5.121518284305749,3.639495225495316,6.47544875391759e-05,0.0923051163554191,0,0,0
403,13732.127713852347,2010-11-16 15:33:50,2191.1048235927374,2,2,0.5501165986061096,3.9166767597198486,1.296379396841879,0.995719875020912,5.139481686371004,3.639495225495316,0.0,0.0923051163554191,0,0,0
404,13762.14001478776,2010-11-16 15:34:20,2221.1171245030864,2,2,0.550297200679779,3.917971849441528,1.300965720590839,0.995719875020912,5.157447716712142,3.639495225495316,0.0,0.0923051163554191,0,0,0
405,13792.155153807467,2010-11-16 15:34:50,2251.132263457631,2,2,0.5501165986061096,3.919266939163208,1.305552463917627,0.995719875020912,5.175421362824356,3.639495225495316,3.237724376958795e-05,0.0923051163554191,0,0,0
406,13822.170451087217,2010-11-16 15:35:20,2281.147560717329,2,2,0.5501165986061096,3.920562028884888,1.310139211328994,0.995719875020912,5.19340121707691,3.639495225495316,3.237724376958795e-05,0.0923051163554191,0,0,0
407,13852.18580375522,2010-11-16 15:35:50,2311.162913385335,2,2,0.5499359965324402,3.921857118606568,1.31472603445566,0.995719875020912,5.211387506002828,3.639495225495316,0.0,0.0923051163554191,0,0,0
408,13882.20107864909,2010-11-16 15:36:20,2341.1781882792047,2,2,0.5501165986061096,3.923314094543457,1.319312835886143,0.995719875020912,5.229380057184018,3.639495225495316,0.0,0.0923051163554191,0,0,0
409,13912.21637141758,2010-11-16 15:36:50,2371.1934810476923,2,2,0.5501165986061096,3.9247710704803462,1.323899639629609,0.995719875020912,5.247378964052318,3.639495225495316,3.237724376958795e-05,0.0923051163554191,0,0,0
410,13942.231686471694,2010-11-16 15:37:20,2401.2087961018083,2,2,0.5501165986061096,3.9260661602020255,1.328486514292777,0.995719875020912,5.265384540245176,3.639495225495316,3.237724376958795e-05,0.0923051163554191,0,0,0
411,13972.246994047142,2010-11-16 15:37:50,2431.2241036922937,2,2,0.5501165986061096,3.927523136138916,1.333072578623714,0.995719875020912,5.28339317819564,3.639495225495316,6.47544875391759e-05,0.0923051163554191,0,0,0
412,14002.262286710367,2010-11-16 15:38:20,2461.2393963454933,2,2,0.550297200679779,3.929141998291016,1.337658418017467,0.995719875020912,5.301407396825254,3.639495225495316,9.713172767078504e-05,0.0923051163554191,0,0,0
413,14032.277604867228,2010-11-16 15:38:50,2491.254714512379,2,2,0.5499359965324402,3.930275201797485,1.342244239235579,0.995719875020912,5.319428056679762,3.639495225495316,3.237724376958795e-05,0.0923051163554191,0,0,0
414,14062.293139278894,2010-11-16 15:39:20,2521.27024891402,2,2,0.5499359965324402,3.931732177734375,1.346830115223135,0.995719875020912,5.337455497875264,3.639495225495316,3.237724376958795e-05,0.0923051163554191,0,0,0
415,14092.308218303844,2010-11-16 15:39:50,2551.2853279289457,2,2,0.550297200679779,3.9333510398864746,1.351416649547455,0.995719875020912,5.355492264739414,3.639495225495316,6.47544875391759e-05,0.0923051163554191,0,0,0
416,14122.323519698866,2010-11-16 15:40:20,2581.300629328978,2,2,0.5501165986061096,3.934808015823364,1.356003509949816,0.995719875020912,5.373537054716629,3.639495225495316,3.237724376958795e-05,0.0923051163554191,0,0,0
417,14152.338841830648,2010-11-16 15:40:50,2611.3159514858244,2,2,0.5501165986061096,3.936264991760254,1.360590391173334,0.995719875020912,5.391588696681638,3.639495225495316,3.237724376958795e-05,0.0923051163554191,0,0,0
418,14182.354125486389,2010-11-16 15:41:20,2641.3312351064774,2,2,0.5501165986061096,3.937721967697144,1.365177261092881,0.995719875020912,5.409646826126814,3.639495225495316,3.237724376958795e-05,0.0923051163554191,0,0,0
419,14212.369445212164,2010-11-16 15:41:50,2671.346554842279,2,2,0.5501165986061096,3.939178943634033,1.369764078329637,0.995719875020912,5.427711729311697,3.639495225495316,3.237724376958795e-05,0.0923051163554191,0,0,0
420,14242.3847628377,2010-11-16 15:42:20,2701.3618724928765,2,2,0.5501165986061096,3.940635919570923,1.374350931769833,0.995719875020912,5.445783738995798,3.639495225495316,3.237724376958795e-05,0.0923051163554191,0,0,0
421,14272.400045576152,2010-11-16 15:42:50,2731.3771552012527,2,2,0.5501165986061096,3.942092895507813,1.378937808039085,0.995719875020912,5.463862789976118,3.639495225495316,3.237724376958795e-05,0.0923051163554191,0,0,0
422,14302.415487958096,2010-11-16 15:43:20,2761.3925975882103,2,2,0.5501165986061096,3.943711757659912,1.383524569531554,0.995719875020912,5.481948422977188,3.639495225495316,3.237724376958795e-05,0.0923051163554191,0,0,0
423,14332.430700416116,2010-11-16 15:43:50,2791.407810041218,2,2,0.5501165986061096,3.945330619812012,1.38811128877538,0.995719875020912,5.500040982823742,3.639495225495316,0.0,0.0923051163554191,0,0,0
424,14362.446125494873,2010-11-16 15:44:20,2821.423235119973,2,2,0.5501165986061096,3.9469494819641113,1.392698191186625,0.995719875020912,5.518141441762841,3.639495225495316,6.47544875391759e-05,0.0923051163554191,0,0,0
425,14392.461266268958,2010-11-16 15:44:51,2851.4383758940585,2,2,0.5499359965324402,3.948406457901001,1.397284978242792,0.995719875020912,5.536248577463828,3.639495225495316,3.237724376958795e-05,0.0923051163554191,0,0,0
426,14422.476756946457,2010-11-16 15:45:21,2881.45386657657,2,2,0.5501165986061096,3.9500253200531006,1.401871796185685,0.995719875020912,5.554363088332448,3.639495225495316,3.237724376958795e-05,0.0923051163554191,0,0,0
427,14452.49206329384,2010-11-16 15:45:51,2911.46917291894,2,2,0.5501165986061096,3.9516441822052,1.406458558230138,0.995719875020912,5.572484744443067,3.639495225495316,3.237724376958795e-05,0.0923051163554191,0,0,0
428,14482.507192839896,2010-11-16 15:46:21,2941.484302470012,2,2,0.5501165986061096,3.9532630443573,1.411045311404657,0.995719875020912,5.590613680981809,3.639495225495316,3.237724376958795e-05,0.0923051163554191,0,0,0
429,14512.522505267458,2010-11-16 15:46:51,2971.4996148875466,2,2,0.5501165986061096,3.9548819065094,1.415632128887401,0.995719875020912,5.608750404827112,3.639495225495316,3.237724376958795e-05,0.0923051163554191,0,0,0
430,14542.537827489465,2010-11-16 15:47:21,3001.51493711958,2,2,0.550297200679779,3.956662654876709,1.420218980425085,0.995719875020912,5.62689479050494,3.639495225495316,6.47544875391759e-05,0.0923051163554191,0,0,0
431,14572.553134197748,2010-11-16 15:47:51,3031.530243852925,2,2,0.5501165986061096,3.9582815170288086,1.424805823570068,0.995719875020912,5.645046603745725,3.639495225495316,6.47544875391759e-05,0.0923051163554191,0,0,0
432,14602.568413262028,2010-11-16 15:48:21,3061.5455228921423,2,2,0.5501165986061096,3.959900379180908,1.429392658397329,0.995719875020912,5.663206081448779,3.639495225495316,9.713172767078504e-05,0.0923051163554191,0,0,0
433,14632.583720466551,2010-11-16 15:48:51,3091.560830091652,2,2,0.5501165986061096,3.961519241333008,1.433979484920284,0.995719875020912,5.68137329717921,3.639495225495316,3.237724376958795e-05,0.0923051163554191,0,0,0
434,14662.599033816412,2010-11-16 15:49:21,3121.576143446526,2,2,0.550297200679779,3.963299989700317,1.438566286867936,0.995719875020912,5.699548211156341,3.639495225495316,6.47544875391759e-05,0.0923051163554191,0,0,0
435,14692.614699280204,2010-11-16 15:49:51,3151.591808940393,2,2,0.5501165986061096,3.964918851852417,1.443153091568968,0.995719875020912,5.717731101893024,3.639495225495316,3.237724376958795e-05,0.0923051163554191,0,0,0
436,14722.629649503646,2010-11-16 15:50:21,3181.606759133761,2,2,0.550297200679779,3.966861486434937,1.447739875956317,0.995719875020912,5.735922045049763,3.639495225495316,6.47544875391759e-05,0.0923051163554191,0,0,0
437,14752.644961164293,2010-11-16 15:50:51,3211.6220707944058,2,2,0.5501165986061096,3.968642234802246,1.452326754120759,0.995719875020912,5.754121415237649,3.639495225495316,6.47544875391759e-05,0.0923051163554191,0,0,0
438,14782.660280178292,2010-11-16 15:51:21,3241.6373898284564,2,2,0.5501165986061096,3.970422983169556,1.456913552104737,0.995719875020912,5.772328705507502,3.639495225495316,3.237724376958795e-05,0.0923051163554191,0,0,0
439,14812.675573633494,2010-11-16 15:51:51,3271.652683263608,2,2,0.5499359965324402,3.972203731536865,1.461500396627692,0.995719875020912,5.790544551029329,3.639495225495316,6.47544875391759e-05,0.0923051163554191,0,0,0
440,14842.690867870648,2010-11-16 15:52:21,3301.667977495749,2,2,0.5501165986061096,3.9741463661193848,1.466087272068817,0.995719875020912,5.808768925291517,3.639495225495316,6.47544875391759e-05,0.0923051163554191,0,0,0
441,14872.706172829565,2010-11-16 15:52:51,3331.683282454666,2,2,0.5501165986061096,3.976089000701904,1.470674152587046,0.995719875020912,5.82700184390194,3.639495225495316,9.713172767078504e-05,0.0923051163554191,0,0,0
442,14902.721485377424,2010-11-16 15:53:21,3361.6985949975133,2,2,0.550297200679779,3.977707862854004,1.475260980445584,0.995719875020912,5.84524318604611,3.639495225495316,3.237724376958795e-05,0.0923051163554191,0,0,0
443,14932.736796521782,2010-11-16 15:53:51,3391.713906146882,2,2,0.5497553944587708,3.979650497436523,1.479847746587153,0.995719875020912,5.863492598210225,3.639495225495316,3.237724376958795e-05,0.0923051163554191,0,0,0
444,14962.752094708792,2010-11-16 15:54:21,3421.729204338908,2,2,0.5499359965324402,3.981593132019043,1.484434421467813,0.995719875020912,5.881750819105482,3.639495225495316,3.237724376958795e-05,0.0923051163554191,0,0,0
445,14992.767544278682,2010-11-16 15:54:51,3451.7446538987706,2,2,0.5501165986061096,3.9835357666015625,1.48902122389228,0.995719875020912,5.900018488953397,3.639495225495316,3.237724376958795e-05,0.0923051163554191,0,0,0
446,15022.78284817996,2010-11-16 15:55:21,3481.7599578050595,2,2,0.550297200679779,3.985640287399292,1.493607959111128,0.995719875020912,5.918294958093794,3.639495225495316,6.47544875391759e-05,0.0923051163554191,0,0,0
447,15052.798034457628,2010-11-16 15:55:51,3511.775144087742,2,2,0.5501165986061096,3.9877448081970215,1.49819472238215,0.995719875020912,5.936580783179431,3.639495225495316,6.47544875391759e-05,0.0923051163554191,0,0,0
448,15082.813328980494,2010-11-16 15:56:21,3541.790438615621,2,2,0.5501165986061096,3.989687442779541,1.502781532397087,0.995719875020912,5.954876001095711,3.639495225495316,6.47544875391759e-05,0.0923051163554191,0,0,0
449,15112.82863503214,2010-11-16 15:56:51,3571.805744652228,2,2,0.5501165986061096,3.991630077362061,1.507368254485501,0.995719875020912,5.973180281325679,3.639495225495316,0.0,0.0923051163554191,0,0,0
450,15142.843947735386,2010-11-16 15:57:21,3601.821057365501,2,2,0.5501165986061096,3.994058132171631,1.511955036407027,0.995719875020912,5.991494364871928,3.639495225495316,0.0001294612884521,0.0923051163554191,0,0,0
451,15172.859261541387,2010-11-16 15:57:51,3631.836371171501,2,2,0.5501165986061096,3.9960007667541504,1.516541835481801,0.995719875020912,6.009818216967114,3.639495225495316,3.237724376958795e-05,0.0923051163554191,0,0,0
452,15202.8745755128,2010-11-16 15:58:21,3661.851685162964,2,2,0.550297200679779,3.99826717376709,1.521128634016502,0.995719875020912,6.028151852132084,3.639495225495316,9.713172767078504e-05,0.0923051163554191,0,0,0
453,15232.889867343947,2010-11-16 15:58:51,3691.8669769740623,2,2,0.5501165986061096,4.000209808349609,1.525715420620061,0.995719875020912,6.046495150887346,3.639495225495316,3.23295607813634e-05,0.0923051163554191,0,0,0
454,15262.905300863771,2010-11-16 15:59:21,3721.8824104988994,2,2,0.550297200679779,4.002638339996338,1.530302184480648,0.995719875020912,6.064848384340106,3.639495225495316,6.47544875391759e-05,0.0923051163554191,0,0,0
455,15292.92048739708,2010-11-16 15:59:51,3751.8975970271945,2,2,0.5501165986061096,4.004580974578857,1.534888946152452,0.995719875020912,6.083211712528064,3.639495225495316,3.24249267578125e-05,0.0923051163554191,0,0,0
456,15322.93578876704,2010-11-16 16:00:21,3781.9128983971527,2,2,0.5501165986061096,4.006847381591797,1.539475647820597,0.995719875020912,6.101585002839482,3.639495225495316,6.47544875391759e-05,0.0923051163554191,0,0,0
457,15352.951107976529,2010-11-16 16:00:51,3811.9282176066417,2,2,0.5501165986061096,4.008951663970947,1.544062372586755,0.995719875020912,6.119968742897074,3.639495225495316,3.23295607813634e-05,0.0923051163554191,0,0,0
458,15382.966411426678,2010-11-16 16:01:21,3841.943521056792,2,2,0.5501165986061096,4.011380195617676,1.548649154014864,0.995719875020912,6.138363060937788,3.639495225495316,3.24249267578125e-05,0.0923051163554191,0,0,0
459,15412.9817347765,2010-11-16 16:01:51,3871.9588444016026,2,2,0.5501165986061096,4.013808250427246,1.553235876549695,0.995719875020912,6.156767598797345,3.639495225495316,9.70840483205393e-05,0.0923051163554191,0,0,0
460,15442.9970168533,2010-11-16 16:02:21,3901.974126478402,2,2,0.5501165986061096,4.016236782073975,1.557822573721276,0.995719875020912,6.175182563884512,3.639495225495316,9.71794142969884e-05,0.0923051163554191,0,0,0
461,15473.012726562536,2010-11-16 16:02:51,3931.9898362127,2,2,0.5501165986061096,4.018503189086914,1.562409417647003,0.995719875020912,6.193608878330084,3.639495225495316,9.71794142969884e-05,0.0923051163554191,0,0,0
462,15503.02764996904,2010-11-16 16:03:21,3962.004759594141,2,2,0.5501165986061096,4.0206074714660645,1.566996123068247,0.995719875020912,6.212045337540464,3.639495225495316,3.23295607813634e-05,0.0923051163554191,0,0,0
463,15533.04297540908,2010-11-16 16:03:51,3992.0200850341807,2,2,0.550297200679779,4.023197650909424,1.57158291529303,0.995719875020912,6.230493142178197,3.639495225495316,6.47544875391759e-05,0.0923051163554191,0,0,0
464,15563.05825441321,2010-11-16 16:04:21,4022.035364043323,2,2,0.5501165986061096,4.025626182556152,1.576169619026723,0.995719875020912,6.248951572679768,3.639495225495316,9.71794142969884e-05,0.0923051163554191,0,0,0
465,15593.073560800693,2010-11-16 16:04:51,4052.0506704257937,2,2,0.5501165986061096,4.028054237365723,1.580756368449933,0.995719875020912,6.267421222408792,3.639495225495316,6.47544875391759e-05,0.0923051163554191,0,0,0
466,15623.088892686825,2010-11-16 16:05:21,4082.066002306912,2,2,0.5501165986061096,4.030482769012451,1.585343092087103,0.995719875020912,6.285901990217035,3.639495225495316,9.71794142969884e-05,0.0923051163554191,0,0,0
467,15653.107239899677,2010-11-16 16:05:51,4112.084349554851,2,2,0.5499359965324402,4.0329108238220215,1.589930327036776,0.995719875020912,6.30439611627436,3.639495225495316,6.47544875391759e-05,0.0923051163554191,0,0,0
468,15683.119544048106,2010-11-16 16:06:21,4142.096653853658,2,2,0.550297200679779,4.035501003265381,1.594516619886621,0.995719875020912,6.322897901168004,3.639495225495316,9.71794142969884e-05,0.0923051163554191,0,0,0
469,15713.134821052245,2010-11-16 16:06:51,4172.111930672332,2,2,0.5501165986061096,4.03809118270874,1.599103352443331,0.995719875020912,6.341412987266262,3.639495225495316,0.0001295089750783,0.0923051163554191,0,0,0
470,15743.15012333949,2010-11-16 16:07:21,4202.127232989655,2,2,0.5501165986061096,4.04035758972168,1.603690063642354,0.995719875020912,6.359939638870767,3.639495225495316,6.47544875391759e-05,0.0923051163554191,0,0,0
471,15773.165577761492,2010-11-16 16:07:51,4232.142687411655,2,2,0.5501165986061096,4.04310941696167,1.608276799154449,0.995719875020912,6.378478024943041,3.639495225495316,9.70840483205393e-05,0.0923051163554191,0,0,0
472,15803.180736665832,2010-11-16 16:08:21,4262.157846295946,2,2,0.5499359965324402,4.045375823974609,1.612863463538452,0.995719875020912,6.397027855549087,3.639495225495316,0.0,0.0923051163554191,0,0,0
473,15833.196049364067,2010-11-16 16:08:51,4292.173158994182,2,2,0.550297200679779,4.048289775848389,1.617450226547615,0.995719875020912,6.415590044093372,3.639495225495316,6.47544875391759e-05,0.0923051163554191,0,0,0
474,15863.211362107417,2010-11-16 16:09:21,4322.188471752567,2,2,0.5499359965324402,4.050718307495117,1.622037010186332,0.995719875020912,6.434164406592706,3.639495225495316,3.24249267578125e-05,0.0923051163554191,0,0,0
475,15893.226662404695,2010-11-16 16:09:51,4352.203772029798,2,2,0.5501165986061096,4.053470134735107,1.62662378663911,0.995719875020912,6.4527508590392,3.639495225495316,3.23295607813634e-05,0.0923051163554191,0,0,0
476,15923.2420352631,2010-11-16 16:10:21,4382.219145003489,2,2,0.5499359965324402,4.056222438812256,1.631210525390425,0.995719875020912,6.471349514726605,3.639495225495316,3.24249267578125e-05,0.0923051163554191,0,0,0
477,15953.257260833852,2010-11-16 16:10:51,4412.234370463965,2,2,0.5499359965324402,4.058812618255615,1.635797297584406,0.995719875020912,6.489960721271597,3.639495225495316,3.24249267578125e-05,0.0923051163554191,0,0,0
478,15983.272699025336,2010-11-16 16:11:21,4442.249808655452,2,2,0.5501165986061096,4.0615644454956055,1.640384109694048,0.995719875020912,6.508584354638265,3.639495225495316,9.70840483205393e-05,0.0923051163554191,0,0,0
479,16013.287896531034,2010-11-16 16:11:51,4472.265006156136,2,2,0.5501165986061096,4.064316749572754,1.644970850535079,0.995719875020912,6.527220104369905,3.639495225495316,9.71794142969884e-05,0.0923051163554191,0,0,0
480,16043.30321449742,2010-11-16 16:12:21,4502.280324152596,2,2,0.5501165986061096,4.067068576812744,1.649557557381213,0.995719875020912,6.545868361769292,3.639495225495316,6.47544875391759e-05,0.0923051163554191,0,0,0
481,16073.318499140623,2010-11-16 16:12:51,4532.295608775752,2,2,0.5501165986061096,4.069820880889893,1.654144261514884,0.995719875020912,6.564529383249447,3.639495225495316,6.47544875391759e-05,0.0923051163554191,0,0,0
482,16103.333813853887,2010-11-16 16:13:21,4562.310923484004,2,2,0.5501165986061096,4.072896480560303,1.658731031738239,0.995719875020912,6.583203537458886,3.639495225495316,9.70840483205393e-05,0.0923051163554191,0,0,0
483,16133.34913875258,2010-11-16 16:13:51,4592.326248382694,2,2,0.5501165986061096,4.075648784637451,1.663317773630397,0.995719875020912,6.601890539843176,3.639495225495316,9.71794142969884e-05,0.0923051163554191,0,0,0
484,16163.364438187707,2010-11-16 16:14:21,4622.341547817822,2,2,0.5501165986061096,4.078562736511231,1.667904511009305,0.995719875020912,6.620590704786123,3.639495225495316,9.71794142969884e-05,0.0923051163554191,0,0,0
485,16193.379737723086,2010-11-16 16:14:51,4652.356847348188,2,2,0.5501165986061096,4.081314563751221,1.672491236361206,0.995719875020912,6.639304169045024,3.639495225495316,6.47544875391759e-05,0.0923051163554191,0,0,0
486,16223.395294184793,2010-11-16 16:15:21,4682.372403814908,2,2,0.5499359965324402,4.084066867828369,1.677077985646198,0.995719875020912,6.658030981106073,3.639495225495316,6.47544875391759e-05,0.0923051163554191,0,0,0
487,16253.41041055797,2010-11-16 16:15:51,4712.387520203123,2,2,0.5501165986061096,4.087304592132568,1.681664638204313,0.995719875020912,6.676770872251772,3.639495225495316,0.0001295089750783,0.0923051163554191,0,0,0
488,16283.425792879998,2010-11-16 16:16:21,4742.402902510112,2,2,0.5501165986061096,4.090218544006348,1.686251332323784,0.995719875020912,6.695524456595314,3.639495225495316,9.71794142969884e-05,0.0923051163554191,0,0,0
489,16313.440970235397,2010-11-16 16:16:52,4772.418079860498,2,2,0.5499359965324402,4.092970371246338,1.690838051587472,0.995719875020912,6.714291769480068,3.639495225495316,3.23295607813634e-05,0.0923051163554191,0,0,0
490,16343.456416196275,2010-11-16 16:17:22,4802.433525831402,2,2,0.5501165986061096,4.096208095550537,1.695424771448682,0.995719875020912,6.733072850430031,3.639495225495316,9.70840483205393e-05,0.0923051163554191,0,0,0
491,16373.471723912073,2010-11-16 16:17:52,4832.448833537175,2,2,0.5501165986061096,4.099122047424316,1.700011508904481,0.995719875020912,6.751867881587272,3.639495225495316,0.0,0.0923051163554191,0,0,0
492,16403.486911127082,2010-11-16 16:18:22,4862.464020752185,2,2,0.5499359965324402,4.102035999298096,1.70459802919166,0.995719875020912,6.770675930708409,3.639495225495316,0.0,0.0923051163554191,0,0,0
493,16433.5022218554,2010-11-16 16:18:52,4892.479331505566,2,2,0.5501165986061096,4.105273723602295,1.709183812618183,0.995719875020912,6.78949495439956,3.639495225495316,6.47544875391759e-05,0.0923051163554191,0,0,0
494,16463.517575475784,2010-11-16 16:19:22,4922.494685105899,2,2,0.5499359965324402,4.108349800109863,1.713769904364219,0.995719875020912,6.808329554169451,3.639495225495316,6.47544875391759e-05,0.0923051163554191,0,0,0
495,16493.532881261766,2010-11-16 16:19:52,4952.50999091193,2,2,0.5501165986061096,4.111425399780273,1.718356604995605,0.995719875020912,6.827181076585943,3.639495225495316,6.47544875391759e-05,0.0923051163554191,0,0,0
496,16523.548305849294,2010-11-16 16:20:22,4982.525415474395,2,2,0.5499359965324402,4.114663124084473,1.72294330718083,0.995719875020912,6.846046765924054,3.639495225495316,9.70840483205393e-05,0.0923051163554191,0,0,0
497,16553.563467956632,2010-11-16 16:20:52,5012.540577586745,2,2,0.5501165986061096,4.117900848388672,1.727530058398481,0.995719875020912,6.864927037194437,3.639495225495316,6.47544875391759e-05,0.0923051163554191,0,0,0
498,16583.578770995755,2010-11-16 16:21:22,5042.555880620857,2,2,0.5501165986061096,4.121138572692871,1.732116811575323,0.995719875020912,6.883821863032158,3.639495225495316,9.71794142969884e-05,0.0923051163554191,0,0,0
499,16613.594086806763,2010-11-16 16:21:52,5072.571196431863,2,2,0.5501165986061096,4.124214172363281,1.736703579032798,0.995719875020912,6.902731437796992,3.639495225495316,9.70840483205393e-05,0.0923051163554191,0,0,0
500,16643.59409956399,2010-11-16 16:22:22,5102.571209214154,2,2,0.5501165986061096,4.1274518966674805,1.7412879955862,0.995719875020912,6.921646122676759,3.639495225495316,9.70840483205393e-05,0.0923051163554191,0,0,0
501,16673.609075446482,2010-11-16 16:22:52,5132.58618506657,2,2,0.5501165986061096,4.13068962097168,1.745874699639683,0.995719875020912,6.940585104909538,3.639495225495316,6.47544875391759e-05,0.0923051163554191,0,0,0
502,16703.624523627903,2010-11-16 16:23:22,5162.601633253004,2,2,0.5501165986061096,4.133927345275879,1.750461480971923,0.995719875020912,6.959539446538399,3.639495225495316,6.47544875391759e-05,0.0923051163554191,0,0,0
503,16733.63968874776,2010-11-16 16:23:52,5192.616798377874,2,2,0.5501165986061096,4.137327194213867,1.755048208106823,0.995719875020912,6.978508775517098,3.639495225495316,3.24249267578125e-05,0.0923051163554191,0,0,0
504,16763.6550022881,2010-11-16 16:24:22,5222.632111918211,2,2,0.5501165986061096,4.140726566314697,1.759634988986542,0.995719875020912,6.997493642622812,3.639495225495316,9.70840483205393e-05,0.0923051163554191,0,0,0
505,16793.670308670564,2010-11-16 16:24:52,5252.647418300682,2,2,0.550297200679779,4.1439642906188965,1.764221817779795,0.995719875020912,7.016494020259342,3.639495225495316,9.70840483205393e-05,0.0923051163554191,0,0,0
506,16823.68561791017,2010-11-16 16:25:22,5282.662727555321,2,2,0.550297200679779,4.147687911987305,1.768808508035392,0.995719875020912,7.035509630336765,3.639495225495316,0.0001295089750783,0.0923051163554191,0,0,0
507,16853.700885816597,2010-11-16 16:25:52,5312.677995446711,2,2,0.5501165986061096,4.150925636291504,1.773395202599285,0.995719875020912,7.054540872060208,3.639495225495316,6.47544875391759e-05,0.0923051163554191,0,0,0
508,16883.71663410714,2010-11-16 16:26:22,5342.693743752289,2,2,0.550297200679779,4.154487133026123,1.777981975723963,0.995719875020912,7.073588176535669,3.639495225495316,9.71794142969884e-05,0.0923051163554191,0,0,0
509,16913.731691718636,2010-11-16 16:26:52,5372.708801338727,2,2,0.550297200679779,4.157886505126953,1.782568622445315,0.995719875020912,7.092650828664197,3.639495225495316,9.70840483205393e-05,0.0923051163554191,0,0,0
510,16943.74686507405,2010-11-16 16:27:22,5402.723974704165,2,2,0.5501165986061096,4.161448001861572,1.787155320066275,0.995719875020912,7.111729790351877,3.639495225495316,6.47544875391759e-05,0.0923051163554191,0,0,0
511,16973.76217738131,2010-11-16 16:27:52,5432.739287011425,2,2,0.5499359965324402,4.1648478507995605,1.791742060536488,0.995719875020912,7.130825124820913,3.639495225495316,9.71794142969884e-05,0.0923051163554191,0,0,0
512,17003.777529091927,2010-11-16 16:28:22,5462.754638747104,2,2,0.5501165986061096,4.16840934753418,1.796328778773299,0.995719875020912,7.149936570015159,3.639495225495316,9.71794142969884e-05,0.0923051163554191,0,0,0
513,17033.79281290807,2010-11-16 16:28:52,5492.769922558232,2,2,0.5501165986061096,4.171970844268799,1.800915502564321,0.995719875020912,7.169064443571969,3.639495225495316,6.47544875391759e-05,0.0923051163554191,0,0,0
514,17063.808145430787,2010-11-16 16:29:22,5522.785255090977,2,2,0.5501165986061096,4.175693988800049,1.805502310580619,0.995719875020912,7.188209098985449,3.639495225495316,9.70840483205393e-05,0.0923051163554191,0,0,0
515,17093.82342677576,2010-11-16 16:29:52,5552.800536410887,2,2,0.5501165986061096,4.179255485534668,1.81008905184335,0.995719875020912,7.207369982296438,3.639495225495316,9.70840483205393e-05,0.0923051163554191,0,0,0
516,17123.83884541845,2010-11-16 16:30:22,5582.8159550535765,2,2,0.5501165986061096,4.182979106903076,1.814675771835947,0.995719875020912,7.226547415873915,3.639495225495316,0.0001295089750783,0.0923051163554191,0,0,0
517,17153.85401662851,2010-11-16 16:30:52,5612.831126258623,2,2,0.5501165986061096,4.186540603637695,1.819262488031102,0.995719875020912,7.245741564712756,3.639495225495316,6.47544875391759e-05,0.0923051163554191,0,0,0
518,17183.869325181397,2010-11-16 16:31:22,5642.846434816523,2,2,0.550297200679779,4.190263748168945,1.823849219702921,0.995719875020912,7.264952640714109,3.639495225495316,9.70840483205393e-05,0.0923051163554191,0,0,0
519,17213.884779733722,2010-11-16 16:31:52,5672.861889388898,2,2,0.5501165986061096,4.1938252449035645,1.828435914091405,0.995719875020912,7.284180417574198,3.639495225495316,9.70840483205393e-05,0.0923051163554191,0,0,0
520,17243.899962211908,2010-11-16 16:32:22,5702.877071842021,2,2,0.5499359965324402,4.197548389434815,1.833022597745187,0.995719875020912,7.303425133717896,3.639495225495316,6.47544875391759e-05,0.0923051163554191,0,0,0
521,17262.478019701564,2010-11-16 16:32:41,5721.455129321653,2,2,0.5501165986061096,4.200138568878174,1.835861579193861,0.995719875020912,7.315345325567473,3.639495225495316,0.0001618385285837,0.0923051163554191,0,0,0
522,17292.49394674562,2010-11-16 16:33:11,30.015053987453296,3,2,0.0,4.118548393249512,1.835861579193861,0.995719875020912,7.315345325567473,3.639495225495316,-0.0003885269106831,0.0923051163554191,0,0,0
523,17322.50918349427,2010-11-16 16:33:41,60.03029071104411,3,2,0.0,4.109158992767334,1.835861579193861,0.995719875020912,7.315345325567473,3.639495225495316,-0.0001295089750783,0.0923051163554191,0,0,0
524,17352.524485831644,2010-11-16 16:34:11,90.04559317372981,3,2,0.0,4.1034932136535645,1.835861579193861,0.995719875020912,7.315345325567473,3.639495225495316,-0.0001295089750783,0.0923051163554191,0,0,0
525,17382.49284402421,2010-11-16 16:34:41,120.0139512810824,3,2,0.0,4.099931716918945,1.835861579193861,0.995719875020912,7.315345325567473,3.639495225495316,-9.70840483205393e-05,0.0923051163554191,0,0,0
526,17382.493210865803,2010-11-16 16:34:41,2.746856577e-06,4,2,0.9723811149597168,4.199814796447754,1.835861579935803,0.995719875020912,7.315345328683493,3.639495225495316,0.0,0.0923051163554191,0,0,0
527,17383.305720961005,2010-11-16 16:34:42,0.812512847068259,4,2,0.9219911098480223,4.199814796447754,1.836073396016054,0.995719875020912,7.316234908461384,3.639495225495316,0.0,0.0923051163554191,0,0,0
528,17385.50894064128,2010-11-16 16:34:44,3.015732552409669,4,2,0.8717817068099976,4.199814796447754,1.836621017930255,0.995719875020912,7.318534793890603,3.639495225495316,0.0,0.0923051163554191,0,0,0
529,17388.91521280063,2010-11-16 16:34:47,6.422004681686209,4,2,0.821391761302948,4.199814796447754,1.837420811191752,0.995719875020912,7.321893736132468,3.639495225495316,0.0,0.0923051163554191,0,0,0
530,17393.58696420086,2010-11-16 16:34:52,11.09375609193718,4,2,0.7713629603385925,4.199814796447754,1.83845292810995,0.995719875020912,7.326228376370102,3.639495225495316,0.0,0.0923051163554191,0,0,0
531,17399.727418043334,2010-11-16 16:34:58,17.234209929400695,4,2,0.7211536169052124,4.199814796447754,1.83972412704199,0.995719875020912,7.331567125814182,3.639495225495316,3.23295607813634e-05,0.0923051163554191,0,0,0
532,17407.793273915493,2010-11-16 16:35:06,25.300065821608555,4,2,0.6711248159408569,4.199653148651123,1.841281535230197,0.995719875020912,7.338107895004623,3.639495225495316,-3.23295607813634e-05,0.0923051163554191,0,0,0
533,17418.664704438608,2010-11-16 16:35:17,36.171496344722016,4,2,0.6210960745811462,4.199653148651123,1.84322902710799,0.995719875020912,7.346286913216613,3.639495225495316,-3.23295607813634e-05,0.0923051163554191,0,0,0
534,17434.445692437497,2010-11-16 16:35:33,51.952484318549,4,2,0.5710672736167908,4.199653148651123,1.845835129689554,0.995719875020912,7.357232030898516,3.639495225495316,0.0,0.0923051163554191,0,0,0
535,17459.258130570375,2010-11-16 16:35:58,76.76492246145186,4,2,0.5210385322570801,4.199814796447754,1.849584793276749,0.995719875020912,7.372979925110596,3.639495225495316,0.0,0.0923051163554191,0,0,0
536,17503.163822442006,2010-11-16 16:36:42,120.67061432306026,4,2,0.4708291292190552,4.199814796447754,1.855606822780721,0.995719875020912,7.398271308609257,3.639495225495316,0.0,0.0923051163554191,0,0,0
537,17578.24114157091,2010-11-16 16:37:57,195.7479334519628,4,2,0.4208003580570221,4.199653148651123,1.864875560820403,0.995719875020912,7.437198282094573,3.639495225495316,-3.23295607813634e-05,0.0923051163554191,0,0,0
538,17681.427576818125,2010-11-16 16:39:40,298.9343687242386,4,2,0.3707716166973114,4.199653148651123,1.87620008024199,0.995719875020912,7.48475911757331,3.639495225495316,0.0,0.0923051163554191,0,0,0
539,17807.035648083318,2010-11-16 16:41:45,424.5424399693851,4,2,0.3207428455352783,4.199976921081543,1.888244119586547,0.995719875020912,7.535341783914991,3.639495225495316,3.24249267578125e-05,0.0923051163554191,0,0,0
540,17957.877781920863,2010-11-16 16:44:16,575.3845738019132,4,2,0.2707140743732452,4.199653148651123,1.900612763969383,0.995719875020912,7.587287715314742,3.639495225495316,-3.23295607813634e-05,0.0923051163554191,0,0,0
541,18141.532113121048,2010-11-16 16:47:20,759.0389050021014,4,2,0.2206852883100509,4.199653148651123,1.913110829735427,0.995719875020912,7.639777179714776,3.639495225495316,0.0,0.0923051163554191,0,0,0
542,18375.576644854107,2010-11-16 16:51:14,993.0834367451832,4,2,0.1704759150743484,4.199653148651123,1.92578052491457,0.995719875020912,7.692987427469469,3.639495225495316,-3.23295607813634e-05,0.0923051163554191,0,0,0
543,18706.85436586656,2010-11-16 16:56:45,1324.3611577476083,4,2,0.1204471439123153,4.199653148651123,1.939055789971157,0.995719875020912,7.748740899394939,3.639495225495316,-3.23295607813634e-05,0.0923051163554191,0,0,0
544,19241.473686986195,2010-11-16 17:05:40,1858.9804788772744,4,2,0.0704183727502822,4.199653148651123,1.952906242204596,0.995719875020912,7.80691012455338,3.639495225495316,-3.23295607813634e-05,0.0923051163554191,0,0,0
545,19612.922751472164,2010-11-16 17:11:51,2230.429543358229,4,2,0.0498289167881011,4.199653148651123,1.95907551199742,0.995719875020912,7.832819823783267,3.639495225495316,-3.23295607813634e-05,0.0923051163554191,0,0,0
546,19642.93861141805,2010-11-16 17:12:21,30.015351184302357,5,2,0.0,4.192206382751465,1.95907551199742,0.995719875020912,7.832819823783267,3.639495225495316,-3.24249267578125e-05,0.0923051163554191,0,0,0
547,19672.938321610032,2010-11-16 17:12:51,60.01506140635664,5,2,0.0,4.191235065460205,1.95907551199742,0.995719875020912,7.832819823783267,3.639495225495316,-3.24249267578125e-05,0.0923051163554191,0,0,0
548,19673.126897543505,2010-11-16 17:12:52,0.187525071428296,6,2,0.0023286775685846,4.191882610321045,1.959075633298925,0.995719875020912,7.832820332264936,3.639495225495316,0.0,0.0914128422737121,0,0,0
549,19677.954850827664,2010-11-16 17:12:57,5.015478345562578,6,2,0.0007031940040178,4.191397190093994,1.959076583704764,0.995719875020912,7.832824315703734,3.639495225495316,3.24249267578125e-05,0.0914128422737121,0,0,0
550,19707.971454991253,2010-11-16 17:13:27,30.01540738458691,7,2,-1.0997490882873535,4.023683547973633,1.959076583704764,1.004888840157898,7.832824315703734,3.676567249170662,-0.0008093834039755,0.0914128422737121,0,0,0
551,19737.986626487025,2010-11-16 17:13:57,60.030578880359045,7,2,-1.099929690361023,3.9995622634887695,1.959076583704764,1.014057689650185,7.832824315703734,3.713340819920356,-0.0005504608270712,0.0914128422737121,0,0,0
552,19768.001935621367,2010-11-16 17:14:27,90.04588801469822,7,2,-1.0997490882873535,3.983373880386353,1.959076583704764,1.023226470293623,7.832824315703734,3.749934758388906,-0.0003885269106831,0.0914128422737121,0,0,0
553,19798.017453752396,2010-11-16 17:14:57,120.0614061507378,7,2,-1.099568486213684,3.970422983169556,1.959076583704764,1.032395305695551,7.832824315703734,3.786397035362448,-0.0003237724304199,0.0914128422737121,0,0,0
554,19828.0325489828,2010-11-16 17:15:27,150.07650137612734,7,2,-1.0997490882873535,3.9594147205352783,1.959076583704764,1.041564011078034,7.832824315703734,3.82275044435008,-0.0003237724304199,0.0914128422737121,0,0,0
555,19858.047874257423,2010-11-16 17:15:57,180.09182665075517,7,2,-1.0997490882873535,3.9493777751922607,1.959076583704764,1.050732790995324,7.832824315703734,3.859008238717589,-0.0002913951757363,0.0914128422737121,0,0,0
556,19888.063185652405,2010-11-16 17:16:27,210.1071380657873,7,2,-1.099568486213684,3.940474033355713,1.959076583704764,1.05990153176257,7.832824315703734,3.895177440862005,-0.0001942634553415,0.0914128422737121,0,0,0
557,19918.07847436577,2010-11-16 17:16:57,240.12242675910247,7,2,-1.099568486213684,3.930922746658325,1.959076583704764,1.069070270913657,7.832824315703734,3.931261447653423,-0.0002590179501567,0.0914128422737121,0,0,0
558,19948.093877033585,2010-11-16 17:17:27,270.1378294219031,7,2,-1.099568486213684,3.9221808910369873,1.959076583704764,1.078238930757989,7.832824315703734,3.967262023234697,-0.0002266406954731,0.0914128422737121,0,0,0
559,19978.10919522553,2010-11-16 17:17:57,300.153147618864,7,2,-1.099568486213684,3.9136011600494394,1.959076583704764,1.087407593506984,7.832824315703734,4.003182697112294,-0.0002265930233988,0.0914128422737121,0,0,0
560,20008.12435783913,2010-11-16 17:18:27,330.16831022243986,7,2,-1.0997490882873535,3.9048593044281006,1.959076583704764,1.096576265562904,7.832824315703734,4.039025080648369,-0.0002266406954731,0.0914128422737121,0,0,0
561,20038.13967457244,2010-11-16 17:18:57,360.18362696075974,7,2,-1.099568486213684,3.8966031074523926,1.959076583704764,1.105744960006911,7.832824315703734,4.074789766711457,-0.0002266406954731,0.0914128422737121,0,0,0
562,20068.15505692955,2010-11-16 17:19:27,390.1990093228867,7,2,-1.0997490882873535,3.888346910476685,1.959076583704764,1.114913646181176,7.832824315703734,4.110479573425181,-0.0002266406954731,0.0914128422737121,0,0,0
563,20098.170742343144,2010-11-16 17:19:57,420.2146947364768,7,2,-1.099568486213684,3.880414485931397,1.959076583704764,1.124082563378708,7.832824315703734,4.146096303398645,-0.0002266406954731,0.0914128422737121,0,0,0
564,20128.18560466216,2010-11-16 17:20:27,450.2295570554962,7,2,-1.099929690361023,3.8723201751708975,1.959076583704764,1.133251220688795,7.832824315703734,4.181637807314809,-0.0002266406954731,0.0914128422737121,0,0,0
565,20158.20082611764,2010-11-16 17:20:57,480.244778536038,7,2,-1.0997490882873535,3.8643877506256095,1.959076583704764,1.142420026938496,7.832824315703734,4.217106656145831,-0.0002266406954731,0.0914128422737121,0,0,0
566,20188.216178344548,2010-11-16 17:21:27,510.26013073788033,7,2,-1.099929690361023,3.856455326080322,1.959076583704764,1.151588824336433,7.832824315703734,4.252502534893928,-0.0002266406954731,0.0914128422737121,0,0,0
567,20218.231431444012,2010-11-16 17:21:57,540.275383857398,7,2,-1.099568486213684,3.848522901535034,1.959076583704764,1.160757596435379,7.832824315703734,4.287825769513466,-0.0002266406954731,0.0914128422737121,0,0,0
568,20248.24699085308,2010-11-16 17:22:27,570.2909432564363,7,2,-1.0997490882873535,3.840914249420166,1.959076583704764,1.169926472766625,7.832824315703734,4.323078432213007,-0.0002590179501567,0.0914128422737121,0,0,0
569,20278.26216851925,2010-11-16 17:22:57,600.3061209426608,7,2,-1.0997490882873535,3.833467483520508,1.959076583704764,1.179095331219431,7.832824315703734,4.358261135376487,-0.0002266406954731,0.0914128422737121,0,0,0
570,20308.277462255155,2010-11-16 17:23:27,630.3214146735505,7,2,-1.0997490882873535,3.8260209560394287,1.959076583704764,1.188264188270728,7.832824315703734,4.393375008557376,-0.0001618862152099,0.0914128422737121,0,0,0
571,20338.29276568024,2010-11-16 17:23:57,660.3367180585384,7,2,-1.0997490882873535,3.8185741901397705,1.959076583704764,1.197433078586086,7.832824315703734,4.428421615196396,-0.0002266406954731,0.0914128422737121,0,0,0
572,20368.308056022677,2010-11-16 17:24:27,690.3520084160076,7,2,-1.0997490882873535,3.811451196670532,1.959076583704764,1.206601858309535,7.832824315703734,4.463401925229613,-0.0001942634553415,0.0914128422737121,0,0,0
573,20398.32336236003,2010-11-16 17:24:57,720.3673147583776,7,2,-1.0997490882873535,3.804490089416504,1.959076583704764,1.215770641827938,7.832824315703734,4.498316960565049,-0.0001942634553415,0.0914128422737121,0,0,0
574,20428.338660226244,2010-11-16 17:25:27,750.3826126245898,7,2,-1.0997490882873535,3.797528982162476,1.959076583704764,1.224939386816895,7.832824315703734,4.533168272212438,-0.0002266406954731,0.0914128422737121,0,0,0
575,20458.353871376,2010-11-16 17:25:57,780.3978236289817,7,2,-1.0997490882873535,3.790891647338867,1.959076583704764,1.234108205763671,7.832824315703734,4.56795679464802,-0.0001618862152099,0.0914128422737121,0,0,0
576,20488.353990353367,2010-11-16 17:26:27,810.3979427918149,7,2,-1.0997490882873535,3.784254312515259,1.959076583704764,1.24327231484184,7.832824315703734,4.602666811852116,-0.0001942634553415,0.0914128422737121,0,0,0
577,20518.369081889552,2010-11-16 17:26:57,840.4130343129581,7,2,-1.0997490882873535,3.7779407501220703,1.959076583704764,1.252441048489027,7.832824315703734,4.637333861657536,-0.0001618862152099,0.0914128422737121,0,0,0
578,20548.384267911584,2010-11-16 17:27:27,870.4282203049149,7,2,-1.0997490882873535,3.771303415298462,1.959076583704764,1.261609805143872,7.832824315703734,4.671941156862677,-0.0001942634553415,0.0914128422737121,0,0,0
579,20578.399770152944,2010-11-16 17:27:57,900.4437226766041,7,2,-1.0997490882873535,3.7649898529052734,1.959076583704764,1.270778627059588,7.832824315703734,4.706490149655699,-0.0001295089750783,0.0914128422737121,0,0,0
580,20608.41485087714,2010-11-16 17:28:27,930.458803295534,7,2,-1.099568486213684,3.758838176727295,1.959076583704764,1.279947359421252,7.832824315703734,4.740981647494391,-0.0001295089750783,0.0914128422737121,0,0,0
581,20638.430284662627,2010-11-16 17:28:57,960.4742370609714,7,2,-1.099568486213684,3.7528486251831055,1.959076583704764,1.289116215573909,7.832824315703734,4.77541807671296,-0.0001942157687153,0.0914128422737121,0,0,0
582,20668.448518728044,2010-11-16 17:29:27,990.492471121376,7,2,-1.099568486213684,3.746858835220337,1.959076583704764,1.298285949110997,7.832824315703734,4.809803328261291,-0.0001942634553415,0.0914128422737121,0,0,0
583,20698.46079010968,2010-11-16 17:29:57,1020.5047425080296,7,2,-1.0997490882873535,3.741192817687988,1.959076583704764,1.307453834235483,7.832824315703734,4.844128073515701,-0.0001295089750783,0.0914128422737121,0,0,0
584,20728.47609423151,2010-11-16 17:30:27,1050.5200466248443,7,2,-1.0997490882873535,3.73520302772522,1.959076583704764,1.316622670143339,7.832824315703734,4.878402783394511,-0.0001942634553415,0.0914128422737121,0,0,0
585,20758.491396969886,2010-11-16 17:30:57,1080.5353493582056,7,2,-1.0997490882873535,3.729537010192871,1.959076583704764,1.3257914750934,7.832824315703734,4.912624748399596,-0.0001618862152099,0.0914128422737121,0,0,0
586,20788.506702334813,2010-11-16 17:31:27,1110.5506547281484,7,2,-1.0997490882873535,3.724032878875733,1.959076583704764,1.33496021836308,7.832824315703734,4.946796278350687,-0.0001942634553415,0.0914128422737121,0,0,0
587,20818.521987820124,2010-11-16 17:31:57,1140.565940213456,7,2,-1.0997490882873535,3.718690633773804,1.959076583704764,1.344129030503478,7.832824315703734,4.980917685711197,-0.0001942634553415,0.0914128422737121,0,0,0
588,20848.537422312376,2010-11-16 17:32:27,1170.5813747057075,7,2,-1.099929690361023,3.713348388671875,1.959076583704764,1.353297883959208,7.832824315703734,5.014989611582577,-0.0001618862152099,0.0914128422737121,0,0,0
589,20878.552641617483,2010-11-16 17:32:57,1200.5965940358817,7,2,-1.0997490882873535,3.708168029785156,1.959076583704764,1.362466702188983,7.832824315703734,5.049012354359988,-9.713172767078504e-05,0.0914128422737121,0,0,0
590,20908.56807912727,2010-11-16 17:33:27,1230.6120315256155,7,2,-1.0997490882873535,3.702825784683228,1.959076583704764,1.371635560650106,7.832824315703734,5.082987657383989,-0.0001295089750783,0.0914128422737121,0,0,0
591,20938.58321038761,2010-11-16 17:33:57,1260.6271627809415,7,2,-1.0997490882873535,3.697645425796509,1.959076583704764,1.380804370032072,7.832824315703734,5.116915047053349,-0.0001618862152099,0.0914128422737121,0,0,0
592,20968.5986515866,2010-11-16 17:34:27,1290.6426039849473,7,2,-1.099568486213684,3.69246506690979,1.959076583704764,1.389973233300937,7.832824315703734,5.150795399362218,-0.0001618862152099,0.0914128422737121,0,0,0
593,20998.613946345056,2010-11-16 17:34:57,1320.6578987383891,7,2,-1.0997490882873535,3.687608480453491,1.959076583704764,1.399142093454943,7.832824315703734,5.184628869275151,-0.0001295089750783,0.0914128422737121,0,0,0
594,21028.62914031192,2010-11-16 17:35:27,1350.6730927052529,7,2,-1.099568486213684,3.682751893997192,1.959076583704764,1.408310870908237,7.832824315703734,5.218416217192583,-6.47544875391759e-05,0.0914128422737121,0,0,0
595,21058.644439982632,2010-11-16 17:35:57,1380.6883923759692,7,2,-1.0997490882873535,3.677409648895264,1.959076583704764,1.417479795775532,7.832824315703734,5.252158824601749,-0.0001618862152099,0.0914128422737121,0,0,0
596,21088.659757277343,2010-11-16 17:36:27,1410.7037096957406,7,2,-1.099568486213684,3.6728768348693848,1.959076583704764,1.426648609202226,7.832824315703734,5.285856025616898,-9.713172767078504e-05,0.0914128422737121,0,0,0
597,21118.67517689246,2010-11-16 17:36:57,1440.719129290807,7,2,-1.0997490882873535,3.668020486831665,1.959076583704764,1.435817472544157,7.832824315703734,5.319509529544042,-9.713172767078504e-05,0.0914128422737121,0,0,0
598,21148.69050756055,2010-11-16 17:37:27,1470.734459958897,7,2,-1.1001102924346924,3.663163900375366,1.959076583704764,1.444986356582268,7.832824315703734,5.353119568030125,-0.0001295089750783,0.0914128422737121,0,0,0
599,21178.705652264445,2010-11-16 17:37:57,1500.749604662793,7,2,-1.099568486213684,3.6586310863494873,1.959076583704764,1.45415518680922,7.832824315703734,5.386686647442836,-0.0001295089750783,0.0914128422737121,0,0,0
600,21208.72094837127,2010-11-16 17:38:27,1530.764900774626,7,2,-1.0997490882873535,3.654098272323608,1.959076583704764,1.463324026292978,7.832824315703734,5.420211423994144,-0.0001295089750783,0.0914128422737121,0,0,0
601,21238.736431545032,2010-11-16 17:38:57,1560.7803839383694,7,2,-1.099568486213684,3.64972734451294,1.959076583704764,1.47249303496185,7.832824315703734,5.453695432279575,-9.713172767078504e-05,0.0914128422737121,0,0,0
602,21268.751614168585,2010-11-16 17:39:27,1590.795566561918,7,2,-1.0997490882873535,3.6450326442718506,1.959076583704764,1.481661859670904,7.832824315703734,5.487137396959513,-0.0001295089750783,0.0914128422737121,0,0,0
603,21298.766922531,2010-11-16 17:39:57,1620.8108749443804,7,2,-1.099568486213684,3.6406617164611816,1.959076583704764,1.49083064228061,7.832824315703734,5.520538802311044,-0.0001295089750783,0.0914128422737121,0,0,0
604,21328.78228954481,2010-11-16 17:40:28,1650.8262420734836,7,2,-1.0997490882873535,3.636452674865722,1.959076583704764,1.499999542101145,7.832824315703734,5.553900940681971,-9.713172767078504e-05,0.0914128422737121,0,0,0
605,21358.797534012738,2010-11-16 17:40:58,1680.8414864060674,7,2,-1.0997490882873535,3.6324055194854736,1.959076583704764,1.509168355135979,7.832824315703734,5.587223867444569,-9.713172767078504e-05,0.0914128422737121,0,0,0
606,21388.812859668316,2010-11-16 17:41:28,1710.8568120616462,7,2,-1.099568486213684,3.6280345916748047,1.959076583704764,1.51833724432545,7.832824315703734,5.620508776495869,-0.0001295089750783,0.0914128422737121,0,0,0
607,21418.828127289027,2010-11-16 17:41:58,1740.872079682361,7,2,-1.0997490882873535,3.6241493225097656,1.959076583704764,1.527506059948175,7.832824315703734,5.653755896761072,-0.0001295089750783,0.0914128422737121,0,0,0
608,21448.84347861869,2010-11-16 17:42:28,1770.8874310972387,7,2,-1.0997490882873535,3.6201021671295166,1.959076583704764,1.536674948700117,7.832824315703734,5.686967043693307,-0.0001295089750783,0.0914128422737121,0,0,0
609,21478.858758229337,2010-11-16 17:42:58,1800.9027106226697,7,2,-1.0997490882873535,3.616378784179688,1.959076583704764,1.545843853609342,7.832824315703734,5.720142645528945,-9.713172767078504e-05,0.0914128422737121,0,0,0
610,21508.87408947888,2010-11-16 17:43:28,1830.9180418972744,7,2,-1.0997490882873535,3.612493515014648,1.959076583704764,1.555012751127766,7.832824315703734,5.753283153794135,-9.713172767078504e-05,0.0914128422737121,0,0,0
611,21538.889498783257,2010-11-16 17:43:58,1860.933451186616,7,2,-1.099568486213684,3.6090939044952393,1.959076583704764,1.564181686041025,7.832824315703734,5.786389695613254,-3.237724376958795e-05,0.0914128422737121,0,0,0
612,21568.90465223399,2010-11-16 17:44:28,1890.9486046373447,7,2,-1.0993878841400146,3.60537052154541,1.959076583704764,1.573350568285958,7.832824315703734,5.819462404384773,-6.47544875391759e-05,0.0914128422737121,0,0,0
613,21598.91995965405,2010-11-16 17:44:58,1920.96391204738,7,2,-1.0997490882873535,3.601809024810791,1.959076583704764,1.582519509063525,7.832824315703734,5.852502563236005,-9.713172767078504e-05,0.0914128422737121,0,0,0
614,21628.935615368504,2010-11-16 17:45:28,1950.9795677618365,7,2,-1.0997490882873535,3.598409414291382,1.959076583704764,1.591688550682863,7.832824315703734,5.88551142941624,-6.47544875391759e-05,0.0914128422737121,0,0,0
615,21658.95058231369,2010-11-16 17:45:58,1980.9945347070184,7,2,-1.099568486213684,3.5950098037719727,1.959076583704764,1.600857386109904,7.832824315703734,5.918488419744735,-6.47544875391759e-05,0.0914128422737121,0,0,0
616,21688.96588595932,2010-11-16 17:46:28,2011.0098383526567,7,2,-1.0997490882873535,3.5917723178863525,1.959076583704764,1.610026336975437,7.832824315703734,5.951435677621583,-6.47544875391759e-05,0.0914128422737121,0,0,0
617,21718.981235534608,2010-11-16 17:46:58,2041.0251879279435,7,2,-1.099568486213684,3.5885345935821533,1.959076583704764,1.619195317759251,7.832824315703734,5.984353598156367,-9.713172767078504e-05,0.0914128422737121,0,0,0
618,21748.996519756765,2010-11-16 17:47:28,2071.0404721500977,7,2,-1.0997490882873535,3.585458755493164,1.959076583704764,1.628364252759342,7.832824315703734,6.017242621276519,-6.47544875391759e-05,0.0914128422737121,0,0,0
619,21779.011797282204,2010-11-16 17:47:58,2101.055749675536,7,2,-1.0997490882873535,3.582382917404175,1.959076583704764,1.637533146235459,7.832824315703734,6.050103059919645,-9.713172767078504e-05,0.0914128422737121,0,0,0
620,21809.02710883257,2010-11-16 17:48:28,2131.071061225906,7,2,-1.099568486213684,3.579307079315185,1.959076583704764,1.646702072731926,7.832824315703734,6.082935247796561,-6.47544875391759e-05,0.0914128422737121,0,0,0
621,21839.04240825768,2010-11-16 17:48:58,2161.0863606510097,7,2,-1.099568486213684,3.5763931274414062,1.959076583704764,1.655871037612835,7.832824315703734,6.115739581246413,-3.237724376958795e-05,0.0914128422737121,0,0,0
622,21869.057724504768,2010-11-16 17:49:28,2191.101676898103,7,2,-1.099568486213684,3.573479175567627,1.959076583704764,1.665039963295821,7.832824315703734,6.148515625465719,0.0,0.0914128422737121,0,0,0
623,21899.073022436147,2010-11-16 17:49:58,2221.1169748294783,7,2,-1.0997490882873535,3.5700795650482178,1.959076583704764,1.674208903349423,7.832824315703734,6.181263467187707,-6.47544875391759e-05,0.0914128422737121,0,0,0
624,21929.088347149373,2010-11-16 17:50:28,2251.1322995677674,7,2,-1.0997490882873535,3.5671656131744385,1.959076583704764,1.683377763232614,7.832824315703734,6.213982694757677,-6.47544875391759e-05,0.0914128422737121,0,0,0
625,21959.103633516883,2010-11-16 17:50:58,2281.1475859102143,7,2,-1.099568486213684,3.5639278888702397,1.959076583704764,1.692546660146015,7.832824315703734,6.246674174640166,-9.713172767078504e-05,0.0914128422737121,0,0,0
626,21989.118944696325,2010-11-16 17:51:28,2311.162897089658,7,2,-1.0997490882873535,3.56085205078125,1.959076583704764,1.701715543262776,7.832824315703734,6.279337439067747,-9.713172767078504e-05,0.0914128422737121,0,0,0
627,22019.13436731393,2010-11-16 17:51:58,2341.178319707269,7,2,-1.0997490882873535,3.557614326477051,1.959076583704764,1.71088450744902,7.832824315703734,6.311972094266681,-6.47544875391759e-05,0.0914128422737121,0,0,0
628,22049.149554669293,2010-11-16 17:52:28,2371.193507062629,7,2,-1.099568486213684,3.554376602172852,1.959076583704764,1.720053376137592,7.832824315703734,6.344577202157953,-0.0001295089750783,0.0914128422737121,0,0,0
629,22079.164865999115,2010-11-16 17:52:58,2401.208818392449,7,2,-1.099929690361023,3.5509769916534424,1.959076583704764,1.729222299992927,7.832824315703734,6.377152547828845,-0.0001295089750783,0.0914128422737121,0,0,0
630,22109.18017438659,2010-11-16 17:53:28,2431.224126779924,7,2,-1.099929690361023,3.547739267349243,1.959076583704764,1.738391244691938,7.832824315703734,6.409697674638504,-9.713172767078504e-05,0.0914128422737121,0,0,0
631,22139.195618718404,2010-11-16 17:53:58,2461.239571141812,7,2,-1.0997490882873535,3.544339656829834,1.959076583704764,1.747560199058983,7.832824315703734,6.442212231817623,-0.0001295089750783,0.0914128422737121,0,0,0
632,22169.210711988915,2010-11-16 17:54:28,2491.254664382246,7,2,-1.0997490882873535,3.5412638187408447,1.959076583704764,1.756729124755524,7.832824315703734,6.474696517304195,-9.713172767078504e-05,0.0914128422737121,0,0,0
633,22199.22630049059,2010-11-16 17:54:58,2521.270252883929,7,2,-1.0997490882873535,3.5378642082214355,1.959076583704764,1.765898143364602,7.832824315703734,6.507150576743906,-6.47544875391759e-05,0.0914128422737121,0,0,0
634,22229.2413504129,2010-11-16 17:55:28,2551.285302811248,7,2,-1.0997490882873535,3.5343027114868164,1.959076583704764,1.775067086648799,7.832824315703734,6.539572613362547,-9.713172767078504e-05,0.0914128422737121,0,0,0
635,22259.25683771698,2010-11-16 17:55:58,2581.300790115326,7,2,-1.0997490882873535,3.5305793285369877,1.959076583704764,1.784236102470351,7.832824315703734,6.571961996222831,-9.713172767078504e-05,0.0914128422737121,0,0,0
636,22289.272025363065,2010-11-16 17:56:28,2611.3159777564,7,2,-1.0997490882873535,3.526855945587158,1.959076583704764,1.793404948333724,7.832824315703734,6.604316475565364,-9.713172767078504e-05,0.0914128422737121,0,0,0
637,22319.287521714727,2010-11-16 17:56:58,2641.331474148162,7,2,-1.099568486213684,3.522970676422119,1.959076583704764,1.802574002218313,7.832824315703734,6.636636442778507,-9.713172767078504e-05,0.0914128422737121,0,0,0
638,22349.30265942617,2010-11-16 17:57:28,2671.346611844566,7,2,-1.0997490882873535,3.51892352104187,1.959076583704764,1.81174290545702,7.832824315703734,6.668919277510284,-9.713172767078504e-05,0.0914128422737121,0,0,0
639,22379.31794360321,2010-11-16 17:57:58,2701.3618959965456,7,2,-1.0997490882873535,3.514552593231201,1.959076583704764,1.820911794672543,7.832824315703734,6.70116410266591,-0.0001295089750783,0.0914128422737121,0,0,0
640,22409.33349998472,2010-11-16 17:58:28,2731.3774524081264,7,2,-1.0997490882873535,3.5101819038391118,1.959076583704764,1.830080844839197,7.832824315703734,6.733369316757614,-0.0001295089750783,0.0914128422737121,0,0,0
641,22439.34866696923,2010-11-16 17:58:58,2761.392620345015,7,2,-1.0997490882873535,3.5051634311676025,1.959076583704764,1.839249770520758,7.832824315703734,6.765531503578552,-0.0001942634553415,0.0914128422737121,0,0,0
642,22469.363868700475,2010-11-16 17:59:28,2791.407821093808,7,2,-1.099929690361023,3.499821186065674,1.959076583704764,1.848418664775272,7.832824315703734,6.797647111836054,-0.0001942634553415,0.0914128422737121,0,0,0
643,22499.3791769877,2010-11-16 17:59:58,2821.423129381032,7,2,-1.0997490882873535,3.4939932823181152,1.959076583704764,1.85758760534712,7.832824315703734,6.829711355767482,-0.0001942634553415,0.0914128422737121,0,0,0
644,22529.394497951565,2010-11-16 18:00:28,2851.438450344899,7,2,-1.099929690361023,3.487355947494507,1.959076583704764,1.866756579186511,7.832824315703734,6.861718056013292,-0.0001942634553415,0.0914128422737121,0,0,0
645,22559.40979284536,2010-11-16 18:00:58,2881.4537452637546,7,2,-1.0997490882873535,3.4797472953796387,1.959076583704764,1.87592552859979,7.832824315703734,6.893659319663868,-0.0001942634553415,0.0914128422737121,0,0,0
646,22589.427876745944,2010-11-16 18:01:28,2911.4718292244875,7,2,-1.0997490882873535,3.470519781112671,1.959076583704764,1.885095336630973,7.832824315703734,6.925527009396238,-0.0002913951757363,0.0914128422737121,0,0,0
647,22619.44042791097,2010-11-16 18:01:58,2941.4843803042977,7,2,-1.0997490882873535,3.4601590633392334,1.959076583704764,1.894263429673478,7.832824315703734,6.957299788554571,-0.0003237724304199,0.0914128422737121,0,0,0
648,22649.45569423845,2010-11-16 18:02:28,2971.499646631785,7,2,-1.099929690361023,3.4473700523376465,1.959076583704764,1.903432321251603,7.832824315703734,6.988969654924904,-0.0003885269106831,0.0914128422737121,0,0,0
649,22679.471001803875,2010-11-16 18:02:58,3001.5149541972078,7,2,-1.0997490882873535,3.43215274810791,1.959076583704764,1.912601282986846,7.832824315703734,7.020512209522899,-0.0004856586456298,0.0914128422737121,0,0,0
650,22709.486321695065,2010-11-16 18:03:28,3031.5302740883976,7,2,-1.0997490882873535,3.413212299346924,1.959076583704764,1.921770285127318,7.832824315703734,7.051898756174595,-0.0005504131549969,0.0914128422737121,0,0,0
651,22739.50165500976,2010-11-16 18:03:58,3061.54560741312,7,2,-1.0997490882873535,3.38941502571106,1.959076583704764,1.930939237735699,7.832824315703734,7.083089507363862,-0.0006799221155233,0.0914128422737121,0,0,0
652,22769.516941477523,2010-11-16 18:04:28,3091.5608939009294,7,2,-1.099568486213684,3.358332872390747,1.959076583704764,1.940108201451611,7.832824315703734,7.114030486038058,-0.0009389400365762,0.0914128422737121,0,0,0
653,22799.532224897677,2010-11-16 18:04:58,3121.576177301032,7,2,-1.0997490882873535,3.317375898361206,1.959076583704764,1.949277233678952,7.832824315703734,7.144645303686816,-0.0012627125252038,0.0914128422737121,0,0,0
654,22829.54758126993,2010-11-16 18:05:28,3151.5915336632597,7,2,-1.099568486213684,3.2620110511779785,1.959076583704764,1.958446164145219,7.832824315703734,7.1748225488163,-0.0016836166614666,0.0914128422737121,0,0,0
655,22859.56284407863,2010-11-16 18:05:58,3181.606796481988,7,2,-1.0997490882873535,3.1841440200805664,1.959076583704764,1.967615117320724,7.832824315703734,7.20439667067183,-0.0024282454978674,0.0914128422737121,0,0,0
656,22889.578155784387,2010-11-16 18:06:28,3211.6221081777207,7,2,-1.0997490882873535,3.065805435180664,1.959076583704764,1.976784070857968,7.832824315703734,7.233091025325813,-0.003885269165039,0.0914128422737121,0,0,0
657,22916.20280762147,2010-11-16 18:06:55,3238.246760019819,7,2,-1.099929690361023,2.86555290222168,1.959076583704764,1.984917346907084,7.832824315703734,7.257315208819315,-0.0080618858337402,0.0914128422737121,0,0,0
658,22930.46829482723,2010-11-16 18:07:09,3252.512247220562,7,2,-1.0997490882873535,2.699781894683838,1.959076583704764,1.989275455303473,7.832824315703734,7.269449814841287,-0.0095836166292428,0.0914128422737121,0,0,0
659,22990.48416830821,2010-11-16 18:08:09,60.01522928039606,8,2,0.0,3.330164909362793,1.959076583704764,1.989275455303473,7.832824315703734,7.269449814841287,0.0013598442310467,0.0914128422737121,0,0,0
660,22990.672597454857,2010-11-16 18:08:10,0.187411783644559,9,2,-1.9243103452026844e-05,3.330164909362793,1.959076583704764,1.989275456305247,7.832824315703734,7.269449818177358,0.0,0.0929468795657157,0,0,0
661,22995.500692412657,2010-11-16 18:08:14,5.015506721393016,9,2,0.0003419754502829,3.338421106338501,1.959077152420728,1.989275456557226,7.832826212427654,7.269449819017849,0.0011332035064697,0.0929468795657157,0,0,0
