Data_Point,Test_Time(s),Date_Time,Step_Time(s),Step_Index,Cycle_Index,Current(A),Voltage(V),Charge_Capacity(Ah),Discharge_Capacity(Ah),Charge_Energy(Wh),Discharge_Energy(Wh),dV/dt(V/s),Internal_Resistance(Ohm),Is_FC_Data,AC_Impedance(Ohm),ACI_Phase_Angle(Deg)
13208,457784.3888577482,2010-11-21 18:55:28,30.01548730909077,1,41,0.0,3.344410896301269,39.29472038783432,39.32071551362446,156.81736805718867,143.4969603826425,0.0007770538213662,0.0931148082017898,0,0,0
13209,457814.4041046221,2010-11-21 18:55:58,60.03073418301838,1,41,0.0,3.367722272872925,39.29472038783432,39.32071551362446,156.81736805718867,143.4969603826425,0.0005504131549969,0.0931148082017898,0,0,0
13210,457844.4196865925,2010-11-21 18:56:28,90.0463161533983,1,41,0.0,3.3853678703308105,39.29472038783432,39.32071551362446,156.81736805718867,143.4969603826425,0.0004209041653666,0.0931148082017898,0,0,0
13211,457874.3880833062,2010-11-21 18:56:58,120.01471286711832,1,41,0.0,3.399128198623657,39.29472038783432,39.32071551362446,156.81736805718867,143.4969603826425,0.0002913951757363,0.0931148082017898,0,0,0
13212,457904.4141912012,2010-11-21 18:57:28,30.01548087302536,2,41,0.5499359965324402,3.56149959564209,39.299308015201575,39.32071551362446,156.83353212193177,143.4969603826425,0.0016836166614666,0.0931148082017898,0,0,0
13213,457934.4295397991,2010-11-21 18:57:58,60.03082947087152,2,41,0.5501165986061096,3.613464832305908,39.30389562188875,39.32071551362446,156.84999799057888,143.4969603826425,0.0011655807029455,0.0931148082017898,0,0,0
13214,457964.44482008135,2010-11-21 18:58:28,90.04610975319162,2,41,0.5501165986061096,3.651669979095459,39.30848321529919,39.32071551362446,156.86666717263574,143.4969603826425,0.0009065627818927,0.0931148082017898,0,0,0
13215,457994.46032479394,2010-11-21 18:58:58,120.06161446572403,2,41,0.5499359965324402,3.6817805767059326,39.313070798339005,39.32071551362446,156.88349191482462,143.4969603826425,0.0006799221155233,0.0931148082017898,0,0,0
13216,458024.4755694573,2010-11-21 18:59:28,150.07685912913388,2,41,0.550297200679779,3.706872940063477,39.31765830239507,39.32071551362446,156.90044191885806,143.4969603826425,0.0005827903514727,0.0931148082017898,0,0,0
13217,458054.4909619798,2010-11-21 18:59:58,180.09225165162272,2,41,0.5501165986061096,3.7277562618255615,39.32224581458378,39.32071551362446,156.91749636267008,143.4969603826425,0.0005180359003134,0.0931148082017898,0,0,0
13218,458084.5063347429,2010-11-21 19:00:29,210.10762441478923,2,41,0.5499359965324402,3.7445924282073975,39.32683338311945,39.32071551362446,156.9346375915666,143.4969603826425,0.0004209041653666,0.0931148082017898,0,0,0
13219,458114.52170427307,2010-11-21 19:00:59,240.1229939448855,2,41,0.5504778623580933,3.7575430870056152,39.33142092339158,39.32071551362446,156.95184727521485,143.4969603826425,0.0003237724304199,0.0931148082017898,0,0,0
13220,458144.5371191162,2010-11-21 19:01:29,270.1384087931028,2,41,0.5501165986061096,3.7651517391204834,39.33600854461398,39.32071551362446,156.9691041167202,143.4969603826425,0.0001618862152099,0.0931148082017898,0,0,0
13221,458174.5526007411,2010-11-21 19:01:59,300.15389041299244,2,41,0.550297200679779,3.770493984222412,39.34059610961639,39.32071551362446,156.98639007258873,143.4969603826425,0.0001295089750783,0.0931148082017898,0,0,0
13222,458204.567845575,2010-11-21 19:02:29,330.16913525184015,2,41,0.550297200679779,3.774541139602661,39.34518365387853,39.32071551362446,157.0036969633065,143.4969603826425,9.713172767078504e-05,0.0931148082017898,0,0,0
13223,458234.5837820202,2010-11-21 19:02:59,360.18507167699374,2,41,0.5504778623580933,3.7784264087677,39.34977134356499,39.32071551362446,157.02102272970708,143.4969603826425,6.47544875391759e-05,0.0931148082017898,0,0,0
13224,458264.59862616885,2010-11-21 19:03:29,390.1999158457071,2,41,0.550297200679779,3.782149791717529,39.35435885588528,39.32071551362446,157.0383648656255,143.4969603826425,9.713172767078504e-05,0.0931148082017898,0,0,0
13225,458294.6139967115,2010-11-21 19:03:59,420.2152863732933,2,41,0.550297200679779,3.7855494022369385,39.35894642260456,39.32071551362446,157.05572340720002,143.4969603826425,9.713172767078504e-05,0.0931148082017898,0,0,0
13226,458324.6297671824,2010-11-21 19:04:29,450.2310568792871,2,41,0.550297200679779,3.7887871265411377,39.36353404622554,39.32071551362446,157.07309776773943,143.4969603826425,3.237724376958795e-05,0.0931148082017898,0,0,0
13227,458354.6448103328,2010-11-21 19:04:59,480.24610000963946,2,41,0.550297200679779,3.792186737060547,39.36812160580758,39.32071551362446,157.0904870085134,143.4969603826425,9.713172767078504e-05,0.0931148082017898,0,0,0
13228,458384.6601088205,2010-11-21 19:05:29,510.2613984823656,2,41,0.5501165986061096,3.795262575149536,39.3727091241804,39.32071551362446,157.1078907403836,143.4969603826425,9.713172767078504e-05,0.0931148082017898,0,0,0
13229,458414.6777811388,2010-11-21 19:05:59,540.2790707955628,2,41,0.550297200679779,3.798338413238525,39.37729705516275,39.32071551362446,157.125310454513,143.4969603826425,9.713172767078504e-05,0.0931148082017898,0,0,0
13230,458444.69088374026,2010-11-21 19:06:29,570.292173412094,2,41,0.5501165986061096,3.801414251327514,39.38188428588746,39.32071551362446,157.14274156944543,143.4969603826425,6.47544875391759e-05,0.0931148082017898,0,0,0
13231,458474.70638222224,2010-11-21 19:06:59,600.307671894074,2,41,0.5501165986061096,3.804328203201294,39.386471898100105,39.32071551362446,157.1601878980785,143.4969603826425,6.47544875391759e-05,0.0931148082017898,0,0,0
13232,458504.7216244346,2010-11-21 19:07:29,630.3229141063655,2,41,0.5501165986061096,3.807404041290283,39.39105943586064,39.32071551362446,157.17764777651266,143.4969603826425,6.47544875391759e-05,0.0931148082017898,0,0,0
13233,458534.73701422015,2010-11-21 19:07:59,660.3383038920229,2,41,0.550297200679779,3.810479879379273,39.39564705682443,39.32071551362446,157.19512188303875,143.4969603826425,6.47544875391759e-05,0.0931148082017898,0,0,0
13234,458564.75243124383,2010-11-21 19:08:29,690.3537209156702,2,41,0.550297200679779,3.813717603683472,39.40023468649474,39.32071551362446,157.21261012010422,143.4969603826425,9.713172767078504e-05,0.0931148082017898,0,0,0
13235,458594.7677545134,2010-11-21 19:08:59,720.3690441903058,2,41,0.550297200679779,3.816793441772461,39.40482222181739,39.32071551362446,157.2301125548064,143.4969603826425,6.47544875391759e-05,0.0931148082017898,0,0,0
13236,458624.7831328656,2010-11-21 19:09:29,750.3844225374107,2,41,0.550297200679779,3.82019305229187,39.409409767593445,39.32071551362446,157.24762972010038,143.4969603826425,9.713172767078504e-05,0.0931148082017898,0,0,0
13237,458654.7985312176,2010-11-21 19:09:59,780.399820889451,2,41,0.5501165986061096,3.8232688903808594,39.41399736751059,39.32071551362446,157.2651622339611,143.4969603826425,6.47544875391759e-05,0.0931148082017898,0,0,0
13238,458684.81388652726,2010-11-21 19:10:29,810.4151762040632,2,41,0.550297200679779,3.826992273330689,39.41858494381749,39.32071551362446,157.28271017753434,143.4969603826425,0.0001295089750783,0.0931148082017898,0,0,0
13239,458714.8292694157,2010-11-21 19:10:59,840.4305590874915,2,41,0.5501165986061096,3.8303918838500977,39.423172492591945,39.32071551362446,157.30027372011244,143.4969603826425,9.713172767078504e-05,0.0931148082017898,0,0,0
13240,458744.8446638279,2010-11-21 19:11:29,870.4459534846596,2,41,0.550297200679779,3.833791255950928,39.427760013507445,39.32071551362446,157.31785304905583,143.4969603826425,0.0001294612884521,0.0931148082017898,0,0,0
13241,458774.8600811372,2010-11-21 19:11:59,900.4613708090579,2,41,0.550297200679779,3.837190866470337,39.432347580994936,39.32071551362446,157.33544844722337,143.4969603826425,9.713172767078504e-05,0.0931148082017898,0,0,0
13242,458804.8755250079,2010-11-21 19:12:29,930.4768146797196,2,41,0.550297200679779,3.840752363204956,39.43693513186461,39.32071551362446,157.3530595396983,143.4969603826425,9.713172767078504e-05,0.0931148082017898,0,0,0
13243,458834.8911431485,2010-11-21 19:12:59,960.4924328053488,2,41,0.5504778623580933,3.8439900875091553,39.44152275510897,39.32071551362446,157.37068659490257,143.4969603826425,9.713172767078504e-05,0.0931148082017898,0,0,0
13244,458864.90616229904,2010-11-21 19:13:29,990.5074519708812,2,41,0.5504778623580933,3.847389698028565,39.446110235609325,39.32071551362446,157.3883285147322,143.4969603826425,9.713172767078504e-05,0.0931148082017898,0,0,0
13245,458894.9215540947,2010-11-21 19:13:59,1020.5228437715684,2,41,0.550297200679779,3.8504655361175537,39.4506977775342,39.32071551362446,157.4059858631336,143.4969603826425,3.237724376958795e-05,0.0931148082017898,0,0,0
13246,458924.9369179406,2010-11-21 19:14:29,1050.5382076124636,2,41,0.550297200679779,3.853703260421753,39.45528539729316,39.32071551362446,157.42365838163542,143.4969603826425,6.47544875391759e-05,0.0931148082017898,0,0,0
13247,458954.95241932,2010-11-21 19:14:59,1080.553708996688,2,41,0.550297200679779,3.856940984725952,39.45987302220808,39.32071551362446,157.44134543220963,143.4969603826425,6.47544875391759e-05,0.0931148082017898,0,0,0
13248,458984.96795263374,2010-11-21 19:15:29,1110.5692423056012,2,41,0.550297200679779,3.859854936599731,39.46446053471819,39.32071551362446,157.4590460588491,143.4969603826425,6.47544875391759e-05,0.0931148082017898,0,0,0
13249,459014.9830621599,2010-11-21 19:15:59,1140.5843518316876,2,41,0.5504778623580933,3.8629307746887207,39.46904807821985,39.32071551362446,157.47676027679776,143.4969603826425,0.0001295089750783,0.0931148082017898,0,0,0
13250,459044.9847099033,2010-11-21 19:16:29,1170.5859995650685,2,41,0.550297200679779,3.86552095413208,39.473633559267874,39.32071551362446,157.49447941856715,143.4969603826425,6.47544875391759e-05,0.0931148082017898,0,0,0
13251,459074.9983407934,2010-11-21 19:16:59,1200.5996304502391,2,41,0.5501165986061096,3.8682730197906494,39.47822087059234,39.32071551362446,157.51221803804395,143.4969603826425,9.713172767078504e-05,0.0931148082017898,0,0,0
13252,459105.0135502089,2010-11-21 19:17:29,1230.6148398807022,2,41,0.5501165986061096,3.870701313018799,39.48280835272183,39.32071551362446,157.52996911388328,143.4969603826425,9.713172767078504e-05,0.0931148082017898,0,0,0
13253,459135.0289922299,2010-11-21 19:17:59,1260.630281901747,2,41,0.5501165986061096,3.873129606246948,39.487395876629535,39.32071551362446,157.54773157355157,143.4969603826425,9.713172767078504e-05,0.0931148082017898,0,0,0
13254,459165.044328903,2010-11-21 19:18:29,1290.6456185748273,2,41,0.5499359965324402,3.8752341270446777,39.49198348386612,39.32071551362446,157.5655048282297,143.4969603826425,3.237724376958795e-05,0.0931148082017898,0,0,0
13255,459195.0599136102,2010-11-21 19:18:59,1320.6612032720136,2,41,0.550297200679779,3.8773386478424072,39.49657105538493,39.32071551362446,157.5832877678831,143.4969603826425,6.47544875391759e-05,0.0931148082017898,0,0,0
13256,459225.0751946244,2010-11-21 19:19:29,1350.6764842961854,2,41,0.5504778623580933,3.8794431686401367,39.50115863454795,39.32071551362446,157.60108002108046,143.4969603826425,6.47544875391759e-05,0.0931148082017898,0,0,0
13257,459255.0904453629,2010-11-21 19:19:59,1380.69173503476,2,41,0.5501165986061096,3.8812239170074463,39.50574619476014,39.32071551362446,157.61888081173782,143.4969603826425,6.47544875391759e-05,0.0931148082017898,0,0,0
13258,459285.10584037664,2010-11-21 19:20:29,1410.707130048467,2,41,0.5501165986061096,3.882680892944336,39.510333809928206,39.32071551362446,157.63668999481126,143.4969603826425,0.0,0.0931148082017898,0,0,0
13259,459315.12119950575,2010-11-21 19:20:59,1440.722489177601,2,41,0.5501165986061096,3.8844616413116455,39.51492140077523,39.32071551362446,157.6545067931827,143.4969603826425,3.237724376958795e-05,0.0931148082017898,0,0,0
13260,459345.13675140607,2010-11-21 19:21:29,1470.7380410779217,2,41,0.5501165986061096,3.885918617248535,39.51950901717479,39.32071551362446,157.67233090844869,143.4969603826425,3.237724376958795e-05,0.0931148082017898,0,0,0
13261,459375.1519586311,2010-11-21 19:21:59,1500.753248302879,2,41,0.5501165986061096,3.8876993656158447,39.52409656988897,39.32071551362446,157.6901618409499,143.4969603826425,3.237724376958795e-05,0.0931148082017898,0,0,0
13262,459405.1702843502,2010-11-21 19:22:29,1530.7715741072907,2,41,0.550297200679779,3.888994455337525,39.528684577995605,39.32071551362446,157.70800134541506,143.4969603826425,3.237724376958795e-05,0.0931148082017898,0,0,0
13263,459435.18277301424,2010-11-21 19:22:59,1560.7840627713022,2,41,0.550297200679779,3.890451431274414,39.53327175431282,39.32071551362446,157.72584417256584,143.4969603826425,3.237724376958795e-05,0.0931148082017898,0,0,0
13264,459465.19809107087,2010-11-21 19:23:29,1590.7993807477123,2,41,0.550297200679779,3.891908407211304,39.53785930939694,39.32071551362446,157.7436948904418,143.4969603826425,6.47544875391759e-05,0.0931148082017898,0,0,0
13265,459495.2136003548,2010-11-21 19:23:59,1620.8148900266433,2,41,0.5501165986061096,3.893203496932984,39.54244690922583,39.32071551362446,157.76155213463767,143.4969603826425,3.237724376958795e-05,0.0931148082017898,0,0,0
13266,459525.2288747825,2010-11-21 19:24:29,1650.8301644543496,2,41,0.550297200679779,3.894498586654663,39.54703448283448,39.32071551362446,157.77941557211906,143.4969603826425,3.237724376958795e-05,0.0931148082017898,0,0,0
13267,459555.2442801521,2010-11-21 19:24:59,1680.8455698239063,2,41,0.550297200679779,3.895793676376343,39.55162213860788,39.32071551362446,157.7972850996904,143.4969603826425,3.237724376958795e-05,0.0931148082017898,0,0,0
13268,459585.2596118828,2010-11-21 19:25:29,1710.86090155465,2,41,0.550297200679779,3.897250652313232,39.556209665636224,39.32071551362446,157.81516038918144,143.4969603826425,3.237724376958795e-05,0.0931148082017898,0,0,0
13269,459615.2749835132,2010-11-21 19:25:59,1740.8762731849886,2,41,0.550297200679779,3.898707628250122,39.560797196960685,39.32071551362446,157.83304188124694,143.4969603826425,9.713172767078504e-05,0.0931148082017898,0,0,0
13270,459645.29226374265,2010-11-21 19:26:29,1770.8935533944343,2,41,0.5501165986061096,3.899840831756592,39.56538505306239,39.32071551362446,157.8509308419393,143.4969603826425,3.237724376958795e-05,0.0931148082017898,0,0,0
13271,459675.305741285,2010-11-21 19:26:59,1800.9070309568883,2,41,0.5501165986061096,3.901135921478272,39.56997232310558,39.32071551362446,157.8688236124294,143.4969603826425,3.237724376958795e-05,0.0931148082017898,0,0,0
13272,459705.3213721977,2010-11-21 19:27:29,1830.9226618744483,2,41,0.550297200679779,3.902592897415161,39.57455986433473,39.32071551362446,157.88672362060697,143.4969603826425,3.237724376958795e-05,0.0931148082017898,0,0,0
13273,459735.33662955766,2010-11-21 19:27:59,1860.9379192145009,2,41,0.550297200679779,3.903887987136841,39.57914745099016,39.32071551362446,157.90463002953976,143.4969603826425,3.237724376958795e-05,0.0931148082017898,0,0,0
13274,459765.35206993466,2010-11-21 19:28:29,1890.9533595914413,2,41,0.550297200679779,3.9053449630737305,39.583735030719886,39.32071551362446,157.9225426799918,143.4969603826425,3.237724376958795e-05,0.0931148082017898,0,0,0
13275,459795.3672651697,2010-11-21 19:28:59,1920.9685548465209,2,41,0.5501165986061096,3.90664005279541,39.5883226013115,39.32071551362446,157.9404614711304,143.4969603826425,6.47544875391759e-05,0.0931148082017898,0,0,0
13276,459825.3826495468,2010-11-21 19:29:29,1950.983939218665,2,41,0.5501165986061096,3.90793514251709,39.59291006309233,39.32071551362446,157.95838621322974,143.4969603826425,0.0,0.0931148082017898,0,0,0
13277,459855.3980567911,2010-11-21 19:29:59,1980.9993464629017,2,41,0.550297200679779,3.9095540046691895,39.59749763032077,39.32071551362446,157.976317692903,143.4969603826425,3.237724376958795e-05,0.0931148082017898,0,0,0
13278,459885.413535248,2010-11-21 19:30:29,2011.0148249048584,2,41,0.5501165986061096,3.910687208175659,39.60208520899032,39.32071551362446,157.99425557066144,143.4969603826425,0.0,0.0931148082017898,0,0,0
13279,459915.4288826579,2010-11-21 19:30:59,2041.0301723448144,2,41,0.550297200679779,3.912144184112549,39.60667277064446,39.32071551362446,158.01219976548543,143.4969603826425,3.237724376958795e-05,0.0931148082017898,0,0,0
13280,459945.4442527294,2010-11-21 19:31:29,2071.045542386187,2,41,0.550297200679779,3.913762807846069,39.611260477744,39.32071551362446,158.03015104367717,143.4969603826425,6.470680091297254e-05,0.0931148082017898,0,0,0
13281,459975.45968089584,2010-11-21 19:31:59,2101.0609705676866,2,41,0.550297200679779,3.915057897567749,39.61584821759224,39.32071551362446,158.04810902581954,143.4969603826425,3.237724376958795e-05,0.0931148082017898,0,0,0
13282,460005.4748900957,2010-11-21 19:32:29,2131.0761797675736,2,41,0.550297200679779,3.9163529872894287,39.620435833939766,39.32071551362446,158.06607296161246,143.4969603826425,0.0,0.0931148082017898,0,0,0
13283,460035.49038762535,2010-11-21 19:33:00,2161.091677282139,2,41,0.550297200679779,3.9178099632263184,39.62502345858811,39.32071551362446,158.08404362441658,143.4969603826425,0.0,0.0931148082017898,0,0,0
13284,460065.50562801305,2010-11-21 19:33:30,2191.106917669876,2,41,0.5501165986061096,3.919428825378418,39.62961096811357,39.32071551362446,158.1020204656038,143.4969603826425,3.237724376958795e-05,0.0931148082017898,0,0,0
13285,460095.52100938273,2010-11-21 19:34:00,2221.122299054563,2,41,0.5501165986061096,3.9207239151000977,39.6341986365933,39.32071551362446,158.1200046580142,143.4969603826425,3.237724376958795e-05,0.0931148082017898,0,0,0
13286,460125.5364036295,2010-11-21 19:34:30,2251.1376932863186,2,41,0.5501165986061096,3.922342777252197,39.63878624147711,39.32071551362446,158.137995256726,143.4969603826425,6.47544875391759e-05,0.0931148082017898,0,0,0
13287,460155.55177488894,2010-11-21 19:35:00,2281.1530645457315,2,41,0.5501165986061096,3.923799753189087,39.64337382726618,39.32071551362446,158.1559925268681,143.4969603826425,6.47544875391759e-05,0.0931148082017898,0,0,0
13288,460185.5671761282,2010-11-21 19:35:30,2311.1684657849787,2,41,0.5501165986061096,3.925256729125977,39.64796144492808,39.32071551362446,158.17399676014588,143.4969603826425,3.237724376958795e-05,0.0931148082017898,0,0,0
13289,460215.58252100175,2010-11-21 19:36:00,2341.1838106785785,2,41,0.550297200679779,3.926713705062866,39.65254909195382,39.32071551362446,158.192007892692,143.4969603826425,6.47544875391759e-05,0.0931148082017898,0,0,0
13290,460245.59981482016,2010-11-21 19:36:30,2371.2011045771947,2,41,0.5501165986061096,3.928170680999756,39.65713701358672,39.32071551362446,158.21002703499667,143.4969603826425,3.237724376958795e-05,0.0931148082017898,0,0,0
13291,460275.6132817461,2010-11-21 19:37:00,2401.214571417885,2,41,0.550297200679779,3.929789543151856,39.66172436033775,39.32071551362446,158.22805085081492,143.4969603826425,3.237724376958795e-05,0.0931148082017898,0,0,0
13292,460305.6286591208,2010-11-21 19:37:30,2431.229948777526,2,41,0.5504778623580933,3.931246519088745,39.66631197140514,39.32071551362446,158.24608272083705,143.4969603826425,3.237724376958795e-05,0.0931148082017898,0,0,0
13293,460335.6440331019,2010-11-21 19:38:00,2461.2453227587325,2,41,0.550297200679779,3.9328653812408447,39.67089962407356,39.32071551362446,158.264121733112,143.4969603826425,3.237724376958795e-05,0.0931148082017898,0,0,0
13294,460365.65943475225,2010-11-21 19:38:30,2491.260724409005,2,41,0.550297200679779,3.934484243392944,39.67548737141286,39.32071551362446,158.2821681970817,143.4969603826425,3.237724376958795e-05,0.0931148082017898,0,0,0
13295,460395.6748324526,2010-11-21 19:39:00,2521.2761221094192,2,41,0.5501165986061096,3.935779333114624,39.68007511880203,39.32071551362446,158.30022179054453,143.4969603826425,0.0,0.0931148082017898,0,0,0
13296,460425.6901765843,2010-11-21 19:39:30,2551.2914662561548,2,41,0.550297200679779,3.9375600814819336,39.68466287115088,39.32071551362446,158.3182824055279,143.4969603826425,6.47544875391759e-05,0.0931148082017898,0,0,0
13297,460455.70554677607,2010-11-21 19:40:00,2581.306836437878,2,41,0.550297200679779,3.9390170574188232,39.68925049760432,39.32071551362446,158.33634976689876,143.4969603826425,6.47544875391759e-05,0.0931148082017898,0,0,0
13298,460485.720939479,2010-11-21 19:40:30,2611.3222291508414,2,41,0.5501165986061096,3.940635919570923,39.69383819876112,39.32071551362446,158.3544247158177,143.4969603826425,6.47544875391759e-05,0.0931148082017898,0,0,0
13299,460515.73630242766,2010-11-21 19:41:00,2641.33759209951,2,41,0.5501165986061096,3.9422547817230233,39.698425901581054,39.32071551362446,158.37250693671027,143.4969603826425,3.237724376958795e-05,0.0931148082017898,0,0,0
13300,460545.75175327575,2010-11-21 19:41:30,2671.353042952601,2,41,0.550297200679779,3.943873643875122,39.70301357626889,39.32071551362446,158.3905964875029,143.4969603826425,6.47544875391759e-05,0.0931148082017898,0,0,0
13301,460575.767063568,2010-11-21 19:42:00,2701.3683532247805,2,41,0.5501165986061096,3.9454925060272217,39.70760121528872,39.32071551362446,158.40869328897767,143.4969603826425,6.47544875391759e-05,0.0931148082017898,0,0,0
13302,460605.7824820754,2010-11-21 19:42:30,2731.383771747169,2,41,0.5504778623580933,3.9472732543945312,39.7121889664971,39.32071551362446,158.42679801950376,143.4969603826425,9.713172767078504e-05,0.0931148082017898,0,0,0
13303,460635.7978236456,2010-11-21 19:43:00,2761.399113317473,2,41,0.5504778623580933,3.948892116546631,39.716776591376096,39.32071551362446,158.44490974906344,143.4969603826425,6.47544875391759e-05,0.0931148082017898,0,0,0
13304,460665.8131989903,2010-11-21 19:43:30,2791.414488667096,2,41,0.5501165986061096,3.950349092483521,39.721364269143805,39.32071551362446,158.46302924663777,143.4969603826425,0.0,0.0931148082017898,0,0,0
13305,460695.8287060586,2010-11-21 19:44:00,2821.429995730497,2,41,0.550297200679779,3.95212984085083,39.72595197743812,39.32071551362446,158.48115654815305,143.4969603826425,3.237724376958795e-05,0.0931148082017898,0,0,0
13306,460725.8440975335,2010-11-21 19:44:30,2851.4453871903324,2,41,0.550297200679779,3.9537487030029297,39.73053961797373,39.32071551362446,158.49929134000388,143.4969603826425,3.237724376958795e-05,0.0931148082017898,0,0,0
13307,460755.85947236186,2010-11-21 19:45:00,2881.460762018654,2,41,0.550297200679779,3.9555294513702393,39.73512733950238,39.32071551362446,158.51743427389613,143.4969603826425,3.237724376958795e-05,0.0931148082017898,0,0,0
13308,460785.8746933512,2010-11-21 19:45:30,2911.4759830230078,2,41,0.550297200679779,3.957148313522339,39.7397149974031,39.32071551362446,158.53558473261623,143.4969603826425,3.237724376958795e-05,0.0931148082017898,0,0,0
13309,460815.8901570263,2010-11-21 19:46:00,2941.491446698104,2,41,0.5501165986061096,3.958929061889648,39.74430265105472,39.32071551362446,158.55374298461825,143.4969603826425,3.237724376958795e-05,0.0931148082017898,0,0,0
13310,460845.9073694064,2010-11-21 19:46:30,2971.508659058188,2,41,0.5501165986061096,3.960709810256958,39.74889061111711,39.32071551362446,158.57191044655983,143.4969603826425,6.47544875391759e-05,0.0931148082017898,0,0,0
13311,460875.9209175951,2010-11-21 19:47:00,3001.5222072669853,2,41,0.5501165986061096,3.962490558624268,39.75347807020934,39.32071551362446,158.59008401956368,143.4969603826425,3.237724376958795e-05,0.0931148082017898,0,0,0
13312,460905.9363846637,2010-11-21 19:47:30,3031.537674320515,2,41,0.5501165986061096,3.964109420776367,39.75806571957532,39.32071551362446,158.60826642970605,143.4969603826425,0.0,0.0931148082017898,0,0,0
13313,460935.9520006239,2010-11-21 19:48:00,3061.5532902807395,2,41,0.550297200679779,3.966052055358887,39.76265339298613,39.32071551362446,158.62645711745324,143.4969603826425,6.47544875391759e-05,0.0931148082017898,0,0,0
13314,460965.9521636763,2010-11-21 19:48:30,3091.55345333814,2,41,0.550297200679779,3.967832803726196,39.76723872635433,39.32071551362446,158.64464681668093,143.4969603826425,9.713172767078504e-05,0.0931148082017898,0,0,0
13315,460995.9525997402,2010-11-21 19:49:00,3121.5538895172954,2,41,0.550297200679779,3.969775438308716,39.77182414040509,39.32071551362446,158.66284518989215,143.4969603826425,6.47544875391759e-05,0.0931148082017898,0,0,0
13316,461025.9665412658,2010-11-21 19:49:30,3151.5678309426225,2,41,0.5504778623580933,3.9717180728912354,39.77641161432364,39.32071551362446,158.68106015615237,143.4969603826425,9.713172767078504e-05,0.0931148082017898,0,0,0
13317,461055.9819009312,2010-11-21 19:50:00,3181.5831906030826,2,41,0.5501165986061096,3.973336935043335,39.78099928476153,39.32071551362446,158.6992844934558,143.4969603826425,6.47544875391759e-05,0.0931148082017898,0,0,0
13318,461085.99727421073,2010-11-21 19:50:30,3211.5985638825377,2,41,0.5501165986061096,3.975117683410645,39.78558699069491,39.32071551362446,158.71751765449707,143.4969603826425,3.237724376958795e-05,0.0931148082017898,0,0,0
13319,461116.0128427776,2010-11-21 19:51:00,3241.6141324344226,2,41,0.5501165986061096,3.977222204208374,39.790174711463685,39.32071551362446,158.73575960113635,143.4969603826425,6.47544875391759e-05,0.0931148082017898,0,0,0
13320,461146.02804237854,2010-11-21 19:51:30,3271.629332050388,2,41,0.5501165986061096,3.9791648387908936,39.79476231043525,39.32071551362446,158.7540095415451,143.4969603826425,6.47544875391759e-05,0.0931148082017898,0,0,0
13321,461176.04379531066,2010-11-21 19:52:00,3301.645084967476,2,41,0.5501165986061096,3.981107473373413,39.799350037610175,39.32071551362446,158.7722693945686,143.4969603826425,6.47544875391759e-05,0.0931148082017898,0,0,0
13322,461206.0587836091,2010-11-21 19:52:30,3331.660073280997,2,41,0.5501165986061096,3.9830501079559326,39.80393759160564,39.32071551362446,158.79053756299925,143.4969603826425,6.47544875391759e-05,0.0931148082017898,0,0,0
13323,461236.07416776073,2010-11-21 19:53:00,3361.675457432591,2,41,0.550297200679779,3.984992742538452,39.80852519038433,39.32071551362446,158.8088150797888,143.4969603826425,3.237724376958795e-05,0.0931148082017898,0,0,0
13324,461266.0895569599,2010-11-21 19:53:30,3391.690846631785,2,41,0.5501165986061096,3.9870972633361816,39.81311277133727,39.32071551362446,158.82710181383595,143.4969603826425,3.237724376958795e-05,0.0931148082017898,0,0,0
13325,461296.1049234625,2010-11-21 19:54:00,3421.706213134324,2,41,0.550297200679779,3.989363670349121,39.81770037140942,39.32071551362446,158.8453979995149,143.4969603826425,3.237724376958795e-05,0.0931148082017898,0,0,0
13326,461326.1203882203,2010-11-21 19:54:30,3451.721677892123,2,41,0.550297200679779,3.991144418716431,39.82228797470744,39.32071551362446,158.86370374485136,143.4969603826425,0.0,0.0931148082017898,0,0,0
13327,461356.1356901717,2010-11-21 19:55:00,3481.7369798435325,2,41,0.5499359965324402,3.99324893951416,39.82687553193675,39.32071551362446,158.88201893625546,143.4969603826425,3.237724376958795e-05,0.0931148082017898,0,0,0
13328,461386.1513163574,2010-11-21 19:55:30,3511.7526060292807,2,41,0.550297200679779,3.995515108108521,39.83146314851296,39.32071551362446,158.90034404566882,143.4969603826425,6.47544875391759e-05,0.0931148082017898,0,0,0
13329,461416.1522924193,2010-11-21 19:56:00,3541.7535820910657,2,41,0.550297200679779,3.99761962890625,39.83604851944588,39.32071551362446,158.91866998212754,143.4969603826425,6.47544875391759e-05,0.0931148082017898,0,0,0
13330,461446.1662498696,2010-11-21 19:56:30,3571.7675396266063,2,41,0.5501165986061096,3.9995622634887695,39.84063598835411,39.32071551362446,158.93701416185857,143.4969603826425,3.237724376958795e-05,0.0931148082017898,0,0,0
13331,461476.1816234097,2010-11-21 19:57:00,3601.7829130815,2,41,0.550297200679779,4.002152442932129,39.84522361690152,39.32071551362446,158.9553689514466,143.4969603826425,6.47544875391759e-05,0.0931148082017898,0,0,0
13332,461506.1969619775,2010-11-21 19:57:30,3631.79825164931,2,41,0.550297200679779,4.0042572021484375,39.84981119784676,39.32071551362446,158.97373358981022,143.4969603826425,6.47544875391759e-05,0.0931148082017898,0,0,0
13333,461536.2146369624,2010-11-21 19:58:00,3661.815926634176,2,41,0.550297200679779,4.006361484527588,39.85439906686321,39.32071551362446,158.99210953987873,143.4969603826425,3.23295607813634e-05,0.0931148082017898,0,0,0
13334,461566.2277098998,2010-11-21 19:58:30,3691.828999576636,2,41,0.5501165986061096,4.008627891540527,39.85898632176568,39.32071551362446,159.01049329606386,143.4969603826425,3.23295607813634e-05,0.0931148082017898,0,0,0
13335,461596.2430839161,2010-11-21 19:59:00,3721.8443735879177,2,41,0.5501165986061096,4.011056423187256,39.863573929350686,39.32071551362446,159.02888875932263,143.4969603826425,6.47544875391759e-05,0.0931148082017898,0,0,0
13336,461626.2584696316,2010-11-21 19:59:30,3751.859759303415,2,41,0.550297200679779,4.013160705566406,39.86816153563559,39.32071551362446,159.04729462489144,143.4969603826425,6.47544875391759e-05,0.0931148082017898,0,0,0
13337,461656.27385814406,2010-11-21 20:00:00,3781.8751478158943,2,41,0.550297200679779,4.015750885009766,39.87274916396795,39.32071551362446,159.06571117171617,143.4969603826425,0.0001295089750783,0.0931148082017898,0,0,0
13338,461686.2892721802,2010-11-21 20:00:30,3811.890561852085,2,41,0.5501165986061096,4.017855644226074,39.877336800873074,39.32071551362446,159.08413850391057,143.4969603826425,6.47544875391759e-05,0.0931148082017898,0,0,0
13339,461716.304716467,2010-11-21 20:01:00,3841.906006138785,2,41,0.5501165986061096,4.0202836990356445,39.88192441615518,39.32071551362446,159.10257646987557,143.4969603826425,3.23295607813634e-05,0.0931148082017898,0,0,0
13340,461746.32011109975,2010-11-21 20:01:30,3871.921400756504,2,41,0.550297200679779,4.022712230682373,39.88651203302662,39.32071551362446,159.12102529185927,143.4969603826425,6.47544875391759e-05,0.0931148082017898,0,0,0
13341,461776.33537051495,2010-11-21 20:02:00,3901.936660186775,2,41,0.550297200679779,4.0249786376953125,39.89109970198757,39.32071551362446,159.13948529753134,143.4969603826425,6.47544875391759e-05,0.0931148082017898,0,0,0
13342,461806.3507339399,2010-11-21 20:02:30,3931.952023611632,2,41,0.550297200679779,4.027406692504883,39.89568723656589,39.32071551362446,159.1579557884175,143.4969603826425,6.47544875391759e-05,0.0931148082017898,0,0,0
13343,461836.3661249385,2010-11-21 20:03:00,3961.967414610316,2,41,0.5501165986061096,4.029996871948242,39.90027485547549,39.32071551362446,159.17643782466016,143.4969603826425,9.70840483205393e-05,0.0931148082017898,0,0,0
13344,461866.3814996616,2010-11-21 20:03:30,3991.9827893333754,2,41,0.550297200679779,4.032425403594971,39.90486242255897,39.32071551362446,159.1949308500225,143.4969603826425,9.71794142969884e-05,0.0931148082017898,0,0,0
13345,461896.3969378279,2010-11-21 20:04:00,4021.998227499797,2,41,0.550297200679779,4.034853458404541,39.90945001736874,39.32071551362446,159.21343539737592,143.4969603826425,6.47544875391759e-05,0.0931148082017898,0,0,0
13346,461926.4122562104,2010-11-21 20:04:30,4052.0135458872337,2,41,0.5504778623580933,4.037281513214111,39.914037667506165,39.32071551362446,159.23195163258697,143.4969603826425,3.23295607813634e-05,0.0931148082017898,0,0,0
13347,461956.4277615245,2010-11-21 20:05:00,4082.0290511962553,2,41,0.550297200679779,4.039871692657471,39.918625289924826,39.32071551362446,159.2504793508395,143.4969603826425,6.47544875391759e-05,0.0931148082017898,0,0,0
13348,461986.4430110149,2010-11-21 20:05:30,4112.044300686714,2,41,0.550297200679779,4.04246187210083,39.92321288429409,39.32071551362446,159.2690184973427,143.4969603826425,9.70840483205393e-05,0.0931148082017898,0,0,0
13349,462016.4583945349,2010-11-21 20:06:00,4142.059684206732,2,41,0.550297200679779,4.0450520515441895,39.92780052176039,39.32071551362446,159.287569631576,143.4969603826425,6.47544875391759e-05,0.0931148082017898,0,0,0
13350,462046.4737631728,2010-11-21 20:06:31,4172.075052844601,2,41,0.550297200679779,4.047642230987549,39.9323881249089,39.32071551362446,159.30613249623627,143.4969603826425,6.47544875391759e-05,0.0931148082017898,0,0,0
13351,462076.4892615946,2010-11-21 20:07:01,4202.090551256405,2,41,0.5499359965324402,4.050232410430908,39.93697581222963,39.32071551362446,159.32470782665243,143.4969603826425,6.47544875391759e-05,0.0931148082017898,0,0,0
13352,462106.504627235,2010-11-21 20:07:31,4232.105916906818,2,41,0.5499359965324402,4.052822589874268,39.941563412526015,39.32071551362446,159.3432948396302,143.4969603826425,3.23295607813634e-05,0.0931148082017898,0,0,0
13353,462136.52180401125,2010-11-21 20:08:01,4262.12309366804,2,41,0.550297200679779,4.055736541748047,39.94615132925516,39.32071551362446,159.36189546364878,143.4969603826425,0.0001295089750783,0.0931148082017898,0,0,0
13354,462166.5352762856,2010-11-21 20:08:31,4292.136565957332,2,41,0.5501165986061096,4.058326721191406,39.95073865282066,39.32071551362446,159.38050607109736,143.4969603826425,6.47544875391759e-05,0.0931148082017898,0,0,0
13355,462196.5507764266,2010-11-21 20:09:01,4322.152066088429,2,41,0.550297200679779,4.060755252838135,39.955326343738456,39.32071551362446,159.3991305819,143.4969603826425,3.24249267578125e-05,0.0931148082017898,0,0,0
13356,462226.56603316014,2010-11-21 20:09:31,4352.167322837005,2,41,0.550297200679779,4.063669204711914,39.95991394500168,39.32071551362446,159.41776695320516,143.4969603826425,9.71794142969884e-05,0.0931148082017898,0,0,0
13357,462256.58144065,2010-11-21 20:10:01,4382.182730321842,2,41,0.550297200679779,4.066583156585693,39.964501588708174,39.32071551362446,159.43641617680578,143.4969603826425,9.71794142969884e-05,0.0931148082017898,0,0,0
13358,462286.5968074733,2010-11-21 20:10:31,4412.198097130144,2,41,0.550297200679779,4.069334983825684,39.96908919261266,39.32071551362446,159.45507801759928,143.4969603826425,9.70840483205393e-05,0.0931148082017898,0,0,0
13359,462316.61222555966,2010-11-21 20:11:01,4442.213515231481,2,41,0.5501165986061096,4.072087287902832,39.97367682458422,39.32071551362446,159.47375277047948,143.4969603826425,6.47544875391759e-05,0.0931148082017898,0,0,0
13360,462346.6275491901,2010-11-21 20:11:31,4472.228838862005,2,41,0.550297200679779,4.075001239776611,39.97826442224935,39.32071551362446,159.49244026454988,143.4969603826425,9.71794142969884e-05,0.0931148082017898,0,0,0
13361,462376.6431468848,2010-11-21 20:12:01,4502.244436556635,2,41,0.550297200679779,4.077915191650391,39.98285209839539,39.32071551362446,159.51114118245377,143.4969603826425,9.71794142969884e-05,0.0931148082017898,0,0,0
13362,462406.65830195457,2010-11-21 20:12:31,4532.259591626405,2,41,0.550297200679779,4.08082914352417,39.98743968947751,39.32071551362446,159.52985502701426,143.4969603826425,9.71794142969884e-05,0.0931148082017898,0,0,0
13363,462436.6736759006,2010-11-21 20:13:01,4562.274965572525,2,41,0.5501165986061096,4.08358097076416,39.99202726022052,39.32071551362446,159.54858211382438,143.4969603826425,6.47544875391759e-05,0.0931148082017898,0,0,0
13364,462466.68905694457,2010-11-21 20:13:31,4592.290346616362,2,41,0.550297200679779,4.08649492263794,39.99661488924943,39.32071551362446,159.5673229767576,143.4969603826425,6.47544875391759e-05,0.0931148082017898,0,0,0
13365,462496.704706268,2010-11-21 20:14:01,4622.305995924828,2,41,0.550297200679779,4.089570999145508,40.00120249766136,39.32071551362446,159.58607727120625,143.4969603826425,0.0001295089750783,0.0931148082017898,0,0,0
13366,462526.7198925908,2010-11-21 20:14:31,4652.321182262648,2,41,0.550297200679779,4.092484951019287,40.005790074126566,39.32071551362446,159.6048451590925,143.4969603826425,6.47544875391759e-05,0.0931148082017898,0,0,0
13367,462556.7351931287,2010-11-21 20:15:01,4682.33648280053,2,41,0.5501165986061096,4.095398902893066,40.01037765778365,39.32071551362446,159.62362688055674,143.4969603826425,3.24249267578125e-05,0.0931148082017898,0,0,0
13368,462586.7506343728,2010-11-21 20:15:31,4712.35192411481,2,41,0.5501165986061096,4.098636627197266,40.01496528652507,39.32071551362446,159.6424226999218,143.4969603826425,6.47544875391759e-05,0.0931148082017898,0,0,0
13369,462616.7659649256,2010-11-21 20:16:01,4742.367254597438,2,41,0.550297200679779,4.101712226867676,40.01955296111991,39.32071551362446,159.66123259559384,143.4969603826425,9.70840483205393e-05,0.0931148082017898,0,0,0
13370,462646.7813993276,2010-11-21 20:16:31,4772.382688999463,2,41,0.550297200679779,4.104788303375244,40.02414059407838,39.32071551362446,159.68005638930066,143.4969603826425,0.0001295089750783,0.0931148082017898,0,0,0
13371,462676.7967038003,2010-11-21 20:17:01,4802.397993472167,2,41,0.550297200679779,4.107863903045654,40.02872820467366,39.32071551362446,159.6988943750061,143.4969603826425,9.70840483205393e-05,0.0931148082017898,0,0,0
13372,462706.8123096453,2010-11-21 20:17:31,4832.413599387317,2,41,0.550297200679779,4.1111016273498535,40.033315856547325,39.32071551362446,159.71774696159318,143.4969603826425,0.0001295089750783,0.0931148082017898,0,0,0
13373,462736.8295361156,2010-11-21 20:18:01,4862.430825907746,2,41,0.550297200679779,4.114177703857422,40.03790381228112,39.32071551362446,159.73661525438342,143.4969603826425,9.71794142969884e-05,0.0931148082017898,0,0,0
13374,462766.8429085106,2010-11-21 20:18:31,4892.444198267599,2,41,0.5501165986061096,4.117253303527832,40.04249106881455,39.32071551362446,159.75549526182365,143.4969603826425,6.47544875391759e-05,0.0931148082017898,0,0,0
13375,462796.85834138375,2010-11-21 20:19:01,4922.459631055596,2,41,0.5501165986061096,4.120491027832031,40.04707863416643,39.32071551362446,159.7743912439904,143.4969603826425,3.24249267578125e-05,0.0931148082017898,0,0,0
13376,462826.8736546936,2010-11-21 20:19:31,4952.474944350321,2,41,0.5504778623580933,4.123890399932861,40.05166624940226,39.32071551362446,159.79330224260585,143.4969603826425,9.70840483205393e-05,0.0931148082017898,0,0,0
13377,462856.8889869456,2010-11-21 20:20:01,4982.490276617402,2,41,0.550297200679779,4.12696647644043,40.0562537856841,39.32071551362446,159.81222783281103,143.4969603826425,6.47544875391759e-05,0.0931148082017898,0,0,0
13378,462886.904579357,2010-11-21 20:20:31,5012.505869013808,2,41,0.5501165986061096,4.13036584854126,40.06084141100285,39.32071551362446,159.83116886870403,143.4969603826425,6.47544875391759e-05,0.0931148082017898,0,0,0
13379,462916.919857143,2010-11-21 20:21:01,5042.521146799897,2,41,0.5501165986061096,4.133603572845459,40.06542894869988,39.32071551362446,159.85012466843727,143.4969603826425,9.70840483205393e-05,0.0931148082017898,0,0,0
13380,462946.93544562976,2010-11-21 20:21:31,5072.536735291555,2,41,0.5504778623580933,4.137003421783447,40.07001664122938,39.32071551362446,159.8690963771992,143.4969603826425,9.71794142969884e-05,0.0931148082017898,0,0,0
13381,462976.9505082237,2010-11-21 20:22:01,5102.551797895516,2,41,0.550297200679779,4.140402793884277,40.074604236011645,39.32071551362446,159.88808304539512,143.4969603826425,6.47544875391759e-05,0.0931148082017898,0,0,0
13382,463006.9659017888,2010-11-21 20:22:31,5132.56719146562,2,41,0.5501165986061096,4.143478870391846,40.079191904428185,39.32071551362446,159.90708544616103,143.4969603826425,3.24249267578125e-05,0.0931148082017898,0,0,0
13383,463036.9813665064,2010-11-21 20:23:01,5162.582656178307,2,41,0.550297200679779,4.147364139556885,40.08377944940131,39.32071551362446,159.92610321515656,143.4969603826425,0.0001295089750783,0.0931148082017898,0,0,0
13384,463066.9966212401,2010-11-21 20:23:31,5192.597910911853,2,41,0.550297200679779,4.150763511657715,40.0883670019492,39.32071551362446,159.94513682395225,143.4969603826425,0.0001295089750783,0.0931148082017898,0,0,0
13385,463097.0120107349,2010-11-21 20:24:01,5222.613300406785,2,41,0.550297200679779,4.154001235961914,40.09295453807303,39.32071551362446,159.9641861422505,143.4969603826425,6.47544875391759e-05,0.0931148082017898,0,0,0
13386,463127.0276097479,2010-11-21 20:24:31,5252.628899399655,2,41,0.5501165986061096,4.157562732696533,40.09754210665668,39.32071551362446,159.98325148807285,143.4969603826425,6.47544875391759e-05,0.0931148082017898,0,0,0
13387,463157.04281399545,2010-11-21 20:25:01,5282.644103657206,2,41,0.550297200679779,4.161286354064941,40.10212965656673,39.32071551362446,160.00233277211177,143.4969603826425,0.0001295089750783,0.0931148082017898,0,0,0
13388,463187.05855760927,2010-11-21 20:25:31,5312.659847401398,2,41,0.5501165986061096,4.164524078369141,40.10671732757782,39.32071551362446,160.02143066806852,143.4969603826425,6.47544875391759e-05,0.0931148082017898,0,0,0
13389,463217.0736514512,2010-11-21 20:26:01,5342.674941107996,2,41,0.550297200679779,4.168247222900391,40.11130482788366,39.32071551362446,160.04054399181973,143.4969603826425,9.70840483205393e-05,0.0931148082017898,0,0,0
13390,463247.0888938189,2010-11-21 20:26:31,5372.690183495725,2,41,0.550297200679779,4.171647071838379,40.11589230443991,39.32071551362446,160.05967353596768,143.4969603826425,3.24249267578125e-05,0.0931148082017898,0,0,0
13391,463277.1043993635,2010-11-21 20:27:01,5402.705689035322,2,41,0.550297200679779,4.175370216369629,40.12047992217414,39.32071551362446,160.07882004964225,143.4969603826425,9.70840483205393e-05,0.0931148082017898,0,0,0
13392,463307.11977918434,2010-11-21 20:27:31,5432.721068846082,2,41,0.550297200679779,4.179093837738037,40.12506748718323,39.32071551362446,160.0979828164194,143.4969603826425,0.0001295089750783,0.0931148082017898,0,0,0
13393,463337.13783266896,2010-11-21 20:28:01,5462.739122410941,2,41,0.550297200679779,4.182655334472656,40.12965548640652,39.32071551362446,160.11716401879497,143.4969603826425,0.0001295089750783,0.0931148082017898,0,0,0
13394,463367.1504842948,2010-11-21 20:28:31,5492.75177395653,2,41,0.5501165986061096,4.186054706573486,40.134242737337765,39.32071551362446,160.13635882683414,143.4969603826425,3.23295607813634e-05,0.0931148082017898,0,0,0
13395,463397.1657886472,2010-11-21 20:29:01,5522.767078318958,2,41,0.5501165986061096,4.189778327941895,40.1388303013264,39.32071551362446,160.1555718813563,143.4969603826425,6.47544875391759e-05,0.0931148082017898,0,0,0
13396,463427.18116035766,2010-11-21 20:29:31,5552.782450029497,2,41,0.550297200679779,4.1938252449035645,40.14341788780283,39.32071551362446,160.17480205841508,143.4969603826425,0.0001295089750783,0.0931148082017898,0,0,0
13397,463457.1965550455,2010-11-21 20:30:01,5582.797844717391,2,41,0.5501165986061096,4.197386741638184,40.14800543397703,39.32071551362446,160.19404915516574,143.4969603826425,9.71794142969884e-05,0.0931148082017898,0,0,0
13398,463478.134620393,2010-11-21 20:30:22,5603.735910064738,2,41,0.550297200679779,4.200138568878174,40.15120566293162,39.32071551362446,160.20748591630183,143.4969603826425,0.0001618385285837,0.0931148082017898,0,0,0
13399,463508.14359495626,2010-11-21 20:30:52,30.015439905764776,3,41,0.0,4.117738723754883,40.15120566293162,39.32071551362446,160.20748591630183,143.4969603826425,-0.0004209518374409,0.0931148082017898,0,0,0
13400,463538.1589248525,2010-11-21 20:31:22,60.03076980192866,3,41,0.0,4.108026027679443,40.15120566293162,39.32071551362446,160.20748591630183,143.4969603826425,-0.0001942634553415,0.0931148082017898,0,0,0
13401,463568.174247686,2010-11-21 20:31:52,90.04609263546314,3,41,0.0,4.102035999298096,40.15120566293162,39.32071551362446,160.20748591630183,143.4969603826425,-0.0001619339018361,0.0931148082017898,0,0,0
13402,463598.1427491762,2010-11-21 20:32:22,120.01459412572152,3,41,0.0,4.098312854766846,40.15120566293162,39.32071551362446,160.20748591630183,143.4969603826425,-6.47544875391759e-05,0.0931148082017898,0,0,0
13403,463598.15367324615,2010-11-21 20:32:22,2.927307009e-06,4,41,0.9852043390274048,4.199653148651123,40.15120566373274,39.32071551362446,160.20748591966623,143.4969603826425,0.0,0.0931148082017898,0,0,0
13404,463599.0129540332,2010-11-21 20:32:23,0.859283734398556,4,41,0.935175597667694,4.199653148651123,40.151433197641325,39.32071551362446,160.2084414725251,143.4969603826425,0.0,0.0931148082017898,0,0,0
13405,463601.0598088126,2010-11-21 20:32:25,2.906138508816238,4,41,0.8847855925559998,4.199491024017334,40.15194932444128,39.32071551362446,160.2106090160198,143.4969603826425,-3.24249267578125e-05,0.0931148082017898,0,0,0
13406,463604.21601379086,2010-11-21 20:32:29,6.06234348701181,4,41,0.8343955874443054,4.199653148651123,40.15270180974419,39.32071551362446,160.21376917243035,143.4969603826425,0.0,0.0931148082017898,0,0,0
13407,463608.6066002701,2010-11-21 20:32:33,10.452929966339054,4,41,0.7843668460845947,4.199491024017334,40.15368786496124,39.32071551362446,160.217910250135,143.4969603826425,-3.24249267578125e-05,0.0931148082017898,0,0,0
13408,463614.40357756725,2010-11-21 20:32:39,16.249907263515468,4,41,0.7339768409729004,4.199491024017334,40.15490900358161,39.32071551362446,160.22303861117916,143.4969603826425,0.0,0.0931148082017898,0,0,0
13409,463621.9502369552,2010-11-21 20:32:46,23.79656665137208,4,41,0.6839480996131897,4.199491024017334,40.15639395939271,39.32071551362446,160.22927497687,143.4969603826425,-6.47544875391759e-05,0.0931148082017898,0,0,0
13410,463632.1690652628,2010-11-21 20:32:56,34.015394958955234,4,41,0.6339192986488342,4.199653148651123,40.15826105295962,39.32071551362446,160.23711612314744,143.4969603826425,0.0,0.0931148082017898,0,0,0
13411,463646.5594401023,2010-11-21 20:33:11,48.40576979845846,4,41,0.5837099552154541,4.199814796447754,40.16068861885625,39.32071551362446,160.24731106432958,143.4969603826425,3.23295607813634e-05,0.0931148082017898,0,0,0
13412,463668.574926368,2010-11-21 20:33:33,70.42125606918809,4,41,0.5336811542510986,4.199491024017334,40.16409444469539,39.32071551362446,160.26161436462326,143.4969603826425,-6.47544875391759e-05,0.0931148082017898,0,0,0
13413,463706.30894868285,2010-11-21 20:34:11,108.15527838412036,4,41,0.4836524128913879,4.199653148651123,40.16940417244589,39.32071551362446,160.28391343011586,143.4969603826425,0.0,0.0931148082017898,0,0,0
13414,463773.8240381682,2010-11-21 20:35:18,175.67036786439996,4,41,0.4336236417293548,4.199653148651123,40.17797193933785,39.32071551362446,160.31989543100886,143.4969603826425,-3.23295607813634e-05,0.0931148082017898,0,0,0
13415,463871.7767864225,2010-11-21 20:36:56,273.6231161036588,4,41,0.3835948705673218,4.199491024017334,40.18906473904552,39.32071551362446,160.36648210792467,143.4969603826425,-6.47544875391759e-05,0.0931148082017898,0,0,0
13416,463992.0723324524,2010-11-21 20:38:56,393.9186622287942,4,41,0.3335660994052887,4.199814796447754,40.20103107953794,39.32071551362446,160.41673753651338,143.4969603826425,3.23295607813634e-05,0.0931148082017898,0,0,0
13417,464135.3368155479,2010-11-21 20:41:20,537.1831452290526,4,41,0.2833567261695862,4.199653148651123,40.213292829843816,39.32071551362446,160.46823355703924,143.4969603826425,3.24249267578125e-05,0.0931148082017898,0,0,0
13418,464308.0852846936,2010-11-21 20:44:12,709.9316143747277,4,41,0.2333279401063919,4.199653148651123,40.22566784063416,39.32071551362446,160.52020528477505,143.4969603826425,-3.23295607813634e-05,0.0931148082017898,0,0,0
13419,464522.443131397,2010-11-21 20:47:47,924.28946107823,4,41,0.1832991689443588,4.199653148651123,40.238032486736834,39.32071551362446,160.57213343282692,143.4969603826425,-3.23295607813634e-05,0.0931148082017898,0,0,0
13420,464815.4092128831,2010-11-21 20:52:40,1217.2555425793614,4,41,0.1330897957086563,4.199653148651123,40.25082936944812,39.32071551362446,160.62587690638256,143.4969603826425,0.0,0.0931148082017898,0,0,0
13421,465278.1260921861,2010-11-21 21:00:22,1679.972421882314,4,41,0.0830610245466232,4.199653148651123,40.2644659569748,39.32071551362446,160.68314691605482,143.4969603826425,-3.23295607813634e-05,0.0931148082017898,0,0,0
13422,465822.10420054855,2010-11-21 21:09:26,2223.950530244726,4,41,0.0498289167881011,4.199491024017334,40.2743147146964,39.32071551362446,160.72450906244578,143.4969603826425,-6.47544875391759e-05,0.0931148082017898,0,0,0
13423,465852.117380361,2010-11-21 21:09:57,30.01537095364969,5,41,0.0,4.192368507385254,40.2743147146964,39.32071551362446,160.72450906244578,143.4969603826425,-3.23295607813634e-05,0.0931148082017898,0,0,0
13424,465882.1169796061,2010-11-21 21:10:27,60.014970178638215,5,41,0.0,4.190911293029785,40.2743147146964,39.32071551362446,160.72450906244578,143.4969603826425,-6.47544875391759e-05,0.0931148082017898,0,0,0
13425,465882.3030006641,2010-11-21 21:10:27,0.187623737714526,6,41,-1.9243103452026844e-05,4.191073417663574,40.2743147146964,39.320715514627366,160.72450906244578,143.49696038684576,0.0,0.0940094217658042,0,0,0
13426,465887.1309423743,2010-11-21 21:10:32,5.015565463021156,6,41,0.0010644125286489,4.191073417663574,40.274315738938135,39.32071551479368,160.7245133551207,143.4969603875428,0.0,0.0940094217658042,0,0,0
13427,465917.1624557712,2010-11-21 21:11:02,30.01741984800521,7,41,-1.099929690361023,4.021417140960693,40.274315738938135,39.329885350473575,160.7245133551207,143.5340262584643,-0.0009065627818927,0.0940094217658042,0,0,0
13428,465947.175743169,2010-11-21 21:11:32,60.030707255803904,7,41,-1.099929690361023,3.9966483116149902,40.274315738938135,39.33905382910998,160.7245133551207,143.5707753117077,-0.0005180359003134,0.0940094217658042,0,0,0
13429,465977.1911748743,2010-11-21 21:12:02,90.04613894606152,7,41,-1.0997490882873535,3.979326725006104,40.274315738938135,39.34822298937534,160.7245133551207,143.60733783055795,-0.0003885269106831,0.0940094217658042,0,0,0
13430,466007.2066359027,2010-11-21 21:12:32,120.0615999895894,7,41,-1.0997490882873535,3.965728282928467,40.274315738938135,39.35739200874821,160.7245133551207,143.64376025688617,-0.0003561496851034,0.0940094217658042,0,0,0
13431,466037.2219672275,2010-11-21 21:13:02,150.0769313143192,7,41,-1.0997490882873535,3.9540724754333496,40.274315738938135,39.366561008220295,160.7245133551207,143.6800685770481,-0.0003237724304199,0.0940094217658042,0,0,0
13432,466067.23738279246,2010-11-21 21:13:32,180.09234686428815,7,41,-1.0997490882873535,3.943711757659912,40.274315738938135,39.37573003167196,160.7245133551207,143.71627602005273,-0.0002590179501567,0.0940094217658042,0,0,0
13433,466097.25270966114,2010-11-21 21:14:02,210.1076737328948,7,41,-1.0997490882873535,3.933836698532105,40.274315738938135,39.38489900068876,160.7245133551207,143.75239022404006,-0.0001942634553415,0.0940094217658042,0,0,0
13434,466127.2680848504,2010-11-21 21:14:32,240.12304893715464,7,41,-1.0997490882873535,3.924285411834717,40.274315738938135,39.394068056721785,160.7245133551207,143.7884168388904,-0.0002590179501567,0.0940094217658042,0,0,0
13435,466157.2836095929,2010-11-21 21:15:02,270.13857366966005,7,41,-1.099568486213684,3.915381669998169,40.274315738938135,39.40323717499068,160.7245133551207,143.82435909702622,-0.0002590179501567,0.0940094217658042,0,0,0
13436,466187.29885433154,2010-11-21 21:15:32,300.1538184182825,7,41,-1.099929690361023,3.9064781665802,40.274315738938135,39.41240612478791,160.7245133551207,143.86021827882325,-0.0001942634553415,0.0940094217658042,0,0,0
13437,466217.3143491444,2010-11-21 21:16:02,330.16931321606626,7,41,-1.099568486213684,3.897898197174072,40.274315738938135,39.421575202932814,160.7245133551207,143.89599729787884,-0.0002266406954731,0.0940094217658042,0,0,0
13438,466247.3297482783,2010-11-21 21:16:32,360.18471234504585,7,41,-1.099929690361023,3.889318227767944,40.274315738938135,39.43074423592587,160.7245133551207,143.9316981989599,-0.0002266406954731,0.0940094217658042,0,0,0
13439,466277.345033914,2010-11-21 21:17:02,390.1999979857413,7,41,-1.099568486213684,3.8812239170074463,40.274315738938135,39.43991322099706,160.7245133551207,143.96732229307784,-0.0001942634553415,0.0940094217658042,0,0,0
13440,466307.3603643965,2010-11-21 21:17:32,420.21532848340667,7,41,-1.0997490882873535,3.873129606246948,40.274315738938135,39.44908222465232,160.7245133551207,144.0028712760193,-0.0001942634553415,0.0940094217658042,0,0,0
13441,466337.3757355808,2010-11-21 21:18:02,450.2306996525943,7,41,-1.0997490882873535,3.86487340927124,40.274315738938135,39.45825127619922,160.7245133551207,144.0383458861087,-0.0002590179501567,0.0940094217658042,0,0,0
13442,466367.3912428898,2010-11-21 21:18:32,480.246206961608,7,41,-1.0997490882873535,3.856940984725952,40.274315738938135,39.46742038333112,160.7245133551207,144.07374697975476,-0.0002266406954731,0.0940094217658042,0,0,0
13443,466397.4065191721,2010-11-21 21:19:02,510.26148325898106,7,41,-1.099568486213684,3.849170446395874,40.274315738938135,39.47658945931852,160.7245133551207,144.10907602751587,-0.0001942634553415,0.0940094217658042,0,0,0
13444,466427.4067138736,2010-11-21 21:19:32,540.2616781458332,7,41,-1.0997490882873535,3.841399908065796,40.274315738938135,39.48575394287594,160.7245133551207,144.14431598874097,-0.0002266406954731,0.0940094217658042,0,0,0
13445,466457.4218669684,2010-11-21 21:20:02,570.2768310401733,7,41,-1.0997490882873535,3.833791255950928,40.274315738938135,39.49492291403383,160.7245133551207,144.17950289618545,-0.0001942634553415,0.0940094217658042,0,0,0
13446,466487.4372261577,2010-11-21 21:20:32,600.2921902344698,7,41,-1.0997490882873535,3.8263447284698486,40.274315738938135,39.50409197541573,160.7245133551207,144.21462068772684,-0.0001942634553415,0.0940094217658042,0,0,0
13447,466517.4525276278,2010-11-21 21:21:02,630.3074916996657,7,41,-1.0997490882873535,3.8190598487854,40.274315738938135,39.51326103224488,160.7245133551207,144.24967046010204,-0.0001942634553415,0.0940094217658042,0,0,0
13448,466547.469686705,2010-11-21 21:21:32,660.3246507667216,7,41,-1.0997490882873535,3.811613082885742,40.274315738938135,39.52243066229213,160.7245133551207,144.28465549967618,-0.0001942634553415,0.0940094217658042,0,0,0
13449,466577.4831577813,2010-11-21 21:22:02,690.3381218530101,7,41,-1.0997490882873535,3.804651975631714,40.274315738938135,39.531599116065046,160.7245133551207,144.31957063420762,-0.0001942634553415,0.0940094217658042,0,0,0
13450,466607.498531602,2010-11-21 21:22:32,720.3534956888541,7,41,-1.0997490882873535,3.7976908683776855,40.274315738938135,39.54076814246182,160.7245133551207,144.35442442803398,-0.0001942634553415,0.0940094217658042,0,0,0
13451,466637.513961989,2010-11-21 21:23:02,750.3689260758586,7,41,-1.099929690361023,3.790891647338867,40.274315738938135,39.549937217139465,160.7245133551207,144.38921570479368,-0.0001942634553415,0.0940094217658042,0,0,0
13452,466667.532120947,2010-11-21 21:23:32,780.3870850388084,7,41,-1.099568486213684,3.7844161987304688,40.274315738938135,39.55910711700437,160.7245133551207,144.4239482362804,-0.0001295089750783,0.0940094217658042,0,0,0
13453,466697.5447106132,2010-11-21 21:24:02,810.3996746848863,7,41,-1.099929690361023,3.777778863906861,40.274315738938135,39.56827530599411,160.7245133551207,144.45861403072576,-0.0001618862152099,0.0940094217658042,0,0,0
13454,466727.5600564992,2010-11-21 21:24:32,840.4150205659512,7,41,-1.099568486213684,3.771465301513672,40.274315738938135,39.57744435357211,160.7245133551207,144.49322469640887,-0.0001942634553415,0.0940094217658042,0,0,0
13455,466757.5755925149,2010-11-21 21:25:02,870.4305566818714,7,41,-1.099929690361023,3.7649898529052734,40.274315738938135,39.58661348642793,160.7245133551207,144.52777737279473,-0.0001942634553415,0.0940094217658042,0,0,0
13456,466787.5908315141,2010-11-21 21:25:32,900.445795585905,7,41,-1.099568486213684,3.759161949157715,40.274315738938135,39.59578248154992,160.7245133551207,144.56227247845,-0.0001295089750783,0.0940094217658042,0,0,0
13457,466817.6061850844,2010-11-21 21:26:02,930.4611491561628,7,41,-1.0997490882873535,3.7531721591949454,40.274315738938135,39.604951570344966,160.7245133551207,144.59671201970258,-0.0001295089750783,0.0940094217658042,0,0,0
13458,466847.62175750086,2010-11-21 21:26:32,960.4767215726948,7,41,-1.099929690361023,3.747020721435547,40.274315738938135,39.61412073619295,160.7245133551207,144.63109697690123,-0.0001942634553415,0.0940094217658042,0,0,0
13459,466877.6369459089,2010-11-21 21:27:02,990.4919100007328,7,41,-1.099568486213684,3.7413547039031982,40.274315738938135,39.6232898067308,160.7245133551207,144.66542789784984,-0.0001295089750783,0.0940094217658042,0,0,0
13460,466907.6524668218,2010-11-21 21:27:32,1020.5074309086912,7,41,-1.0997490882873535,3.73552680015564,40.274315738938135,39.63245892608148,160.7245133551207,144.69970623543108,-0.0001942634553415,0.0940094217658042,0,0,0
13461,466937.66784105374,2010-11-21 21:28:02,1050.5228051455365,7,41,-1.099568486213684,3.730022668838501,40.274315738938135,39.64162800125399,160.7245133551207,144.73393245216033,-0.0001295089750783,0.0940094217658042,0,0,0
13462,466967.68322861387,2010-11-21 21:28:32,1080.5381927056385,7,41,-1.0997490882873535,3.7245185375213614,40.274315738938135,39.65079707646535,160.7245133551207,144.76810793861046,-0.0001618862152099,0.0940094217658042,0,0,0
13463,466997.6984761895,2010-11-21 21:29:02,1110.5534402763053,7,41,-1.0997490882873535,3.719014406204224,40.274315738938135,39.65996609967333,160.7245133551207,144.80223317344607,-0.0001618862152099,0.0940094217658042,0,0,0
13464,467027.7138142059,2010-11-21 21:29:32,1140.5687782927384,7,41,-1.099568486213684,3.713834047317505,40.274315738938135,39.66913518112483,160.7245133551207,144.83630941531317,-9.713172767078504e-05,0.0940094217658042,0,0,0
13465,467057.7292535803,2010-11-21 21:30:02,1170.5842176671767,7,41,-1.0997490882873535,3.708491802215576,40.274315738938135,39.6783041376004,160.7245133551207,144.8703364592578,-0.0001295089750783,0.0940094217658042,0,0,0
13466,467087.7447132304,2010-11-21 21:30:32,1200.5996773021889,7,41,-1.0997490882873535,3.703149557113648,40.274315738938135,39.68747305724074,160.7245133551207,144.90431524228785,-0.0001618862152099,0.0940094217658042,0,0,0
13467,467117.7599719088,2010-11-21 21:31:02,1230.6149359805825,7,41,-1.099929690361023,3.6981310844421382,40.274315738938135,39.696641969752605,160.7245133551207,144.93824676806096,-0.0001618862152099,0.0940094217658042,0,0,0
13468,467147.7773987744,2010-11-21 21:31:32,1260.6323628511168,7,41,-1.0997490882873535,3.69311261177063,40.274315738938135,39.70581154664451,160.7245133551207,144.972134244039,-0.0001295089750783,0.0940094217658042,0,0,0
13469,467177.79086463246,2010-11-21 21:32:02,1290.645828709355,7,41,-1.0997490882873535,3.688094139099121,40.274315738938135,39.71498008513695,160.7245133551207,145.0059716342555,-0.0001295089750783,0.0940094217658042,0,0,0
13470,467207.8062450348,2010-11-21 21:32:32,1320.6612091065776,7,41,-1.099929690361023,3.683075666427612,40.274315738938135,39.72414920576654,160.7245133551207,145.03976577717916,-0.0001295089750783,0.0940094217658042,0,0,0
13471,467237.82149606914,2010-11-21 21:33:02,1350.6764601408902,7,41,-1.0997490882873535,3.6782190799713135,40.274315738938135,39.73331825484546,160.7245133551207,145.07351495194547,-0.0001618862152099,0.0940094217658042,0,0,0
13472,467267.8369548821,2010-11-21 21:33:32,1380.691918968888,7,41,-1.0997490882873535,3.6735243797302246,40.274315738938135,39.74248736039366,160.7245133551207,145.1072204009082,-0.0001618862152099,0.0940094217658042,0,0,0
13473,467297.85227091867,2010-11-21 21:34:03,1410.707235025506,7,41,-1.0997490882873535,3.668991804122925,40.274315738938135,39.75165643123312,160.7245133551207,145.14088246929205,-0.0001295089750783,0.0940094217658042,0,0,0
13474,467327.86763494497,2010-11-21 21:34:33,1440.722599031814,7,41,-1.0997490882873535,3.664297103881836,40.274315738938135,39.76082553171171,160.7245133551207,145.1745020291579,-0.0001295089750783,0.0940094217658042,0,0,0
13475,467357.8830552117,2010-11-21 21:35:03,1470.7380192985568,7,41,-1.099568486213684,3.659764289855957,40.274315738938135,39.76999467543666,160.7245133551207,145.20807965790905,-9.713172767078504e-05,0.0940094217658042,0,0,0
13476,467387.89853452594,2010-11-21 21:35:33,1500.753498602666,7,41,-1.0997490882873535,3.655393362045288,40.274315738938135,39.7791638054391,160.7245133551207,145.24161581953717,-9.713172767078504e-05,0.0940094217658042,0,0,0
13477,467417.91390682285,2010-11-21 21:36:03,1530.7688708996689,7,41,-1.0997490882873535,3.650860548019409,40.274315738938135,39.78833291916773,160.7245133551207,145.2751109840836,-9.713172767078504e-05,0.0940094217658042,0,0,0
13478,467447.92917414784,2010-11-21 21:36:33,1560.784138219633,7,41,-1.099568486213684,3.64616584777832,40.274315738938135,39.79750202275138,160.7245133551207,145.30856540597142,-0.0001618862152099,0.0940094217658042,0,0,0
13479,467477.9445854421,2010-11-21 21:37:03,1590.7995495139792,7,41,-1.099568486213684,3.6421186923980713,40.274315738938135,39.8066710815618,160.7245133551207,145.34197993786282,-9.713172767078504e-05,0.0940094217658042,0,0,0
13480,467507.9599363608,2010-11-21 21:37:33,1620.814900437631,7,41,-1.0997490882873535,3.6380715370178223,40.274315738938135,39.81584007757322,160.7245133551207,145.3753555691781,-9.713172767078504e-05,0.0940094217658042,0,0,0
13481,467537.9756551829,2010-11-21 21:38:03,1650.8306192696386,7,41,-1.0997490882873535,3.6338624954223633,40.274315738938135,39.82500928631254,160.7245133551207,145.40869397141617,-0.0001295089750783,0.0940094217658042,0,0,0
13482,467567.990662594,2010-11-21 21:38:33,1680.8456266808305,7,41,-1.0997490882873535,3.629977226257324,40.274315738938135,39.83417819766558,160.7245133551207,145.44199439420538,-9.713172767078504e-05,0.0940094217658042,0,0,0
13483,467598.006046891,2010-11-21 21:39:03,1710.8610109777867,7,41,-1.0997490882873535,3.625930070877075,40.274315738938135,39.84334733777759,160.7245133551207,145.475259761326,-0.0001295089750783,0.0940094217658042,0,0,0
13484,467628.0217799886,2010-11-21 21:39:33,1740.8767440754036,7,41,-1.099568486213684,3.622206687927246,40.274315738938135,39.85251653839007,160.7245133551207,145.50849023775498,-0.0001295089750783,0.0940094217658042,0,0,0
13485,467658.0368141415,2010-11-21 21:40:03,1770.8917782133094,7,41,-1.0997490882873535,3.618483304977417,40.274315738938135,39.861685512721046,160.7245133551207,145.5416855891,-9.713172767078504e-05,0.0940094217658042,0,0,0
13486,467688.0522272254,2010-11-21 21:40:33,1800.9071912971226,7,41,-1.0997490882873535,3.614921808242798,40.274315738938135,39.870854663227256,160.7245133551207,145.5748479481694,-9.713172767078504e-05,0.0940094217658042,0,0,0
13487,467718.06756512646,2010-11-21 21:41:03,1830.9225292133056,7,41,-1.0997490882873535,3.6115221977233887,40.274315738938135,39.88002376435692,160.7245133551207,145.6079778389687,-9.713172767078504e-05,0.0940094217658042,0,0,0
13488,467748.08485720056,2010-11-21 21:41:33,1860.93982127233,7,41,-1.0997490882873535,3.6079607009887695,40.274315738938135,39.88919345886681,160.7245133551207,145.64107816898692,-0.0001295089750783,0.0940094217658042,0,0,0
13489,467778.0983308182,2010-11-21 21:42:03,1890.9532948899368,7,41,-1.099568486213684,3.6047229766845694,40.274315738938135,39.89836196217911,160.7245133551207,145.67414308624004,-6.47544875391759e-05,0.0940094217658042,0,0,0
13490,467808.1138317863,2010-11-21 21:42:33,1920.9687958781728,7,41,-1.0997490882873535,3.601485252380371,40.274315738938135,39.90753109504345,160.7245133551207,145.70718045942778,-9.713172767078504e-05,0.0940094217658042,0,0,0
13491,467838.12909109634,2010-11-21 21:43:03,1950.9840551881427,7,41,-1.0997490882873535,3.598247528076172,40.274315738938135,39.916700084052366,160.7245133551207,145.74018794863613,-9.713172767078504e-05,0.0940094217658042,0,0,0
13492,467868.144486481,2010-11-21 21:43:33,1980.9994505677632,7,41,-1.0997490882873535,3.5951716899871826,40.274315738938135,39.92586922268584,160.7245133551207,145.7731670427139,-6.47544875391759e-05,0.0940094217658042,0,0,0
13493,467898.1599002114,2010-11-21 21:44:03,2011.0148642831527,7,41,-1.099929690361023,3.5922577381134038,40.274315738938135,39.93503834382816,160.7245133551207,145.8061182856541,-3.237724376958795e-05,0.0940094217658042,0,0,0
13494,467928.1752283682,2010-11-21 21:44:33,2041.0301924550129,7,41,-1.0997490882873535,3.589182138442993,40.274315738938135,39.94420747920173,160.7245133551207,145.8390422896513,-6.47544875391759e-05,0.0940094217658042,0,0,0
13495,467958.1906036628,2010-11-21 21:45:03,2071.0455677344603,7,41,-1.099568486213684,3.586430072784424,40.274315738938135,39.953376613129386,160.7245133551207,145.87193933872177,-6.47544875391759e-05,0.0940094217658042,0,0,0
13496,467988.2060245159,2010-11-21 21:45:33,2101.06098859268,7,41,-1.0997490882873535,3.5835161209106445,40.274315738938135,39.96254576184705,160.7245133551207,145.9048098432041,-9.713172767078504e-05,0.0940094217658042,0,0,0
13497,468018.22140155965,2010-11-21 21:46:03,2131.076365631519,7,41,-1.0997490882873535,3.580602169036865,40.274315738938135,39.97171485609611,160.7245133551207,145.9376537666635,-6.47544875391759e-05,0.0940094217658042,0,0,0
13498,468048.2367890547,2010-11-21 21:46:33,2161.0917531414952,7,41,-1.0997490882873535,3.577688217163086,40.274315738938135,39.980884019652194,160.7245133551207,145.97047143559527,-6.47544875391759e-05,0.0940094217658042,0,0,0
13499,468078.25212599343,2010-11-21 21:47:03,2191.107090065201,7,41,-1.099568486213684,3.5749361515045166,40.274315738938135,39.99005316466968,160.7245133551207,146.00326275110967,-3.237724376958795e-05,0.0940094217658042,0,0,0
13500,468108.2675865307,2010-11-21 21:47:33,2221.1225506024653,7,41,-1.0997490882873535,3.571860313415528,40.274315738938135,39.99922230267441,160.7245133551207,146.0360276742194,-6.47544875391759e-05,0.0940094217658042,0,0,0
13501,468138.28289387055,2010-11-21 21:48:03,2251.1378579573625,7,41,-1.099568486213684,3.568946361541748,40.274315738938135,40.008391418616746,160.7245133551207,146.06876593652711,-9.713172767078504e-05,0.0940094217658042,0,0,0
13502,468168.2983893601,2010-11-21 21:48:33,2281.153353436848,7,41,-1.099929690361023,3.5660324096679688,40.274315738938135,40.01756057506312,160.7245133551207,146.101477520646,-9.713172767078504e-05,0.0940094217658042,0,0,0
13503,468198.31376285007,2010-11-21 21:49:03,2311.1687269218164,7,41,-1.099929690361023,3.563118457794189,40.274315738938135,40.02672968589855,160.7245133551207,146.13416146462657,-3.237724376958795e-05,0.0940094217658042,0,0,0
13504,468228.32907465607,2010-11-21 21:49:33,2341.1840387077746,7,41,-1.099568486213684,3.56020450592041,40.274315738938135,40.03589874334197,160.7245133551207,146.16681830958694,-6.47544875391759e-05,0.0940094217658042,0,0,0
13505,468258.3444111437,2010-11-21 21:50:03,2371.1993752154413,7,41,-1.099568486213684,3.556804895401001,40.274315738938135,40.04506784078256,160.7245133551207,146.19944681663674,-9.713172767078504e-05,0.0940094217658042,0,0,0
13506,468288.3597873755,2010-11-21 21:50:33,2401.214751462304,7,41,-1.099929690361023,3.5535671710968018,40.274315738938135,40.05423698846686,160.7245133551207,146.23204614651544,-0.0001295089750783,0.0940094217658042,0,0,0
13507,468318.3752030057,2010-11-21 21:51:03,2431.2301670774355,7,41,-1.099568486213684,3.5504913330078125,40.274315738938135,40.0634060760459,160.7245133551207,146.26461549804037,-6.47544875391759e-05,0.0940094217658042,0,0,0
13508,468348.39245299465,2010-11-21 21:51:33,2461.247417061434,7,41,-1.0997490882873535,3.5470917224884038,40.274315738938135,40.07257579350556,160.7245133551207,146.29715646890998,-6.47544875391759e-05,0.0940094217658042,0,0,0
13509,468378.4061532781,2010-11-21 21:52:03,2491.2611173498462,7,41,-1.0997490882873535,3.543692111968994,40.274315738938135,40.08174444381562,160.7245133551207,146.3296620282946,-6.47544875391759e-05,0.0940094217658042,0,0,0
13510,468408.4213074556,2010-11-21 21:52:33,2521.2762715273893,7,41,-1.0997490882873535,3.539806842803955,40.274315738938135,40.090913527298135,160.7245133551207,146.36213665754553,-9.713172767078504e-05,0.0940094217658042,0,0,0
13511,468438.4366832664,2010-11-21 21:53:03,2551.291647338164,7,41,-1.099929690361023,3.536083459854126,40.274315738938135,40.10008269321675,160.7245133551207,146.39457755833757,-0.0001295089750783,0.0940094217658042,0,0,0
13512,468468.4520875432,2010-11-21 21:53:33,2581.307051614993,7,41,-1.0997490882873535,3.532198190689087,40.274315738938135,40.10925184624966,160.7245133551207,146.42698302670786,-9.713172767078504e-05,0.0940094217658042,0,0,0
13513,468498.46745329385,2010-11-21 21:54:03,2611.3224173806925,7,41,-1.0997490882873535,3.528312921524048,40.274315738938135,40.11842099839737,160.7245133551207,146.45935205434722,-9.713172767078504e-05,0.0940094217658042,0,0,0
13514,468528.4828856608,2010-11-21 21:54:33,2641.3378497326016,7,41,-1.099568486213684,3.524103879928589,40.274315738938135,40.127590191405496,160.7245133551207,146.49168332726896,-9.713172767078504e-05,0.0940094217658042,0,0,0
13515,468558.49817471,2010-11-21 21:55:03,2671.353138796843,7,41,-1.099568486213684,3.5194091796875,40.274315738938135,40.13675932990264,160.7245133551207,146.5239748692131,-0.0001295089750783,0.0940094217658042,0,0,0
13516,468588.5166178222,2010-11-21 21:55:33,2701.371581894035,7,41,-1.099568486213684,3.515038251876831,40.274315738938135,40.14592947954832,160.7245133551207,146.5562288714223,-9.713172767078504e-05,0.0940094217658042,0,0,0
13517,468618.529007409,2010-11-21 21:56:03,2731.3839714807345,7,41,-1.099568486213684,3.5101819038391118,40.274315738938135,40.1550978204448,160.7245133551207,146.58843326345388,-0.0001295089750783,0.0940094217658042,0,0,0
13518,468648.544612051,2010-11-21 21:56:33,2761.399576157794,7,41,-1.099929690361023,3.5048396587371826,40.274315738938135,40.16426709980211,160.7245133551207,146.62059476443048,-0.0001295089750783,0.0940094217658042,0,0,0
13519,468678.5598776066,2010-11-21 21:57:03,2791.414841698316,7,41,-1.099568486213684,3.499173641204834,40.274315738938135,40.17343622777644,160.7245133551207,146.65270562373252,-0.0001618862152099,0.0940094217658042,0,0,0
13520,468708.57527092594,2010-11-21 21:57:33,2821.4302350177945,7,41,-1.0997490882873535,3.492860078811645,40.274315738938135,40.18260538402809,160.7245133551207,146.68476165048625,-0.0001942634553415,0.0940094217658042,0,0,0
13521,468738.5905704012,2010-11-21 21:58:03,2851.4455344779853,7,41,-1.0997490882873535,3.4855751991271973,40.274315738938135,40.19177457213922,160.7245133551207,146.716756529752,-0.0002266406954731,0.0940094217658042,0,0,0
13522,468768.60588724975,2010-11-21 21:58:33,2881.460851321568,7,41,-1.0997490882873535,3.477642774581909,40.274315738938135,40.20094376823012,160.7245133551207,146.7486811314116,-0.0001942634553415,0.0940094217658042,0,0,0
13523,468798.6212636069,2010-11-21 21:59:03,2911.476227693743,7,41,-1.099929690361023,3.4677677154541016,40.274315738938135,40.21011290986872,160.7245133551207,146.78052346197634,-0.0002590179501567,0.0940094217658042,0,0,0
13524,468828.6367862442,2010-11-21 21:59:33,2941.491750315981,7,41,-1.0997490882873535,3.4559500217437744,40.274315738938135,40.21928208842801,160.7245133551207,146.81226777932434,-0.0003561496851034,0.0940094217658042,0,0,0
13525,468858.65202639136,2010-11-21 22:00:03,2971.5069904631177,7,41,-1.1001102924346924,3.441056489944458,40.274315738938135,40.22845124139173,160.7245133551207,146.8438909659765,-0.0004209041653666,0.0940094217658042,0,0,0
13526,468888.6675333194,2010-11-21 22:00:33,3001.5224974112302,7,41,-1.0997490882873535,3.4219541549682617,40.274315738938135,40.237620487894525,160.7245133551207,146.87536050871265,-0.0005827903514727,0.0940094217658042,0,0,0
13527,468918.68297480914,2010-11-21 22:01:03,3031.537938910974,7,41,-1.0997490882873535,3.396699905395508,40.274315738938135,40.246789710135005,160.7245133551207,146.9066268380074,-0.0007446765666827,0.0940094217658042,0,0,0
13528,468948.7000871997,2010-11-21 22:01:33,3061.5550512614186,7,41,-1.099929690361023,3.3612468242645264,40.274315738938135,40.25595944345487,160.7245133551207,146.9376195621871,-0.0010684489971026,0.0940094217658042,0,0,0
13529,468978.7135522058,2010-11-21 22:02:03,3091.568516292592,7,41,-1.099568486213684,3.3125193119049072,40.274315738938135,40.26512810249557,160.7245133551207,146.96822783649185,-0.0014893531333655,0.0940094217658042,0,0,0
13530,469008.72893115936,2010-11-21 22:02:33,3121.5838952462104,7,41,-1.099929690361023,3.243556022644043,40.274315738938135,40.27429724045253,160.7245133551207,146.99830397398696,-0.0021692751906812,0.0940094217658042,0,0,0
13531,469038.7443303285,2010-11-21 22:03:03,3151.599294400253,7,41,-1.0997490882873535,3.1428630352020264,40.274315738938135,40.28346645065904,160.7245133551207,147.02761629612257,-0.0032377243041992,0.0940094217658042,0,0,0
13532,469068.75972261536,2010-11-21 22:03:33,3181.6146866871536,7,41,-1.099929690361023,2.975958824157715,40.274315738938135,40.29263562894683,160.7245133551207,147.05575377313318,-0.0060545443557202,0.0940094217658042,0,0,0
13533,469087.1364468963,2010-11-21 22:03:52,3199.991410963135,7,41,-1.0997490882873535,2.7758681774139404,40.274315738938135,40.29824938996019,160.7245133551207,147.0719494438257,-0.0104901790618896,0.0940094217658042,0,0,0
13534,469092.6971340069,2010-11-21 22:03:57,3205.552098073653,7,41,-1.0997490882873535,2.699943780899048,40.274315738938135,40.29994810093971,160.7245133551207,147.0766005630464,-0.0109110828489065,0.0940094217658042,0,0,0
13535,469152.7211566575,2010-11-21 22:04:57,60.01515476940517,8,41,0.0,3.3029680252075195,40.274315738938135,40.29994810093971,160.7245133551207,147.0766005630464,0.0012303352123126,0.0940094217658042,0,0,0
13536,469152.9182709949,2010-11-21 22:04:58,0.187633652463264,9,41,-1.9243103452026844e-05,3.3029680252075195,40.27431574264197,40.29994810093971,160.72451336735435,147.0766005630464,0.0,0.0924721807241439,0,0,0
13537,469157.7461960335,2010-11-21 22:05:03,5.015558701142467,9,41,0.0007031940040178,3.310900449752808,40.27431672945057,40.29994810110593,160.72451663136536,147.07660056359543,0.0011008263099938,0.0924721807241439,0,0,0
