Data_Point,Test_Time(s),Date_Time,Step_Time(s),Step_Index,Cycle_Index,Current(A),Voltage(V),Charge_Capacity(Ah),Discharge_Capacity(Ah),Charge_Energy(Wh),Discharge_Energy(Wh),dV/dt(V/s),Internal_Resistance(Ohm),Is_FC_Data,AC_Impedance(Ohm),ACI_Phase_Angle(Deg)
8290,288718.728069424,2010-11-19 19:57:25,30.01715375379312,1,26,0.0,3.403661012649536,24.69906678951701,24.71790909492964,98.60301972599297,90.16591709165246,0.0006799221155233,0.0948198437690734,0,0,0
8291,288748.7414155533,2010-11-19 19:57:55,60.03049987314488,1,26,0.0,3.425515651702881,24.69906678951701,24.71790909492964,98.60301972599297,90.16591709165246,0.0005504131549969,0.0948198437690734,0,0,0
8292,288778.7568001811,2010-11-19 19:58:25,90.04588450593982,1,26,0.0,3.441542148590088,24.69906678951701,24.71790909492964,98.60301972599297,90.16591709165246,0.0003237724304199,0.0948198437690734,0,0,0
8293,288808.7269640459,2010-11-19 19:58:55,120.01604839079086,1,26,0.0,3.4548168182373047,24.69906678951701,24.71790909492964,98.60301972599297,90.16591709165246,0.0003237724304199,0.0948198437690734,0,0,0
8294,288838.7486721664,2010-11-19 19:59:25,30.015449269137196,2,26,0.5501165986061096,3.6167025566101074,24.70365324028973,24.71790909492964,98.61945010397253,90.16591709165246,0.0014893531333655,0.0948198437690734,0,0,0
8295,288868.7637006953,2010-11-19 19:59:55,60.03047781809208,2,26,0.5501165986061096,3.662678241729736,24.70823960686353,24.71790909492964,98.63614998250424,90.16591709165246,0.0010036944877356,0.0948198437690734,0,0,0
8296,288898.778953098,2010-11-19 20:00:25,90.04573022082043,2,26,0.5499359965324402,3.695864677429199,24.71282592642761,24.71790909492964,98.65302782078696,90.16591709165246,0.0007770538213662,0.0948198437690734,0,0,0
8297,288928.79425509454,2010-11-19 20:00:55,120.06103221734251,2,26,0.5501165986061096,3.722090244293213,24.717412268057924,24.71790909492964,98.67004037016578,90.16591709165246,0.0006475448608398,0.0948198437690734,0,0,0
8298,288958.8094522945,2010-11-19 20:01:25,150.07622939221363,2,26,0.5501165986061096,3.7432973384857178,24.721998616561887,24.71790909492964,98.68716089031612,90.16591709165246,0.0005504131549969,0.0948198437690734,0,0,0
8299,288988.824700637,2010-11-19 20:01:55,180.09147775986983,2,26,0.5499359965324402,3.760295152664185,24.72658496388144,24.71790909492964,98.70436953774734,90.16591709165246,0.0004209041653666,0.0948198437690734,0,0,0
8300,289018.8399861775,2010-11-19 20:02:25,210.10676329029,2,26,0.5499359965324402,3.7725985050201416,24.73117130078946,24.71790909492964,98.72164621696992,90.16591709165246,0.0002590179501567,0.0948198437690734,0,0,0
8301,289048.8581394763,2010-11-19 20:02:55,240.1249166041388,2,26,0.5501165986061096,3.7805309295654297,24.73575808752409,24.71790909492964,98.73897036235331,90.16591709165246,0.0001295089750783,0.0948198437690734,0,0,0
8302,289078.8706171579,2010-11-19 20:03:25,270.1373942656863,2,26,0.550297200679779,3.7858731746673584,24.74034398294033,24.71790909492964,98.75632031829235,90.16591709165246,0.0001295089750783,0.0948198437690734,0,0,0
8303,289108.88579957094,2010-11-19 20:03:55,300.15257681404734,2,26,0.550297200679779,3.790405988693237,24.744930322206383,24.71790909492964,98.77369383550068,90.16591709165246,0.0001618862152099,0.0948198437690734,0,0,0
8304,289138.9010435626,2010-11-19 20:04:25,330.1678206604177,2,26,0.5499359965324402,3.794291257858277,24.749516707765984,24.71790909492964,98.79108694578996,90.16591709165246,6.47544875391759e-05,0.0948198437690734,0,0,0
8305,289168.9180738733,2010-11-19 20:04:55,360.1848509961404,2,26,0.5497553944587708,3.798176527023315,24.75410338645065,24.71790909492964,98.80849959916574,90.16591709165246,6.47544875391759e-05,0.0948198437690734,0,0,0
8306,289198.9314936365,2010-11-19 20:05:25,390.1982707392684,2,26,0.5499359965324402,3.8020617961883545,24.758689474668987,24.71790909492964,98.825927748877,90.16591709165246,9.713172767078504e-05,0.0948198437690734,0,0,0
8307,289228.946750365,2010-11-19 20:05:55,420.21352746278205,2,26,0.5501165986061096,3.805785179138184,24.76327587946259,24.71790909492964,98.8433742820714,90.16591709165246,0.0001295089750783,0.0948198437690734,0,0,0
8308,289258.9621089578,2010-11-19 20:06:25,450.22888608063965,2,26,0.5499359965324402,3.8095085620880127,24.767862253235705,24.71790909492964,98.86083742634612,90.16591709165246,0.0001295089750783,0.0948198437690734,0,0,0
8309,289288.97721901024,2010-11-19 20:06:55,480.2439961079773,2,26,0.5501165986061096,3.813070058822632,24.77244860606071,24.71790909492964,98.87831678125896,90.16591709165246,0.0001295089750783,0.0948198437690734,0,0,0
8310,289318.9924816385,2010-11-19 20:07:25,510.2592587562801,2,26,0.5501165986061096,3.816631555557251,24.77703488411379,24.71790909492964,98.89581212160368,90.16591709165246,0.0001295089750783,0.0948198437690734,0,0,0
8311,289349.0079064315,2010-11-19 20:07:55,540.2746835292712,2,26,0.5501165986061096,3.81986927986145,24.78162118701964,24.71790909492964,98.9133230790322,90.16591709165246,9.713172767078504e-05,0.0948198437690734,0,0,0
8312,289379.0229806294,2010-11-19 20:08:25,570.2897577171478,2,26,0.550297200679779,3.8232688903808594,24.786207399698377,24.71790909492964,98.93084892836268,90.16591709165246,0.0001295089750783,0.0948198437690734,0,0,0
8313,289409.0383626206,2010-11-19 20:08:55,600.3051397233864,2,26,0.5501165986061096,3.8263447284698486,24.79079362419037,24.71790909492964,98.9483898763476,90.16591709165246,9.713172767078504e-05,0.0948198437690734,0,0,0
8314,289439.05361390056,2010-11-19 20:09:25,630.3203910083246,2,26,0.5501165986061096,3.829582452774048,24.795379974136058,24.71790909492964,98.96594617490098,90.16591709165246,0.0001295089750783,0.0948198437690734,0,0,0
8315,289469.0687353865,2010-11-19 20:09:55,660.3355125042895,2,26,0.5501165986061096,3.832820177078247,24.799966277014,24.71790909492964,98.98351721651689,90.16591709165246,9.713172767078504e-05,0.0948198437690734,0,0,0
8316,289499.0839928819,2010-11-19 20:10:25,690.3507700047427,2,26,0.550297200679779,3.836057662963867,24.804552610494326,24.71790909492964,99.0011033317142,90.16591709165246,9.713172767078504e-05,0.0948198437690734,0,0,0
8317,289529.0992611192,2010-11-19 20:10:55,720.3660382119214,2,26,0.5501165986061096,3.839457273483277,24.80913897800213,24.71790909492964,99.01870479700167,90.16591709165246,0.0001295089750783,0.0948198437690734,0,0,0
8318,289559.1145311309,2010-11-19 20:11:25,750.3813082536793,2,26,0.5499359965324402,3.842694997787476,24.813725308090486,24.71790909492964,99.03632158817254,90.16591709165246,0.0,0.0948198437690734,0,0,0
8319,289589.1298795483,2010-11-19 20:11:55,780.3966566460126,2,26,0.5501165986061096,3.846256494522095,24.818311683124406,24.71790909492964,99.05395416899928,90.16591709165246,9.713172767078504e-05,0.0948198437690734,0,0,0
8320,289619.14500490885,2010-11-19 20:12:25,810.4117820366994,2,26,0.5501165986061096,3.849817991256714,24.822897975654783,24.71790909492964,99.07160239673024,90.16591709165246,0.0001295089750783,0.0948198437690734,0,0,0
8321,289649.16027284035,2010-11-19 20:12:55,840.4270499631773,2,26,0.5501165986061096,3.853379487991333,24.82748440672921,24.71790909492964,99.08926709309785,90.16591709165246,9.713172767078504e-05,0.0948198437690734,0,0,0
8322,289679.1755138747,2010-11-19 20:13:26,870.442291002541,2,26,0.5501165986061096,3.856617212295532,24.832070752361258,24.71790909492964,99.106947143502,90.16591709165246,6.47544875391759e-05,0.0948198437690734,0,0,0
8323,289709.1912066667,2010-11-19 20:13:56,900.4579837845237,2,26,0.5501165986061096,3.860016822814941,24.836657099083308,24.71790909492964,99.12464289736536,90.16591709165246,9.713172767078504e-05,0.0948198437690734,0,0,0
8324,289739.2060305999,2010-11-19 20:14:26,930.4728077277512,2,26,0.5501165986061096,3.863416433334351,24.84124341617168,24.71790909492964,99.14235401512822,90.16591709165246,6.47544875391759e-05,0.0948198437690734,0,0,0
8325,289769.22322523576,2010-11-19 20:14:56,960.4900023435422,2,26,0.5501165986061096,3.86665415763855,24.84583008891675,24.71790909492964,99.16008164711928,90.16591709165246,6.47544875391759e-05,0.0948198437690734,0,0,0
8326,289799.23653137527,2010-11-19 20:15:26,990.503308498136,2,26,0.5499359965324402,3.869891881942749,24.85041611722533,24.71790909492964,99.17782181768054,90.16591709165246,9.713172767078504e-05,0.0948198437690734,0,0,0
8327,289829.2517886352,2010-11-19 20:15:56,1020.5185657579882,2,26,0.5501165986061096,3.873129606246948,24.85500245101441,24.71790909492964,99.19557786806764,90.16591709165246,9.713172767078504e-05,0.0948198437690734,0,0,0
8328,289859.26716241083,2010-11-19 20:16:26,1050.533939533682,2,26,0.5501165986061096,3.8762054443359375,24.859588915513285,24.71790909492964,99.21334864119086,90.16591709165246,9.713172767078504e-05,0.0948198437690734,0,0,0
8329,289889.2824359263,2010-11-19 20:16:56,1080.5492130240486,2,26,0.550297200679779,3.879119396209717,24.864175272774688,24.71790909492964,99.23113287668504,90.16591709165246,6.47544875391759e-05,0.0948198437690734,0,0,0
8330,289919.29754164786,2010-11-19 20:17:26,1110.5643187556632,2,26,0.5501165986061096,3.881871461868286,24.868761670559905,24.71790909492964,99.24893055897458,90.16591709165246,6.47544875391759e-05,0.0948198437690734,0,0,0
8331,289949.312798607,2010-11-19 20:17:56,1140.57957570474,2,26,0.5499359965324402,3.884623527526856,24.873348152182597,24.71790909492964,99.26674146912153,90.16591709165246,9.713172767078504e-05,0.0948198437690734,0,0,0
8332,289979.32810273883,2010-11-19 20:18:26,1170.594879866667,2,26,0.5501165986061096,3.887213706970215,24.87793457008337,24.71790909492964,99.284564239039,90.16591709165246,6.47544875391759e-05,0.0948198437690734,0,0,0
8333,290009.34352906066,2010-11-19 20:18:56,1200.610306183512,2,26,0.550297200679779,3.889803886413574,24.882521008978053,24.71790909492964,99.30239870841328,90.16591709165246,9.713172767078504e-05,0.0948198437690734,0,0,0
8334,290039.3585786572,2010-11-19 20:19:26,1230.6253557749922,2,26,0.5499359965324402,3.891908407211304,24.88710745351162,24.71790909492964,99.32024403028876,90.16591709165246,0.0,0.0948198437690734,0,0,0
8335,290069.3738163231,2010-11-19 20:19:56,1260.6405934258976,2,26,0.5501165986061096,3.894174814224243,24.891693859188397,24.71790909492964,99.33809934951414,90.16591709165246,6.47544875391759e-05,0.0948198437690734,0,0,0
8336,290099.38909863046,2010-11-19 20:20:26,1290.6558757282603,2,26,0.550297200679779,3.8961174488067623,24.89628030563241,24.71790909492964,99.35596387493044,90.16591709165246,6.47544875391759e-05,0.0948198437690734,0,0,0
8337,290129.4043432438,2010-11-19 20:20:56,1320.6711203615953,2,26,0.5501165986061096,3.897898197174072,24.90086672369883,24.71790909492964,99.37383704191,90.16591709165246,6.47544875391759e-05,0.0948198437690734,0,0,0
8338,290159.4195954861,2010-11-19 20:21:26,1350.686372613948,2,26,0.5501165986061096,3.899678945541382,24.90545309701609,24.71790909492964,99.39171818939056,90.16591709165246,3.237724376958795e-05,0.0948198437690734,0,0,0
8339,290189.4349148259,2010-11-19 20:21:56,1380.7016919437365,2,26,0.5497553944587708,3.901135921478272,24.910039466322942,24.71790909492964,99.40960693551207,90.16591709165246,6.47544875391759e-05,0.0948198437690734,0,0,0
8340,290219.450125294,2010-11-19 20:22:26,1410.716902416802,2,26,0.5501165986061096,3.902754783630371,24.91462580884491,24.71790909492964,99.42750285438538,90.16591709165246,6.47544875391759e-05,0.0948198437690734,0,0,0
8341,290249.46536192734,2010-11-19 20:22:56,1440.73213905518,2,26,0.5499359965324402,3.9042117595672607,24.91921219997024,24.71790909492964,99.44540583569602,90.16591709165246,6.47544875391759e-05,0.0948198437690734,0,0,0
8342,290279.48074548243,2010-11-19 20:23:26,1470.747522590235,2,26,0.5501165986061096,3.9056687355041504,24.923798634137675,24.71790909492964,99.4633155774718,90.16591709165246,6.47544875391759e-05,0.0948198437690734,0,0,0
8343,290309.4958543118,2010-11-19 20:23:56,1500.7626314296072,2,26,0.5497553944587708,3.90680193901062,24.92838495079334,24.71790909492964,99.48123126853376,90.16591709165246,0.0,0.0948198437690734,0,0,0
8344,290339.51112286485,2010-11-19 20:24:26,1530.7778999575864,2,26,0.5501165986061096,3.9082589149475098,24.93297131591987,24.71790909492964,99.49915338537218,90.16591709165246,0.0,0.0948198437690734,0,0,0
8345,290369.5282629696,2010-11-19 20:24:56,1560.7950400923844,2,26,0.5501165986061096,3.9097158908844,24.93755845867724,24.71790909492964,99.5170847831896,90.16591709165246,0.0,0.0948198437690734,0,0,0
8346,290399.54167355486,2010-11-19 20:25:26,1590.8084506525904,2,26,0.550297200679779,3.911172866821289,24.942145333534185,24.71790909492964,99.53502121879836,90.16591709165246,6.47544875391759e-05,0.0948198437690734,0,0,0
8347,290429.556904509,2010-11-19 20:25:56,1620.82368160678,2,26,0.5501165986061096,3.912306070327759,24.94673191808656,24.71790909492964,99.55296260886692,90.16591709165246,0.0,0.0948198437690734,0,0,0
8348,290459.57215645566,2010-11-19 20:26:26,1650.8389335533698,2,26,0.5501165986061096,3.913762807846069,24.951318280944324,24.71790909492964,99.57090919499338,90.16591709165246,3.23295607813634e-05,0.0948198437690734,0,0,0
8349,290489.5874152894,2010-11-19 20:26:56,1680.854192387151,2,26,0.5501165986061096,3.915219783782959,24.95590461314568,24.71790909492964,99.5888618004283,90.16591709165246,9.713172767078504e-05,0.0948198437690734,0,0,0
8350,290519.60268737626,2010-11-19 20:27:26,1710.8694644639893,2,26,0.5501165986061096,3.9163529872894287,24.960491004428132,24.71790909492964,99.60682059029445,90.16591709165246,3.237724376958795e-05,0.0948198437690734,0,0,0
8351,290549.61804308183,2010-11-19 20:27:56,1740.884820184615,2,26,0.5499359965324402,3.9178099632263184,24.96507742564426,24.71790909492964,99.6247857609917,90.16591709165246,6.47544875391759e-05,0.0948198437690734,0,0,0
8352,290579.6331802018,2010-11-19 20:28:26,1770.8999573246297,2,26,0.5501165986061096,3.919105052947998,24.9696637484964,24.71790909492964,99.64275667694145,90.16591709165246,6.47544875391759e-05,0.0948198437690734,0,0,0
8353,290609.6486339822,2010-11-19 20:28:56,1800.915411079965,2,26,0.5501165986061096,3.9204001426696777,24.974250183985244,24.71790909492964,99.66073425357445,90.16591709165246,6.47544875391759e-05,0.0948198437690734,0,0,0
8354,290639.6636998142,2010-11-19 20:29:26,1830.930476911984,2,26,0.550297200679779,3.921857118606568,24.97883650978961,24.71790909492964,99.67871750703132,90.16591709165246,6.47544875391759e-05,0.0948198437690734,0,0,0
8355,290669.67895053275,2010-11-19 20:29:56,1860.9457276405333,2,26,0.5501165986061096,3.922990322113037,24.98342282713879,24.71790909492964,99.69670698862974,90.16591709165246,3.237724376958795e-05,0.0948198437690734,0,0,0
8356,290699.6941940834,2010-11-19 20:30:26,1890.9609711811408,2,26,0.550297200679779,3.9246091842651367,24.98800917777871,24.71790909492964,99.71470289122354,90.16591709165246,3.237724376958795e-05,0.0948198437690734,0,0,0
8357,290729.709446035,2010-11-19 20:30:56,1920.9762231327427,2,26,0.5501165986061096,3.925904273986816,24.992595553007646,24.71790909492964,99.73270526753248,90.16591709165246,0.0,0.0948198437690734,0,0,0
8358,290759.72493369994,2010-11-19 20:31:26,1950.9917108277973,2,26,0.5501165986061096,3.927199363708496,24.997182011587537,24.71790909492964,99.75071422428051,90.16591709165246,3.237724376958795e-05,0.0948198437690734,0,0,0
8359,290789.7399647602,2010-11-19 20:31:56,1981.0067418579456,2,26,0.5499359965324402,3.9286563396453857,25.00176841234445,24.71790909492964,99.76872947910456,90.16591709165246,3.237724376958795e-05,0.0948198437690734,0,0,0
8360,290819.75542375364,2010-11-19 20:32:26,2011.0222008563685,2,26,0.5501165986061096,3.930275201797485,25.006354784417145,24.71790909492964,99.78675109188129,90.16591709165246,6.47544875391759e-05,0.0948198437690734,0,0,0
8361,290849.77062517405,2010-11-19 20:32:56,2041.0374022718247,2,26,0.5501165986061096,3.931408405303955,25.010941171064967,24.71790909492964,99.80477933195937,90.16591709165246,3.237724376958795e-05,0.0948198437690734,0,0,0
8362,290879.7857219333,2010-11-19 20:33:26,2071.0524990310428,2,26,0.550297200679779,3.9331891536712646,25.01552754443408,24.71790909492964,99.82281411753952,90.16591709165246,9.713172767078504e-05,0.0948198437690734,0,0,0
8363,290909.8009958397,2010-11-19 20:33:56,2101.0677729474723,2,26,0.5497553944587708,3.9343223571777344,25.020113905412497,24.71790909492964,99.840855535979,90.16591709165246,3.237724376958795e-05,0.0948198437690734,0,0,0
8364,290939.8163650339,2010-11-19 20:34:26,2131.083142136718,2,26,0.5501165986061096,3.935941219329834,25.024700340527342,24.71790909492964,99.8589039705789,90.16591709165246,0.0,0.0948198437690734,0,0,0
8365,290969.83444205235,2010-11-19 20:34:56,2161.101219150109,2,26,0.5501165986061096,3.937398195266724,25.029287192276023,24.71790909492964,99.87696058705356,90.16591709165246,3.237724376958795e-05,0.0948198437690734,0,0,0
8366,290999.84680336853,2010-11-19 20:35:26,2191.113580551453,2,26,0.5499359965324402,3.938855171203613,25.0338731394672,24.71790909492964,99.89502052337536,90.16591709165246,0.0,0.0948198437690734,0,0,0
8367,291029.86205729505,2010-11-19 20:35:56,2221.1288343927727,2,26,0.5501165986061096,3.940474033355713,25.03845948863653,24.71790909492964,99.9130888307144,90.16591709165246,9.713172767078504e-05,0.0948198437690734,0,0,0
8368,291059.8774754264,2010-11-19 20:36:26,2251.144252664536,2,26,0.5499359965324402,3.9417691230773926,25.04304587003935,24.71790909492964,99.93116411824477,90.16591709165246,3.237724376958795e-05,0.0948198437690734,0,0,0
8369,291089.8925001057,2010-11-19 20:36:56,2281.159277203481,2,26,0.5501165986061096,3.943387985229492,25.04763212322838,24.71790909492964,99.9492458879438,90.16591709165246,3.237724376958795e-05,0.0948198437690734,0,0,0
8370,291119.90773902985,2010-11-19 20:37:26,2311.1745161275644,2,26,0.5499359965324402,3.944844961166382,25.05221843003481,24.71790909492964,99.96733483232084,90.16591709165246,3.237724376958795e-05,0.0948198437690734,0,0,0
8371,291149.92295118707,2010-11-19 20:37:56,2341.189728279822,2,26,0.5501165986061096,3.9464638233184814,25.05680461592045,24.71790909492964,99.98543036660324,90.16591709165246,6.47544875391759e-05,0.0948198437690734,0,0,0
8372,291179.9381922064,2010-11-19 20:38:26,2371.204969299135,2,26,0.5497553944587708,3.947758913040161,25.061390085307856,24.71790909492964,100.00352989771656,90.16591709165246,0.0,0.0948198437690734,0,0,0
8373,291209.95350081444,2010-11-19 20:38:56,2401.220277912173,2,26,0.5499359965324402,3.9493777751922607,25.065975691992502,24.71790909492964,100.0216371306732,90.16591709165246,0.0,0.0948198437690734,0,0,0
8374,291239.9687710968,2010-11-19 20:39:26,2431.2355481895192,2,26,0.5499359965324402,3.9511585235595694,25.07056121115626,24.71790909492964,100.0397510579542,90.16591709165246,6.47544875391759e-05,0.0948198437690734,0,0,0
8375,291269.9840538603,2010-11-19 20:39:56,2461.25083096807,2,26,0.5499359965324402,3.95261549949646,25.0751466420354,24.71790909492964,100.05787174964692,90.16591709165246,6.47544875391759e-05,0.0948198437690734,0,0,0
8376,291299.99919453915,2010-11-19 20:40:26,2491.265971636893,2,26,0.5501165986061096,3.95423436164856,25.079732029477256,24.71790909492964,100.07599956334158,90.16591709165246,3.237724376958795e-05,0.0948198437690734,0,0,0
8377,291330.0145056033,2010-11-19 20:40:56,2521.281282731125,2,26,0.5501165986061096,3.955691337585449,25.08431754514801,24.71790909492964,100.09413501596782,90.16591709165246,3.237724376958795e-05,0.0948198437690734,0,0,0
8378,291360.0297443469,2010-11-19 20:41:26,2551.296521444683,2,26,0.5499359965324402,3.957148313522339,25.088903964449816,24.71790909492964,100.11228136251236,90.16591709165246,0.0,0.0948198437690734,0,0,0
8379,291390.0450079777,2010-11-19 20:41:56,2581.3117850804506,2,26,0.550297200679779,3.958929061889648,25.09349033630292,24.71790909492964,100.13043483685364,90.16591709165246,3.237724376958795e-05,0.0948198437690734,0,0,0
8380,291420.0602665358,2010-11-19 20:42:26,2611.3270436335315,2,26,0.5499359965324402,3.960547924041748,25.098076694127943,24.71790909492964,100.14859561565952,90.16591709165246,3.237724376958795e-05,0.0948198437690734,0,0,0
8381,291450.07557781547,2010-11-19 20:42:56,2641.342354913226,2,26,0.5499359965324402,3.962166786193848,25.10266307799727,24.71790909492964,100.1667640182176,90.16591709165246,3.237724376958795e-05,0.0948198437690734,0,0,0
8382,291480.0907674866,2010-11-19 20:43:26,2671.357544594391,2,26,0.550297200679779,3.963947534561157,25.10724947946663,24.71790909492964,100.18493993536092,90.16591709165246,3.237724376958795e-05,0.0948198437690734,0,0,0
8383,291510.1061539891,2010-11-19 20:43:56,2701.3729310968533,2,26,0.5501165986061096,3.965404510498047,25.111835929389372,24.71790909492964,100.20312363451234,90.16591709165246,3.237724376958795e-05,0.0948198437690734,0,0,0
8384,291540.1212840264,2010-11-19 20:44:26,2731.3880611241134,2,26,0.550297200679779,3.967185258865357,25.116422374591547,24.71790909492964,100.22131488967744,90.16591709165246,6.47544875391759e-05,0.0948198437690734,0,0,0
8385,291570.13843552454,2010-11-19 20:44:56,2761.405212627289,2,26,0.5501165986061096,3.968804121017456,25.1210090770223,24.71790909492964,100.23951464038632,90.16591709165246,3.237724376958795e-05,0.0948198437690734,0,0,0
8386,291600.15179487184,2010-11-19 20:45:27,2791.4185719696475,2,26,0.5501165986061096,3.970422983169556,25.125595185008823,24.71790909492964,100.25771976234395,90.16591709165246,6.47544875391759e-05,0.0948198437690734,0,0,0
8387,291630.167036207,2010-11-19 20:45:57,2821.433813314774,2,26,0.5501165986061096,3.972203731536865,25.1301815929346,24.71790909492964,100.27593385258147,90.16591709165246,6.47544875391759e-05,0.0948198437690734,0,0,0
8388,291660.1824741178,2010-11-19 20:46:27,2851.4492512205466,2,26,0.5501165986061096,3.973822593688965,25.134768053765377,24.71790909492964,100.29415598665432,90.16591709165246,3.237724376958795e-05,0.0948198437690734,0,0,0
8389,291690.19755745353,2010-11-19 20:46:57,2881.4643345612703,2,26,0.5499359965324402,3.9756033420562735,25.139354470916658,24.71790909492964,100.31238582962273,90.16591709165246,0.0,0.0948198437690734,0,0,0
8390,291720.2128161419,2010-11-19 20:47:27,2911.479593249689,2,26,0.5504778623580933,3.977384090423584,25.14394095979143,24.71790909492964,100.33062388207324,90.16591709165246,9.713172767078504e-05,0.0948198437690734,0,0,0
8391,291750.2280516675,2010-11-19 20:47:57,2941.4948287702764,2,26,0.5501165986061096,3.9791648387908936,25.14852737101403,24.71790909492964,100.34886909092812,90.16591709165246,6.47544875391759e-05,0.0948198437690734,0,0,0
8392,291780.24331039604,2010-11-19 20:48:27,2971.510087498795,2,26,0.5499359965324402,3.980621814727783,25.153113724773167,24.71790909492964,100.36712266828054,90.16591709165246,0.0,0.0948198437690734,0,0,0
8393,291810.25857781625,2010-11-19 20:48:57,3001.5253549190093,2,26,0.550297200679779,3.982564449310303,25.1577000690345,24.71790909492964,100.38538434446012,90.16591709165246,3.237724376958795e-05,0.0948198437690734,0,0,0
8394,291840.27393914585,2010-11-19 20:49:27,3031.540716243623,2,26,0.5499359965324402,3.9841833114624015,25.16228642653691,24.71790909492964,100.40365419564156,90.16591709165246,3.237724376958795e-05,0.0948198437690734,0,0,0
8395,291870.2891188421,2010-11-19 20:49:57,3061.555895939865,2,26,0.5501165986061096,3.986125946044922,25.16687273560599,24.71790909492964,100.4219321201022,90.16591709165246,3.237724376958795e-05,0.0948198437690734,0,0,0
8396,291900.30432568607,2010-11-19 20:50:27,3091.5711027888847,2,26,0.5499359965324402,3.9880685806274414,25.171459027652578,24.71790909492964,100.4402183214542,90.16591709165246,6.47544875391759e-05,0.0948198437690734,0,0,0
8397,291930.31986456393,2010-11-19 20:50:57,3121.586641686749,2,26,0.5501165986061096,3.989849328994751,25.17604540861619,24.71790909492964,100.45851320096978,90.16591709165246,3.237724376958795e-05,0.0948198437690734,0,0,0
8398,291960.33483552915,2010-11-19 20:51:27,3151.6016126319155,2,26,0.5501165986061096,3.9917919635772714,25.180631641599163,24.71790909492964,100.47681607661784,90.16591709165246,6.47544875391759e-05,0.0948198437690734,0,0,0
8399,291990.3500840672,2010-11-19 20:51:57,3181.6168611649846,2,26,0.5497553944587708,3.99357271194458,25.18521802748571,24.71790909492964,100.49512821962432,90.16591709165246,6.47544875391759e-05,0.0948198437690734,0,0,0
8400,292020.36547031405,2010-11-19 20:52:27,3211.6322474218337,2,26,0.5501165986061096,3.9956769943237305,25.1898044094746,24.71790909492964,100.51344907569953,90.16591709165246,6.47544875391759e-05,0.0948198437690734,0,0,0
8401,292050.3807269574,2010-11-19 20:52:57,3241.647504055122,2,26,0.5499359965324402,3.99745774269104,25.19439078759685,24.71790909492964,100.53177868898524,90.16591709165246,6.47544875391759e-05,0.0948198437690734,0,0,0
8402,292080.39590449823,2010-11-19 20:53:27,3271.662681595984,2,26,0.5499359965324402,3.99940037727356,25.19897716101943,24.71790909492964,100.5501170972414,90.16591709165246,3.237724376958795e-05,0.0948198437690734,0,0,0
8403,292110.4112320736,2010-11-19 20:53:57,3301.6780091713545,2,26,0.5499359965324402,4.001343250274658,25.20356345103301,24.71790909492964,100.56846410719666,90.16591709165246,3.24249267578125e-05,0.0948198437690734,0,0,0
8404,292140.4264832182,2010-11-19 20:54:27,3331.6932603259675,2,26,0.5501165986061096,4.003285884857178,25.208149759959497,24.71790909492964,100.58682031986386,90.16591709165246,3.24249267578125e-05,0.0948198437690734,0,0,0
8405,292170.4436603303,2010-11-19 20:54:57,3361.7104374330543,2,26,0.5501165986061096,4.005390167236328,25.21273642964679,24.71790909492964,100.60518710352616,90.16591709165246,6.47544875391759e-05,0.0948198437690734,0,0,0
8406,292200.4570398931,2010-11-19 20:55:27,3391.723817000898,2,26,0.5501165986061096,4.007494926452637,25.217322467911625,24.71790909492964,100.62356071164338,90.16591709165246,6.47544875391759e-05,0.0948198437690734,0,0,0
8407,292230.4721118805,2010-11-19 20:55:57,3421.738888978258,2,26,0.5499359965324402,4.009437561035156,25.22190884089936,24.71790909492964,100.6419450961756,90.16591709165246,6.47544875391759e-05,0.0948198437690734,0,0,0
8408,292260.48739860894,2010-11-19 20:56:27,3451.7541757317304,2,26,0.550297200679779,4.011703968048096,25.22649512340317,24.71790909492964,100.66033862945044,90.16591709165246,9.71794142969884e-05,0.0948198437690734,0,0,0
8409,292290.5026971869,2010-11-19 20:56:57,3481.7694742996946,2,26,0.5501165986061096,4.013808250427246,25.23108150222119,24.71790909492964,100.67874227950352,90.16591709165246,6.47544875391759e-05,0.0948198437690734,0,0,0
8410,292320.5178739157,2010-11-19 20:57:27,3511.7846510134914,2,26,0.550297200679779,4.015913009643555,25.235667907805063,24.71790909492964,100.69715577197972,90.16591709165246,6.47544875391759e-05,0.0948198437690734,0,0,0
8411,292350.5331526943,2010-11-19 20:57:57,3541.799929802083,2,26,0.5501165986061096,4.018179416656494,25.24025423188877,24.71790909492964,100.71557886959393,90.16591709165246,6.47544875391759e-05,0.0948198437690734,0,0,0
8412,292380.5483868064,2010-11-19 20:58:27,3571.8151639091425,2,26,0.5499359965324402,4.0202836990356445,25.244840603681578,24.71790909492964,100.7340121563863,90.16591709165246,6.47544875391759e-05,0.0948198437690734,0,0,0
8413,292410.5636585223,2010-11-19 20:58:57,3601.830435620067,2,26,0.5501165986061096,4.022388458251953,25.249426972167107,24.71790909492964,100.75245568364063,90.16591709165246,3.24249267578125e-05,0.0948198437690734,0,0,0
8414,292440.5788895817,2010-11-19 20:59:27,3631.845666679519,2,26,0.550297200679779,4.024816513061523,25.25401331209623,24.71790909492964,100.77090936341212,90.16591709165246,9.70840483205393e-05,0.0948198437690734,0,0,0
8415,292470.5942693273,2010-11-19 20:59:57,3661.861046430128,2,26,0.5499359965324402,4.026921272277832,25.258599617416984,24.71790909492964,100.789373269742,90.16591709165246,3.24249267578125e-05,0.0948198437690734,0,0,0
8416,292500.6094723919,2010-11-19 21:00:27,3691.876249489688,2,26,0.550297200679779,4.029349327087402,25.263185914761408,24.71790909492964,100.80784762040166,90.16591709165246,6.47544875391759e-05,0.0948198437690734,0,0,0
8417,292530.6254689572,2010-11-19 21:00:57,3721.8922461602233,2,26,0.5501165986061096,4.031615734100342,25.267772390582145,24.71790909492964,100.82633306483125,90.16591709165246,6.47544875391759e-05,0.0948198437690734,0,0,0
8418,292560.63990991446,2010-11-19 21:01:27,3751.906687022221,2,26,0.5499359965324402,4.033882141113281,25.272358561932773,24.71790909492964,100.84482765958415,90.16591709165246,6.47544875391759e-05,0.0948198437690734,0,0,0
8419,292590.655161059,2010-11-19 21:01:57,3781.921938156784,2,26,0.5501165986061096,4.036148548126221,25.276944924458697,24.71790909492964,100.86333344438296,90.16591709165246,6.47544875391759e-05,0.0948198437690734,0,0,0
8420,292620.6704215369,2010-11-19 21:02:27,3811.9371986346687,2,26,0.5501165986061096,4.03841495513916,25.281531254472856,24.71790909492964,100.8818495591611,90.16591709165246,6.47544875391759e-05,0.0948198437690734,0,0,0
8421,292650.68568131805,2010-11-19 21:02:57,3841.9524584158144,2,26,0.5501165986061096,4.0406813621521,25.28611769854596,24.71790909492964,100.90037663231811,90.16591709165246,9.71794142969884e-05,0.0948198437690734,0,0,0
8422,292680.7011545721,2010-11-19 21:03:27,3871.967931679847,2,26,0.5501165986061096,4.042947769165039,25.29070407307076,24.71790909492964,100.91891409956774,90.16591709165246,3.24249267578125e-05,0.0948198437690734,0,0,0
8423,292710.716231607,2010-11-19 21:03:57,3901.983008704806,2,26,0.5501165986061096,4.0452141761779785,25.29529043686289,24.71790909492964,100.9374622683427,90.16591709165246,3.24249267578125e-05,0.0948198437690734,0,0,0
8424,292740.7314470375,2010-11-19 21:04:27,3931.998224135245,2,26,0.5499359965324402,4.047642230987549,25.29987681954872,24.71790909492964,100.95602132137076,90.16591709165246,3.23295607813634e-05,0.0948198437690734,0,0,0
8425,292770.74862231,2010-11-19 21:04:57,3962.015399412765,2,26,0.5501165986061096,4.050070762634277,25.304463533032145,24.71790909492964,100.97459263562769,90.16591709165246,6.47544875391759e-05,0.0948198437690734,0,0,0
8426,292800.7619740835,2010-11-19 21:05:27,3992.028751181218,2,26,0.5501165986061096,4.052498817443848,25.309049560894223,24.71790909492964,100.99317206418968,90.16591709165246,6.47544875391759e-05,0.0948198437690734,0,0,0
8427,292830.77735049074,2010-11-19 21:05:57,4022.04412758848,2,26,0.5499359965324402,4.054927349090576,25.31363605045987,24.71790909492964,101.01176456135498,90.16591709165246,9.71794142969884e-05,0.0948198437690734,0,0,0
8428,292860.79261642223,2010-11-19 21:06:27,4052.059393530004,2,26,0.5501165986061096,4.0573554039001465,25.31822247609741,24.71790909492964,101.03036791336156,90.16591709165246,6.47544875391759e-05,0.0948198437690734,0,0,0
8429,292890.8105955964,2010-11-19 21:06:57,4082.0773728044232,2,26,0.5499359965324402,4.059783935546875,25.322809302057124,24.71790909492964,101.04898416875028,90.16591709165246,3.24249267578125e-05,0.0948198437690734,0,0,0
8430,292920.8230794183,2010-11-19 21:07:27,4112.089856526098,2,26,0.5499359965324402,4.062374114990234,25.32739535008143,24.71790909492964,101.06760837701334,90.16591709165246,9.71794142969884e-05,0.0948198437690734,0,0,0
8431,292950.8382696909,2010-11-19 21:07:57,4142.105046793728,2,26,0.5499359965324402,4.064802169799805,25.33198175179244,24.71790909492964,101.08624560385805,90.16591709165246,3.23295607813634e-05,0.0948198437690734,0,0,0
8432,292980.8535304946,2010-11-19 21:08:27,4172.120307602439,2,26,0.5499359965324402,4.067392349243164,25.336568132106297,24.71790909492964,101.1048944293651,90.16591709165246,9.70840483205393e-05,0.0948198437690734,0,0,0
8433,293010.86881577945,2010-11-19 21:08:57,4202.13559287722,2,26,0.550297200679779,4.0701446533203125,25.34115452303172,24.71790909492964,101.12355514965172,90.16591709165246,9.71794142969884e-05,0.0948198437690734,0,0,0
8434,293040.8840618714,2010-11-19 21:09:27,4232.150838974208,2,26,0.5501165986061096,4.072572708129883,25.345740942974405,24.71790909492964,101.14222786867252,90.16591709165246,9.70840483205393e-05,0.0948198437690734,0,0,0
8435,293070.8993314771,2010-11-19 21:09:57,4262.1661085999285,2,26,0.5499359965324402,4.075162887573242,25.350327356621577,24.71790909492964,101.16091257601356,90.16591709165246,6.47544875391759e-05,0.0948198437690734,0,0,0
8436,293100.9145932532,2010-11-19 21:10:27,4292.181370350992,2,26,0.5501165986061096,4.077915191650391,25.354913782516658,24.71790909492964,101.17960944201045,90.16591709165246,6.47544875391759e-05,0.0948198437690734,0,0,0
8437,293130.9299330992,2010-11-19 21:10:57,4322.196710202004,2,26,0.5501165986061096,4.08050537109375,25.35950023254407,24.71790909492964,101.19831866837691,90.16591709165246,6.47544875391759e-05,0.0948198437690734,0,0,0
8438,293160.9451589507,2010-11-19 21:11:27,4352.211936048444,2,26,0.5499359965324402,4.083095550537109,25.36408666829429,24.71790909492964,101.21703996556911,90.16591709165246,3.24249267578125e-05,0.0948198437690734,0,0,0
8439,293190.96054051584,2010-11-19 21:11:57,4382.227317613581,2,26,0.5501165986061096,4.086009502410889,25.36867309627908,24.71790909492964,101.23577365468938,90.16591709165246,9.71794142969884e-05,0.0948198437690734,0,0,0
8440,293220.9756638714,2010-11-19 21:12:27,4412.2424409691885,2,26,0.5499359965324402,4.088761329650879,25.37325950194725,24.71790909492964,101.25451978911444,90.16591709165246,6.47544875391759e-05,0.0948198437690734,0,0,0
8441,293250.9909479181,2010-11-19 21:12:57,4442.257725015905,2,26,0.5499359965324402,4.091351509094238,25.377845902983545,24.71790909492964,101.27327868519777,90.16591709165246,6.47544875391759e-05,0.0948198437690734,0,0,0
8442,293281.00620414043,2010-11-19 21:13:27,4472.272981238168,2,26,0.5499359965324402,4.094103813171387,25.38243234302241,24.71790909492964,101.29205055856254,90.16591709165246,3.24249267578125e-05,0.0948198437690734,0,0,0
8443,293311.02151731483,2010-11-19 21:13:57,4502.288294412591,2,26,0.5501165986061096,4.097179412841797,25.38701878052573,24.71790909492964,101.31083547929488,90.16591709165246,6.47544875391759e-05,0.0948198437690734,0,0,0
8444,293341.03683797794,2010-11-19 21:14:27,4532.303615075708,2,26,0.5501165986061096,4.100255489349365,25.39160527096957,24.71790909492964,101.32963375984632,90.16591709165246,0.0001295089750783,0.0948198437690734,0,0,0
8445,293371.053936163,2010-11-19 21:14:57,4562.320713265805,2,26,0.5501165986061096,4.103007316589356,25.396192049664872,24.71790909492964,101.34844643965866,90.16591709165246,9.70840483205393e-05,0.0948198437690734,0,0,0
8446,293401.0673019916,2010-11-19 21:15:27,4592.334079089343,2,26,0.5501165986061096,4.105921268463135,25.40077817700317,24.71790909492964,101.36726976367254,90.16591709165246,0.0001295089750783,0.0948198437690734,0,0,0
8447,293431.0826969652,2010-11-19 21:15:57,4622.349474072974,2,26,0.5499359965324402,4.108673572540283,25.40536463286206,24.71790909492964,101.38610784158178,90.16591709165246,6.47544875391759e-05,0.0948198437690734,0,0,0
8448,293461.0978364712,2010-11-19 21:16:27,4652.364613578895,2,26,0.5501165986061096,4.111749172210693,25.40995108009594,24.71790909492964,101.40495943396154,90.16591709165246,9.70840483205393e-05,0.0948198437690734,0,0,0
8449,293491.1131284727,2010-11-19 21:16:57,4682.379905570443,2,26,0.550297200679779,4.114824771881104,25.4145375185978,24.71790909492964,101.42382456922208,90.16591709165246,6.46591215627268e-05,0.0948198437690734,0,0,0
8450,293521.1283868604,2010-11-19 21:17:28,4712.395163958111,2,26,0.5501165986061096,4.117738723754883,25.41912401660281,24.71790909492964,101.44270374489692,90.16591709165246,6.47544875391759e-05,0.0948198437690734,0,0,0
8451,293551.1437247966,2010-11-19 21:17:58,4742.410501904369,2,26,0.5501165986061096,4.120814800262451,25.42371045965953,24.71790909492964,101.4615966618484,90.16591709165246,6.47544875391759e-05,0.0948198437690734,0,0,0
8452,293581.15907343954,2010-11-19 21:18:28,4772.425850547328,2,26,0.5501165986061096,4.123890399932861,25.428296952705708,24.71790909492964,101.4805037375722,90.16591709165246,6.47544875391759e-05,0.0948198437690734,0,0,0
8453,293611.1742202136,2010-11-19 21:18:58,4802.440997321391,2,26,0.5499359965324402,4.12696647644043,25.432883377051592,24.71790909492964,101.49942461017577,90.16591709165246,6.47544875391759e-05,0.0948198437690734,0,0,0
8454,293641.1894879646,2010-11-19 21:19:28,4832.456265062406,2,26,0.5501165986061096,4.13004207611084,25.43746991987783,24.71790909492964,101.51836038257396,90.16591709165246,6.47544875391759e-05,0.0948198437690734,0,0,0
8455,293671.20476588106,2010-11-19 21:19:58,4862.4715429838325,2,26,0.5501165986061096,4.133441925048828,25.44205639453624,24.71790909492964,101.53731038135832,90.16591709165246,0.0001295089750783,0.0948198437690734,0,0,0
8456,293701.2200492862,2010-11-19 21:20:28,4892.486826383935,2,26,0.550297200679779,4.136679649353027,25.446642877853023,24.71790909492964,101.55627494632816,90.16591709165246,0.0001295089750783,0.0948198437690734,0,0,0
8457,293731.235333363,2010-11-19 21:20:58,4922.502110460727,2,26,0.5499359965324402,4.139593601226807,25.45122939284678,24.71790909492964,101.57525432065754,90.16591709165246,6.47544875391759e-05,0.0948198437690734,0,0,0
8458,293761.2506378207,2010-11-19 21:21:28,4952.517414908367,2,26,0.550297200679779,4.142992973327637,25.4558159400788,24.71790909492964,101.5942485731337,90.16591709165246,9.70840483205393e-05,0.0948198437690734,0,0,0
8459,293791.26601115527,2010-11-19 21:21:58,4982.5327882529855,2,26,0.5501165986061096,4.146230697631836,25.46040245752869,24.71790909492964,101.61325758345689,90.16591709165246,0.0001295089750783,0.0948198437690734,0,0,0
8460,293821.2811725107,2010-11-19 21:22:28,5012.547949608446,2,26,0.5501165986061096,4.149468421936035,25.46498885718972,24.71790909492964,101.6322812176074,90.16591709165246,9.70840483205393e-05,0.0948198437690734,0,0,0
8461,293851.29667719314,2010-11-19 21:22:58,5042.563454315966,2,26,0.5501165986061096,4.152868270874023,25.469575355212463,24.71790909492964,101.65132037144484,90.16591709165246,9.71794142969884e-05,0.0948198437690734,0,0,0
8462,293881.31172041374,2010-11-19 21:23:28,5072.578497511481,2,26,0.5501165986061096,4.156105995178223,25.474161816202237,24.71790909492964,101.6703745489242,90.16591709165246,9.71794142969884e-05,0.0948198437690734,0,0,0
8463,293911.3270019191,2010-11-19 21:23:58,5102.593779026879,2,26,0.5501165986061096,4.159667491912842,25.4787483129738,24.71790909492964,101.68944419271432,90.16591709165246,9.71794142969884e-05,0.0948198437690734,0,0,0
8464,293941.34228343953,2010-11-19 21:24:28,5132.609060542277,2,26,0.5501165986061096,4.162905216217041,25.48333482464876,24.71790909492964,101.70852939560892,90.16591709165246,6.47544875391759e-05,0.0948198437690734,0,0,0
8465,293971.359645012,2010-11-19 21:24:58,5162.626422104792,2,26,0.5499359965324402,4.16614294052124,25.487921618778827,24.71790909492964,101.72763134454036,90.16591709165246,6.47544875391759e-05,0.0948198437690734,0,0,0
8466,294001.37285393896,2010-11-19 21:25:28,5192.639631046728,2,26,0.550297200679779,4.169704437255859,25.49250783363548,24.71790909492964,101.74674664660786,90.16591709165246,9.71794142969884e-05,0.0948198437690734,0,0,0
8467,294031.38813037163,2010-11-19 21:25:58,5222.654907469414,2,26,0.5501165986061096,4.173265933990479,25.49709423267321,24.71790909492964,101.7658785853138,90.16591709165246,9.71794142969884e-05,0.0948198437690734,0,0,0
8468,294061.403410664,2010-11-19 21:26:28,5252.67018776176,2,26,0.5501165986061096,4.176665306091309,25.501680717492764,24.71790909492964,101.78502684635158,90.16591709165246,6.47544875391759e-05,0.0948198437690734,0,0,0
8469,294091.41870624456,2010-11-19 21:26:58,5282.685483347278,2,26,0.550297200679779,4.180226802825928,25.50626724053891,24.71790909492964,101.80419135412389,90.16591709165246,9.70840483205393e-05,0.0948198437690734,0,0,0
8470,294121.43397573486,2010-11-19 21:27:28,5312.700752832648,2,26,0.5501165986061096,4.183788299560547,25.51085371955365,24.71790909492964,101.82337183733524,90.16591709165246,0.0001295089750783,0.0948198437690734,0,0,0
8471,294151.4492677415,2010-11-19 21:27:58,5342.716044839233,2,26,0.550297200679779,4.187349796295166,25.515440188345163,24.71790909492964,101.84256856640404,90.16591709165246,0.0001295089750783,0.0948198437690734,0,0,0
8472,294181.4646900634,2010-11-19 21:28:28,5372.731467161106,2,26,0.5499359965324402,4.190749645233154,25.520026625812648,24.71790909492964,101.86178156148073,90.16591709165246,9.71794142969884e-05,0.0948198437690734,0,0,0
8473,294211.47996132314,2010-11-19 21:28:58,5402.746738420905,2,26,0.5501165986061096,4.194634914398193,25.524613093119505,24.71790909492964,101.88101116464732,90.16591709165246,0.0001295089750783,0.0948198437690734,0,0,0
8474,294241.4951163929,2010-11-19 21:29:28,5432.761893495687,2,26,0.5501165986061096,4.198034286499023,25.52919949682305,24.71790909492964,101.90025717337274,90.16591709165246,6.47544875391759e-05,0.0948198437690734,0,0,0
8475,294256.08870428347,2010-11-19 21:29:42,5447.355481381217,2,26,0.5501165986061096,4.200300693511963,25.53142945628746,24.71790909492964,101.90962086128712,90.16591709165246,0.0001619339018361,0.0948198437690734,0,0,0
8476,294286.1003875444,2010-11-19 21:30:13,30.015269896395232,3,26,0.0,4.112235069274902,25.53142945628746,24.71790909492964,101.90962086128712,90.16591709165246,-0.0003885269106831,0.0948198437690734,0,0,0
8477,294316.1156839018,2010-11-19 21:30:43,60.03056622877876,3,26,0.0,4.101388454437256,25.53142945628746,24.71790909492964,101.90962086128712,90.16591709165246,-0.0001619339018361,0.0948198437690734,0,0,0
8478,294346.13094415417,2010-11-19 21:31:13,90.0458264760884,3,26,0.0,4.094751358032227,25.53142945628746,24.71790909492964,101.90962086128712,90.16591709165246,-0.0001618385285837,0.0948198437690734,0,0,0
8479,294376.09934301826,2010-11-19 21:31:43,120.01422534017604,3,26,0.0,4.090703964233398,25.53142945628746,24.71790909492964,101.90962086128712,90.16591709165246,-6.47544875391759e-05,0.0948198437690734,0,0,0
8480,294376.1127847765,2010-11-19 21:31:43,2.681693921e-06,4,26,0.9918869137763976,4.199814796447754,25.53142945702633,24.71790909492964,101.90962086439023,90.16591709165246,0.0,0.0948198437690734,0,0,0
8481,294377.00342376844,2010-11-19 21:31:44,0.890641703714271,4,26,0.9416775107383728,4.199653148651123,25.531667043261365,24.71790909492964,101.91061865319624,90.16591709165246,-3.23295607813634e-05,0.0948198437690734,0,0,0
8482,294379.1909944314,2010-11-19 21:31:46,3.078212471901014,4,26,0.8914681673049927,4.199814796447754,25.532222784658018,24.71790909492964,101.91295262056572,90.16591709165246,0.0,0.0948198437690734,0,0,0
8483,294382.441059208,2010-11-19 21:31:49,6.328277143330853,4,26,0.8414393663406372,4.199814796447754,25.5330037227653,24.71790909492964,101.91623236273904,90.16591709165246,3.23295607813634e-05,0.0948198437690734,0,0,0
8484,294386.92526782764,2010-11-19 21:31:54,10.812485868186355,4,26,0.7914106249809265,4.199814796447754,25.53401943255431,24.71790909492964,101.92049808304634,90.16591709165246,0.0,0.0948198437690734,0,0,0
8485,294392.84708105953,2010-11-19 21:31:59,16.73429898477353,4,26,0.7410206198692322,4.199653148651123,25.535278605698707,24.71790909492964,101.92578630408164,90.16591709165246,0.0,0.0948198437690734,0,0,0
8486,294400.6595057735,2010-11-19 21:32:07,24.546723698771164,4,26,0.6909918785095215,4.199814796447754,25.5368301595621,24.71790909492964,101.93230247542972,90.16591709165246,6.47544875391759e-05,0.0948198437690734,0,0,0
8487,294410.92503145995,2010-11-19 21:32:18,34.812249385196125,4,26,0.640963077545166,4.199653148651123,25.53872558948132,24.71790909492964,101.94026283954604,90.16591709165246,0.0,0.0948198437690734,0,0,0
8488,294425.4560700428,2010-11-19 21:32:32,49.34328796804331,4,26,0.5907536745071411,4.199653148651123,25.54120596249719,24.71790909492964,101.9506798262489,90.16591709165246,-3.23295607813634e-05,0.0948198437690734,0,0,0
8489,294447.9890399072,2010-11-19 21:32:55,71.87625783243558,4,26,0.5407249331474304,4.199814796447754,25.54473581646641,24.71790909492964,101.96550440292322,90.16591709165246,0.0,0.0948198437690734,0,0,0
8490,294487.8304026029,2010-11-19 21:33:34,111.71762052315204,4,26,0.4906961619853973,4.199653148651123,25.550416863613844,24.71790909492964,101.98936348258074,90.16591709165246,-3.23295607813634e-05,0.0948198437690734,0,0,0
8491,294560.72021919896,2010-11-19 21:34:47,184.6074371242062,4,26,0.4404867887496948,4.199814796447754,25.559806499317283,24.71790909492964,102.0287978531128,90.16591709165246,0.0,0.0948198437690734,0,0,0
8492,294669.17198959773,2010-11-19 21:36:36,293.0592075230093,4,26,0.3904580175876617,4.199653148651123,25.572297763720982,24.71790909492964,102.08125833966194,90.16591709165246,0.0,0.0948198437690734,0,0,0
8493,294801.93612223305,2010-11-19 21:38:49,425.8233401633308,4,26,0.3404292464256286,4.199653148651123,25.58575508161702,24.71790909492964,102.13777604416792,90.16591709165246,-3.23295607813634e-05,0.0948198437690734,0,0,0
8494,294959.76248437894,2010-11-19 21:41:26,583.6497023042132,4,26,0.2904004752635956,4.199814796447754,25.599563685374022,24.71790909492964,102.1957690732546,90.16591709165246,3.23295607813634e-05,0.0948198437690734,0,0,0
8495,295150.51036409254,2010-11-19 21:44:37,774.397582017806,4,26,0.2403717041015625,4.199814796447754,25.613601841837447,24.71790909492964,102.25472610540864,90.16591709165246,0.0,0.0948198437690734,0,0,0
8496,295384.94526233047,2010-11-19 21:48:32,1008.8324802557152,4,26,0.1903429329395294,4.199653148651123,25.62759304007061,24.71790909492964,102.31348593105672,90.16591709165246,-3.23295607813634e-05,0.0948198437690734,0,0,0
8497,295697.5512092823,2010-11-19 21:53:44,1321.4384272075297,4,26,0.1401335597038269,4.199653148651123,25.641874784467444,24.71790909492964,102.37346594824156,90.16591709165246,-3.23295607813634e-05,0.0948198437690734,0,0,0
8498,296167.35852552165,2010-11-19 22:01:34,1791.2457434519242,4,26,0.0901047885417938,4.199653148651123,25.65668457103012,24.71790909492964,102.43566367288996,90.16591709165246,0.0,0.0948198437690734,0,0,0
8499,296835.8045048289,2010-11-19 22:12:42,2459.691722779168,4,26,0.0498289167881011,4.199653148651123,25.669368572590603,24.71790909492964,102.48893354858266,90.16591709165246,3.24249267578125e-05,0.0948198437690734,0,0,0
8500,296865.82898502104,2010-11-19 22:13:13,30.015278457765728,5,26,0.0,4.191720962524414,25.669368572590603,24.71790909492964,102.48893354858266,90.16591709165246,3.24249267578125e-05,0.0948198437690734,0,0,0
8501,296895.8285678952,2010-11-19 22:13:43,60.0148613269276,5,26,0.0,4.190587520599365,25.669368572590603,24.71790909492964,102.48893354858266,90.16591709165246,0.0,0.0948198437690734,0,0,0
8502,296896.0105705091,2010-11-19 22:13:43,0.18758705113919,6,26,-1.9243103452026844e-05,4.190749645233154,25.669368572590603,24.717909095932352,102.48893354858266,90.16591709585455,0.0,0.0948198437690734,0,0,0
8503,296900.8405946876,2010-11-19 22:13:48,5.017611114281418,6,26,0.0005225847125984,4.190263748168945,25.669369424451737,24.7179090960166,102.48893711831626,90.16591709620762,-9.71794142969884e-05,0.0948198437690734,0,0,0
8504,296930.8640339272,2010-11-19 22:14:18,30.015388352078844,7,26,-1.099568486213684,4.0121893882751465,25.669369424451737,24.72707774266944,102.48893711831626,90.20290121360934,-0.0009389877086505,0.0948198437690734,0,0,0
8505,296960.87976930046,2010-11-19 22:14:48,60.031123725376034,7,26,-1.099568486213684,3.985478401184082,25.669369424451737,24.736245832809693,102.48893711831626,90.23955443435707,-0.0005827903514727,0.0948198437690734,0,0,0
8506,296990.8945934743,2010-11-19 22:15:18,90.04594790419162,7,26,-1.099568486213684,3.967185258865357,25.669369424451737,24.74541349470239,102.48893711831626,90.27600354429104,-0.0003885269106831,0.0948198437690734,0,0,0
8507,297020.9100411544,2010-11-19 22:15:48,120.06139557935,7,26,-1.099568486213684,3.95293927192688,25.669369424451737,24.75458139638486,102.48893711831626,90.3123061203118,-0.0003237724304199,0.0948198437690734,0,0,0
8508,297050.9251595978,2010-11-19 22:16:18,150.0765140226951,7,26,-1.0993878841400146,3.9411215782165527,25.669369424451737,24.76374920942126,102.48893711831626,90.34848961874984,-0.0002590179501567,0.0948198437690734,0,0,0
8509,297080.94058843097,2010-11-19 22:16:48,180.0919428608334,7,26,-1.0997490882873535,3.930275201797485,25.669369424451737,24.7729175745564,102.48893711831626,90.3845720715363,-0.0002266406954731,0.0948198437690734,0,0,0
8510,297110.9557749492,2010-11-19 22:17:18,210.1071293841165,7,26,-1.099568486213684,3.920562028884888,25.669369424451737,24.782085988033828,102.48893711831626,90.42056051267085,-0.0002266406954731,0.0948198437690734,0,0,0
8511,297140.9710704896,2010-11-19 22:17:48,240.1224249144981,7,26,-1.0997490882873535,3.910849094390869,25.669369424451737,24.79125447515456,102.48893711831626,90.4564608917546,-0.0002590179501567,0.0948198437690734,0,0,0
8512,297170.9865156535,2010-11-19 22:18:18,270.13787007838795,7,26,-1.0997490882873535,3.901945352554321,25.669369424451737,24.800423018252108,102.48893711831626,90.49227674305932,-0.0002266406954731,0.0948198437690734,0,0,0
8513,297201.00166034733,2010-11-19 22:18:48,300.1530147722585,7,26,-1.099568486213684,3.893365383148194,25.669369424451737,24.80959146562732,102.48893711831626,90.52801111733976,-0.0002266406954731,0.0948198437690734,0,0,0
8514,297231.01834549144,2010-11-19 22:19:18,330.1697000416424,7,26,-1.0997490882873535,3.8844616413116455,25.669369424451737,24.818760463322917,102.48893711831626,90.56366895270332,-0.0002266406954731,0.0948198437690734,0,0,0
8515,297261.0323858988,2010-11-19 22:19:48,360.1837403337562,7,26,-1.0997490882873535,3.8762054443359375,25.669369424451737,24.82792862292749,102.48893711831626,90.59924513969212,-0.0002266406954731,0.0948198437690734,0,0,0
8516,297291.04754969035,2010-11-19 22:20:18,390.19890411527234,7,26,-1.0997490882873535,3.8679492473602295,25.669369424451737,24.83709715338428,102.48893711831626,90.63474653529131,-0.0001942634553415,0.0948198437690734,0,0,0
8517,297321.06285320566,2010-11-19 22:20:48,420.21420762557307,7,26,-1.0997490882873535,3.859854936599731,25.669369424451737,24.84626572346017,102.48893711831626,90.67017269727818,-0.0001942634553415,0.0948198437690734,0,0,0
8518,297351.07816886634,2010-11-19 22:21:18,450.22952329121534,7,26,-1.099929690361023,3.8517606258392334,25.669369424451737,24.85543425356077,102.48893711831626,90.70552494643556,-0.0002590179501567,0.0948198437690734,0,0,0
8519,297381.0797621838,2010-11-19 22:21:48,480.2311166137782,7,26,-1.0997490882873535,3.8439900875091553,25.669369424451737,24.864598628478152,102.48893711831626,90.74078853903409,-0.0002266406954731,0.0948198437690734,0,0,0
8520,297411.09341361537,2010-11-19 22:22:18,510.2447681354612,7,26,-1.0997490882873535,3.836381435394287,25.669369424451737,24.873766611254187,102.48893711831626,90.7759943457384,-0.0001942634553415,0.0948198437690734,0,0,0
8521,297441.10856898583,2010-11-19 22:22:48,540.259923415757,7,26,-1.0997490882873535,3.828773021697998,25.669369424451737,24.88293509807601,102.48893711831626,90.81113226719334,-0.0001942634553415,0.0948198437690734,0,0,0
8522,297471.1237433789,2010-11-19 22:23:18,570.2750978037485,7,26,-1.0993878841400146,3.82148814201355,25.669369424451737,24.89210360365877,102.48893711831626,90.8462017377676,-0.0001295089750783,0.0948198437690734,0,0,0
8523,297501.1390527538,2010-11-19 22:23:48,600.2904071786884,7,26,-1.099568486213684,3.814041376113892,25.669369424451737,24.90127214216961,102.48893711831626,90.881203880673,-0.0001942634553415,0.0948198437690734,0,0,0
8524,297531.15433423413,2010-11-19 22:24:18,630.3056886589989,7,26,-1.099568486213684,3.8067564964294434,25.669369424451737,24.910440662818665,102.48893711831626,90.91613826365514,-0.0001618862152099,0.0948198437690734,0,0,0
8525,297561.16963866167,2010-11-19 22:24:48,660.3209930865893,7,26,-1.0997490882873535,3.799633502960205,25.669369424451737,24.91960921026713,102.48893711831626,90.95100784734517,-0.0001618862152099,0.0948198437690734,0,0,0
8526,297591.1849958259,2010-11-19 22:25:18,690.3363502508184,7,26,-1.099568486213684,3.7928342819213863,25.669369424451737,24.92877775571848,102.48893711831626,90.98581345784328,-0.0001618862152099,0.0948198437690734,0,0,0
8527,297621.20314547565,2010-11-19 22:25:48,720.3545000107961,7,26,-1.0997490882873535,3.7858731746673584,25.669369424451737,24.937947178566837,102.48893711831626,91.02055937240608,-0.0002266406954731,0.0948198437690734,0,0,0
8528,297651.215540531,2010-11-19 22:26:18,750.3668949558705,7,26,-1.0997490882873535,3.77923583984375,25.669369424451737,24.947114852836805,102.48893711831626,91.05523713152492,-0.0001942634553415,0.0948198437690734,0,0,0
8529,297681.2308314849,2010-11-19 22:26:48,780.3821859098288,7,26,-1.1001102924346924,3.772760391235352,25.669369424451737,24.956283458356204,102.48893711831626,91.08985830818868,-0.0001942634553415,0.0948198437690734,0,0,0
8530,297711.2461494162,2010-11-19 22:27:18,810.3975038411264,7,26,-1.0997490882873535,3.766446828842163,25.669369424451737,24.96545204958901,102.48893711831626,91.12442092361992,-0.0001942634553415,0.0948198437690734,0,0,0
8531,297741.2614797234,2010-11-19 22:27:48,840.4128341483163,7,26,-1.099568486213684,3.760295152664185,25.669369424451737,24.97462068158168,102.48893711831626,91.15892561538293,-0.0001295089750783,0.0948198437690734,0,0,0
8532,297771.27673589054,2010-11-19 22:28:18,870.4280903154413,7,26,-1.0997490882873535,3.754143476486206,25.669369424451737,24.98378926455209,102.48893711831626,91.19337374274464,-0.0001618862152099,0.0948198437690734,0,0,0
8533,297801.2920969846,2010-11-19 22:28:48,900.4434514094798,7,26,-1.099568486213684,3.7481539249420166,25.669369424451737,24.99295789596964,102.48893711831626,91.22776649220155,-0.0001618862152099,0.0948198437690734,0,0,0
8534,297831.30733230966,2010-11-19 22:29:18,930.4586867345796,7,26,-1.099568486213684,3.742326021194458,25.669369424451737,25.002126493169563,102.48893711831626,91.26210458989488,-0.0001618862152099,0.0948198437690734,0,0,0
8535,297861.3226353739,2010-11-19 22:29:48,960.4739897937544,7,26,-1.099568486213684,3.7363362312316895,25.669369424451737,25.01129507915743,102.48893711831626,91.2963890258855,-0.0001942634553415,0.0948198437690734,0,0,0
8536,297891.33806080854,2010-11-19 22:30:18,990.4894152233844,7,26,-1.099568486213684,3.730832099914551,25.669369424451737,25.020463726873995,102.48893711831626,91.330620844926,-9.713172767078504e-05,0.0948198437690734,0,0,0
8537,297921.3533633163,2010-11-19 22:30:48,1020.504717741208,7,26,-1.099568486213684,3.725166082382202,25.669369424451737,25.02963230329243,102.48893711831626,91.36480075844936,-0.0001618862152099,0.0948198437690734,0,0,0
8538,297951.3687060395,2010-11-19 22:31:18,1050.52006046439,7,26,-1.099568486213684,3.719661951065064,25.669369424451737,25.038800964797417,102.48893711831626,91.39892926450992,-0.0001295089750783,0.0948198437690734,0,0,0
8539,297981.38575786387,2010-11-19 22:31:48,1080.537112293764,7,26,-1.0997490882873535,3.713995933532715,25.669369424451737,25.0479700218804,102.48893711831626,91.43300893791084,-0.0001618862152099,0.0948198437690734,0,0,0
8540,298011.3992285591,2010-11-19 22:32:18,1110.550582984064,7,26,-1.099568486213684,3.708815574645996,25.669369424451737,25.057138012218868,102.48893711831626,91.46703553311752,-0.0001295089750783,0.0948198437690734,0,0,0
8541,298041.4145922196,2010-11-19 22:32:48,1140.5659466445088,7,26,-1.0997490882873535,3.7034733295440674,25.669369424451737,25.06630654161124,102.48893711831626,91.501015597523,-0.0001942634553415,0.0948198437690734,0,0,0
8542,298071.4297685875,2010-11-19 22:33:18,1170.5811230124425,7,26,-1.0997490882873535,3.6982929706573486,25.669369424451737,25.07547508811696,102.48893711831626,91.53494746664586,-0.0001942634553415,0.0948198437690734,0,0,0
8543,298101.4450982281,2010-11-19 22:33:48,1200.596452647956,7,26,-1.099929690361023,3.69311261177063,25.669369424451737,25.084643669601245,102.48893711831626,91.56883248013956,-0.0001618862152099,0.0948198437690734,0,0,0
8544,298131.46037631994,2010-11-19 22:34:18,1230.6117307448208,7,26,-1.099568486213684,3.688094139099121,25.669369424451737,25.093812236036356,102.48893711831626,91.6026708579366,-0.0001618862152099,0.0948198437690734,0,0,0
8545,298161.47581732844,2010-11-19 22:34:48,1260.627171753338,7,26,-1.0997490882873535,3.683075666427612,25.669369424451737,25.102980929584568,102.48893711831626,91.63646349768324,-0.0001295089750783,0.0948198437690734,0,0,0
8546,298191.49100034294,2010-11-19 22:35:18,1290.6423547728753,7,26,-1.0997490882873535,3.6782190799713135,25.669369424451737,25.112149509519323,102.48893711831626,91.67021004182538,-9.713172767078504e-05,0.0948198437690734,0,0,0
8547,298221.5063231214,2010-11-19 22:35:48,1320.6576775462595,7,26,-1.0997490882873535,3.6732006072998047,25.669369424451737,25.121318139933067,102.48893711831626,91.7039112613335,-0.0001295089750783,0.0948198437690734,0,0,0
8548,298251.5215785968,2010-11-19 22:36:19,1350.672933021658,7,26,-1.099568486213684,3.668344259262085,25.669369424451737,25.1304867099895,102.48893711831626,91.73756780672578,-0.0001618862152099,0.0948198437690734,0,0,0
8549,298281.53687978623,2010-11-19 22:36:49,1380.6882342111655,7,26,-1.099568486213684,3.663811445236206,25.669369424451737,25.13965527700366,102.48893711831626,91.77118055629902,-9.713172767078504e-05,0.0948198437690734,0,0,0
8550,298311.5523097071,2010-11-19 22:37:19,1410.7036641420314,7,26,-1.099568486213684,3.659116744995117,25.669369424451737,25.14882393712563,102.48893711831626,91.80475008362106,-9.713172767078504e-05,0.0948198437690734,0,0,0
8551,298341.5675028068,2010-11-19 22:37:49,1440.7188572317052,7,26,-1.0997490882873535,3.6542601585388175,25.669369424451737,25.157992481766552,102.48893711831626,91.83827629491758,-0.0001295089750783,0.0948198437690734,0,0,0
8552,298371.5827920164,2010-11-19 22:38:19,1470.7341464413091,7,26,-1.099568486213684,3.64972734451294,25.669369424451737,25.167161094288208,102.48893711831626,91.8717607514062,-0.0001295089750783,0.0948198437690734,0,0,0
8553,298401.59808860446,2010-11-19 22:38:49,1500.749443029331,7,26,-1.0997490882873535,3.645518302917481,25.669369424451737,25.17632970200737,102.48893711831626,91.90520368903236,-6.47544875391759e-05,0.0948198437690734,0,0,0
8554,298431.6135961741,2010-11-19 22:39:19,1530.7649506090202,7,26,-1.0993878841400146,3.641147375106812,25.669369424451737,25.18549830026099,102.48893711831626,91.93860626991514,-6.47544875391759e-05,0.0948198437690734,0,0,0
8555,298461.6287095999,2010-11-19 22:39:49,1560.7800640248158,7,26,-1.0997490882873535,3.6366145610809326,25.669369424451737,25.19466682477979,102.48893711831626,91.97196903061688,-0.0001295089750783,0.0948198437690734,0,0,0
8556,298491.6439965739,2010-11-19 22:40:19,1590.7953509988397,7,26,-1.099568486213684,3.632567405700684,25.669369424451737,25.20383535596668,102.48893711831626,92.00529279704988,-6.47544875391759e-05,0.0948198437690734,0,0,0
8557,298521.6594245299,2010-11-19 22:40:49,1620.8107789648004,7,26,-1.0997490882873535,3.6283583641052246,25.669369424451737,25.21300398107192,102.48893711831626,92.0385789568914,-0.0001295089750783,0.0948198437690734,0,0,0
8558,298551.6746085168,2010-11-19 22:41:19,1650.8259629417275,7,26,-1.099568486213684,3.624311208724976,25.669369424451737,25.22217250413181,102.48893711831626,92.0718274769734,-0.0001295089750783,0.0948198437690734,0,0,0
8559,298581.6920116682,2010-11-19 22:41:49,1680.843366118118,7,26,-1.0997490882873535,3.620264053344727,25.669369424451737,25.23134169482144,102.48893711831626,92.10504158566832,-9.713172767078504e-05,0.0948198437690734,0,0,0
8560,298611.7053504392,2010-11-19 22:42:19,1710.8567048740897,7,26,-1.099568486213684,3.6165406703948975,25.669369424451737,25.240509764421137,102.48893711831626,92.13821546685652,-6.47544875391759e-05,0.0948198437690734,0,0,0
8561,298641.72056710266,2010-11-19 22:42:49,1740.871921527582,7,26,-1.099568486213684,3.6129791736602783,25.669369424451737,25.24967826015251,102.48893711831626,92.17135624851988,-6.47544875391759e-05,0.0948198437690734,0,0,0
8562,298671.7359486327,2010-11-19 22:43:19,1770.8873030626448,7,26,-1.099568486213684,3.6090939044952393,25.669369424451737,25.258846896928866,102.48893711831626,92.20446372563336,-0.0001295089750783,0.0948198437690734,0,0,0
8563,298701.75113812846,2010-11-19 22:43:49,1800.9024925533352,7,26,-1.0997490882873535,3.60553240776062,25.669369424451737,25.268015465745588,102.48893711831626,92.2375378643086,-9.713172767078504e-05,0.0948198437690734,0,0,0
8564,298731.7664334583,2010-11-19 22:44:19,1830.9177878882288,7,26,-1.099568486213684,3.602132797241211,25.669369424451737,25.27718401727559,102.48893711831626,92.27057959202877,-9.713172767078504e-05,0.0948198437690734,0,0,0
8565,298761.78172596113,2010-11-19 22:44:49,1860.9330803860405,7,26,-1.099568486213684,3.5987331867218018,25.669369424451737,25.286352617815037,102.48893711831626,92.3035903531526,-9.713172767078504e-05,0.0948198437690734,0,0,0
8566,298791.7970252258,2010-11-19 22:45:19,1890.948379650744,7,26,-1.099568486213684,3.5954954624176025,25.669369424451737,25.295521284196465,102.48893711831626,92.3365705348658,-9.713172767078504e-05,0.0948198437690734,0,0,0
8567,298821.8123371672,2010-11-19 22:45:49,1920.9636915920896,7,26,-1.0997490882873535,3.5920960903167725,25.669369424451737,25.304689931565456,102.48893711831626,92.36952083194645,-6.470680091297254e-05,0.0948198437690734,0,0,0
8568,298851.8276670934,2010-11-19 22:46:19,1950.9790215183284,7,26,-1.099568486213684,3.589182138442993,25.669369424451737,25.31385857002921,102.48893711831626,92.40244203913493,-3.237724376958795e-05,0.0948198437690734,0,0,0
8569,298881.84292658884,2010-11-19 22:46:49,1980.994281013761,7,26,-1.099568486213684,3.586106300354004,25.669369424451737,25.32302725512629,102.48893711831626,92.4353350642679,-6.47544875391759e-05,0.0948198437690734,0,0,0
8570,298911.8582326505,2010-11-19 22:47:19,2011.0095870754308,7,26,-1.099568486213684,3.583030462265014,25.669369424451737,25.33219586093115,102.48893711831626,92.4682000040699,-9.713172767078504e-05,0.0948198437690734,0,0,0
8571,298941.8735660104,2010-11-19 22:47:49,2041.0249204352403,7,26,-1.0997490882873535,3.580116510391236,25.669369424451737,25.34136443297848,102.48893711831626,92.50103759489336,-6.47544875391759e-05,0.0948198437690734,0,0,0
8572,298971.8888369594,2010-11-19 22:48:19,2071.040191384263,7,26,-1.099568486213684,3.577202558517456,25.669369424451737,25.35053310458892,102.48893711831626,92.53384859514128,-6.47544875391759e-05,0.0948198437690734,0,0,0
8573,299001.90414457495,2010-11-19 22:48:49,2101.055498999812,7,26,-1.099568486213684,3.5742886066436768,25.669369424451737,25.35970174847425,102.48893711831626,92.56663279797615,-6.47544875391759e-05,0.0948198437690734,0,0,0
8574,299031.9194444913,2010-11-19 22:49:19,2131.0707989161406,7,26,-1.0997490882873535,3.571374654769897,25.669369424451737,25.36887032661909,102.48893711831626,92.59939051306408,-9.713172767078504e-05,0.0948198437690734,0,0,0
8575,299061.934829109,2010-11-19 22:49:49,2161.0861835338983,7,26,-1.0997490882873535,3.568460702896118,25.669369424451737,25.37803905360443,102.48893711831626,92.63212234508497,-6.47544875391759e-05,0.0948198437690734,0,0,0
8576,299091.95005071483,2010-11-19 22:50:19,2191.101405139753,7,26,-1.0997490882873535,3.565546751022339,25.669369424451737,25.38720766698096,102.48893711831626,92.6648275529528,-9.713172767078504e-05,0.0948198437690734,0,0,0
8577,299121.96548732737,2010-11-19 22:50:49,2221.116841752297,7,26,-1.099568486213684,3.5629565715789795,25.669369424451737,25.3963763398398,102.48893711831626,92.6975064090368,-3.237724376958795e-05,0.0948198437690734,0,0,0
8578,299151.980660362,2010-11-19 22:51:19,2251.13201478691,7,26,-1.099568486213684,3.5598807334899902,25.669369424451737,25.40554488121141,102.48893711831626,92.73015887169002,-9.713172767078504e-05,0.0948198437690734,0,0,0
8579,299181.9980028018,2010-11-19 22:51:49,2281.1493572266927,7,26,-1.0993878841400146,3.557128667831421,25.669369424451737,25.414714132994938,102.48893711831626,92.7627869097918,-6.47544875391759e-05,0.0948198437690734,0,0,0
8580,299212.0112702899,2010-11-19 22:52:19,2311.1626247147688,7,26,-1.0997490882873535,3.5538909435272217,25.669369424451737,25.423882202420835,102.48893711831626,92.795383671136,-6.47544875391759e-05,0.0948198437690734,0,0,0
8581,299242.0265668077,2010-11-19 22:52:49,2341.177921232615,7,26,-1.099568486213684,3.5509769916534424,25.669369424451737,25.433050787912205,102.48893711831626,92.82795475434284,-0.0001295089750783,0.0948198437690734,0,0,0
8582,299272.041920358,2010-11-19 22:53:19,2371.193274782823,7,26,-1.099568486213684,3.547739267349243,25.669369424451737,25.442219442163328,102.48893711831626,92.8604979607538,-9.713172767078504e-05,0.0948198437690734,0,0,0
8583,299302.0573110007,2010-11-19 22:53:49,2401.20866542562,7,26,-1.099568486213684,3.544663429260254,25.669369424451737,25.45138809934469,102.48893711831626,92.89301241405803,-6.47544875391759e-05,0.0948198437690734,0,0,0
8584,299332.0727084555,2010-11-19 22:54:19,2431.224062890446,7,26,-1.099568486213684,3.5415875911712646,25.669369424451737,25.46055679635395,102.48893711831626,92.9254978182852,-6.47544875391759e-05,0.0948198437690734,0,0,0
8585,299362.0877864329,2010-11-19 22:54:49,2461.2391408577564,7,26,-1.099568486213684,3.5381879806518555,25.669369424451737,25.469725364678872,102.48893711831626,92.9579528039814,-3.237724376958795e-05,0.0948198437690734,0,0,0
8586,299392.1032368148,2010-11-19 22:55:19,2491.2545912496967,7,26,-1.099568486213684,3.5347883701324463,25.669369424451737,25.47889406908965,102.48893711831626,92.99037734050026,-6.47544875391759e-05,0.0948198437690734,0,0,0
8587,299422.11839270656,2010-11-19 22:55:49,2521.2697471415186,7,26,-1.099568486213684,3.531064987182617,25.669369424451737,25.488063244415912,102.48893711831626,93.02277119853564,-9.713172767078504e-05,0.0948198437690734,0,0,0
8588,299452.1336876555,2010-11-19 22:56:19,2551.285042095461,7,26,-1.0997490882873535,3.527503490447998,25.669369424451737,25.497232784753464,102.48893711831626,93.05513341294048,-9.713172767078504e-05,0.0948198437690734,0,0,0
8589,299482.1490965288,2010-11-19 22:56:49,2581.300450983802,7,26,-1.0997490882873535,3.523618221282959,25.669369424451737,25.50640166333537,102.48893711831626,93.08745932220634,-9.713172767078504e-05,0.0948198437690734,0,0,0
8590,299512.1643188515,2010-11-19 22:57:19,2611.315673301433,7,26,-1.099568486213684,3.51973295211792,25.669369424451737,25.51557031021538,102.48893711831626,93.11974895975256,-0.0001295089750783,0.0948198437690734,0,0,0
8591,299542.18267248536,2010-11-19 22:57:49,2641.334027005487,7,26,-1.099568486213684,3.515847682952881,25.669369424451737,25.524740006672715,102.48893711831626,93.15200555119289,-6.47544875391759e-05,0.0948198437690734,0,0,0
8592,299572.19494269905,2010-11-19 22:58:19,2671.346297123974,7,26,-1.0997490882873535,3.511315107345581,25.669369424451737,25.533907859190624,102.48893711831626,93.18421711955544,-0.0001294612884521,0.0948198437690734,0,0,0
8593,299602.21024630463,2010-11-19 22:58:49,2701.3616007295136,7,26,-1.0997490882873535,3.506782293319702,25.669369424451737,25.54307654632669,102.48893711831626,93.21639122988311,-9.713172767078504e-05,0.0948198437690734,0,0,0
8594,299632.22554923344,2010-11-19 22:59:19,2731.3769036583626,7,26,-1.099929690361023,3.5017638206481934,25.669369424451737,25.552245255966746,102.48893711831626,93.24852173320508,-0.0001618862152099,0.0948198437690734,0,0,0
8595,299662.2408748189,2010-11-19 22:59:49,2761.392229273841,7,26,-1.099568486213684,3.496745347976685,25.669369424451737,25.561413949890195,102.48893711831626,93.28060553840902,-9.713172767078504e-05,0.0948198437690734,0,0,0
8596,299692.25620837416,2010-11-19 23:00:19,2791.407562799064,7,26,-1.0997490882873535,3.490755558013916,25.669369424451737,25.57058269080947,102.48893711831626,93.31263870344212,-0.0001618862152099,0.0948198437690734,0,0,0
8597,299722.27148860635,2010-11-19 23:00:49,2821.4228430312587,7,26,-1.0997490882873535,3.4842801094055176,25.669369424451737,25.57975148712329,102.48893711831626,93.34461617979198,-0.0001942634553415,0.0948198437690734,0,0,0
8598,299752.28676443256,2010-11-19 23:01:19,2851.438118857456,7,26,-1.0997490882873535,3.4769952297210693,25.669369424451737,25.588920220901297,102.48893711831626,93.3765303075929,-0.0002266406954731,0.0948198437690734,0,0,0
8599,299782.30393317377,2010-11-19 23:01:49,2881.4552876788603,7,26,-1.0997490882873535,3.468577146530152,25.669369424451737,25.598089417631577,102.48893711831626,93.40837456475488,-0.0002590179501567,0.0948198437690734,0,0,0
8600,299812.31778549665,2010-11-19 23:02:19,2911.469139921573,7,26,-1.099568486213684,3.4588639736175537,25.669369424451737,25.607257604903108,102.48893711831626,93.44013224923954,-0.0002590179501567,0.0948198437690734,0,0,0
8601,299842.3327872086,2010-11-19 23:02:49,2941.4841416235145,7,26,-1.0997490882873535,3.446722507476806,25.669369424451737,25.616426140596527,102.48893711831626,93.471791684188,-0.0003561496851034,0.0948198437690734,0,0,0
8602,299872.3479535515,2010-11-19 23:03:19,2971.499307976449,7,26,-1.099568486213684,3.4319908618927,25.669369424451737,25.62559476105597,102.48893711831626,93.50332901716013,-0.0003885269106831,0.0948198437690734,0,0,0
8603,299902.36334831966,2010-11-19 23:03:49,3001.5147027445432,7,26,-1.099568486213684,3.412726640701294,25.669369424451737,25.634763450309503,102.48893711831626,93.5347109790818,-0.0005504131549969,0.0948198437690734,0,0,0
8604,299932.3788294584,2010-11-19 23:04:19,3031.5301838832315,7,26,-1.099568486213684,3.38698673248291,25.669369424451737,25.643932176309868,102.48893711831626,93.56588818696028,-0.0007446765666827,0.0948198437690734,0,0,0
8605,299962.3938836062,2010-11-19 23:04:49,3061.5452380310853,7,26,-1.0997490882873535,3.3515336513519287,25.669369424451737,25.653100892658298,102.48893711831626,93.5967882463918,-0.0010684489971026,0.0948198437690734,0,0,0
8606,299992.4091812368,2010-11-19 23:05:19,3091.5605356617093,7,26,-1.099568486213684,3.3028061389923096,25.669369424451737,25.662269613665465,102.48893711831626,93.62730675972976,-0.0014569759368896,0.0948198437690734,0,0,0
8607,300022.4245110127,2010-11-19 23:05:49,3121.5758654375727,7,26,-1.099568486213684,3.2338428497314453,25.669369424451737,25.67143836439804,102.48893711831626,93.6572915161761,-0.0021045207977294,0.0948198437690734,0,0,0
8608,300052.4398251996,2010-11-19 23:06:19,3151.591179624525,7,26,-1.099568486213684,3.131854772567749,25.669369424451737,25.680607094697745,102.48893711831626,93.6865070012403,-0.003270101500675,0.0948198437690734,0,0,0
8609,300082.45535355614,2010-11-19 23:06:49,3181.6067079860886,7,26,-1.0997490882873535,2.9613890647888184,25.669369424451737,25.689775929395218,102.48893711831626,93.71452818917686,-0.0061516761779785,0.0948198437690734,0,0,0
8610,300100.86126431613,2010-11-19 23:07:08,3200.012618720961,7,26,-1.099568486213684,2.760974645614624,25.669369424451737,25.695398392355106,102.48893711831626,93.73066267928424,-0.0103606702759861,0.0948198437690734,0,0,0
8611,300105.40794475994,2010-11-19 23:07:12,3204.559299189901,7,26,-1.099929690361023,2.699620008468628,25.669369424451737,25.69678726384539,102.48893711831626,93.73445509149542,-0.010846328921616,0.0948198437690734,0,0,0
8612,300165.420650407,2010-11-19 23:08:13,60.01502071478421,8,26,0.0,3.3147857189178467,25.669369424451737,25.69678726384539,102.48893711831626,93.73445509149542,0.0011655807029455,0.0948198437690734,0,0,0
8613,300165.6217387152,2010-11-19 23:08:13,0.18721660645226,9,26,-1.9243103452026844e-05,3.3149476051330566,25.669369424451737,25.69678726484612,102.48893711831626,93.7344550948128,0.0,0.0938397273421287,0,0,0
8614,300170.44978467067,2010-11-19 23:08:18,5.015262561933441,9,26,0.0008838032954372,3.3228800296783447,25.66937025977271,25.69678726509693,102.48893989130134,93.73445509564516,0.0010684489971026,0.0938397273421287,0,0,0
