Data_Point,Test_Time(s),Date_Time,Step_Time(s),Step_Index,Cycle_Index,Current(A),Voltage(V),Charge_Capacity(Ah),Discharge_Capacity(Ah),Charge_Energy(Wh),Discharge_Energy(Wh),dV/dt(V/s),Internal_Resistance(Ohm),Is_FC_Data,AC_Impedance(Ohm),ACI_Phase_Angle(Deg)
15160,526288.6064828034,2010-11-22 13:57:19,30.015283249727204,1,47,0.0,3.436361789703369,45.12566817901408,45.12907781192944,180.10916718251727,164.64458677778617,0.0006151676061563,0.0971632748842239,0,0,0
15161,526318.6246457362,2010-11-22 13:57:49,60.03344627782426,1,47,0.0,3.458216428756714,45.12566817901408,45.12907781192944,180.10916718251727,164.64458677778617,0.0004856586456298,0.0971632748842239,0,0,0
15162,526348.6370713478,2010-11-22 13:58:19,90.04587180423442,1,47,0.0,3.47440505027771,45.12566817901408,45.12907781192944,180.10916718251727,164.64458677778617,0.0003885269106831,0.0971632748842239,0,0,0
15163,526378.6053890543,2010-11-22 13:58:49,120.01418951074028,1,47,0.0,3.487194061279297,45.12566817901408,45.12907781192944,180.10916718251727,164.64458677778617,0.0003237724304199,0.0971632748842239,0,0,0
15164,526408.6008498137,2010-11-22 13:59:20,30.015051350871985,2,47,0.5501165986061096,3.645518302917481,45.13025469803247,45.12907781192944,180.12574199162952,164.64458677778617,0.0014245987404137,0.0971632748842239,0,0,0
15165,526438.6161008229,2010-11-22 13:59:50,60.03030236513451,2,47,0.5501165986061096,3.687446594238281,45.13484129020021,45.12907781192944,180.14256473520663,164.64458677778617,0.0009713172912597,0.0971632748842239,0,0,0
15166,526468.6313710201,2010-11-22 14:00:20,90.04557256729296,2,47,0.5501165986061096,3.717395544052124,45.13942787676062,45.12907781192944,180.1595492103011,164.64458677778617,0.0007122993702068,0.0971632748842239,0,0,0
15167,526498.6466350869,2010-11-22 14:00:50,120.06083662912424,2,47,0.5501165986061096,3.740869045257568,45.14401434726784,45.12907781192944,180.1766546892404,164.64458677778617,0.0005827903514727,0.0971632748842239,0,0,0
15168,526528.6618906675,2010-11-22 14:01:20,150.0760922047727,2,47,0.5501165986061096,3.759323835372925,45.1486008576029,45.12907781192944,180.19385642124573,164.64458677778617,0.0004532813909463,0.0971632748842239,0,0,0
15169,526558.6772834557,2010-11-22 14:01:50,180.09148499292465,2,47,0.5501165986061096,3.773407936096192,45.15318733722633,45.12907781192944,180.21113319631456,164.64458677778617,0.0002913951757363,0.0971632748842239,0,0,0
15170,526588.6924372222,2010-11-22 14:02:20,210.10663875944184,2,47,0.550297200679779,3.782635450363159,45.15777379534705,45.12907781192944,180.2284628122215,164.64458677778617,0.0001942634553415,0.0971632748842239,0,0,0
15171,526618.7076977001,2010-11-22 14:02:50,240.1218992423395,2,47,0.5501165986061096,3.7887871265411377,45.16236027494588,45.12907781192944,180.24582684313097,164.64458677778617,0.0001295089750783,0.0971632748842239,0,0,0
15172,526648.7230927389,2010-11-22 14:03:20,270.1372942811094,2,47,0.5501165986061096,3.793643712997437,45.1669468795519,45.12907781192944,180.2632159103386,164.64458677778617,0.0001295089750783,0.0971632748842239,0,0,0
15173,526678.7382126058,2010-11-22 14:03:50,300.15241414800795,2,47,0.5499359965324402,3.797852754592896,45.171533389797325,45.12907781192944,180.280625341527,164.64458677778617,0.0001295089750783,0.0971632748842239,0,0,0
15174,526708.7534729083,2010-11-22 14:04:20,330.1676744454427,2,47,0.550297200679779,3.801899909973145,45.17611991776305,45.12907781192944,180.29805401381745,164.64458677778617,9.713172767078504e-05,0.0971632748842239,0,0,0
15175,526738.7687528898,2010-11-22 14:04:50,360.1829544219995,2,47,0.5501165986061096,3.805785179138184,45.18070649085717,45.12907781192944,180.31550105391472,164.64458677778617,9.713172767078504e-05,0.0971632748842239,0,0,0
15176,526768.7840414778,2010-11-22 14:05:20,390.19824302007714,2,47,0.5499359965324402,3.809670448303223,45.18529303187291,45.12907781192944,180.33296547598977,164.64458677778617,9.713172767078504e-05,0.0971632748842239,0,0,0
15177,526798.7994144064,2010-11-22 14:05:50,420.21361594865647,2,47,0.5501165986061096,3.813393831253052,45.18987959878783,45.12907781192944,180.35044713698684,164.64458677778617,9.713172767078504e-05,0.0971632748842239,0,0,0
15178,526828.8145316718,2010-11-22 14:06:20,450.2287332090488,2,47,0.5501165986061096,3.817117214202881,45.19446610156484,45.12907781192944,180.36794566866052,164.64458677778617,0.0001295089750783,0.0971632748842239,0,0,0
15179,526858.8299622844,2010-11-22 14:06:50,480.2441638316413,2,47,0.5499359965324402,3.82051682472229,45.19905208972192,45.12907781192944,180.38545853173343,164.64458677778617,0.0001295089750783,0.0971632748842239,0,0,0
15180,526888.8451870782,2010-11-22 14:07:20,510.2593886304661,2,47,0.5501165986061096,3.824078321456909,45.20363776925237,45.12907781192944,180.40298618127065,164.64458677778617,9.713172767078504e-05,0.0971632748842239,0,0,0
15181,526918.8603499725,2010-11-22 14:07:50,540.2745515147426,2,47,0.550297200679779,3.8274779319763184,45.20822398308358,45.12907781192944,180.4205316306812,164.64458677778617,9.713172767078504e-05,0.0971632748842239,0,0,0
15182,526948.8756425555,2010-11-22 14:08:20,570.2898440977672,2,47,0.5499359965324402,3.8307156562805176,45.21281046710767,45.12907781192944,180.43809352534925,164.64458677778617,9.713172767078504e-05,0.0971632748842239,0,0,0
15183,526978.8908969482,2010-11-22 14:08:50,600.3050984904628,2,47,0.5501165986061096,3.833791255950928,45.217396932770335,45.12907781192944,180.4556705425663,164.64458677778617,3.237724376958795e-05,0.0971632748842239,0,0,0
15184,527008.906177792,2010-11-22 14:09:20,630.3203793341843,2,47,0.5501165986061096,3.837190866470337,45.22198343393245,45.12907781192944,180.4732628643453,164.64458677778617,3.237724376958795e-05,0.0971632748842239,0,0,0
15185,527038.921590154,2010-11-22 14:09:50,660.3357917362956,2,47,0.5501165986061096,3.840752363204956,45.226569950826814,45.12907781192944,180.49087045910125,164.64458677778617,9.713172767078504e-05,0.0971632748842239,0,0,0
15186,527068.9366785673,2010-11-22 14:10:20,690.3508801095812,2,47,0.550297200679779,3.844151973724365,45.231156410504845,45.12907781192944,180.50849314119577,164.64458677778617,0.0001295089750783,0.0971632748842239,0,0,0
15187,527098.9520776913,2010-11-22 14:10:50,720.3662792385608,2,47,0.5501165986061096,3.8475515842437744,45.23574289511928,45.12907781192944,180.5261312799899,164.64458677778617,0.0001295089750783,0.0971632748842239,0,0,0
15188,527128.9672085356,2010-11-22 14:11:20,750.3814100828608,2,47,0.550297200679779,3.8507893085479736,45.24032931664552,45.12907781192944,180.54378484978693,164.64458677778617,9.713172767078504e-05,0.0971632748842239,0,0,0
15189,527158.9826047022,2010-11-22 14:11:50,780.3968062444333,2,47,0.5499359965324402,3.854027032852173,45.24491586704059,45.12907781192944,180.56145449260617,164.64458677778617,6.47544875391759e-05,0.0971632748842239,0,0,0
15190,527188.9978598368,2010-11-22 14:12:20,810.4120613789806,2,47,0.5499359965324402,3.857588529586792,45.24950232833266,45.12907781192944,180.5791394363147,164.64458677778617,9.713172767078504e-05,0.0971632748842239,0,0,0
15191,527219.0130394127,2010-11-22 14:12:50,840.4272409749722,2,47,0.5501165986061096,3.860988140106201,45.25408875668963,45.12907781192944,180.59683967031123,164.64458677778617,0.0001295089750783,0.0971632748842239,0,0,0
15192,527249.0282855247,2010-11-22 14:13:20,870.4424870669478,2,47,0.5499359965324402,3.8642258644104,45.25867527648306,45.12907781192944,180.61455548403396,164.64458677778617,9.713172767078504e-05,0.0971632748842239,0,0,0
15193,527279.0435279275,2010-11-22 14:13:50,900.4577294697148,2,47,0.5499359965324402,3.8673017024993896,45.26326178513124,45.12907781192944,180.63228631689464,164.64458677778617,3.237724376958795e-05,0.0971632748842239,0,0,0
15194,527309.0589211066,2010-11-22 14:14:20,930.4731226488426,2,47,0.550297200679779,3.870701313018799,45.267848289264826,45.12907781192944,180.6500319172416,164.64458677778617,9.713172767078504e-05,0.0971632748842239,0,0,0
15195,527339.0742654538,2010-11-22 14:14:50,960.4884669960788,2,47,0.5501165986061096,3.873777151107788,45.27243490115145,45.12907781192944,180.6677923498276,164.64458677778617,9.713172767078504e-05,0.0971632748842239,0,0,0
15196,527369.0893329349,2010-11-22 14:15:20,990.5035344772144,2,47,0.5501165986061096,3.876691102981568,45.2770214161714,45.12907781192944,180.6855664198162,164.64458677778617,6.47544875391759e-05,0.0971632748842239,0,0,0
15197,527399.104805758,2010-11-22 14:15:50,1020.5190073953833,2,47,0.550297200679779,3.8797669410705566,45.281607990556886,45.12907781192944,180.70335448684207,164.64458677778617,9.713172767078504e-05,0.0971632748842239,0,0,0
15198,527429.1198682014,2010-11-22 14:16:20,1050.5340697437064,2,47,0.5501165986061096,3.882680892944336,45.28619450787186,45.12907781192944,180.72115560792324,164.64458677778617,6.47544875391759e-05,0.0971632748842239,0,0,0
15199,527459.1351232759,2010-11-22 14:16:50,1080.5493248181035,2,47,0.5499359965324402,3.8852710723876953,45.29078098323924,45.12907781192944,180.73896928565577,164.64458677778617,6.47544875391759e-05,0.0971632748842239,0,0,0
15200,527489.1503770971,2010-11-22 14:17:20,1110.5645786393727,2,47,0.5501165986061096,3.887861251831055,45.295367565274574,45.12907781192944,180.75679550731007,164.64458677778617,6.47544875391759e-05,0.0971632748842239,0,0,0
15201,527519.165645194,2010-11-22 14:17:50,1140.5798467362763,2,47,0.5501165986061096,3.890289545059204,45.29995410608352,45.12907781192944,180.7746331109697,164.64458677778617,6.47544875391759e-05,0.0971632748842239,0,0,0
15202,527549.181059942,2010-11-22 14:18:20,1170.595261484243,2,47,0.5501165986061096,3.892555952072144,45.30454067092997,45.12907781192944,180.7924816348147,164.64458677778617,3.237724376958795e-05,0.0971632748842239,0,0,0
15203,527579.1961859392,2010-11-22 14:18:50,1200.610387481444,2,47,0.5501165986061096,3.894822359085083,45.30912722857459,45.12907781192944,180.8103402418314,164.64458677778617,6.47544875391759e-05,0.0971632748842239,0,0,0
15204,527609.2114489935,2010-11-22 14:19:20,1230.6256505457854,2,47,0.5501165986061096,3.8966031074523926,45.3137137629338,45.12907781192944,180.8282077649645,164.64458677778617,6.47544875391759e-05,0.0971632748842239,0,0,0
15205,527639.2268085838,2010-11-22 14:19:50,1260.641010126045,2,47,0.5499359965324402,3.898545742034912,45.31830023530146,45.12907781192944,180.8460839649032,164.64458677778617,3.237724376958795e-05,0.0971632748842239,0,0,0
15206,527669.241967453,2010-11-22 14:20:20,1290.6561689952998,2,47,0.5501165986061096,3.900164604187012,45.32288677391992,45.12907781192944,180.8639686114544,164.64458677778617,3.237724376958795e-05,0.0971632748842239,0,0,0
15207,527699.2572602717,2010-11-22 14:20:50,1320.6714618139124,2,47,0.5501165986061096,3.9017834663391113,45.327473342034935,45.12907781192944,180.88186100614828,164.64458677778617,3.237724376958795e-05,0.0971632748842239,0,0,0
15208,527729.2725019426,2010-11-22 14:21:20,1350.6867034848526,2,47,0.5501165986061096,3.903402328491211,45.33205990767246,45.12907781192944,180.8997607334084,164.64458677778617,6.47544875391759e-05,0.0971632748842239,0,0,0
15209,527759.2877909568,2010-11-22 14:21:50,1380.7019925190186,2,47,0.5501165986061096,3.9048593044281006,45.3366464276326,45.12907781192944,180.91766730896643,164.64458677778617,3.237724376958795e-05,0.0971632748842239,0,0,0
15210,527789.3030065276,2010-11-22 14:22:20,1410.7172080797836,2,47,0.5499359965324402,3.90615439414978,45.341232952888106,45.12907781192944,180.93558051320284,164.64458677778617,0.0,0.0971632748842239,0,0,0
15211,527819.3183048399,2010-11-22 14:22:50,1440.7325063870971,2,47,0.5501165986061096,3.90761137008667,45.34581936723556,45.12907781192944,180.9534998103057,164.64458677778617,0.0,0.0971632748842239,0,0,0
15212,527849.3337480589,2010-11-22 14:23:20,1470.7479496111448,2,47,0.5499359965324402,3.90906834602356,45.350405845650286,45.12907781192944,180.97142553379047,164.64458677778617,6.47544875391759e-05,0.0971632748842239,0,0,0
15213,527879.348849555,2010-11-22 14:23:50,1500.763051102174,2,47,0.5501165986061096,3.910525321960449,45.35499222025841,45.12907781192944,180.98935705778305,164.64458677778617,6.47544875391759e-05,0.0971632748842239,0,0,0
15214,527909.3642602778,2010-11-22 14:24:20,1530.7784618301068,2,47,0.5501165986061096,3.911820411682129,45.35957872815846,45.12907781192944,181.0072951574869,164.64458677778617,6.47544875391759e-05,0.0971632748842239,0,0,0
15215,527939.3794056935,2010-11-22 14:24:50,1560.7936072407665,2,47,0.5501165986061096,3.9131155014038086,45.36416516167082,45.12907781192944,181.02523901617937,164.64458677778617,6.47544875391759e-05,0.0971632748842239,0,0,0
15216,527969.3946484522,2010-11-22 14:25:20,1590.8088499994217,2,47,0.5501165986061096,3.914248466491699,45.36875171427985,45.12907781192944,181.0431893794808,164.64458677778617,3.237724376958795e-05,0.0971632748842239,0,0,0
15217,527999.4099274563,2010-11-22 14:25:50,1620.8241290085637,2,47,0.5501165986061096,3.915543556213379,45.373338266304046,45.12907781192944,181.06114583037964,164.64458677778617,3.237724376958795e-05,0.0971632748842239,0,0,0
15218,528029.4251969067,2010-11-22 14:26:20,1650.8393984488202,2,47,0.5499359965324402,3.917000532150269,45.3779247427784,45.12907781192944,181.07910787599897,164.64458677778617,6.47544875391759e-05,0.0971632748842239,0,0,0
15219,528059.4404754295,2010-11-22 14:26:50,1680.8546769767613,2,47,0.550297200679779,3.9181337356567374,45.38251122468266,45.12907781192944,181.0970760875455,164.64458677778617,0.0,0.0971632748842239,0,0,0
15220,528089.457800922,2010-11-22 14:27:20,1710.8720025795158,2,47,0.550297200679779,3.919590711593628,45.38709801907986,45.12907781192944,181.11505154978627,164.64458677778617,-3.237724376958795e-05,0.0971632748842239,0,0,0
15221,528119.4710185807,2010-11-22 14:27:50,1740.8852201429722,2,47,0.5501165986061096,3.920885801315308,45.39168426979318,45.12907781192944,181.1330310558928,164.64458677778617,3.237724376958795e-05,0.0971632748842239,0,0,0
15222,528149.486374156,2010-11-22 14:28:20,1770.9005756931726,2,47,0.5501165986061096,3.922342777252197,45.39627082082358,45.12907781192944,181.15101784749916,164.64458677778617,3.237724376958795e-05,0.0971632748842239,0,0,0
15223,528179.501522133,2010-11-22 14:28:50,1800.915723675251,2,47,0.5501165986061096,3.923637866973877,45.4008573634878,45.12907781192944,181.16901087867396,164.64458677778617,3.237724376958795e-05,0.0971632748842239,0,0,0
15224,528209.5167920796,2010-11-22 14:29:20,1830.930993626784,2,47,0.5501165986061096,3.925094842910767,45.40544387991461,45.12907781192944,181.18701003536543,164.64458677778617,0.0,0.0971632748842239,0,0,0
15225,528239.5322567271,2010-11-22 14:29:51,1860.946458274308,2,47,0.5501165986061096,3.9263899326324463,45.410030433812736,45.12907781192944,181.2050155882126,164.64458677778617,3.237724376958795e-05,0.0971632748842239,0,0,0
15226,528269.5474539972,2010-11-22 14:30:21,1890.961655569479,2,47,0.5499359965324402,3.927846908569336,45.41461688078669,45.12907781192944,181.22302705302457,164.64458677778617,3.237724376958795e-05,0.0971632748842239,0,0,0
15227,528299.5625843552,2010-11-22 14:30:51,1920.9767859025028,2,47,0.550297200679779,3.9293038845062256,45.41920338861355,45.12907781192944,181.24104514918795,164.64458677778617,6.47544875391759e-05,0.0971632748842239,0,0,0
15228,528329.5778413495,2010-11-22 14:31:21,1950.99204289168,2,47,0.5501165986061096,3.9304370880126953,45.4237899410901,45.12907781192944,181.25906996407252,164.64458677778617,0.0,0.0971632748842239,0,0,0
15229,528359.5930921782,2010-11-22 14:31:51,1981.007293725492,2,47,0.550297200679779,3.932217836380005,45.42837646934694,45.12907781192944,181.27710113744376,164.64458677778617,6.47544875391759e-05,0.0971632748842239,0,0,0
15230,528389.6083566562,2010-11-22 14:32:21,2011.022558188324,2,47,0.5501165986061096,3.933512926101685,45.43296299983237,45.12907781192944,181.29513893492663,164.64458677778617,3.237724376958795e-05,0.0971632748842239,0,0,0
15231,528419.6237643465,2010-11-22 14:32:51,2041.037965898724,2,47,0.5501165986061096,3.934969902038574,45.43754963805812,45.12907781192944,181.31318386737044,164.64458677778617,0.0,0.0971632748842239,0,0,0
15232,528449.6388921832,2010-11-22 14:33:21,2071.0530937305043,2,47,0.550297200679779,3.936426877975464,45.44213619182254,45.12907781192944,181.33123521048347,164.64458677778617,3.237724376958795e-05,0.0971632748842239,0,0,0
15233,528479.6541892976,2010-11-22 14:33:51,2101.068390869902,2,47,0.5501165986061096,3.9378838539123535,45.4467227031522,45.12907781192944,181.34929310141263,164.64458677778617,0.0,0.0971632748842239,0,0,0
15234,528509.6695568478,2010-11-22 14:34:21,2131.0837583949938,2,47,0.5501165986061096,3.939340829849243,45.4513092559224,45.12907781192944,181.36735811895915,164.64458677778617,3.237724376958795e-05,0.0971632748842239,0,0,0
15235,528539.6847120429,2010-11-22 14:34:51,2161.098913595089,2,47,0.550297200679779,3.940959692001343,45.4558958529352,45.12907781192944,181.3854303217949,164.64458677778617,3.237724376958795e-05,0.0971632748842239,0,0,0
15236,528569.7000521094,2010-11-22 14:35:21,2191.11425368169,2,47,0.5501165986061096,3.9425785541534415,45.46048243375435,45.12907781192944,181.40350941767213,164.64458677778617,3.237724376958795e-05,0.0971632748842239,0,0,0
15237,528599.7152136352,2010-11-22 14:35:51,2221.1294151875254,2,47,0.5501165986061096,3.944197416305542,45.46506890466206,45.12907781192944,181.42159510038528,164.64458677778617,9.713172767078504e-05,0.0971632748842239,0,0,0
15238,528629.7304814315,2010-11-22 14:36:21,2251.144682978666,2,47,0.550297200679779,3.945654392242432,45.46965542418736,45.12907781192944,181.43968808412492,164.64458677778617,6.47544875391759e-05,0.0971632748842239,0,0,0
15239,528659.7457556286,2010-11-22 14:36:51,2281.159957180809,2,47,0.5501165986061096,3.947111368179321,45.47424200021005,45.12907781192944,181.45778840653225,164.64458677778617,3.237724376958795e-05,0.0971632748842239,0,0,0
15240,528689.7610054148,2010-11-22 14:37:21,2311.175206987056,2,47,0.5501165986061096,3.948568344116211,45.47882842410701,45.12907781192944,181.47589522854292,164.64458677778617,3.237724376958795e-05,0.0971632748842239,0,0,0
15241,528719.776288078,2010-11-22 14:37:51,2341.190489640295,2,47,0.5501165986061096,3.950349092483521,45.48341489129745,45.12907781192944,181.4940093104832,164.64458677778617,6.47544875391759e-05,0.0971632748842239,0,0,0
15242,528749.7915396186,2010-11-22 14:38:21,2371.205741185883,2,47,0.550297200679779,3.95180606842041,45.488001344372925,45.12907781192944,181.5121305440783,164.64458677778617,6.47544875391759e-05,0.0971632748842239,0,0,0
15243,528779.8068183771,2010-11-22 14:38:51,2401.2210199193373,2,47,0.5501165986061096,3.9532630443573,45.492587849748666,45.12907781192944,181.53025917252108,164.64458677778617,3.237724376958795e-05,0.0971632748842239,0,0,0
15244,528809.8220837673,2010-11-22 14:39:21,2431.236285309484,2,47,0.550297200679779,3.95504379272461,45.49717440456144,45.12907781192944,181.54839538115624,164.64458677778617,3.237724376958795e-05,0.0971632748842239,0,0,0
15245,528839.8373457137,2010-11-22 14:39:51,2461.2515472660607,2,47,0.5501165986061096,3.956500768661499,45.50176094959808,45.12907781192944,181.56653899235667,164.64458677778617,0.0,0.0971632748842239,0,0,0
15246,528869.8526035502,2010-11-22 14:40:21,2491.266805092326,2,47,0.5501165986061096,3.9582815170288086,45.50634748111558,45.12907781192944,181.58468982808884,164.64458677778617,6.47544875391759e-05,0.0971632748842239,0,0,0
15247,528899.8678897271,2010-11-22 14:40:51,2521.2820912643483,2,47,0.5501165986061096,3.959900379180908,45.510933926080575,45.12907781192944,181.6028477972352,164.64458677778617,6.47544875391759e-05,0.0971632748842239,0,0,0
15248,528929.8831379394,2010-11-22 14:41:21,2551.297339481629,2,47,0.5501165986061096,3.961519241333008,45.51552048842875,45.12907781192944,181.62101376326845,164.64458677778617,3.237724376958795e-05,0.0971632748842239,0,0,0
15249,528959.8984040313,2010-11-22 14:41:51,2581.312605578541,2,47,0.5499359965324402,3.9629762172698975,45.52010707928399,45.12907781192944,181.639187353389,164.64458677778617,3.237724376958795e-05,0.0971632748842239,0,0,0
15250,528989.9136714515,2010-11-22 14:42:21,2611.327872983717,2,47,0.550297200679779,3.964756965637207,45.524693599804685,45.12907781192944,181.65736825344905,164.64458677778617,6.47544875391759e-05,0.0971632748842239,0,0,0
15251,529019.9289694331,2010-11-22 14:42:51,2641.3431709652173,2,47,0.5501165986061096,3.966375827789306,45.52928020236415,45.12907781192944,181.6755571817531,164.64458677778617,3.237724376958795e-05,0.0971632748842239,0,0,0
15252,529049.9442068483,2010-11-22 14:43:21,2671.35840839056,2,47,0.550297200679779,3.968318462371826,45.53386686234367,45.12907781192944,181.6937540019437,164.64458677778617,9.713172767078504e-05,0.0971632748842239,0,0,0
15253,529079.9594572862,2010-11-22 14:43:51,2701.373658828383,2,47,0.5501165986061096,3.970099210739136,45.53845338421442,45.12907781192944,181.71195802884912,164.64458677778617,9.713172767078504e-05,0.0971632748842239,0,0,0
15254,529109.9749293572,2010-11-22 14:44:21,2731.389130899437,2,47,0.550297200679779,3.9715561866760254,45.5430401895642,45.12907781192944,181.7301709823076,164.64458677778617,6.47544875391759e-05,0.0971632748842239,0,0,0
15255,529139.9899903872,2010-11-22 14:44:51,2761.4041919294705,2,47,0.5501165986061096,3.973175048828125,45.54762738004453,45.12907781192944,181.7483934147971,164.64458677778617,0.0,0.0971632748842239,0,0,0
15256,529170.0054223782,2010-11-22 14:45:21,2791.4196240357664,2,47,0.5501165986061096,3.9749557971954346,45.55221463014416,45.12907781192944,181.7666240553121,164.64458677778617,-3.237724376958795e-05,0.0971632748842239,0,0,0
15257,529200.0206304203,2010-11-22 14:45:51,2821.4348319925507,2,47,0.5501165986061096,3.976898431777954,45.556801874812045,45.12907781192944,181.78486274552728,164.64458677778617,6.47544875391759e-05,0.0971632748842239,0,0,0
15258,529230.0357846479,2010-11-22 14:46:21,2851.449986210194,2,47,0.5501165986061096,3.978679180145264,45.56138891708421,45.12907781192944,181.803108313643,164.64458677778617,0.0001618862152099,0.0971632748842239,0,0,0
15259,529260.0512336113,2010-11-22 14:46:51,2881.465435173568,2,47,0.5499359965324402,3.980459928512573,45.56597549187583,45.12907781192944,181.8213607288103,164.64458677778617,3.237724376958795e-05,0.0971632748842239,0,0,0
15260,529290.0664398387,2010-11-22 14:47:21,2911.4806413809856,2,47,0.5501165986061096,3.982240676879883,45.570561974542215,45.12907781192944,181.83962107665417,164.64458677778617,6.47544875391759e-05,0.0971632748842239,0,0,0
15261,529320.0818133088,2010-11-22 14:47:51,2941.4960148609416,2,47,0.5501165986061096,3.984021425247192,45.57514845622134,45.12907781192944,181.85788972662107,164.64458677778617,3.237724376958795e-05,0.0971632748842239,0,0,0
15262,529350.0968413664,2010-11-22 14:48:21,2971.511042913657,2,47,0.550297200679779,3.985964059829712,45.57973486551632,45.12907781192944,181.8761664938655,164.64458677778617,9.713172767078504e-05,0.0971632748842239,0,0,0
15263,529380.1121813377,2010-11-22 14:48:51,3001.526382900008,2,47,0.5501165986061096,3.987582921981812,45.58432134161949,45.12907781192944,181.89445204429057,164.64458677778617,3.237724376958795e-05,0.0971632748842239,0,0,0
15264,529410.1273648735,2010-11-22 14:49:21,3031.541566405759,2,47,0.5501165986061096,3.989687442779541,45.58890778166457,45.12907781192944,181.9127459526061,164.64458677778617,6.47544875391759e-05,0.0971632748842239,0,0,0
15265,529440.1426313564,2010-11-22 14:49:51,3061.556832903671,2,47,0.5499359965324402,3.9913063049316406,45.59349422295665,45.12907781192944,181.9310486045389,164.64458677778617,0.0,0.0971632748842239,0,0,0
15266,529470.1579226913,2010-11-22 14:50:21,3091.572124243593,2,47,0.5501165986061096,3.99341082572937,45.59808061533244,45.12907781192944,181.94935973421624,164.64458677778617,3.237724376958795e-05,0.0971632748842239,0,0,0
15267,529500.1732018258,2010-11-22 14:50:51,3121.5874033680225,2,47,0.5499359965324402,3.995353221893311,45.602667028728696,45.12907781192944,181.96767971295947,164.64458677778617,6.47544875391759e-05,0.0971632748842239,0,0,0
15268,529530.1884626696,2010-11-22 14:51:21,3151.602664231871,2,47,0.5501165986061096,3.99729585647583,45.6072533909491,45.12907781192944,181.9860083786366,164.64458677778617,3.237724376958795e-05,0.0971632748842239,0,0,0
15269,529560.2037093932,2010-11-22 14:51:51,3181.6179109353734,2,47,0.5501165986061096,3.9992384910583496,45.61183990911586,45.12907781192944,182.0043466154281,164.64458677778617,6.47544875391759e-05,0.0971632748842239,0,0,0
15270,529590.2189604024,2010-11-22 14:52:21,3211.633161964673,2,47,0.5501165986061096,4.001343250274658,45.61642622890216,45.12907781192944,182.02269320313528,164.64458677778617,6.47544875391759e-05,0.0971632748842239,0,0,0
15271,529620.234241627,2010-11-22 14:52:51,3241.648443189346,2,47,0.5501165986061096,4.003447532653809,45.62101263203745,45.12907781192944,182.04104935820425,164.64458677778617,9.70840483205393e-05,0.0971632748842239,0,0,0
15272,529650.2494947517,2010-11-22 14:53:21,3271.663696293825,2,47,0.5501165986061096,4.005228519439697,45.62559899991746,45.12907781192944,182.05941465049884,164.64458677778617,0.0,0.0971632748842239,0,0,0
15273,529680.2649132289,2010-11-22 14:53:51,3301.679114781127,2,47,0.5501165986061096,4.007494926452637,45.63018541816824,45.12907781192944,182.07778963729305,164.64458677778617,6.47544875391759e-05,0.0971632748842239,0,0,0
15274,529710.2801447596,2010-11-22 14:54:21,3331.694346311755,2,47,0.5501165986061096,4.009437561035156,45.63477184737192,45.12907781192944,182.0961742052344,164.64458677778617,0.0,0.0971632748842239,0,0,0
15275,529740.2954397034,2010-11-22 14:54:51,3361.709641245648,2,47,0.5501165986061096,4.011541843414307,45.63935824132588,45.12907781192944,182.11456829688933,164.64458677778617,3.23295607813634e-05,0.0971632748842239,0,0,0
15276,529770.3106821764,2010-11-22 14:55:21,3391.72488371859,2,47,0.5499359965324402,4.013808250427246,45.64394464901587,45.12907781192944,182.13297234487587,164.64458677778617,6.47544875391759e-05,0.0971632748842239,0,0,0
15277,529800.3259431606,2010-11-22 14:55:51,3421.7401447027387,2,47,0.5499359965324402,4.015913009643555,45.64853114422453,45.12907781192944,182.15138674849385,164.64458677778617,3.24249267578125e-05,0.0971632748842239,0,0,0
15278,529830.3412225256,2010-11-22 14:56:21,3451.755424072782,2,47,0.550297200679779,4.018341064453125,45.65311755750009,45.12907781192944,182.16981098449844,164.64458677778617,9.70840483205393e-05,0.0971632748842239,0,0,0
15279,529860.3563661869,2010-11-22 14:56:51,3481.7705677240497,2,47,0.5501165986061096,4.020445823669434,45.65770396573426,45.12907781192944,182.18824537619955,164.64458677778617,3.24249267578125e-05,0.0971632748842239,0,0,0
15280,529890.3716213665,2010-11-22 14:57:21,3511.7858229137346,2,47,0.5499359965324402,4.022712230682373,45.66229036369154,45.12907781192944,182.2066900949251,164.64458677778617,6.47544875391759e-05,0.0971632748842239,0,0,0
15281,529920.3869359996,2010-11-22 14:57:51,3541.801137541787,2,47,0.5501165986061096,4.0249786376953125,45.66687677852981,45.12907781192944,182.2251453525815,164.64458677778617,6.47544875391759e-05,0.0971632748842239,0,0,0
15282,529950.4021728736,2010-11-22 14:58:21,3571.816374440816,2,47,0.5501165986061096,4.027406692504883,45.67146310279987,45.12907781192944,182.24361082783403,164.64458677778617,6.47544875391759e-05,0.0971632748842239,0,0,0
15283,529980.4176868591,2010-11-22 14:58:51,3601.831888491658,2,47,0.5501165986061096,4.029673099517822,45.67604952784662,45.12907781192944,182.26208746952983,164.64458677778617,3.23295607813634e-05,0.0971632748842239,0,0,0
15284,530010.4357567348,2010-11-22 14:59:21,3631.84995830207,2,47,0.5501165986061096,4.031939506530762,45.68063625679903,45.12907781192944,182.2805760223171,164.64458677778617,3.23295607813634e-05,0.0971632748842239,0,0,0
15285,530040.4479555903,2010-11-22 14:59:51,3661.8621571576746,2,47,0.5501165986061096,4.034529685974121,45.68522207915077,45.12907781192944,182.29907176931025,164.64458677778617,6.47544875391759e-05,0.0971632748842239,0,0,0
15286,530070.463352198,2010-11-22 15:00:21,3691.877553760348,2,47,0.5501165986061096,4.036957740783691,45.68980848184816,45.12907781192944,182.3175807447858,164.64458677778617,9.70840483205393e-05,0.0971632748842239,0,0,0
15287,530100.4786348863,2010-11-22 15:00:51,3721.892836438649,2,47,0.550297200679779,4.039224147796631,45.694394905641005,45.12907781192944,182.33610079207332,164.64458677778617,9.70840483205393e-05,0.0971632748842239,0,0,0
15288,530130.4937532095,2010-11-22 15:01:21,3751.9079547717183,2,47,0.5501165986061096,4.04181432723999,45.69898128475423,45.12907781192944,182.35463165472612,164.64458677778617,0.0001295089750783,0.0971632748842239,0,0,0
15289,530160.5090406496,2010-11-22 15:01:52,3781.9232422169184,2,47,0.5499359965324402,4.04408073425293,45.7035676366091,45.12907781192944,182.37317369928024,164.64458677778617,6.47544875391759e-05,0.0971632748842239,0,0,0
15290,530190.5242876438,2010-11-22 15:02:22,3811.938489186084,2,47,0.5501165986061096,4.046670913696289,45.7081540402458,45.12907781192944,182.39172732651448,164.64458677778617,9.70840483205393e-05,0.0971632748842239,0,0,0
15291,530220.5397637199,2010-11-22 15:02:52,3841.953965282185,2,47,0.5501165986061096,4.049261093139648,45.71274047994713,45.12907781192944,182.4102926845288,164.64458677778617,6.47544875391759e-05,0.0971632748842239,0,0,0
15292,530250.5548959677,2010-11-22 15:03:22,3871.969097605176,2,47,0.5501165986061096,4.051689624786377,45.71732684159995,45.12907781192944,182.4288692714157,164.64458677778617,9.71794142969884e-05,0.0971632748842239,0,0,0
15293,530280.5701221249,2010-11-22 15:03:52,3901.984323812516,2,47,0.5501165986061096,4.054279804229736,45.721913249941096,45.12907781192944,182.4474577254622,164.64458677778617,6.47544875391759e-05,0.0971632748842239,0,0,0
15294,530310.585353455,2010-11-22 15:04:22,3931.9995549972814,2,47,0.550297200679779,4.056869983673096,45.72649965870867,45.12907781192944,182.4660579436832,164.64458677778617,6.47544875391759e-05,0.0971632748842239,0,0,0
15295,530340.6006343539,2010-11-22 15:04:52,3962.0148359011537,2,47,0.5501165986061096,4.059460163116455,45.73108606636439,45.12907781192944,182.484670032295,164.64458677778617,6.47544875391759e-05,0.0971632748842239,0,0,0
15296,530370.6159054082,2010-11-22 15:05:22,3992.030106965464,2,47,0.5501165986061096,4.062050342559815,45.73567245220542,45.12907781192944,182.50329370384875,164.64458677778617,6.47544875391759e-05,0.0971632748842239,0,0,0
15297,530400.6312847979,2010-11-22 15:05:52,4022.045486360184,2,47,0.5501165986061096,4.064640522003174,45.74025883471945,45.12907781192944,182.52192940434992,164.64458677778617,6.47544875391759e-05,0.0971632748842239,0,0,0
15298,530430.6465483886,2010-11-22 15:06:22,4052.0607499508383,2,47,0.5501165986061096,4.067230701446533,45.744845168794704,45.12907781192944,182.5405770774956,164.64458677778617,6.47544875391759e-05,0.0971632748842239,0,0,0
15299,530460.661836746,2010-11-22 15:06:52,4082.076038298291,2,47,0.5501165986061096,4.069820880889893,45.74943157152675,45.12907781192944,182.55923741986967,164.64458677778617,3.24249267578125e-05,0.0971632748842239,0,0,0
15300,530490.6769742218,2010-11-22 15:07:22,4112.091175784169,2,47,0.550297200679779,4.072734832763672,45.754017928666975,45.12907781192944,182.5779098924017,164.64458677778617,9.71794142969884e-05,0.0971632748842239,0,0,0
15301,530520.692240404,2010-11-22 15:07:52,4142.106441976318,2,47,0.5499359965324402,4.075486660003662,45.75860428384792,45.12907781192944,182.59659486945537,164.64458677778617,0.0001295089750783,0.0971632748842239,0,0,0
15302,530550.7075012279,2010-11-22 15:08:22,4172.121702769991,2,47,0.5501165986061096,4.078400611877441,45.763190649042976,45.12907781192944,182.61529254232133,164.64458677778617,0.0001295089750783,0.0971632748842239,0,0,0
15303,530580.7228032142,2010-11-22 15:08:52,4202.137004771526,2,47,0.5499359965324402,4.080990791320801,45.76777702299988,45.12907781192944,182.63400312678075,164.64458677778617,6.47544875391759e-05,0.0971632748842239,0,0,0
15304,530610.7380381885,2010-11-22 15:09:22,4232.152239750762,2,47,0.550297200679779,4.08390474319458,45.77236329334204,45.12907781192944,182.6527261862579,164.64458677778617,9.70840483205393e-05,0.0971632748842239,0,0,0
15305,530640.7534208263,2010-11-22 15:09:52,4262.167622383565,2,47,0.5501165986061096,4.0866570472717285,45.77694964746357,45.12907781192944,182.67146272631675,164.64458677778617,6.47544875391759e-05,0.0971632748842239,0,0,0
15306,530670.7686892941,2010-11-22 15:10:22,4292.18289084137,2,47,0.5499359965324402,4.089570999145508,45.78153596422363,45.12907781192944,182.6902123055181,164.64458677778617,6.47544875391759e-05,0.0971632748842239,0,0,0
15307,530700.7839812156,2010-11-22 15:10:52,4322.198182762742,2,47,0.5501165986061096,4.092484951019287,45.78612229535927,45.12907781192944,182.7089752636427,164.64458677778617,6.47544875391759e-05,0.0971632748842239,0,0,0
15308,530730.7991073381,2010-11-22 15:11:22,4352.213308900293,2,47,0.5501165986061096,4.095560550689697,45.79070860727824,45.12907781192944,182.72775164466591,164.64458677778617,9.70840483205393e-05,0.0971632748842239,0,0,0
15309,530760.8143874699,2010-11-22 15:11:52,4382.228589042263,2,47,0.550297200679779,4.098636627197266,45.79529490143938,45.12907781192944,182.74654164500544,164.64458677778617,9.71794142969884e-05,0.0971632748842239,0,0,0
15310,530790.8297231456,2010-11-22 15:12:22,4412.243924732891,2,47,0.5499359965324402,4.101388454437256,45.799881258854285,45.12907781192944,182.7653456094912,164.64458677778617,3.23295607813634e-05,0.0971632748842239,0,0,0
15311,530820.8449092177,2010-11-22 15:12:52,4442.259110784999,2,47,0.550297200679779,4.104626178741455,45.80446759133485,45.12907781192944,182.7841631919618,164.64458677778617,9.70840483205393e-05,0.0971632748842239,0,0,0
15312,530850.8602110789,2010-11-22 15:13:22,4472.274412656208,2,47,0.5501165986061096,4.107540130615234,45.80905405577622,45.12907781192944,182.80299532751465,164.64458677778617,9.70840483205393e-05,0.0971632748842239,0,0,0
15313,530880.8754065144,2010-11-22 15:13:52,4502.289608086724,2,47,0.5501165986061096,4.110777854919434,45.81364047798478,45.12907781192944,182.82184137444548,164.64458677778617,9.70840483205393e-05,0.0971632748842239,0,0,0
15314,530910.890670486,2010-11-22 15:14:22,4532.304872053318,2,47,0.5501165986061096,4.113691806793213,45.81822691640026,45.12907781192944,182.84070156201227,164.64458677778617,6.47544875391759e-05,0.0971632748842239,0,0,0
15315,530940.9059488836,2010-11-22 15:14:52,4562.320150440908,2,47,0.5499359965324402,4.116767406463623,45.82281335212936,45.12907781192944,182.8595759629829,164.64458677778617,9.70840483205393e-05,0.0971632748842239,0,0,0
15316,530970.9212223641,2010-11-22 15:15:22,4592.335423906212,2,47,0.5501165986061096,4.119843482971191,45.8273998611847,45.12907781192944,182.8784651515443,164.64458677778617,3.24249267578125e-05,0.0971632748842239,0,0,0
15317,531000.9365101551,2010-11-22 15:15:52,4622.350711712313,2,47,0.5501165986061096,4.1232428550720215,45.83198639025926,45.12907781192944,182.89736893222556,164.64458677778617,9.70840483205393e-05,0.0971632748842239,0,0,0
15318,531030.951865214,2010-11-22 15:16:22,4652.366066756249,2,47,0.5501165986061096,4.12631893157959,45.83657289455299,45.12907781192944,182.9162871510828,164.64458677778617,6.47544875391759e-05,0.0971632748842239,0,0,0
15319,531060.9670092714,2010-11-22 15:16:52,4682.3812108335815,2,47,0.5501165986061096,4.12971830368042,45.84115936174612,45.12907781192944,182.93521987414871,164.64458677778617,9.70840483205393e-05,0.0971632748842239,0,0,0
15320,531090.9822691376,2010-11-22 15:17:22,4712.396470689914,2,47,0.5501165986061096,4.132956027984619,45.84574587373661,45.12907781192944,182.9541676854857,164.64458677778617,0.0001295089750783,0.0971632748842239,0,0,0
15321,531120.9976880009,2010-11-22 15:17:52,4742.411889688492,2,47,0.550297200679779,4.136193752288818,45.85033243863824,45.12907781192944,182.9731306033064,164.64458677778617,9.70840483205393e-05,0.0971632748842239,0,0,0
15322,531151.0128008203,2010-11-22 15:18:22,4772.427002387498,2,47,0.5501165986061096,4.139593601226807,45.8549189775589,45.12907781192944,182.9921086095033,164.64458677778617,0.0001295089750783,0.0971632748842239,0,0,0
15323,531181.0282774527,2010-11-22 15:18:52,4802.442478984851,2,47,0.5499359965324402,4.142669200897217,45.859505566334285,45.12907781192944,183.01110198442584,164.64458677778617,9.70840483205393e-05,0.0971632748842239,0,0,0
15324,531211.0434942916,2010-11-22 15:19:22,4832.457695858894,2,47,0.5501165986061096,4.146069049835205,45.864092105164126,45.12907781192944,183.03011061111368,164.64458677778617,6.47544875391759e-05,0.0971632748842239,0,0,0
15325,531241.058909987,2010-11-22 15:19:52,4862.473111524151,2,47,0.550297200679779,4.149792194366455,45.868678585232,45.12907781192944,183.0491346512062,164.64458677778617,0.0001618385285837,0.0971632748842239,0,0,0
15326,531271.0738567918,2010-11-22 15:20:22,4892.48805832906,2,47,0.5499359965324402,4.152868270874023,45.87326499756838,45.12907781192944,183.06817395954087,164.64458677778617,9.71794142969884e-05,0.0971632748842239,0,0,0
15327,531301.0891399464,2010-11-22 15:20:52,4922.503341483549,2,47,0.5499359965324402,4.1562676429748535,45.87785144759168,45.12907781192944,183.08722908146777,164.64458677778617,6.47544875391759e-05,0.0971632748842239,0,0,0
15328,531331.1047314154,2010-11-22 15:21:22,4952.518932962665,2,47,0.5501165986061096,4.159991264343262,45.88243799783679,45.12907781192944,183.1063003604583,164.64458677778617,0.0001295089750783,0.0971632748842239,0,0,0
15329,531361.1201306046,2010-11-22 15:21:52,4982.534332282119,2,47,0.5501165986061096,4.163066864013672,45.88702447384381,45.12907781192944,183.1253867983817,164.64458677778617,6.47544875391759e-05,0.0971632748842239,0,0,0
15330,531391.1349450791,2010-11-22 15:22:22,5012.549146611349,2,47,0.550297200679779,4.16679048538208,45.891610907418446,45.12907781192944,183.14448868376692,164.64458677778617,0.0001619339018361,0.0971632748842239,0,0,0
15331,531421.150339346,2010-11-22 15:22:52,5042.564540903254,2,47,0.5501165986061096,4.170028209686279,45.89619740514289,45.12907781192944,183.16360662128608,164.64458677778617,9.71794142969884e-05,0.0971632748842239,0,0,0
15332,531451.1655436988,2010-11-22 15:23:22,5072.579745256043,2,47,0.5501165986061096,4.173589706420898,45.900783892129965,45.12907781192944,183.182740654622,164.64458677778617,9.71794142969884e-05,0.0971632748842239,0,0,0
15333,531481.1807161921,2010-11-22 15:23:52,5102.594917754318,2,47,0.5501165986061096,4.177151203155518,45.90537035779233,45.12907781192944,183.2018908786552,164.64458677778617,9.71794142969884e-05,0.0971632748842239,0,0,0
15334,531511.1959802088,2010-11-22 15:24:22,5132.610181745973,2,47,0.5501165986061096,4.180712699890137,45.90995690476894,45.12907781192944,183.22105795832903,164.64458677778617,6.47544875391759e-05,0.0971632748842239,0,0,0
15335,531541.2112562505,2010-11-22 15:24:52,5162.625457812771,2,47,0.5501165986061096,4.184435844421387,45.91454340397345,45.12907781192944,183.24024136828808,164.64458677778617,9.70840483205393e-05,0.0971632748842239,0,0,0
15336,531571.2265133751,2010-11-22 15:25:22,5192.640714912223,2,47,0.5499359965324402,4.187997341156006,45.919129954316965,45.12907781192944,183.25944159068428,164.64458677778617,9.70840483205393e-05,0.0971632748842239,0,0,0
15337,531601.2417796523,2010-11-22 15:25:52,5222.65598119961,2,47,0.5501165986061096,4.191720962524414,45.92371642586445,45.12907781192944,183.2786582648561,164.64458677778617,9.71794142969884e-05,0.0971632748842239,0,0,0
15338,531631.2571823002,2010-11-22 15:26:22,5252.671383847372,2,47,0.5501165986061096,4.195444107055664,45.92830296370906,45.12907781192944,183.2978920299972,164.64458677778617,9.71794142969884e-05,0.0971632748842239,0,0,0
15339,531661.2724434047,2010-11-22 15:26:52,5282.68664494681,2,47,0.5499359965324402,4.199167251586914,45.93288942066869,45.12907781192944,183.3171424420957,164.64458677778617,0.0001295089750783,0.0971632748842239,0,0,0
15340,531668.1003433432,2010-11-22 15:26:59,5289.51454488049,2,47,0.550297200679779,4.200138568878174,45.9339327691577,45.12907781192944,183.3215240201536,164.64458677778617,9.70840483205393e-05,0.0971632748842239,0,0,0
15341,531698.1437557545,2010-11-22 15:27:29,30.01526172600067,3,47,0.0,4.109321117401123,45.9339327691577,45.12907781192944,183.3215240201536,164.64458677778617,-0.0004208564641885,0.0971632748842239,0,0,0
15342,531728.1590128337,2010-11-22 15:27:59,60.03051881542774,3,47,0.0,4.098150730133057,45.9339327691577,45.12907781192944,183.3215240201536,164.64458677778617,-0.0001942634553415,0.0971632748842239,0,0,0
15343,531758.1742944294,2010-11-22 15:28:29,90.04580042606352,3,47,0.0,4.091189861297607,45.9339327691577,45.12907781192944,183.3215240201536,164.64458677778617,-9.70840483205393e-05,0.0971632748842239,0,0,0
15344,531788.1426885265,2010-11-22 15:28:59,120.01419451823976,3,47,0.0,4.0866570472717285,45.9339327691577,45.12907781192944,183.3215240201536,164.64458677778617,-0.0001295089750783,0.0971632748842239,0,0,0
15345,531788.1566391947,2010-11-22 15:28:59,0.031257363187341,4,47,0.989719569683075,4.199814796447754,45.933941392279394,45.12907781192944,183.3215602363688,164.64458677778617,-6.47544875391759e-05,0.0971632748842239,0,0,0
15346,531789.1733289838,2010-11-22 15:29:00,1.047947162339841,4,47,0.9393296241760254,4.199976921081543,45.93421197949403,45.12907781192944,183.32269664958253,164.64458677778617,-3.23295607813634e-05,0.0971632748842239,0,0,0
15347,531791.4378435505,2010-11-22 15:29:03,3.312461729085294,4,47,0.8891202211380005,4.199976921081543,45.9347857483361,45.12907781192944,183.32510637006752,164.64458677778617,-3.23295607813634e-05,0.0971632748842239,0,0,0
15348,531794.7971789836,2010-11-22 15:29:06,6.671797147109516,4,47,0.8389108777046204,4.199653148651123,45.9355907732322,45.12907781192944,183.3284873401973,164.64458677778617,-3.23295607813634e-05,0.0971632748842239,0,0,0
15349,531799.422248273,2010-11-22 15:29:11,11.29686646668029,4,47,0.7887014746665955,4.199814796447754,45.93663502724798,45.12907781192944,183.33287305043365,164.64458677778617,0.0,0.0971632748842239,0,0,0
15350,531805.4532920562,2010-11-22 15:29:17,17.327910229765838,4,47,0.7381308674812317,4.199976921081543,45.937912673856914,45.12907781192944,183.3382389696427,164.64458677778617,3.24249267578125e-05,0.0971632748842239,0,0,0
15351,531813.3907002733,2010-11-22 15:29:25,25.26531844180281,4,47,0.688102126121521,4.199814796447754,45.93948321773543,45.12907781192944,183.34483503773453,164.64458677778617,0.0,0.0971632748842239,0,0,0
15352,531823.9843373913,2010-11-22 15:29:35,35.8589555798898,4,47,0.6380733251571655,4.199976921081543,45.94143111845979,45.12907781192944,183.3530159630133,164.64458677778617,3.24249267578125e-05,0.0971632748842239,0,0,0
15353,531838.9372875754,2010-11-22 15:29:50,50.81190577904077,4,47,0.5880445837974548,4.199976921081543,45.94397157636466,45.12907781192944,183.3636855350693,164.64458677778617,0.0,0.0971632748842239,0,0,0
15354,531862.1743837574,2010-11-22 15:30:13,74.04900202621158,4,47,0.5380157828330994,4.199814796447754,45.94759405169703,45.12907781192944,183.3788994633413,164.64458677778617,0.0,0.0971632748842239,0,0,0
15355,531904.1552417676,2010-11-22 15:30:55,116.02985995118584,4,47,0.4879870116710663,4.199814796447754,45.95354713743789,45.12907781192944,183.40390156649988,164.64458677778617,0.0,0.0971632748842239,0,0,0
15356,531980.9824274526,2010-11-22 15:32:12,192.85704564624777,4,47,0.4379582405090332,4.199814796447754,45.96338530468801,45.12907781192944,183.44522050093192,164.64458677778617,0.0,0.0971632748842239,0,0,0
15357,532092.2154859644,2010-11-22 15:34:03,304.09010414303395,4,47,0.3879294693470001,4.199814796447754,45.97612543947364,45.12907781192944,183.4987272751411,164.64458677778617,0.0,0.0971632748842239,0,0,0
15358,532229.979429081,2010-11-22 15:36:21,441.85404725449285,4,47,0.3379007279872894,4.199653148651123,45.990009683239656,45.12907781192944,183.55703922794584,164.64458677778617,-6.47544875391759e-05,0.0971632748842239,0,0,0
15359,532396.7899634028,2010-11-22 15:39:08,608.6645815963694,4,47,0.2878719568252563,4.199814796447754,46.0044921858733,45.12907781192944,183.6178637887019,164.64458677778617,0.0,0.0971632748842239,0,0,0
15360,532596.6625144498,2010-11-22 15:42:28,808.5371326283685,4,47,0.237843170762062,4.199814796447754,46.01905793796908,45.12907781192944,183.67903794302268,164.64458677778617,0.0,0.0971632748842239,0,0,0
15361,532849.7689120326,2010-11-22 15:46:41,1061.6435302161935,4,47,0.187814399600029,4.199976921081543,46.03396282863768,45.12907781192944,183.74163642234825,164.64458677778617,0.0,0.0971632748842239,0,0,0
15362,533184.4361179358,2010-11-22 15:52:16,1396.3107357985896,4,47,0.1377856284379959,4.199653148651123,46.048998320820935,45.12907781192944,183.8047833009335,164.64458677778617,-6.47544875391759e-05,0.0971632748842239,0,0,0
15363,533688.4151562057,2010-11-22 16:00:40,1900.2897743891483,4,47,0.0877568647265434,4.199653148651123,46.06458579604227,45.12907781192944,183.8702482830956,164.64458677778617,-3.23295607813634e-05,0.0971632748842239,0,0,0
15364,534380.4537386197,2010-11-22 16:12:12,2592.328356793304,4,47,0.0498289167881011,4.199976921081543,46.07748092756764,45.12907781192944,183.92440616817728,164.64458677778617,6.47544875391759e-05,0.0971632748842239,0,0,0
15365,534410.4672249248,2010-11-22 16:12:42,30.015381665387835,5,47,0.0,4.191558837890625,46.07748092756764,45.12907781192944,183.92440616817728,164.64458677778617,-3.24249267578125e-05,0.0971632748842239,0,0,0
15366,534440.4668433678,2010-11-22 16:13:12,60.01500012839742,5,47,0.0,4.1901021003723145,46.07748092756764,45.12907781192944,183.92440616817728,164.64458677778617,-6.47544875391759e-05,0.0971632748842239,0,0,0
15367,534440.6374075011,2010-11-22 16:13:12,0.18749059035824,6,47,-1.9243103452026844e-05,4.1901021003723145,46.07748092756764,45.129077812931634,183.92440616817728,164.64458678198545,0.0,0.0986045151948928,0,0,0
15368,534445.4654601031,2010-11-22 16:13:17,5.015543202455359,6,47,0.0007031940040178,4.1901021003723145,46.077481831993936,45.129077813098654,183.92440995793908,164.64458678268528,0.0,0.0986045151948928,0,0,0
15369,534475.4952354657,2010-11-22 16:13:47,30.015266974100737,7,47,-1.0997490882873535,4.002638339996338,46.077481831993936,45.138245755786606,183.92440995793908,164.68149202346206,-0.0009713172912597,0.0986045151948928,0,0,0
15370,534505.5105235876,2010-11-22 16:14:17,60.03055511603965,7,47,-1.099568486213684,3.973498821258545,46.077481831993936,45.14741368478948,183.92440995793908,164.71804509986617,-0.0006475448608398,0.0986045151948928,0,0,0
15371,534535.5257645467,2010-11-22 16:14:47,90.04579605014054,7,47,-1.0997490882873535,3.95310115814209,46.077481831993936,45.156581554994126,183.92440995793908,164.75437647434978,-0.0005180359003134,0.0986045151948928,0,0,0
15372,534565.5411732848,2010-11-22 16:15:17,120.06120479813072,7,47,-1.0997490882873535,3.9375600814819336,46.077481831993936,45.16574942112621,183.92440995793908,164.7905460710834,-0.0004209041653666,0.0986045151948928,0,0,0
15373,534595.556288109,2010-11-22 16:15:47,150.0763195923671,7,47,-1.0993878841400146,3.925094842910767,46.077481831993936,45.174917186663606,183.92440995793908,164.8265854063089,-0.0002590179501567,0.0986045151948928,0,0,0
15374,534625.5715644516,2010-11-22 16:16:17,180.09159596492785,7,47,-1.099568486213684,3.9132773876190186,46.077481831993936,45.18408503722206,183.92440995793908,164.8625136783582,-0.0002913475036621,0.0986045151948928,0,0,0
15375,534655.5869457962,2010-11-22 16:16:47,210.1069773095149,7,47,-1.0993878841400146,3.902592897415161,46.077481831993936,45.19325287224172,183.92440995793908,164.89834078988557,-0.0003237724304199,0.0986045151948928,0,0,0
15376,534685.6020996779,2010-11-22 16:17:17,240.1221312013449,7,47,-1.099568486213684,3.8927178382873535,46.077481831993936,45.20242060116796,183.92440995793908,164.9340737186867,-0.0002913951757363,0.0986045151948928,0,0,0
15377,534715.617366647,2010-11-22 16:17:47,270.1373981804581,7,47,-1.0997490882873535,3.883166551589966,46.077481831993936,45.21158840582794,183.92440995793908,164.96971790147106,-0.0002266406954731,0.0986045151948928,0,0,0
15378,534745.6328269737,2010-11-22 16:18:17,300.1528584771217,7,47,-1.0993878841400146,3.874100923538208,46.077481831993936,45.22075631614056,183.92440995793908,165.00527582913375,-0.0001942634553415,0.0986045151948928,0,0,0
15379,534775.6478907255,2010-11-22 16:18:47,330.1679222339609,7,47,-1.099568486213684,3.86503529548645,46.077481831993936,45.22992405868618,183.92440995793908,165.0407497536095,-0.0002266406954731,0.0986045151948928,0,0,0
15380,534805.6631561107,2010-11-22 16:19:17,360.18318761408284,7,47,-1.0997490882873535,3.8561315536499023,46.077481831993936,45.23909183693472,183.92440995793908,165.07614227602588,-0.0002590179501567,0.0986045151948928,0,0,0
15381,534835.6784112554,2010-11-22 16:19:47,390.1984427586552,7,47,-1.0997490882873535,3.847389698028565,46.077481831993936,45.248259668193306,183.92440995793908,165.11145565346993,-0.0002590179501567,0.0986045151948928,0,0,0
15382,534865.6938160585,2010-11-22 16:20:17,420.2138475718235,7,47,-1.099568486213684,3.8389716148376474,46.077481831993936,45.25742756192363,183.92440995793908,165.1466904554683,-0.0001942634553415,0.0986045151948928,0,0,0
15383,534895.708957419,2010-11-22 16:20:47,450.2289889223485,7,47,-1.099568486213684,3.8307156562805176,46.077481831993936,45.26659533264707,183.92440995793908,165.18184754649636,-0.0002266406954731,0.0986045151948928,0,0,0
15384,534925.7242841873,2010-11-22 16:21:17,480.2443157157674,7,47,-1.0997490882873535,3.8224594593048096,46.077481831993936,45.27576319720672,183.92440995793908,165.2169294401412,-0.0002266406954731,0.0986045151948928,0,0,0
15385,534955.7395080439,2010-11-22 16:21:47,510.2595395521899,7,47,-1.099568486213684,3.8145270347595215,46.077481831993936,45.28493103328075,183.92440995793908,165.25193781028256,-0.0002266406954731,0.0986045151948928,0,0,0
15386,534985.7547485469,2010-11-22 16:22:17,540.2747800502023,7,47,-1.099568486213684,3.8065946102142334,46.077481831993936,45.29409886544146,183.92440995793908,165.28687231451224,-0.0001942634553415,0.0986045151948928,0,0,0
15387,535015.770172974,2010-11-22 16:22:47,570.2902045926177,7,47,-1.099568486213684,3.7988240718841553,46.077481831993936,45.3032667876829,183.92440995793908,165.32173440478505,-0.0001618862152099,0.0986045151948928,0,0,0
15388,535045.7854312564,2010-11-22 16:23:17,600.30546276976,7,47,-1.099568486213684,3.791215419769287,46.077481831993936,45.31243462262228,183.92440995793908,165.35652606026156,-0.0001942634553415,0.0986045151948928,0,0,0
15389,535075.8005649628,2010-11-22 16:23:47,630.320596466179,7,47,-1.099568486213684,3.783768653869629,46.077481831993936,45.32160244498526,183.92440995793908,165.3912491791983,-0.0002266406954731,0.0986045151948928,0,0,0
15390,535105.815942949,2010-11-22 16:24:17,660.3359744573957,7,47,-1.099568486213684,3.7764837741851807,46.077481831993936,45.330770414062975,183.92440995793908,165.42590567714723,-0.0002590179501567,0.0986045151948928,0,0,0
15391,535135.8310823798,2010-11-22 16:24:47,690.3511139081785,7,47,-1.099568486213684,3.769522666931152,46.077481831993936,45.33993829002046,183.92440995793908,165.4604965453921,-0.0001942634553415,0.0986045151948928,0,0,0
15392,535165.846352627,2010-11-22 16:25:17,720.3663841353995,7,47,-1.0993878841400146,3.762723445892334,46.077481831993936,45.34910618734967,183.92440995793908,165.495022963861,-0.0001618862152099,0.0986045151948928,0,0,0
15393,535195.861726488,2010-11-22 16:25:48,750.3817580013188,7,47,-1.0993878841400146,3.755924224853516,46.077481831993936,45.35827417249482,183.92440995793908,165.52948727252894,-0.0001618862152099,0.0986045151948928,0,0,0
15394,535225.8768714826,2010-11-22 16:26:18,780.3969029708775,7,47,-1.099568486213684,3.749125242233277,46.077481831993936,45.36744208985244,183.92440995793908,165.56388985252602,-0.0001618862152099,0.0986045151948928,0,0,0
15395,535255.8922524963,2010-11-22 16:26:48,810.4122840097011,7,47,-1.099568486213684,3.742649793624878,46.077481831993936,45.376610031764905,183.92440995793908,165.598231732032,-0.0001618862152099,0.0986045151948928,0,0,0
15396,535285.9075260669,2010-11-22 16:27:18,840.4275575702427,7,47,-1.099568486213684,3.73617434501648,46.077481831993936,45.38577790999283,183.92440995793908,165.63251370590322,-0.0001618862152099,0.0986045151948928,0,0,0
15397,535315.9227881738,2010-11-22 16:27:48,870.4428196872192,7,47,-1.099568486213684,3.729698896408081,46.077481831993936,45.39494588670565,183.92440995793908,165.6667368376702,-0.0001942634553415,0.0986045151948928,0,0,0
15398,535345.937948186,2010-11-22 16:28:18,900.4579796893014,7,47,-1.0993878841400146,3.723709106445313,46.077481831993936,45.40411376877938,183.92440995793908,165.700902401003,-0.0001618862152099,0.0986045151948928,0,0,0
15399,535375.9532013605,2010-11-22 16:28:48,930.4732328739816,7,47,-1.099568486213684,3.717719316482544,46.077481831993936,45.41328166709146,183.92440995793908,165.73501260227803,-0.0001295089750783,0.0986045151948928,0,0,0
15400,535405.9684663548,2010-11-22 16:29:18,960.488497858115,7,47,-1.099568486213684,3.711891412734986,46.077481831993936,45.42244961175681,183.92440995793908,165.7690689368738,-0.0001295089750783,0.0986045151948928,0,0,0
15401,535435.983733023,2010-11-22 16:29:48,990.5037645264524,7,47,-1.0997490882873535,3.705739736557007,46.077481831993936,45.43161749241893,183.92440995793908,165.80307085302326,-0.0002266406954731,0.0986045151948928,0,0,0
15402,535465.9990166588,2010-11-22 16:30:18,1020.5190481872058,7,47,-1.099568486213684,3.700073719024658,46.077481831993936,45.44078546923976,183.92440995793908,165.8370195304665,-0.0001618862152099,0.0986045151948928,0,0,0
15403,535496.0142624751,2010-11-22 16:30:48,1050.5342939834431,7,47,-1.0997490882873535,3.6942458152771,46.077481831993936,45.44995335990248,183.92440995793908,165.8709149828698,-0.0001942634553415,0.0986045151948928,0,0,0
15404,535526.0295417499,2010-11-22 16:31:18,1080.549573253236,7,47,-1.099568486213684,3.688741683959961,46.077481831993936,45.45912129847424,183.92440995793908,165.9047587748201,-0.0001618862152099,0.0986045151948928,0,0,0
15405,535556.0448145535,2010-11-22 16:31:48,1110.5648460919756,7,47,-1.0997490882873535,3.683075666427612,46.077481831993936,45.46828912458534,183.92440995793908,165.9385507616441,-0.0001618862152099,0.0986045151948928,0,0,0
15406,535586.0600735276,2010-11-22 16:32:18,1140.5801050310197,7,47,-1.099568486213684,3.6775715351104736,46.077481831993936,45.47745703271026,183.92440995793908,165.97229237778535,-0.0001618862152099,0.0986045151948928,0,0,0
15407,535616.0753307975,2010-11-22 16:32:48,1170.5953623008972,7,47,-1.099568486213684,3.672229528427124,46.077481831993936,45.48662490837291,183.92440995793908,166.00598364200962,-0.0001294612884521,0.0986045151948928,0,0,0
15408,535646.0905731852,2010-11-22 16:33:18,1200.6106046936393,7,47,-1.099568486213684,3.666725397109986,46.077481831993936,45.49579280587295,183.92440995793908,166.0396251354715,-0.0001618862152099,0.0986045151948928,0,0,0
15409,535676.1058420792,2010-11-22 16:33:48,1230.6258735825193,7,47,-1.0993878841400146,3.661706924438477,46.077481831993936,45.50496063951903,183.92440995793908,166.0732182397498,-0.0001295089750783,0.0986045151948928,0,0,0
15410,535706.1213470724,2010-11-22 16:34:18,1260.6413786008152,7,47,-1.099568486213684,3.656526565551758,46.077481831993936,45.514128603887336,183.92440995793908,166.1067641753166,-0.0001295089750783,0.0986045151948928,0,0,0
15411,535736.1219463336,2010-11-22 16:34:48,1290.641977841998,7,47,-1.099568486213684,3.651346206665039,46.077481831993936,45.52329197754219,183.92440995793908,166.14024651362828,-0.0001295089750783,0.0986045151948928,0,0,0
15412,535766.1361767955,2010-11-22 16:35:18,1320.6562083088172,7,47,-1.0993878841400146,3.64616584777832,46.077481831993936,45.53245947247907,183.92440995793908,166.1736974570507,-0.0001618862152099,0.0986045151948928,0,0,0
15413,535796.1512947876,2010-11-22 16:35:48,1350.6713262910107,7,47,-1.0993878841400146,3.6413092613220215,46.077481831993936,45.54162721286176,183.92440995793908,166.20710302526444,-0.0001295089750783,0.0986045151948928,0,0,0
15414,535826.1665338972,2010-11-22 16:36:18,1380.6865654356452,7,47,-1.099568486213684,3.6362907886505127,46.077481831993936,45.55079500461429,183.92440995793908,166.24046312688722,-9.713172767078504e-05,0.0986045151948928,0,0,0
15415,535856.1818203499,2010-11-22 16:36:48,1410.70185189338,7,47,-1.099568486213684,3.631434202194214,46.077481831993936,45.55996259938529,183.92440995793908,166.2737773390403,-0.0001295089750783,0.0986045151948928,0,0,0
15416,535886.197075269,2010-11-22 16:37:18,1440.7171067773018,7,47,-1.0993878841400146,3.626739501953125,46.077481831993936,45.569130182563896,183.92440995793908,166.3070469963148,-0.0001295089750783,0.0986045151948928,0,0,0
15417,535916.2123246039,2010-11-22 16:37:48,1470.73235610736,7,47,-1.099568486213684,3.622044801712036,46.077481831993936,45.57829771461109,183.92440995793908,166.34027276245632,-9.713172767078504e-05,0.0986045151948928,0,0,0
15418,535946.2276966203,2010-11-22 16:38:18,1500.7477281487252,7,47,-1.0993878841400146,3.617511987686157,46.077481831993936,45.58746539317681,183.92440995793908,166.37345624293258,-9.713172767078504e-05,0.0986045151948928,0,0,0
15419,535976.2428591637,2010-11-22 16:38:48,1530.7628906971634,7,47,-1.0997490882873535,3.612817287445069,46.077481831993936,45.59663318009417,183.92440995793908,166.40659803216954,-9.713172767078504e-05,0.0986045151948928,0,0,0
15420,536006.2580392258,2010-11-22 16:39:18,1560.7780707342558,7,47,-1.0997490882873535,3.60812258720398,46.077481831993936,45.60580102100956,183.92440995793908,166.4396985926224,-0.0001295089750783,0.0986045151948928,0,0,0
15421,536036.2735310061,2010-11-22 16:39:48,1590.793562509495,7,47,-1.099568486213684,3.6040754318237305,46.077481831993936,45.614968836047645,183.92440995793908,166.47275848511933,-9.713172767078504e-05,0.0986045151948928,0,0,0
15422,536066.2888161405,2010-11-22 16:40:18,1620.8088476639766,7,47,-1.099568486213684,3.599542617797852,46.077481831993936,45.62413667954276,183.92440995793908,166.50577869590035,-0.0001295089750783,0.0986045151948928,0,0,0
15423,536096.3040483479,2010-11-22 16:40:48,1650.824079871294,7,47,-1.0997490882873535,3.5954954624176025,46.077481831993936,45.633304455048,183.92440995793908,166.5387597396061,-6.47544875391759e-05,0.0986045151948928,0,0,0
15424,536126.3191914277,2010-11-22 16:41:18,1680.8392229561482,7,47,-1.0997490882873535,3.5912866592407227,46.077481831993936,45.64247222931295,183.92440995793908,166.5717027429968,-0.0001295089750783,0.0986045151948928,0,0,0
15425,536156.3344573291,2010-11-22 16:41:48,1710.8544888325089,7,47,-1.0993878841400146,3.587401390075684,46.077481831993936,45.651640070436805,183.92440995793908,166.6046083265665,-6.47544875391759e-05,0.0986045151948928,0,0,0
15426,536186.3497050051,2010-11-22 16:42:18,1740.8697365084383,7,47,-1.0997490882873535,3.5833542346954346,46.077481831993936,45.66080790796526,183.92440995793908,166.63747756052132,-9.713172767078504e-05,0.0986045151948928,0,0,0
15427,536216.3649920743,2010-11-22 16:42:48,1770.8850235776997,7,47,-1.099929690361023,3.579307079315185,46.077481831993936,45.66997573877822,183.92440995793908,166.67031173140734,-0.0001618862152099,0.0986045151948928,0,0,0
15428,536246.3802615898,2010-11-22 16:43:18,1800.900293208432,7,47,-1.099568486213684,3.5757455825805664,46.077481831993936,45.679143617743854,183.92440995793908,166.7031111684097,-9.713172767078504e-05,0.0986045151948928,0,0,0
15429,536276.3956370647,2010-11-22 16:43:48,1830.91566856808,7,47,-1.099568486213684,3.5721840858459477,46.077481831993936,45.68831149199247,183.92440995793908,166.7358770782108,-0.0001295089750783,0.0986045151948928,0,0,0
15430,536306.4111764939,2010-11-22 16:44:18,1860.9312080022823,7,47,-1.0993878841400146,3.568622589111328,46.077481831993936,45.69747942390126,183.92440995793908,166.76861053527267,-9.713172767078504e-05,0.0986045151948928,0,0,0
15431,536336.4261363413,2010-11-22 16:44:48,1890.946167869798,7,47,-1.0993878841400146,3.565384864807129,46.077481831993936,45.706647143288365,183.92440995793908,166.8013112392156,-6.47544875391759e-05,0.0986045151948928,0,0,0
15432,536366.4412978722,2010-11-22 16:45:18,1920.9613293756336,7,47,-1.0997490882873535,3.5618233680725098,46.077481831993936,45.71581493025481,183.92440995793908,166.83398047070716,-9.713172767078504e-05,0.0986045151948928,0,0,0
15433,536396.4565620143,2010-11-22 16:45:48,1950.9765935176656,7,47,-1.0997490882873535,3.5584237575531006,46.077481831993936,45.72498271817658,183.92440995793908,166.8666185428807,-9.713172767078504e-05,0.0986045151948928,0,0,0
15434,536426.4718218255,2010-11-22 16:46:18,1980.9918533288865,7,47,-1.099568486213684,3.5550241470336914,46.077481831993936,45.7341505517556,183.92440995793908,166.8992255882784,-9.713172767078504e-05,0.0986045151948928,0,0,0
15435,536456.4871081379,2010-11-22 16:46:48,2011.0071396412584,7,47,-1.099568486213684,3.5516245365142822,46.077481831993936,45.74331836988176,183.92440995793908,166.93180190231925,-0.0001295089750783,0.0986045151948928,0,0,0
15436,536486.5023565807,2010-11-22 16:47:18,2041.022388094127,7,47,-1.0997490882873535,3.548224925994873,46.077481831993936,45.752486176170045,183.92440995793908,166.96434798443627,-9.713172767078504e-05,0.0986045151948928,0,0,0
15437,536516.517635605,2010-11-22 16:47:48,2071.0376671132944,7,47,-1.0997490882873535,3.545149087905884,46.077481831993936,45.76165400059248,183.92440995793908,166.99686381608433,-6.47544875391759e-05,0.0986045151948928,0,0,0
15438,536546.5328984136,2010-11-22 16:48:18,2101.0529299370355,7,47,-1.099568486213684,3.541911363601685,46.077481831993936,45.770821799638895,183.92440995793908,167.02934986111558,-9.713172767078504e-05,0.0986045151948928,0,0,0
15439,536576.5481563852,2010-11-22 16:48:48,2131.0681878886144,7,47,-1.099568486213684,3.5386736392974854,46.077481831993936,45.77998961784728,183.92440995793908,167.06180659519094,-9.713172767078504e-05,0.0986045151948928,0,0,0
15440,536606.5635585969,2010-11-22 16:49:18,2161.083590100289,7,47,-1.0993878841400146,3.535435914993286,46.077481831993936,45.789157559466965,183.92440995793908,167.09423418643175,-9.713172767078504e-05,0.0986045151948928,0,0,0
15441,536636.5787089098,2010-11-22 16:49:48,2191.098740413185,7,47,-1.0997490882873535,3.532198190689087,46.077481831993936,45.7983253860734,183.92440995793908,167.12663197312557,-9.713172767078504e-05,0.0986045151948928,0,0,0
15442,536666.5939356736,2010-11-22 16:50:18,2221.1139671769147,7,47,-1.099568486213684,3.528960466384888,46.077481831993936,45.807493206395264,183.92440995793908,167.1589998037057,-6.47544875391759e-05,0.0986045151948928,0,0,0
15443,536696.6094521906,2010-11-22 16:50:48,2251.129483693913,7,47,-1.099568486213684,3.5255608558654785,46.077481831993936,45.81666118484182,183.92440995793908,167.19133739887394,-9.713172767078504e-05,0.0986045151948928,0,0,0
15444,536726.6244759876,2010-11-22 16:51:18,2281.1445074910066,7,47,-1.099568486213684,3.52199935913086,46.077481831993936,45.82582890543749,183.92440995793908,167.22364306989448,-0.0001295089750783,0.0986045151948928,0,0,0
15445,536756.6397543452,2010-11-22 16:51:48,2311.1597858735845,7,47,-1.0997490882873535,3.51876163482666,46.077481831993936,45.83499662568719,183.92440995793908,167.25591777717062,-9.713172767078504e-05,0.0986045151948928,0,0,0
15446,536786.6549982266,2010-11-22 16:52:18,2341.17502972998,7,47,-1.099568486213684,3.515200138092041,46.077481831993936,45.84416450637501,183.92440995793908,167.2881614508573,-9.713172767078504e-05,0.0986045151948928,0,0,0
15447,536816.6703926689,2010-11-22 16:52:48,2371.190424172261,7,47,-1.0997490882873535,3.511638879776001,46.077481831993936,45.85333242208758,183.92440995793908,167.3203730268832,-0.0001294612884521,0.0986045151948928,0,0,0
15448,536846.6857650812,2010-11-22 16:53:18,2401.205796704852,7,47,-1.0993878841400146,3.508239269256592,46.077481831993936,45.86250029360222,183.92440995793908,167.3525516379606,-9.713172767078504e-05,0.0986045151948928,0,0,0
15449,536876.7007888482,2010-11-22 16:53:48,2431.2208203515697,7,47,-1.0993878841400146,3.5043540000915527,46.077481831993936,45.8716680867541,183.92440995793908,167.38469616278002,-0.0001295089750783,0.0986045151948928,0,0,0
15450,536906.7160511807,2010-11-22 16:54:18,2461.2360826840845,7,47,-1.0997490882873535,3.500306844711304,46.077481831993936,45.8808359154773,183.92440995793908,167.41680518768894,-9.713172767078504e-05,0.0986045151948928,0,0,0
15451,536936.7313338389,2010-11-22 16:54:48,2491.2513653423352,7,47,-1.099568486213684,3.4964215755462646,46.077481831993936,45.89000378111251,183.92440995793908,167.4488779829545,-9.713172767078504e-05,0.0986045151948928,0,0,0
15452,536966.746604011,2010-11-22 16:55:18,2521.266635514419,7,47,-1.0997490882873535,3.492050647735596,46.077481831993936,45.899171640742495,183.92440995793908,167.48091264849202,-0.0001618862152099,0.0986045151948928,0,0,0
15453,536996.7618640579,2010-11-22 16:55:48,2551.281895561228,7,47,-1.099568486213684,3.487517833709717,46.077481831993936,45.90833955930827,183.92440995793908,167.51290702305653,-0.0001295089750783,0.0986045151948928,0,0,0
15454,537026.7771324756,2010-11-22 16:56:18,2581.297163978932,7,47,-1.099568486213684,3.482823133468628,46.077481831993936,45.917507409073565,183.92440995793908,167.54485841253393,-9.713172767078504e-05,0.0986045151948928,0,0,0
15455,537056.7925128979,2010-11-22 16:56:48,2611.312544411242,7,47,-1.099568486213684,3.477642774581909,46.077481831993936,45.92667521114918,183.92440995793908,167.5767639900805,-0.0001618862152099,0.0986045151948928,0,0,0
15456,537086.8076405441,2010-11-22 16:57:18,2641.327672047534,7,47,-1.0997490882873535,3.4719767570495605,46.077481831993936,45.93584291460337,183.92440995793908,167.60861998371138,-0.0001295089750783,0.0986045151948928,0,0,0
15457,537116.8229046712,2010-11-22 16:57:48,2671.342936174528,7,47,-1.0997490882873535,3.465986967086792,46.077481831993936,45.94501075729837,183.92440995793908,167.64042287749993,-0.0001295089750783,0.0986045151948928,0,0,0
15458,537146.838168367,2010-11-22 16:58:19,2701.358199870446,7,47,-1.0997490882873535,3.459349632263184,46.077481831993936,45.95417857857758,183.92440995793908,167.67216762198183,-0.0001618862152099,0.0986045151948928,0,0,0
15459,537176.8535787191,2010-11-22 16:58:49,2731.37361022244,7,47,-1.099568486213684,3.4519028663635254,46.077481831993936,45.96334645143956,183.92440995793908,167.70384764734052,-0.0001942634553415,0.0986045151948928,0,0,0
15460,537206.8686937438,2010-11-22 16:59:19,2761.388725247252,7,47,-1.0993878841400146,3.4431610107421875,46.077481831993936,45.97251421457235,183.92440995793908,167.73545406637115,-0.0002266406954731,0.0986045151948928,0,0,0
15461,537236.8840955446,2010-11-22 16:59:49,2791.4041270479,7,47,-1.099568486213684,3.43296217918396,46.077481831993936,45.9816821119842,183.92440995793908,167.76697564803456,-0.0003237724304199,0.0986045151948928,0,0,0
15462,537266.8993582178,2010-11-22 17:00:19,2821.419389836554,7,47,-1.099568486213684,3.421144723892212,46.077481831993936,45.99085001888282,183.92440995793908,167.79839666132364,-0.0003237724304199,0.0986045151948928,0,0,0
15463,537296.9144994582,2010-11-22 17:00:49,2851.4345309615155,7,47,-1.099568486213684,3.406898736953736,46.077481831993936,46.00001781601015,183.92440995793908,167.8296978256954,-0.0004209041653666,0.0986045151948928,0,0,0
15464,537326.9297516453,2010-11-22 17:01:19,2881.449783148706,7,47,-1.0993878841400146,3.389576911926269,46.077481831993936,46.0091856765439,183.92440995793908,167.86085476052216,-0.0004856586456298,0.0986045151948928,0,0,0
15465,537356.9450171858,2010-11-22 17:01:49,2911.465048689228,7,47,-1.099568486213684,3.367398500442505,46.077481831993936,46.01835353158124,183.92440995793908,167.89183196126046,-0.0006151676061563,0.0986045151948928,0,0,0
15466,537386.9603009569,2010-11-22 17:02:19,2941.4803324803065,7,47,-1.0997490882873535,3.339230537414551,46.077481831993936,46.02752141069936,183.92440995793908,167.9225808290712,-0.0008741855854168,0.0986045151948928,0,0,0
15467,537416.975735835,2010-11-22 17:02:49,2971.495767343484,7,47,-1.099568486213684,3.30232048034668,46.077481831993936,46.03668925692876,183.92440995793908,167.95303415650082,-0.0011655807029455,0.0986045151948928,0,0,0
15468,537446.9908136571,2010-11-22 17:03:19,3001.51084516042,7,47,-1.0997490882873535,3.252459764480591,46.077481831993936,46.045857034065776,183.92440995793908,167.98309283094514,-0.0015541076427325,0.0986045151948928,0,0,0
15469,537477.0060877841,2010-11-22 17:03:49,3031.526119287375,7,47,-1.099568486213684,3.1838202476501465,46.077481831993936,46.055024818122384,183.92440995793908,168.01261533912347,-0.0021368502639234,0.0986045151948928,0,0,0
15470,537507.0213405226,2010-11-22 17:04:19,3061.5413720259417,7,47,-1.099568486213684,3.08361291885376,46.077481831993936,46.06419266191824,183.92440995793908,168.04137667582353,-0.0031729699112474,0.0986045151948928,0,0,0
15471,537537.0366350454,2010-11-22 17:04:49,3091.556666578884,7,47,-1.099568486213684,2.917680025100708,46.077481831993936,46.0733604927076,183.92440995793908,168.06896490098958,-0.0057631493546068,0.0986045151948928,0,0,0
15472,537558.5676141517,2010-11-22 17:05:10,3113.087645655116,7,47,-1.099568486213684,2.7172653675079346,46.077481831993936,46.07993691065414,183.92440995793908,168.08753519317227,-0.0085475919768214,0.0986045151948928,0,0,0
15473,537560.1613395605,2010-11-22 17:05:12,3114.681371063925,7,47,-1.099568486213684,2.699781894683838,46.077481831993936,46.08042369131682,183.92440995793908,168.088853670294,-0.0086770532652735,0.0986045151948928,0,0,0
15474,537620.1812688777,2010-11-22 17:06:12,60.014920013418106,8,47,0.0,3.3949191570281982,46.077481831993936,46.08042369131682,183.92440995793908,168.088853670294,0.0012303352123126,0.0986045151948928,0,0,0
15475,537620.3898510837,2010-11-22 17:06:12,0.187234471045032,9,47,-1.9243103452026844e-05,3.3949191570281982,46.077481831993936,46.080423692317645,183.92440995793908,168.08885367369174,0.0,0.0958035141229629,0,0,0
15476,537625.2180305375,2010-11-22 17:06:17,5.015413914733315,9,47,0.0005225847125984,3.4023659229278564,46.07748271357836,46.08042369240336,183.92441295475987,168.08885367398275,0.0010036944877356,0.0958035141229629,0,0,0
