Data_Point,Test_Time(s),Date_Time,Step_Time(s),Step_Index,Cycle_Index,Current(A),Voltage(V),Charge_Capacity(Ah),Discharge_Capacity(Ah),Charge_Energy(Wh),Discharge_Energy(Wh),dV/dt(V/s),Internal_Resistance(Ohm),Is_FC_Data,AC_Impedance(Ohm),ACI_Phase_Angle(Deg)
6002,208002.14215917257,2010-11-18 21:32:00,30.015488000817427,1,19,0.0,3.367722272872925,17.84742656281498,17.875514377043235,71.21511463979365,65.28044329374005,0.0007122993702068,0.0940944999456405,0,0,0
6003,208032.15713618285,2010-11-18 21:32:30,60.03046498104885,1,19,0.0,3.3900625705718994,17.84742656281498,17.875514377043235,71.21511463979365,65.28044329374005,0.0005180359003134,0.0940944999456405,0,0,0
6004,208062.17245279584,2010-11-18 21:33:00,90.04578159906845,1,19,0.0,3.406898736953736,17.84742656281498,17.875514377043235,71.21511463979365,65.28044329374005,0.0003885269106831,0.0940944999456405,0,0,0
6005,208092.14090097303,2010-11-18 21:33:30,120.01422977123669,1,19,0.0,3.420335292816162,17.84742656281498,17.875514377043235,71.21511463979365,65.28044329374005,0.0003561496851034,0.0940944999456405,0,0,0
6006,208122.16099673448,2010-11-18 21:34:00,30.015296297295944,2,19,0.5501165986061096,3.5825448036193848,17.8520134130224,17.875514377043235,71.23137846172266,65.28044329374005,0.0017159938579425,0.0940944999456405,0,0,0
6007,208152.17914148697,2010-11-18 21:34:30,60.03344113498695,2,19,0.5501165986061096,3.632243633270264,17.856600668871163,17.875514377043235,71.24793316157242,65.28044329374005,0.0011332035064697,0.0940944999456405,0,0,0
6008,208182.1916334392,2010-11-18 21:35:00,90.04593301201847,2,19,0.5501165986061096,3.668182373046875,17.861187025803865,17.875514377043235,71.26467805263201,65.28044329374005,0.0008418083307333,0.0940944999456405,0,0,0
6009,208212.2069713203,2010-11-18 21:35:30,120.06127098835168,2,19,0.550297200679779,3.696674108505249,17.86577374068916,17.875514377043235,71.28157083318908,65.28044329374005,0.0006799221155233,0.0940944999456405,0,0,0
6010,208242.22219742232,2010-11-18 21:36:00,150.07649698516684,2,19,0.5501165986061096,3.7199857234954834,17.870360504175636,17.875514377043235,71.29858179004489,65.28044329374005,0.0005504131549969,0.0940944999456405,0,0,0
6011,208272.23751752407,2010-11-18 21:36:30,180.09181708688226,2,19,0.5501165986061096,3.7392501831054688,17.874947301783386,17.875514377043235,71.3156904974252,65.28044329374005,0.0004209041653666,0.0940944999456405,0,0,0
6012,208302.2376111181,2010-11-18 21:37:00,210.0919107059545,2,19,0.550297200679779,3.754952907562256,17.879531699764485,17.875514377043235,71.33287046101698,65.28044329374005,0.0003885269106831,0.0940944999456405,0,0,0
6013,208332.25247698592,2010-11-18 21:37:30,240.10677654876983,2,19,0.5501165986061096,3.765637397766113,17.884118355722322,17.875514377043235,71.3501195477255,65.28044329374005,0.0002266406954731,0.0940944999456405,0,0,0
6014,208362.2677975639,2010-11-18 21:38:00,270.12209715173645,2,19,0.5501165986061096,3.772112846374512,17.88870513564729,17.875514377043235,71.36740830368456,65.28044329374005,9.713172767078504e-05,0.0940944999456405,0,0,0
6015,208392.2830691244,2010-11-18 21:38:30,300.1373686922356,2,19,0.5501165986061096,3.7769694328308105,17.893291862537605,17.875514377043235,71.38472189570717,65.28044329374005,0.0001295089750783,0.0940944999456405,0,0,0
6016,208422.2985156116,2010-11-18 21:39:00,330.15281517942867,2,19,0.5501165986061096,3.7808547019958496,17.897878679444887,17.875514377043235,71.40205522274711,65.28044329374005,6.47544875391759e-05,0.0940944999456405,0,0,0
6017,208452.31368241063,2010-11-18 21:39:30,360.1679819734645,2,19,0.550297200679779,3.7847399711608887,17.902465402685035,17.875514377043235,71.4194057521354,65.28044329374005,9.713172767078504e-05,0.0940944999456405,0,0,0
6018,208482.3290530836,2010-11-18 21:40:00,390.183352641401,2,19,0.5501165986061096,3.788139581680298,17.907052160771443,17.875514377043235,71.43677326852846,65.28044329374005,9.713172767078504e-05,0.0940944999456405,0,0,0
6019,208512.34441012752,2010-11-18 21:40:30,420.1987096903424,2,19,0.5499359965324402,3.791701078414917,17.911638913967327,17.875514377043235,71.45415690143246,65.28044329374005,9.713172767078504e-05,0.0940944999456405,0,0,0
6020,208542.35959740265,2010-11-18 21:41:00,450.21389696550233,2,19,0.5499359965324402,3.794938802719116,17.916225661203658,17.875514377043235,71.4715561867691,65.28044329374005,6.47544875391759e-05,0.0940944999456405,0,0,0
6021,208572.37490962472,2010-11-18 21:41:30,480.2292091925614,2,19,0.5501165986061096,3.798338413238525,17.92081245810168,17.875514377043235,71.4889708203253,65.28044329374005,6.47544875391759e-05,0.0940944999456405,0,0,0
6022,208602.39031403183,2010-11-18 21:42:00,510.2446135947037,2,19,0.5501165986061096,3.801414251327514,17.925399236804015,17.875514377043235,71.5064002982828,65.28044329374005,3.237724376958795e-05,0.0940944999456405,0,0,0
6023,208632.40549666545,2010-11-18 21:42:30,540.2597962282775,2,19,0.5501165986061096,3.804813861846924,17.929986008468234,17.875514377043235,71.52384420083308,65.28044329374005,9.713172767078504e-05,0.0940944999456405,0,0,0
6024,208662.4209626764,2010-11-18 21:43:00,570.2752622392048,2,19,0.5501165986061096,3.807565927505493,17.934572810266385,17.875514377043235,71.5413025107416,65.28044329374005,6.47544875391759e-05,0.0940944999456405,0,0,0
6025,208692.43612438772,2010-11-18 21:43:30,600.2904239505535,2,19,0.5501165986061096,3.810803651809693,17.9391596251723,17.875514377043235,71.55877493742527,65.28044329374005,6.47544875391759e-05,0.0940944999456405,0,0,0
6026,208722.4514046951,2010-11-18 21:44:00,630.3057042579361,2,19,0.550297200679779,3.814041376113892,17.943746428747932,17.875514377043235,71.57626136959021,65.28044329374005,0.0001295089750783,0.0940944999456405,0,0,0
6027,208752.46696750767,2010-11-18 21:44:30,660.3212670805203,2,19,0.5501165986061096,3.816955327987671,17.948333197825,17.875514377043235,71.59376195328277,65.28044329374005,6.47544875391759e-05,0.0940944999456405,0,0,0
6028,208782.48204645744,2010-11-18 21:45:00,690.3363460202582,2,19,0.5501165986061096,3.82003116607666,17.952919897952583,17.875514377043235,71.6112763403784,65.28044329374005,9.713172767078504e-05,0.0940944999456405,0,0,0
6029,208812.4973279879,2010-11-18 21:45:30,720.3516275506938,2,19,0.550297200679779,3.8232688903808594,17.95750669667709,17.875514377043235,71.62880543391238,65.28044329374005,0.0001618862152099,0.0940944999456405,0,0,0
6030,208842.5126300696,2010-11-18 21:46:01,750.3669296324287,2,19,0.5501165986061096,3.8265066146850586,17.96209340197533,17.875514377043235,71.6463488341598,65.28044329374005,9.713172767078504e-05,0.0940944999456405,0,0,0
6031,208872.52795010112,2010-11-18 21:46:31,780.382249663969,2,19,0.5501165986061096,3.829744338989258,17.966680210290907,17.875514377043235,71.66390773972262,65.28044329374005,9.713172767078504e-05,0.0940944999456405,0,0,0
6032,208902.5432571954,2010-11-18 21:47:01,810.3975567582157,2,19,0.5499359965324402,3.833143949508667,17.971266980694285,17.875514377043235,71.6814818642691,65.28044329374005,9.713172767078504e-05,0.0940944999456405,0,0,0
6033,208932.55854530729,2010-11-18 21:47:31,840.4128448700795,2,19,0.5501165986061096,3.836705207824707,17.975853741580316,17.875514377043235,71.69907166610803,65.28044329374005,9.713172767078504e-05,0.0940944999456405,0,0,0
6034,208962.5738783212,2010-11-18 21:48:01,870.4281778840259,2,19,0.5501165986061096,3.840104818344116,17.980440527771275,17.875514377043235,71.71667739123205,65.28044329374005,9.713172767078504e-05,0.0940944999456405,0,0,0
6035,208992.5891814806,2010-11-18 21:48:31,900.4434810434507,2,19,0.5499359965324402,3.843342542648315,17.985027275679528,17.875514377043235,71.73429879275598,65.28044329374005,6.47544875391759e-05,0.0940944999456405,0,0,0
6036,209022.60462770212,2010-11-18 21:49:01,930.4589272699932,2,19,0.550297200679779,3.846904039382935,17.989614022708118,17.875514377043235,71.75193584717906,65.28044329374005,9.713172767078504e-05,0.0940944999456405,0,0,0
6037,209052.61977367924,2010-11-18 21:49:31,960.4740732420544,2,19,0.550297200679779,3.8504655361175537,17.994200824546787,17.875514377043235,71.76958866249751,65.28044329374005,0.0001295089750783,0.0940944999456405,0,0,0
6038,209082.63512178583,2010-11-18 21:50:01,990.4894214338868,2,19,0.5501165986061096,3.853379487991333,17.99878765898784,17.875514377043235,71.78725690098469,65.28044329374005,3.237724376958795e-05,0.0940944999456405,0,0,0
6039,209112.65040733133,2010-11-18 21:50:31,1020.5047068941318,2,19,0.5501165986061096,3.856940984725952,18.00337449761134,17.875514377043235,71.8049401826317,65.28044329374005,9.713172767078504e-05,0.0940944999456405,0,0,0
6040,209142.66592312648,2010-11-18 21:51:01,1050.520222714391,2,19,0.550297200679779,3.860016822814941,18.00796124401817,17.875514377043235,71.82263787690877,65.28044329374005,9.713172767078504e-05,0.0940944999456405,0,0,0
6041,209172.68101393085,2010-11-18 21:51:31,1080.5353134936822,2,19,0.5501165986061096,3.86309266090393,18.012548046680056,17.875514377043235,71.84035019364147,65.28044329374005,6.47544875391759e-05,0.0940944999456405,0,0,0
6042,209202.696329,2010-11-18 21:52:01,1110.5506285628358,2,19,0.5501165986061096,3.86616849899292,18.017134926414528,17.875514377043235,71.85807665461776,65.28044329374005,9.713172767078504e-05,0.0940944999456405,0,0,0
6043,209232.71161153296,2010-11-18 21:52:31,1140.5659110957736,2,19,0.5501165986061096,3.868920564651489,18.021721742470177,17.875514377043235,71.87581633141897,65.28044329374005,6.47544875391759e-05,0.0940944999456405,0,0,0
6044,209262.72694020605,2010-11-18 21:53:01,1170.581239773897,2,19,0.5499359965324402,3.8715107440948486,18.02630854387756,17.875514377043235,71.89356884888504,65.28044329374005,0.0,0.0940944999456405,0,0,0
6045,209292.74222801212,2010-11-18 21:53:31,1200.5965275749852,2,19,0.5501165986061096,3.874262809753418,18.030895365519957,17.875514377043235,71.91133385415155,65.28044329374005,0.0,0.0940944999456405,0,0,0
6046,209322.7575342693,2010-11-18 21:54:01,1230.6118338321426,2,19,0.5499359965324402,3.876691102981568,18.035482141735503,17.875514377043235,71.92911041194124,65.28044329374005,3.237724376958795e-05,0.0940944999456405,0,0,0
6047,209352.77285677203,2010-11-18 21:54:31,1260.6271563348512,2,19,0.5501165986061096,3.879281282424927,18.040068986706736,17.875514377043235,71.946898446132,65.28044329374005,6.47544875391759e-05,0.0940944999456405,0,0,0
6048,209382.78820258792,2010-11-18 21:55:01,1290.6425021507532,2,19,0.550297200679779,3.881709575653076,18.04465577140541,17.875514377043235,71.96469664532667,65.28044329374005,9.713172767078504e-05,0.0940944999456405,0,0,0
6049,209412.80349188275,2010-11-18 21:55:31,1320.6577914706324,2,19,0.5501165986061096,3.8834903240203857,18.049242574073308,17.875514377043235,71.98250473158143,65.28044329374005,3.237724376958795e-05,0.0940944999456405,0,0,0
6050,209442.8187762753,2010-11-18 21:56:01,1350.6730758381498,2,19,0.5501165986061096,3.885432958602905,18.05382944860639,17.875514377043235,72.00032218808924,65.28044329374005,3.237724376958795e-05,0.0940944999456405,0,0,0
6051,209472.83408223675,2010-11-18 21:56:31,1380.6883817995688,2,19,0.550297200679779,3.887051820755005,18.0584162663066,17.875514377043235,72.0181479094837,65.28044329374005,3.237724376958795e-05,0.0940944999456405,0,0,0
6052,209502.8496258514,2010-11-18 21:57:01,1410.7039254142069,2,19,0.550297200679779,3.888994455337525,18.0630030970936,17.875514377043235,72.03598158452758,65.28044329374005,9.713172767078504e-05,0.0940944999456405,0,0,0
6053,209532.8647006809,2010-11-18 21:57:31,1440.7190002436853,2,19,0.5499359965324402,3.890289545059204,18.067589908577546,17.875514377043235,72.05382266389778,65.28044329374005,0.0,0.0940944999456405,0,0,0
6054,209562.88045864555,2010-11-18 21:58:01,1470.734758208374,2,19,0.550297200679779,3.891908407211304,18.07217732666748,17.875514377043235,72.07167319973412,65.28044329374005,3.237724376958795e-05,0.0940944999456405,0,0,0
6055,209592.8953263079,2010-11-18 21:58:31,1500.7496258707313,2,19,0.5501165986061096,3.893203496932984,18.07676476931184,17.875514377043235,72.08953059158009,65.28044329374005,0.0,0.0940944999456405,0,0,0
6056,209622.91066464013,2010-11-18 21:59:01,1530.7649642280153,2,19,0.550297200679779,3.894822359085083,18.081352297395835,17.875514377043235,72.10739482824644,65.28044329374005,3.237724376958795e-05,0.0940944999456405,0,0,0
6057,209652.92594236607,2010-11-18 21:59:31,1560.7802419288917,2,19,0.5501165986061096,3.8959555625915527,18.085939811273526,17.875514377043235,72.12526473873871,65.28044329374005,3.237724376958795e-05,0.0940944999456405,0,0,0
6058,209682.94125233247,2010-11-18 22:00:01,1590.7955519203704,2,19,0.550297200679779,3.8974125385284415,18.09052668448348,17.875514377043235,72.14313847256425,65.28044329374005,3.237724376958795e-05,0.0940944999456405,0,0,0
6059,209712.9566948197,2010-11-18 22:00:31,1620.8109943925415,2,19,0.5501165986061096,3.898545742034912,18.09511349056023,17.875514377043235,72.16101798633885,65.28044329374005,0.0,0.0940944999456405,0,0,0
6060,209742.97191135792,2010-11-18 22:01:01,1650.8262109307464,2,19,0.5501165986061096,3.9000027179718018,18.09970025761609,17.875514377043235,72.1789033883498,65.28044329374005,3.237724376958795e-05,0.0940944999456405,0,0,0
6061,209772.97201635537,2010-11-18 22:01:31,1680.826315918196,2,19,0.5501165986061096,3.901135921478272,18.10428465398694,17.875514377043235,72.1967853968222,65.28044329374005,3.237724376958795e-05,0.0940944999456405,0,0,0
6062,209802.98685102537,2010-11-18 22:02:01,1710.8411506132616,2,19,0.5501165986061096,3.902592897415161,18.10887133986168,17.875514377043235,72.21468231743084,65.28044329374005,6.47544875391759e-05,0.0940944999456405,0,0,0
6063,209833.002154686,2010-11-18 22:02:31,1740.8564542789502,2,19,0.5501165986061096,3.903887987136841,18.11345806804287,17.875514377043235,72.23258531156952,65.28044329374005,0.0,0.0940944999456405,0,0,0
6064,209863.01746349456,2010-11-18 22:03:01,1770.871763057401,2,19,0.5501165986061096,3.9053449630737305,18.11804488078223,17.875514377043235,72.25049466516377,65.28044329374005,6.47544875391759e-05,0.0940944999456405,0,0,0
6065,209893.0327931552,2010-11-18 22:03:31,1800.8870927430394,2,19,0.5501165986061096,3.9064781665802,18.122631704607983,17.875514377043235,72.2684098725965,65.28044329374005,6.47544875391759e-05,0.0940944999456405,0,0,0
6066,209923.04809994865,2010-11-18 22:04:01,1830.902399541548,2,19,0.5499359965324402,3.90761137008667,18.127218468952872,17.875514377043235,72.2863308700517,65.28044329374005,0.0,0.0940944999456405,0,0,0
6067,209953.06383088088,2010-11-18 22:04:31,1860.9181304537096,2,19,0.5501165986061096,3.90906834602356,18.131805285272417,17.875514377043235,72.30425803803821,65.28044329374005,3.237724376958795e-05,0.0940944999456405,0,0,0
6068,209983.0787692447,2010-11-18 22:05:01,1890.9330688275736,2,19,0.5499359965324402,3.9103634357452393,18.136391957646836,17.875514377043235,72.32219074177256,65.28044329374005,3.237724376958795e-05,0.0940944999456405,0,0,0
6069,210013.0940705244,2010-11-18 22:05:31,1920.9483701123188,2,19,0.5501165986061096,3.911658525466919,18.140978706673007,17.875514377043235,72.34012974476089,65.28044329374005,0.0,0.0940944999456405,0,0,0
6070,210043.10935497715,2010-11-18 22:06:01,1950.9636545399865,2,19,0.5501165986061096,3.9131155014038086,18.14556542642615,17.875514377043235,72.3580747740421,65.28044329374005,0.0,0.0940944999456405,0,0,0
6071,210073.1247798153,2010-11-18 22:06:31,1980.9790794032024,2,19,0.5501165986061096,3.914410352706909,18.15015221009901,17.875514377043235,72.37602620084823,65.28044329374005,0.0,0.0940944999456405,0,0,0
6072,210103.13996832856,2010-11-18 22:07:01,2010.9942679214653,2,19,0.550297200679779,3.915705442428589,18.154738991208845,17.875514377043235,72.39398382038407,65.28044329374005,3.237724376958795e-05,0.0940944999456405,0,0,0
6073,210133.15832753133,2010-11-18 22:07:31,2041.01262723452,2,19,0.5501165986061096,3.9171624183654794,18.15932619870593,17.875514377043235,72.41194917631795,65.28044329374005,3.237724376958795e-05,0.0940944999456405,0,0,0
6074,210163.1706285269,2010-11-18 22:08:01,2071.0249280897315,2,19,0.550297200679779,3.918457508087158,18.163912490046087,17.875514377043235,72.42991727297179,65.28044329374005,3.237724376958795e-05,0.0940944999456405,0,0,0
6075,210193.17086330836,2010-11-18 22:08:31,2101.025162891217,2,19,0.5501165986061096,3.919914484024048,18.16849690571672,17.875514377043235,72.4478843139888,65.28044329374005,3.237724376958795e-05,0.0940944999456405,0,0,0
6076,210223.18560211404,2010-11-18 22:09:01,2131.039901701941,2,19,0.5501165986061096,3.921209573745728,18.173083583197887,17.875514377043235,72.46586651544924,65.28044329374005,3.237724376958795e-05,0.0940944999456405,0,0,0
6077,210253.20105080173,2010-11-18 22:09:31,2161.055350394639,2,19,0.550297200679779,3.922666549682617,18.17767030358084,17.875514377043235,72.48385527696212,65.28044329374005,3.237724376958795e-05,0.0940944999456405,0,0,0
6078,210283.21626289387,2010-11-18 22:10:01,2191.070562456671,2,19,0.5499359965324402,3.923961639404297,18.18225704447933,17.875514377043235,72.50185054771217,65.28044329374005,0.0,0.0940944999456405,0,0,0
6079,210313.23142641468,2010-11-18 22:10:31,2221.0857259975865,2,19,0.550297200679779,3.9254186153411865,18.18684376548752,17.875514377043235,72.51985226077016,65.28044329374005,6.47544875391759e-05,0.0940944999456405,0,0,0
6080,210343.24683667647,2010-11-18 22:11:01,2251.101136264368,2,19,0.5497553944587708,3.926875591278076,18.19142960705011,17.875514377043235,72.5378567719476,65.28044329374005,3.237724376958795e-05,0.0940944999456405,0,0,0
6081,210373.2620456508,2010-11-18 22:11:31,2281.1163452136293,2,19,0.5501165986061096,3.928332567214966,18.196015467521224,17.875514377043235,72.55586793216877,65.28044329374005,6.47544875391759e-05,0.0940944999456405,0,0,0
6082,210403.277479702,2010-11-18 22:12:01,2311.1317792848304,2,19,0.5501165986061096,3.9296276569366455,18.200601398430283,17.875514377043235,72.57388592817522,65.28044329374005,3.237724376958795e-05,0.0940944999456405,0,0,0
6083,210433.2927756534,2010-11-18 22:12:31,2341.147075236263,2,19,0.5501165986061096,3.931084632873535,18.205187315521385,17.875514377043235,72.59191053835478,65.28044329374005,3.237724376958795e-05,0.0940944999456405,0,0,0
6084,210463.30808900823,2010-11-18 22:13:01,2371.1623885660742,2,19,0.5499359965324402,3.932541608810425,18.209773186936683,17.875514377043235,72.60994154504768,65.28044329374005,0.0,0.0940944999456405,0,0,0
6085,210493.32353576116,2010-11-18 22:13:31,2401.177835343993,2,19,0.5501165986061096,3.934160470962525,18.21435905828199,17.875514377043235,72.62797930029569,65.28044329374005,3.237724376958795e-05,0.0940944999456405,0,0,0
6086,210523.3387434673,2010-11-18 22:14:01,2431.193043030102,2,19,0.550297200679779,3.935617446899414,18.218945683621687,17.875514377043235,72.64602694866237,65.28044329374005,6.47544875391759e-05,0.0940944999456405,0,0,0
6087,210553.3540470728,2010-11-18 22:14:31,2461.208346660703,2,19,0.5501165986061096,3.9372363090515137,18.223532503706103,17.875514377043235,72.66408206261488,65.28044329374005,9.713172767078504e-05,0.0940944999456405,0,0,0
6088,210583.36935064828,2010-11-18 22:15:01,2491.223650211104,2,19,0.5499359965324402,3.938531398773194,18.22811930954991,17.875514377043235,72.68214406198345,65.28044329374005,6.47544875391759e-05,0.0940944999456405,0,0,0
6089,210613.38465788288,2010-11-18 22:15:31,2521.238957445701,2,19,0.550297200679779,3.940150260925293,18.232706111178345,17.875514377043235,72.7002129432841,65.28044329374005,6.47544875391759e-05,0.0940944999456405,0,0,0
6090,210643.3999892527,2010-11-18 22:16:01,2551.2542888456182,2,19,0.5501165986061096,3.9414453506469727,18.2372929429887,17.875514377043235,72.7182888938566,65.28044329374005,3.237724376958795e-05,0.0940944999456405,0,0,0
6091,210673.41542495292,2010-11-18 22:16:31,2581.269724520823,2,19,0.550297200679779,3.943226099014282,18.24187974266864,17.875514377043235,72.73637159071164,65.28044329374005,6.47544875391759e-05,0.0940944999456405,0,0,0
6092,210703.43060394743,2010-11-18 22:17:01,2611.284903535364,2,19,0.5501165986061096,3.944683074951172,18.24646650862069,17.875514377043235,72.75446119758213,65.28044329374005,6.47544875391759e-05,0.0940944999456405,0,0,0
6093,210733.446054971,2010-11-18 22:17:31,2641.3003545288047,2,19,0.5501165986061096,3.9461400508880615,18.25105339023117,17.875514377043235,72.77255838733058,65.28044329374005,3.237724376958795e-05,0.0940944999456405,0,0,0
6094,210763.4613931979,2010-11-18 22:18:01,2671.315692780826,2,19,0.5499359965324402,3.947597026824951,18.25564022215725,17.875514377043235,72.79066241209803,65.28044329374005,3.237724376958795e-05,0.0940944999456405,0,0,0
6095,210793.4765547088,2010-11-18 22:18:31,2701.3308542966865,2,19,0.5499359965324402,3.949215888977051,18.26022697868149,17.875514377043235,72.80877337172943,65.28044329374005,3.237724376958795e-05,0.0940944999456405,0,0,0
6096,210823.49206379725,2010-11-18 22:19:02,2731.346363415217,2,19,0.5501165986061096,3.95099663734436,18.264813827976504,17.875514377043235,72.82689196009737,65.28044329374005,3.237724376958795e-05,0.0940944999456405,0,0,0
6097,210853.507187604,2010-11-18 22:19:32,2761.361487166813,2,19,0.5499359965324402,3.95261549949646,18.26940066688273,17.875514377043235,72.84501786228553,65.28044329374005,6.47544875391759e-05,0.0940944999456405,0,0,0
6098,210883.52265166,2010-11-18 22:20:02,2791.3769512429103,2,19,0.5501165986061096,3.9540724754333496,18.273987538139973,17.875514377043235,72.8631512753302,65.28044329374005,3.237724376958795e-05,0.0940944999456405,0,0,0
6099,210913.53782817337,2010-11-18 22:20:32,2821.392127736157,2,19,0.550297200679779,3.955691337585449,18.27857441309882,17.875514377043235,72.88129213903837,65.28044329374005,3.237724376958795e-05,0.0940944999456405,0,0,0
6100,210943.5531402751,2010-11-18 22:21:02,2851.407439842916,2,19,0.5501165986061096,3.957310199737549,18.283161343384247,17.875514377043235,72.89944068281751,65.28044329374005,-3.237724376958795e-05,0.0940944999456405,0,0,0
6101,210973.56859637127,2010-11-18 22:21:32,2881.422895959144,2,19,0.5501165986061096,3.9590909481048575,18.28774821385496,17.875514377043235,72.91759652074123,65.28044329374005,3.237724376958795e-05,0.0940944999456405,0,0,0
6102,211003.58379427297,2010-11-18 22:22:02,2911.4380938357667,2,19,0.5501165986061096,3.960709810256958,18.292335102636013,17.875514377043235,72.93576000741339,65.28044329374005,6.47544875391759e-05,0.0940944999456405,0,0,0
6103,211033.59908682588,2010-11-18 22:22:32,2941.4533864137798,2,19,0.5501165986061096,3.9623286724090576,18.296921969540797,17.875514377043235,72.95393108475113,65.28044329374005,3.237724376958795e-05,0.0940944999456405,0,0,0
6104,211063.6144054088,2010-11-18 22:23:02,2971.468704976653,2,19,0.550297200679779,3.964109420776367,18.301508806816475,17.875514377043235,72.9721097200233,65.28044329374005,6.47544875391759e-05,0.0940944999456405,0,0,0
6105,211093.62973094409,2010-11-18 22:23:32,3001.4840305369944,2,19,0.5501165986061096,3.965728282928467,18.30609568127571,17.875514377043235,72.99029633276233,65.28044329374005,3.237724376958795e-05,0.0940944999456405,0,0,0
6106,211123.64523397243,2010-11-18 22:24:02,3031.499533535248,2,19,0.5501165986061096,3.9676709175109854,18.31068260903609,17.875514377043235,73.00849107288482,65.28044329374005,9.713172767078504e-05,0.0940944999456405,0,0,0
6107,211153.6603776037,2010-11-18 22:24:32,3061.514677191528,2,19,0.5499359965324402,3.969127893447876,18.31526941248593,17.875514377043235,73.02669318850096,65.28044329374005,0.0,0.0940944999456405,0,0,0
6108,211183.6756949685,2010-11-18 22:25:02,3091.529994531349,2,19,0.5501165986061096,3.9709086418151855,18.31985624503105,17.875514377043235,73.04490351651629,65.28044329374005,6.47544875391759e-05,0.0940944999456405,0,0,0
6109,211213.6911222979,2010-11-18 22:25:32,3121.545421870747,2,19,0.5499359965324402,3.972689390182495,18.324443067559635,17.875514377043235,73.06312192077228,65.28044329374005,3.237724376958795e-05,0.0940944999456405,0,0,0
6110,211243.70647438947,2010-11-18 22:26:02,3151.5607739522884,2,19,0.550297200679779,3.974632024765015,18.329029921369425,17.875514377043235,73.08134858527227,65.28044329374005,3.237724376958795e-05,0.0940944999456405,0,0,0
6111,211273.72170172463,2010-11-18 22:26:32,3181.576001282432,2,19,0.5501165986061096,3.976412773132324,18.333616757360765,17.875514377043235,73.09958348675558,65.28044329374005,6.47544875391759e-05,0.0940944999456405,0,0,0
6112,211303.73699983145,2010-11-18 22:27:02,3211.591299394257,2,19,0.5499359965324402,3.977869749069214,18.338203612673887,17.875514377043235,73.11782663590394,65.28044329374005,3.237724376958795e-05,0.0940944999456405,0,0,0
6113,211333.7523181637,2010-11-18 22:27:32,3241.606617726556,2,19,0.5499359965324402,3.980136156082153,18.342790376399137,17.875514377043235,73.13607794815256,65.28044329374005,6.47544875391759e-05,0.0940944999456405,0,0,0
6114,211363.76762495225,2010-11-18 22:28:02,3271.62192451504,2,19,0.5501165986061096,3.981916904449463,18.347377227515807,17.875514377043235,73.15433837667982,65.28044329374005,3.237724376958795e-05,0.0940944999456405,0,0,0
6115,211393.78305905848,2010-11-18 22:28:32,3301.6373586463906,2,19,0.5499359965324402,3.983697652816773,18.351964054769507,17.875514377043235,73.17260738122127,65.28044329374005,0.0,0.0940944999456405,0,0,0
6116,211423.7982198576,2010-11-18 22:29:02,3331.6525194304245,2,19,0.5504778623580933,3.985964059829712,18.35655081953592,17.875514377043235,73.19088493647739,65.28044329374005,9.713172767078504e-05,0.0940944999456405,0,0,0
6117,211453.81367083092,2010-11-18 22:29:32,3361.6679703937907,2,19,0.5501165986061096,3.9877448081970215,18.36113767138439,17.875514377043235,73.2091717278195,65.28044329374005,3.237724376958795e-05,0.0940944999456405,0,0,0
6118,211483.82901335365,2010-11-18 22:30:02,3391.683312926498,2,19,0.5501165986061096,3.989687442779541,18.365724488533644,17.875514377043235,73.22746715639872,65.28044329374005,6.47544875391759e-05,0.0940944999456405,0,0,0
6119,211513.84418607748,2010-11-18 22:30:32,3421.698485670385,2,19,0.5501165986061096,3.991630077362061,18.37031133258457,17.875514377043235,73.24577183002955,65.28044329374005,6.47544875391759e-05,0.0940944999456405,0,0,0
6120,211543.85951657017,2010-11-18 22:31:02,3451.713816158025,2,19,0.5501165986061096,3.99373459815979,18.374898168630217,17.875514377043235,73.26408567137524,65.28044329374005,6.47544875391759e-05,0.0940944999456405,0,0,0
6121,211573.87482410547,2010-11-18 22:31:32,3481.7291236983856,2,19,0.5501165986061096,3.995515108108521,18.37948492530908,17.875514377043235,73.28240850582561,65.28044329374005,-3.237724376958795e-05,0.0940944999456405,0,0,0
6122,211603.89016689884,2010-11-18 22:32:02,3511.7444664867303,2,19,0.550297200679779,3.99794340133667,18.384071741429644,17.875514377043235,73.30074098694074,65.28044329374005,9.713172767078504e-05,0.0940944999456405,0,0,0
6123,211633.90555450908,2010-11-18 22:32:32,3541.7598542172577,2,19,0.550297200679779,3.9998860359191895,18.388658621967537,17.875514377043235,73.31908316893434,65.28044329374005,6.47544875391759e-05,0.0940944999456405,0,0,0
6124,211663.9207907364,2010-11-18 22:33:02,3571.775090324309,2,19,0.550297200679779,4.002152442932129,18.393245418789363,17.875514377043235,73.33743465183571,65.28044329374005,9.70840483205393e-05,0.0940944999456405,0,0,0
6125,211693.9362764716,2010-11-18 22:33:32,3601.790576044434,2,19,0.5501165986061096,4.003933429718018,18.39783226875829,17.875514377043235,73.35579604581977,65.28044329374005,0.0,0.0940944999456405,0,0,0
6126,211723.95147187205,2010-11-18 22:34:02,3631.8057714599136,2,19,0.5501165986061096,4.006199836730957,18.40241900266745,17.875514377043235,73.37416684974326,65.28044329374005,6.47544875391759e-05,0.0940944999456405,0,0,0
6127,211753.96673822452,2010-11-18 22:34:32,3661.8210378124622,2,19,0.5499359965324402,4.008304119110107,18.40700578922752,17.875514377043235,73.39254788365044,65.28044329374005,3.23295607813634e-05,0.0940944999456405,0,0,0
6128,211783.98206296287,2010-11-18 22:35:02,3691.836362550752,2,19,0.5501165986061096,4.010732650756836,18.411592620398338,17.875514377043235,73.41093907149785,65.28044329374005,6.47544875391759e-05,0.0940944999456405,0,0,0
6129,211813.99737761097,2010-11-18 22:35:32,3721.8516771988543,2,19,0.5501165986061096,4.012999057769775,18.41617937230828,17.875514377043235,73.42934017278931,65.28044329374005,3.24249267578125e-05,0.0940944999456405,0,0,0
6130,211844.01269181297,2010-11-18 22:36:02,3751.86699137578,2,19,0.5501165986061096,4.015103340148926,18.42076620218233,17.875514377043235,73.4477519150751,65.28044329374005,9.70840483205393e-05,0.0940944999456405,0,0,0
6131,211874.0280539596,2010-11-18 22:36:32,3781.8823535224474,2,19,0.5499359965324402,4.017369747161865,18.42535310326543,17.875514377043235,73.46617435935333,65.28044329374005,3.23295607813634e-05,0.0940944999456405,0,0,0
6132,211904.04363663177,2010-11-18 22:37:02,3811.8979361995903,2,19,0.5501165986061096,4.019798278808594,18.429939967127712,17.875514377043235,73.48460703503027,65.28044329374005,9.71794142969884e-05,0.0940944999456405,0,0,0
6133,211934.0586897921,2010-11-18 22:37:32,3841.9129893800296,2,19,0.5501165986061096,4.022064685821533,18.43452666306816,17.875514377043235,73.50304962736661,65.28044329374005,6.47544875391759e-05,0.0940944999456405,0,0,0
6134,211964.07402384368,2010-11-18 22:38:02,3871.9283234065033,2,19,0.5501165986061096,4.024331092834473,18.43911340917685,17.875514377043235,73.52150304890701,65.28044329374005,6.47544875391759e-05,0.0940944999456405,0,0,0
6135,211994.08932705823,2010-11-18 22:38:32,3901.943626646128,2,19,0.550297200679779,4.026759147644043,18.44370018052687,17.875514377043235,73.53996735490117,65.28044329374005,6.47544875391759e-05,0.0940944999456405,0,0,0
6136,212024.1046835508,2010-11-18 22:39:02,3931.9589831136186,2,19,0.5501165986061096,4.029025554656982,18.44828699102234,17.875514377043235,73.55844267594706,65.28044329374005,3.23295607813634e-05,0.0940944999456405,0,0,0
6137,212054.11997056493,2010-11-18 22:39:32,3961.974270127741,2,19,0.550297200679779,4.031454086303711,18.45287372174787,17.875514377043235,73.57692852934593,65.28044329374005,6.47544875391759e-05,0.0940944999456405,0,0,0
6138,212084.13830114625,2010-11-18 22:40:02,3991.99260073414,2,19,0.5501165986061096,4.033882141113281,18.457460929649606,17.875514377043235,73.59542734106148,65.28044329374005,6.47544875391759e-05,0.0940944999456405,0,0,0
6139,212114.1506428384,2010-11-18 22:40:32,4022.004942401225,2,19,0.5501165986061096,4.036148548126221,18.462047324327,17.875514377043235,73.61393386371512,65.28044329374005,6.47544875391759e-05,0.0940944999456405,0,0,0
6140,212144.1659398124,2010-11-18 22:41:02,4052.0202393752097,2,19,0.550297200679779,4.03873872756958,18.466634162806137,17.875514377043235,73.63245343109631,65.28044329374005,6.47544875391759e-05,0.0940944999456405,0,0,0
6141,212174.1812621597,2010-11-18 22:41:32,4082.035561747593,2,19,0.550297200679779,4.04132890701294,18.471221007494155,17.875514377043235,73.6509843595621,65.28044329374005,9.71794142969884e-05,0.0940944999456405,0,0,0
6142,212204.19660550947,2010-11-18 22:42:02,4112.050905077289,2,19,0.550297200679779,4.043919086456299,18.475807773715022,17.875514377043235,73.66952643477893,65.28044329374005,9.71794142969884e-05,0.0940944999456405,0,0,0
6143,212234.21193821763,2010-11-18 22:42:32,4142.066237805522,2,19,0.5501165986061096,4.046347141265869,18.480394537954997,17.875514377043235,73.68808007976614,65.28044329374005,6.47544875391759e-05,0.0940944999456405,0,0,0
6144,212264.22727654985,2010-11-18 22:43:02,4172.081576137744,2,19,0.5499359965324402,4.048775672912598,18.48498132002902,17.875514377043235,73.70664531955256,65.28044329374005,6.47544875391759e-05,0.0940944999456405,0,0,0
6145,212294.24255189984,2010-11-18 22:43:32,4202.096851487752,2,19,0.5501165986061096,4.051203727722168,18.489568136649467,17.875514377043235,73.7252223477472,65.28044329374005,3.23295607813634e-05,0.0940944999456405,0,0,0
6146,212324.2578894802,2010-11-18 22:44:02,4232.112189068097,2,19,0.5501165986061096,4.053956031799316,18.49415493511039,17.875514377043235,73.74381116082172,65.28044329374005,6.47544875391759e-05,0.0940944999456405,0,0,0
6147,212354.2733254612,2010-11-18 22:44:32,4262.127625049065,2,19,0.5499359965324402,4.056546211242676,18.49874183001872,17.875514377043235,73.7624124402475,65.28044329374005,3.24249267578125e-05,0.0940944999456405,0,0,0
6148,212384.28851659092,2010-11-18 22:45:02,4292.142816178846,2,19,0.5501165986061096,4.059136390686035,18.50332865354749,17.875514377043235,73.78102559969743,65.28044329374005,6.47544875391759e-05,0.0940944999456405,0,0,0
6149,212414.30397910817,2010-11-18 22:45:32,4322.158278756203,2,19,0.5499359965324402,4.0617265701293945,18.507915527643327,17.875514377043235,73.79965096081311,65.28044329374005,6.47544875391759e-05,0.0940944999456405,0,0,0
6150,212444.31918745596,2010-11-18 22:46:02,4352.173487038801,2,19,0.5501165986061096,4.064640522003174,18.51250225188908,17.875514377043235,73.81828796180149,65.28044329374005,3.24249267578125e-05,0.0940944999456405,0,0,0
6151,212474.33448881583,2010-11-18 22:46:32,4382.188788408759,2,19,0.5501165986061096,4.067230701446533,18.517088995828672,17.875514377043235,73.83693745804747,65.28044329374005,6.47544875391759e-05,0.0940944999456405,0,0,0
6152,212504.34993619527,2010-11-18 22:47:02,4412.204235783166,2,19,0.5501165986061096,4.0701446533203125,18.52167577556602,17.875514377043235,73.85559968466916,65.28044329374005,9.71794142969884e-05,0.0940944999456405,0,0,0
6153,212534.3651282524,2010-11-18 22:47:32,4442.2194278152,2,19,0.5501165986061096,4.072734832763672,18.526262556120944,17.875514377043235,73.87427457705729,65.28044329374005,3.24249267578125e-05,0.0940944999456405,0,0,0
6154,212564.3805135017,2010-11-18 22:48:02,4472.234813064534,2,19,0.550297200679779,4.075810432434082,18.53084940156121,17.875514377043235,73.892962545969,65.28044329374005,0.0001295089750783,0.0940944999456405,0,0,0
6155,212594.3958014933,2010-11-18 22:48:32,4502.250101056098,2,19,0.5501165986061096,4.078400611877441,18.53543617112032,17.875514377043235,73.911663131788,65.28044329374005,6.47544875391759e-05,0.0940944999456405,0,0,0
6156,212624.41109823668,2010-11-18 22:49:02,4532.265397799507,2,19,0.5501165986061096,4.08115291595459,18.540022992592025,17.875514377043235,73.93037702647989,65.28044329374005,0.0,0.0940944999456405,0,0,0
6157,212654.426568002,2010-11-18 22:49:32,4562.280867569818,2,19,0.5501165986061096,4.084228515625,18.544609787748268,17.875514377043235,73.94910379146441,65.28044329374005,9.70840483205393e-05,0.0940944999456405,0,0,0
6158,212684.44175842,2010-11-18 22:50:02,4592.29605798281,2,19,0.5501165986061096,4.087142467498779,18.549196550718964,17.875514377043235,73.9678437914302,65.28044329374005,6.47544875391759e-05,0.0940944999456405,0,0,0
6159,212714.45706508312,2010-11-18 22:50:32,4622.311364671044,2,19,0.5499359965324402,4.090056419372559,18.553783287578486,17.875514377043235,73.98659709152602,65.28044329374005,9.70840483205393e-05,0.0940944999456405,0,0,0
6160,212744.47239610716,2010-11-18 22:51:03,4652.326695695023,2,19,0.5501165986061096,4.093132495880127,18.558370067652024,17.875514377043235,74.00536397028178,65.28044329374005,0.0001295089750783,0.0940944999456405,0,0,0
6161,212774.48771609852,2010-11-18 22:51:33,4682.342015661401,2,19,0.5501165986061096,4.095884323120117,18.562956796283537,17.875514377043235,74.02414424782698,65.28044329374005,6.47544875391759e-05,0.0940944999456405,0,0,0
6162,212804.5030479948,2010-11-18 22:52:03,4712.357347557557,2,19,0.5501165986061096,4.0989603996276855,18.56754358565631,17.875514377043235,74.04293854418309,65.28044329374005,6.47544875391759e-05,0.0940944999456405,0,0,0
6163,212834.51836480325,2010-11-18 22:52:33,4742.372664386102,2,19,0.5504778623580933,4.102198123931885,18.572130483928788,17.875514377043235,74.0617471889319,65.28044329374005,0.0001295089750783,0.0940944999456405,0,0,0
6164,212864.53369713548,2010-11-18 22:53:03,4772.387996713334,2,19,0.5501165986061096,4.105112075805664,18.576717259370216,17.875514377043235,74.08056928403771,65.28044329374005,9.71794142969884e-05,0.0940944999456405,0,0,0
6165,212894.5490021696,2010-11-18 22:53:33,4802.403301757464,2,19,0.550297200679779,4.108187675476074,18.58130393097679,17.875514377043235,74.09940513157035,65.28044329374005,9.70840483205393e-05,0.0940944999456405,0,0,0
6166,212924.5643392236,2010-11-18 22:54:03,4832.418638816507,2,19,0.5501165986061096,4.111425399780273,18.585890641175823,17.875514377043235,74.11825544304192,65.28044329374005,9.70840483205393e-05,0.0940944999456405,0,0,0
6167,212954.57967940543,2010-11-18 22:54:33,4862.433978968271,2,19,0.5501165986061096,4.114501476287842,18.59047780154106,17.875514377043235,74.13712188146152,65.28044329374005,9.71794142969884e-05,0.0940944999456405,0,0,0
6168,212984.5949693118,2010-11-18 22:55:03,4892.449268874613,2,19,0.550297200679779,4.117577075958252,18.595065292498564,17.875514377043235,74.15600414153411,65.28044329374005,3.24249267578125e-05,0.0940944999456405,0,0,0
6169,213014.6103174485,2010-11-18 22:55:33,4922.464617011308,2,19,0.5501165986061096,4.120652675628662,18.59965240526328,17.875514377043235,74.17489931862697,65.28044329374005,3.23295607813634e-05,0.0940944999456405,0,0,0
6170,213044.625841379,2010-11-18 22:56:03,4952.4801409368,2,19,0.5501165986061096,4.123890399932861,18.60423925010571,17.875514377043235,74.19380799073907,65.28044329374005,6.47544875391759e-05,0.0940944999456405,0,0,0
6171,213074.64099905023,2010-11-18 22:56:33,4982.495298613076,2,19,0.550297200679779,4.12729024887085,18.60882596556216,17.875514377043235,74.21273093102238,65.28044329374005,9.71794142969884e-05,0.0940944999456405,0,0,0
6172,213104.6562944102,2010-11-18 22:57:03,5012.510593973033,2,19,0.5499359965324402,4.130527973175049,18.61341275440218,17.875514377043235,74.23166904184059,65.28044329374005,6.47544875391759e-05,0.0940944999456405,0,0,0
6173,213134.6717652432,2010-11-18 22:57:33,5042.526064805997,2,19,0.5501165986061096,4.133765697479248,18.61799961914567,17.875514377043235,74.25062235363494,65.28044329374005,9.71794142969884e-05,0.0940944999456405,0,0,0
6174,213164.6870764076,2010-11-18 22:58:03,5072.541375970402,2,19,0.550297200679779,4.137165069580078,18.62258644094188,17.875514377043235,74.26959056251478,65.28044329374005,9.70840483205393e-05,0.0940944999456405,0,0,0
6175,213194.7022817278,2010-11-18 22:58:33,5102.556581290606,2,19,0.5501165986061096,4.140241146087647,18.62717324628772,17.875514377043235,74.28857396478048,65.28044329374005,6.47544875391759e-05,0.0940944999456405,0,0,0
6176,213224.71765540825,2010-11-18 22:59:03,5132.571954991113,2,19,0.5501165986061096,4.143640518188477,18.6317600484822,17.875514377043235,74.3075727683449,65.28044329374005,6.47544875391759e-05,0.0940944999456405,0,0,0
6177,213254.7329433848,2010-11-18 22:59:33,5162.587242942576,2,19,0.5501165986061096,4.147040367126465,18.636346796211942,17.875514377043235,74.32658707225875,65.28044329374005,6.47544875391759e-05,0.0940944999456405,0,0,0
6178,213284.74827535613,2010-11-18 23:00:03,5192.602574943995,2,19,0.5501165986061096,4.150601863861084,18.640933537513536,17.875514377043235,74.34561700805473,65.28044329374005,9.71794142969884e-05,0.0940944999456405,0,0,0
6179,213314.76362644017,2010-11-18 23:00:33,5222.617926088197,2,19,0.5499359965324402,4.154001235961914,18.64552025386599,17.875514377043235,74.36466249458378,65.28044329374005,9.70840483205393e-05,0.0940944999456405,0,0,0
6180,213344.7788905321,2010-11-18 23:01:03,5252.633190094891,2,19,0.5499359965324402,4.157401084899902,18.650106969193903,17.875514377043235,74.38372378809025,65.28044329374005,6.47544875391759e-05,0.0940944999456405,0,0,0
6181,213374.794341726,2010-11-18 23:01:33,5282.648641288833,2,19,0.550297200679779,4.1609625816345215,18.65469375706842,17.875514377043235,74.402801415881,65.28044329374005,6.47544875391759e-05,0.0940944999456405,0,0,0
6182,213404.8096864592,2010-11-18 23:02:03,5312.663986022032,2,19,0.5501165986061096,4.164524078369141,18.659280515153498,17.875514377043235,74.42189499938334,65.28044329374005,9.71794142969884e-05,0.0940944999456405,0,0,0
6183,213434.82494995964,2010-11-18 23:02:33,5342.67924963775,2,19,0.5501165986061096,4.16808557510376,18.663867190055484,17.875514377043235,74.44100433449066,65.28044329374005,0.0001295089750783,0.0940944999456405,0,0,0
6184,213464.84033247217,2010-11-18 23:03:03,5372.694632034964,2,19,0.5501165986061096,4.171647071838379,18.66845391787074,17.875514377043235,74.46013016252839,65.28044329374005,9.71794142969884e-05,0.0940944999456405,0,0,0
6185,213494.85554071967,2010-11-18 23:03:33,5402.709840277463,2,19,0.550297200679779,4.175370216369629,18.67304061192016,17.875514377043235,74.47927215181417,65.28044329374005,0.0001295089750783,0.0940944999456405,0,0,0
6186,213524.87087299177,2010-11-18 23:04:03,5432.725172549556,2,19,0.550297200679779,4.178770065307617,18.67762722128993,17.875514377043235,74.49843019315038,65.28044329374005,6.47544875391759e-05,0.0940944999456405,0,0,0
6187,213554.8861723567,2010-11-18 23:04:33,5462.740471919523,2,19,0.5501165986061096,4.182169437408447,18.68221388196536,17.875514377043235,74.51760499938563,65.28044329374005,3.23295607813634e-05,0.0940944999456405,0,0,0
6188,213584.9014964985,2010-11-18 23:05:03,5492.755796061322,2,19,0.5501165986061096,4.186054706573486,18.68680066542036,17.875514377043235,74.53679693655374,65.28044329374005,0.0001618385285837,0.0940944999456405,0,0,0
6189,213614.9169506849,2010-11-18 23:05:33,5522.771250252746,2,19,0.5501165986061096,4.1896162033081055,18.69138749420099,17.875514377043235,74.55600579299812,65.28044329374005,9.70840483205393e-05,0.0940944999456405,0,0,0
6190,213644.93219803003,2010-11-18 23:06:03,5552.786497592838,2,19,0.550297200679779,4.1935014724731445,18.69597424599755,17.875514377043235,74.57523115844002,65.28044329374005,0.0001295089750783,0.0940944999456405,0,0,0
6191,213674.9322597244,2010-11-18 23:06:33,5582.786559307271,2,19,0.550297200679779,4.1972246170043945,18.70055869544169,17.875514377043235,74.59446385843451,65.28044329374005,0.0001618385285837,0.0940944999456405,0,0,0
6192,213698.38474109097,2010-11-18 23:06:56,5606.239040673836,2,19,0.550297200679779,4.200138568878174,18.70414251073266,17.875514377043235,74.6095105710625,65.28044329374005,0.0001618385285837,0.0940944999456405,0,0,0
6193,213728.40037448585,2010-11-18 23:07:27,30.01545777537006,3,19,0.0,4.116281986236572,18.70414251073266,17.875514377043235,74.6095105710625,65.28044329374005,-0.0003561019839253,0.0940944999456405,0,0,0
6194,213758.4155624176,2010-11-18 23:07:57,60.030645727219095,3,19,0.0,4.105921268463135,18.70414251073266,17.875514377043235,74.6095105710625,65.28044329374005,-0.0002266883820993,0.0940944999456405,0,0,0
6195,213788.43090800292,2010-11-18 23:08:27,90.04599131254555,3,19,0.0,4.099931716918945,18.70414251073266,17.875514377043235,74.6095105710625,65.28044329374005,-0.0001295089750783,0.0940944999456405,0,0,0
6196,213818.3993775535,2010-11-18 23:08:57,120.01446084803992,3,19,0.0,4.096046447753906,18.70414251073266,17.875514377043235,74.6095105710625,65.28044329374005,-0.0001618385285837,0.0940944999456405,0,0,0
6197,213818.40074500468,2010-11-18 23:08:57,2.686706433e-06,4,19,0.9832176566123962,4.199653148651123,18.70414251146644,17.875514377043235,74.60951057414414,65.28044329374005,0.0,0.0940944999456405,0,0,0
6198,213819.3534134617,2010-11-18 23:08:58,0.952671168802125,4,19,0.932466447353363,4.199653148651123,18.70439436358859,17.875514377043235,74.6105682830874,65.28044329374005,0.0,0.0940944999456405,0,0,0
6199,213821.52529556857,2010-11-18 23:09:00,3.124553295726641,4,19,0.8818958401679993,4.199653148651123,18.70494071954787,17.875514377043235,74.61286281517293,65.28044329374005,0.0,0.0940944999456405,0,0,0
6200,213824.8846400643,2010-11-18 23:09:03,6.483897771360049,4,19,0.8316864967346191,4.199814796447754,18.70573924496721,17.875514377043235,74.61621639787857,65.28044329374005,3.23295607813634e-05,0.0940944999456405,0,0,0
6201,213829.4315082969,2010-11-18 23:09:08,11.030765983936826,4,19,0.7816576957702637,4.199814796447754,18.706756771926557,17.875514377043235,74.62048973428853,65.28044329374005,3.23295607813634e-05,0.0940944999456405,0,0,0
6202,213835.3845262205,2010-11-18 23:09:14,16.983783927573057,4,19,0.731628954410553,4.199653148651123,18.70800644303186,17.875514377043235,74.62573799925983,65.28044329374005,-3.23295607813634e-05,0.0940944999456405,0,0,0
6203,213843.1658077914,2010-11-18 23:09:21,24.765065493481806,4,19,0.6816001534461975,4.199814796447754,18.709531784981436,17.875514377043235,74.63214403079651,65.28044329374005,3.23295607813634e-05,0.0940944999456405,0,0,0
6204,213853.66570468445,2010-11-18 23:09:32,35.26496239150803,4,19,0.6313908100128174,4.199653148651123,18.711443850397917,17.875514377043235,74.64017421806577,65.28044329374005,3.24249267578125e-05,0.0940944999456405,0,0,0
6205,213868.63433308376,2010-11-18 23:09:47,50.23359079085872,4,19,0.5813620090484619,4.199491024017334,18.713959837814585,17.875514377043235,74.65074068858712,65.28044329374005,-6.47544875391759e-05,0.0940944999456405,0,0,0
6206,213891.7121949725,2010-11-18 23:10:10,73.31145266954822,4,19,0.5313332676887512,4.199653148651123,18.71751424130777,17.875514377043235,74.66566824708494,65.28044329374005,-3.23295607813634e-05,0.0940944999456405,0,0,0
6207,213932.13359307084,2010-11-18 23:10:50,113.7328507728908,4,19,0.4811238646507263,4.199814796447754,18.72317167015085,17.875514377043235,74.68942795986352,65.28044329374005,0.0,0.0940944999456405,0,0,0
6208,214003.9142142244,2010-11-18 23:12:02,185.51347193648763,4,19,0.4310950934886932,4.199653148651123,18.732229722895266,17.875514377043235,74.72746940772815,65.28044329374005,-3.23295607813634e-05,0.0940944999456405,0,0,0
6209,214107.33492902943,2010-11-18 23:13:46,288.9341867365077,4,19,0.3810663223266601,4.199653148651123,18.74387061281704,17.875514377043235,74.77635810995287,65.28044329374005,0.0,0.0940944999456405,0,0,0
6210,214234.1149357308,2010-11-18 23:15:52,415.71419343283816,4,19,0.3308569490909576,4.199653148651123,18.756390457310037,17.875514377043235,74.82893828158467,65.28044329374005,-3.23295607813634e-05,0.0940944999456405,0,0,0
6211,214384.3948071949,2010-11-18 23:18:23,565.9940649070179,4,19,0.2808281779289245,4.199653148651123,18.76914583020432,17.875514377043235,74.88250753250975,65.28044329374005,-3.23295607813634e-05,0.0940944999456405,0,0,0
6212,214567.2991367256,2010-11-18 23:21:26,748.8983944326415,4,19,0.2307994067668914,4.199653148651123,18.782123812660707,17.875514377043235,74.93701169930247,65.28044329374005,0.0,0.0940944999456405,0,0,0
6213,214796.2499916677,2010-11-18 23:25:15,977.849249379798,4,19,0.1807706356048584,4.199653148651123,18.7951696987048,17.875514377043235,74.99180110401095,65.28044329374005,3.24249267578125e-05,0.0940944999456405,0,0,0
6214,215104.38761360288,2010-11-18 23:30:23,1285.986871334986,4,19,0.1307418793439865,4.199814796447754,18.80841392469439,17.875514377043235,75.04742343054518,65.28044329374005,0.0,0.0940944999456405,0,0,0
6215,215586.57033623548,2010-11-18 23:38:25,1768.1695939425722,4,19,0.0807131007313728,4.199491024017334,18.822331343051648,17.875514377043235,75.1058730231052,65.28044329374005,-6.47544875391759e-05,0.0940944999456405,0,0,0
6216,216102.9872817603,2010-11-18 23:47:01,2284.586539467363,4,19,0.0498289167881011,4.199653148651123,18.831571575778927,17.875514377043235,75.14467956683342,65.28044329374005,0.0,0.0940944999456405,0,0,0
6217,216133.0107697371,2010-11-18 23:47:31,30.01532389618702,5,19,0.0,4.192044734954834,18.831571575778927,17.875514377043235,75.14467956683342,65.28044329374005,0.0,0.0940944999456405,0,0,0
6218,216163.01049625484,2010-11-18 23:48:01,60.01505043898037,5,19,0.0,4.190749645233154,18.831571575778927,17.875514377043235,75.14467956683342,65.28044329374005,-3.23295607813634e-05,0.0940944999456405,0,0,0
6219,216163.1913408572,2010-11-18 23:48:02,0.187621161283357,6,19,-1.9243103452026844e-05,4.190749645233154,18.831571575778927,17.875514378046127,75.14467956683342,65.28044329794292,0.0,0.0931148082017898,0,0,0
6220,216168.01932777528,2010-11-18 23:48:07,5.015608049323118,6,19,0.0007031940040178,4.190587520599365,18.83157244454525,17.87551437821526,75.1446832077271,65.28044329865172,-9.71794142969884e-05,0.0931148082017898,0,0,0
6221,216198.02814908177,2010-11-18 23:48:37,30.015560406553284,7,19,-1.099929690361023,4.018664836883545,18.83157244454525,17.88468366458338,75.1446832077271,65.31748107292222,-0.0008742332574911,0.0931148082017898,0,0,0
6222,216228.04326149504,2010-11-18 23:49:07,60.03067281984647,7,19,-1.099929690361023,3.99324893951416,18.83157244454525,17.89385279360779,75.1446832077271,65.35420277730617,-0.0005503654247149,0.0931148082017898,0,0,0
6223,216258.0586115315,2010-11-18 23:49:37,90.04602285628357,7,19,-1.0997490882873535,3.9759271144866943,18.83157244454525,17.903021954923943,75.1446832077271,65.39073355095891,-0.0003885269106831,0.0931148082017898,0,0,0
6224,216288.0740682192,2010-11-18 23:50:07,120.06147955396357,7,19,-1.0997490882873535,3.962166786193848,18.83157244454525,17.912191167401716,75.1446832077271,65.42712505718482,-0.0003561496851034,0.0931148082017898,0,0,0
6225,216318.08926434643,2010-11-18 23:50:37,150.07667569625718,7,19,-1.0997490882873535,3.9508347511291504,18.83157244454525,17.921360266970265,75.1446832077271,65.46340191633377,-0.0003237724304199,0.0931148082017898,0,0,0
6226,216348.1048370687,2010-11-18 23:51:07,180.09224839850242,7,19,-1.0997490882873535,3.940474033355713,18.83157244454525,17.930529517839645,75.1446832077271,65.49957973407393,-0.0002590179501567,0.0931148082017898,0,0,0
6227,216378.1200595568,2010-11-18 23:51:37,210.10747088154665,7,19,-1.0997490882873535,3.930922746658325,18.83157244454525,17.9396985986274,75.1446832077271,65.53566554680113,-0.0002266406954731,0.0931148082017898,0,0,0
6228,216408.135526886,2010-11-18 23:52:07,240.12293832605232,7,19,-1.099568486213684,3.921533346176148,18.83157244454525,17.948867813561154,75.1446832077271,65.5716652073519,-0.0002590179501567,0.0931148082017898,0,0,0
6229,216438.15114426977,2010-11-18 23:52:37,270.1385557298796,7,19,-1.0997490882873535,3.9124679565429688,18.83157244454525,17.95803708272174,75.1446832077271,65.60758193392937,-0.0002589702489785,0.0931148082017898,0,0,0
6230,216468.1660985333,2010-11-18 23:53:07,300.1535098630813,7,19,-1.0997490882873535,3.903887987136841,18.83157244454525,17.967206149987145,75.1446832077271,65.64341657072528,-0.0002266406954731,0.0931148082017898,0,0,0
6231,216498.1812749714,2010-11-18 23:53:37,330.1686863011903,7,19,-1.0997490882873535,3.895469903945923,18.83157244454525,17.976375284971066,75.1446832077271,65.67917245674712,-0.0001942634553415,0.0931148082017898,0,0,0
6232,216528.1966024866,2010-11-18 23:54:07,360.1840138113985,7,19,-1.099568486213684,3.887051820755005,18.83157244454525,17.9855444522099,75.1446832077271,65.7148522259453,-0.0002590179501567,0.0931148082017898,0,0,0
6233,216558.21195031755,2010-11-18 23:54:37,390.1993616423303,7,19,-1.099568486213684,3.879119396209717,18.83157244454525,17.994713664284795,75.1446832077271,65.75045630336999,-0.0001942634553415,0.0931148082017898,0,0,0
6234,216588.22727044937,2010-11-18 23:55:07,420.2146817741208,7,19,-1.0997490882873535,3.870863199234009,18.83157244454525,18.003882826383258,75.1446832077271,65.78598570744894,-0.0001942634553415,0.0931148082017898,0,0,0
6235,216618.24260653093,2010-11-18 23:55:37,450.2300178557245,7,19,-1.0997490882873535,3.8629307746887207,18.83157244454525,18.013052076550736,75.1446832077271,65.82144222928815,-0.0001942634553415,0.0931148082017898,0,0,0
6236,216648.25793992585,2010-11-18 23:56:07,480.2453512506217,7,19,-1.0997490882873535,3.8551602363586426,18.83157244454525,18.022221246906543,75.1446832077271,65.85682582337137,-0.0001618862152099,0.0931148082017898,0,0,0
6237,216678.2733049647,2010-11-18 23:56:37,510.26071630955727,7,19,-1.0997490882873535,3.8472278118133545,18.83157244454525,18.031390505165955,75.1446832077271,65.89213799498353,-0.0001942634553415,0.0931148082017898,0,0,0
6238,216708.28860203896,2010-11-18 23:57:07,540.2760133637427,7,19,-1.099568486213684,3.8396191596984863,18.83157244454525,18.04055978562788,75.1446832077271,65.9273784971995,-0.0001295089750783,0.0931148082017898,0,0,0
6239,216738.3039317597,2010-11-18 23:57:37,570.2913430844685,7,19,-1.0997490882873535,3.832010746002197,18.83157244454525,18.04972902607939,75.1446832077271,65.96254940529397,-0.0001618862152099,0.0931148082017898,0,0,0
6240,216768.31950755464,2010-11-18 23:58:07,600.3069188894586,7,19,-1.0997490882873535,3.824563980102539,18.83157244454525,18.058898391693617,75.1446832077271,65.99765276036489,-0.0001942634553415,0.0931148082017898,0,0,0
6241,216798.3348535059,2010-11-18 23:58:37,630.3222648406986,7,19,-1.0997490882873535,3.817117214202881,18.83157244454525,18.068067656875886,75.1446832077271,66.03268803980997,-0.0001942634553415,0.0931148082017898,0,0,0
6242,216828.34993253584,2010-11-18 23:59:07,660.3373438556242,7,19,-1.099929690361023,3.8099942207336426,18.83157244454525,18.077236853664715,75.1446832077271,66.06765707456641,-0.0002266406954731,0.0931148082017898,0,0,0
6243,216858.36527686304,2010-11-18 23:59:37,690.3526881878227,7,19,-1.099929690361023,3.803194999694824,18.83157244454525,18.086406101684556,75.1446832077271,66.10256167701338,-0.0001942634553415,0.0931148082017898,0,0,0
6244,216888.38064839315,2010-11-19 00:00:07,720.3680597429737,7,19,-1.099929690361023,3.796395778656006,18.83157244454525,18.095575383500776,75.1446832077271,66.13740343778858,-0.0001942634553415,0.0931148082017898,0,0,0
6245,216918.39594734204,2010-11-19 00:00:37,750.3833586668259,7,19,-1.1001102924346924,3.789596557617188,18.83157244454525,18.1047446467336,75.1446832077271,66.172183125446,-0.0002266406954731,0.0931148082017898,0,0,0
6246,216948.4112620904,2010-11-19 00:01:07,780.3986734151787,7,19,-1.0997490882873535,3.782797336578369,18.83157244454525,18.11391383296599,75.1446832077271,66.2069012471122,-0.0002266406954731,0.0931148082017898,0,0,0
6247,216978.42687468225,2010-11-19 00:01:37,810.4142860320569,7,19,-1.0997490882873535,3.776645660400391,18.83157244454525,18.123083218784966,75.1446832077271,66.24156013634094,-0.0001618862152099,0.0931148082017898,0,0,0
6248,217008.44193026863,2010-11-19 00:02:07,840.4293415984515,7,19,-1.0997490882873535,3.770332098007202,18.83157244454525,18.13225247482381,75.1446832077271,66.27615945426824,-0.0001295089750783,0.0931148082017898,0,0,0
6249,217038.45727718232,2010-11-19 00:02:37,870.4446885070811,7,19,-1.099929690361023,3.763856649398804,18.83157244454525,18.14142172321469,75.1446832077271,66.31070136112598,-0.0001942634553415,0.0931148082017898,0,0,0
6250,217068.47260017123,2010-11-19 00:03:07,900.4600114909908,7,19,-1.0997490882873535,3.757866859436035,18.83157244454525,18.15059101675565,75.1446832077271,66.34518632544213,-0.0001618862152099,0.0931148082017898,0,0,0
6251,217098.48796180665,2010-11-19 00:03:37,930.4753731313932,7,19,-1.0997490882873535,3.7518773078918457,18.83157244454525,18.15976032813845,75.1446832077271,66.37961613912921,-0.0001618862152099,0.0931148082017898,0,0,0
6252,217128.5032655876,2010-11-19 00:04:07,960.4906769123696,7,19,-1.099568486213684,3.746211290359497,18.83157244454525,18.168929635747013,75.1446832077271,66.41399243024146,-0.0001295089750783,0.0931148082017898,0,0,0
6253,217158.52140168345,2010-11-19 00:04:37,990.5088130934524,7,19,-1.099568486213684,3.740545272827149,18.83157244454525,18.17809979723112,75.1446832077271,66.44831936653118,-0.0001295089750783,0.0931148082017898,0,0,0
6254,217188.5341539154,2010-11-19 00:05:07,1020.5215652451697,7,19,-1.099568486213684,3.7348792552948,18.83157244454525,18.187268250281782,75.1446832077271,66.48258773271634,-0.0001295089750783,0.0931148082017898,0,0,0
6255,217218.54926990252,2010-11-19 00:05:37,1050.5366812574466,7,19,-1.0997490882873535,3.729051351547241,18.83157244454525,18.196437512814857,75.1446832077271,66.516807473937,-0.0001618862152099,0.0931148082017898,0,0,0
6256,217248.56460891152,2010-11-19 00:06:07,1080.552020236282,7,19,-1.0997490882873535,3.7238709926605225,18.83157244454525,18.20560675778525,75.1446832077271,66.55097692118191,-0.0001295089750783,0.0931148082017898,0,0,0
6257,217278.58010125312,2010-11-19 00:06:37,1110.5675125779348,7,19,-1.0997490882873535,3.718366861343384,18.83157244454525,18.21477609799168,75.1446832077271,66.58509664497497,-0.0001295089750783,0.0931148082017898,0,0,0
6258,217308.59541390627,2010-11-19 00:07:07,1140.582825241083,7,19,-1.0997490882873535,3.713024616241455,18.83157244454525,18.22394548531066,75.1446832077271,66.61916710729427,-0.0001618862152099,0.0931148082017898,0,0,0
6259,217338.6105960336,2010-11-19 00:07:37,1170.5980073583676,7,19,-1.0997490882873535,3.707844257354736,18.83157244454525,18.23311477299929,75.1446832077271,66.65318847913521,-9.713172767078504e-05,0.0931148082017898,0,0,0
6260,217368.6260521348,2010-11-19 00:08:07,1200.6134634695838,7,19,-1.0997490882873535,3.7026638984680176,18.83157244454525,18.24228405446704,75.1446832077271,66.6871620842915,-9.713172767078504e-05,0.0931148082017898,0,0,0
6261,217398.6412894599,2010-11-19 00:08:37,1230.6287007846508,7,19,-1.0997490882873535,3.697645425796509,18.83157244454525,18.25145339785922,75.1446832077271,66.72108904085526,-6.47544875391759e-05,0.0931148082017898,0,0,0
6262,217428.65660626336,2010-11-19 00:09:07,1260.6440175881337,7,19,-1.0997490882873535,3.692626953125,18.83157244454525,18.260622725938905,75.1446832077271,66.75496956288009,-9.713172767078504e-05,0.0931148082017898,0,0,0
6263,217458.67192819965,2010-11-19 00:09:37,1290.6593395244283,7,19,-1.099568486213684,3.687608480453491,18.83157244454525,18.26979203333816,75.1446832077271,66.78880399041061,-0.0001295089750783,0.0931148082017898,0,0,0
6264,217488.68739904265,2010-11-19 00:10:07,1320.6748103624047,7,19,-1.099568486213684,3.6825900077819824,18.83157244454525,18.27896132824637,75.1446832077271,66.82259331912256,-0.0001295089750783,0.0931148082017898,0,0,0
6265,217518.7026337161,2010-11-19 00:10:37,1350.6900450408905,7,19,-1.0997490882873535,3.6778953075408936,18.83157244454525,18.28813069454271,75.1446832077271,66.85633857978381,-9.713172767078504e-05,0.0931148082017898,0,0,0
6266,217548.71793272017,2010-11-19 00:11:07,1380.7053440499556,7,19,-1.099929690361023,3.6730387210845943,18.83157244454525,18.297300020950903,75.1446832077271,66.89004003474875,-0.0001295089750783,0.0931148082017898,0,0,0
6267,217578.73327063635,2010-11-19 00:11:37,1410.7206819611258,7,19,-1.0997490882873535,3.668344259262085,18.83157244454525,18.30646934249276,75.1446832077271,66.92369779135741,-0.0001295089750783,0.0931148082017898,0,0,0
6268,217608.74860483324,2010-11-19 00:12:07,1440.7360161530123,7,19,-1.099929690361023,3.663649559020996,18.83157244454525,18.31563863468468,75.1446832077271,66.95731230539214,-0.0001295089750783,0.0931148082017898,0,0,0
6269,217638.7639508296,2010-11-19 00:12:37,1470.7513621543776,7,19,-1.0997490882873535,3.659116744995117,18.83157244454525,18.32480796519707,75.1446832077271,66.9908846187006,-9.713172767078504e-05,0.0931148082017898,0,0,0
6270,217668.77940678544,2010-11-19 00:13:07,1500.7668181152185,7,19,-1.0997490882873535,3.6545839309692383,18.83157244454525,18.33397727171543,75.1446832077271,67.02441508489771,-0.0001295089750783,0.0931148082017898,0,0,0
6271,217698.79473670165,2010-11-19 00:13:37,1530.7821480264197,7,19,-1.0997490882873535,3.650213003158569,18.83157244454525,18.34314655921945,75.1446832077271,67.05790453827284,-0.0001295089750783,0.0931148082017898,0,0,0
6272,217728.8100925626,2010-11-19 00:14:07,1560.7975039174707,7,19,-1.099929690361023,3.6456801891326895,18.83157244454525,18.352315885368597,75.1446832077271,67.09135342633707,-0.0001295089750783,0.0931148082017898,0,0,0
6273,217758.8253539728,2010-11-19 00:14:37,1590.812765292596,7,19,-1.099929690361023,3.6413092613220215,18.83157244454525,18.361485130407036,75.1446832077271,67.1247625350974,-0.0001618862152099,0.0931148082017898,0,0,0
6274,217788.84062099704,2010-11-19 00:15:07,1620.828032321834,7,19,-1.0997490882873535,3.637262105941773,18.83157244454525,18.370654374989705,75.1446832077271,67.15813286105313,-0.0001295089750783,0.0931148082017898,0,0,0
6275,217818.85594417143,2010-11-19 00:15:38,1650.8433554962194,7,19,-1.099568486213684,3.633214950561523,18.83157244454525,18.379823679543723,75.1446832077271,67.19146517353387,-6.47544875391759e-05,0.0931148082017898,0,0,0
6276,217848.8712797869,2010-11-19 00:16:08,1680.8586911116597,7,19,-1.099929690361023,3.629005908966065,18.83157244454525,18.388992978710256,75.1446832077271,67.22476037453931,-0.0001295089750783,0.0931148082017898,0,0,0
6277,217878.8866337732,2010-11-19 00:16:38,1710.874045097956,7,19,-1.099568486213684,3.6252825260162354,18.83157244454525,18.398162274820148,75.1446832077271,67.25801906818893,-6.47544875391759e-05,0.0931148082017898,0,0,0
6278,217908.9019609626,2010-11-19 00:17:08,1740.889372312426,7,19,-1.0997490882873535,3.621397256851196,18.83157244454525,18.40733155749687,75.1446832077271,67.29124264034509,-9.713172767078504e-05,0.0931148082017898,0,0,0
6279,217938.91730149533,2010-11-19 00:17:38,1770.9047128401278,7,19,-1.0997490882873535,3.617511987686157,18.83157244454525,18.416500830246548,75.1446832077271,67.32443150948025,-0.0001295089750783,0.0931148082017898,0,0,0
6280,217968.9327534712,2010-11-19 00:18:08,1800.9201648160215,7,19,-1.0997490882873535,3.614112377166748,18.83157244454525,18.42567016017461,75.1446832077271,67.35758682718968,-0.0001295089750783,0.0931148082017898,0,0,0
6281,217998.94797470613,2010-11-19 00:18:38,1830.9353860309,7,19,-1.099568486213684,3.610550880432129,18.83157244454525,18.434839448841853,75.1446832077271,67.39070912977667,-9.713172767078504e-05,0.0931148082017898,0,0,0
6282,218028.9632889582,2010-11-19 00:19:08,1860.9507002830144,7,19,-1.0997490882873535,3.60715126991272,18.83157244454525,18.44400874016263,75.1446832077271,67.4237995779888,-6.47544875391759e-05,0.0931148082017898,0,0,0
6283,218058.978756493,2010-11-19 00:19:38,1890.96616782777,7,19,-1.099929690361023,3.6035897731781006,18.83157244454525,18.45317812832407,75.1446832077271,67.4568594205867,-0.0001295089750783,0.0931148082017898,0,0,0
6284,218088.9942443835,2010-11-19 00:20:08,1920.981655823575,7,19,-1.099568486213684,3.6006758213043213,18.83157244454525,18.462347459321304,75.1446832077271,67.48988924667616,-6.47544875391759e-05,0.0931148082017898,0,0,0
6285,218119.00960367304,2010-11-19 00:20:38,1950.997015143184,7,19,-1.0997490882873535,3.597438097000122,18.83157244454525,18.471516718489973,75.1446832077271,67.52288953497671,-6.47544875391759e-05,0.0931148082017898,0,0,0
6286,218149.0247892439,2010-11-19 00:21:08,1981.0122005787523,7,19,-1.0997490882873535,3.594362258911133,18.83157244454525,18.480685929401258,75.1446832077271,67.55586103271352,-9.713172767078504e-05,0.0931148082017898,0,0,0
6287,218179.04000413304,2010-11-19 00:21:38,2011.0274154828785,7,19,-1.099568486213684,3.5914485454559326,18.83157244454525,18.48985515635381,75.1446832077271,67.58880479091643,-6.47544875391759e-05,0.0931148082017898,0,0,0
6288,218209.05530204435,2010-11-19 00:22:08,2041.0427133942032,7,19,-1.0997490882873535,3.5885345935821533,18.83157244454525,18.49902440410089,75.1446832077271,67.62172159601243,-6.47544875391759e-05,0.0931148082017898,0,0,0
6289,218239.07066130883,2010-11-19 00:22:38,2071.0580726336125,7,19,-1.0997490882873535,3.585620641708374,18.83157244454525,18.508193757872277,75.1446832077271,67.65461192689646,-3.237724376958795e-05,0.0931148082017898,0,0,0
6290,218269.0859969393,2010-11-19 00:23:08,2101.073408269103,7,19,-1.099929690361023,3.5827066898345947,18.83157244454525,18.51736300051428,75.1446832077271,67.6874753492421,-6.47544875391759e-05,0.0931148082017898,0,0,0
6291,218299.10131728664,2010-11-19 00:23:38,2131.0887286314687,7,19,-1.099568486213684,3.5799546241760254,18.83157244454525,18.526532284656252,75.1446832077271,67.72031310220682,-6.47544875391759e-05,0.0931148082017898,0,0,0
6292,218329.1166496239,2010-11-19 00:24:08,2161.104060948676,7,19,-1.0997490882873535,3.576878786087036,18.83157244454525,18.53570158284448,75.1446832077271,67.75312499178703,-9.713172767078504e-05,0.0931148082017898,0,0,0
6293,218359.1320024924,2010-11-19 00:24:38,2191.119413837232,7,19,-1.0997490882873535,3.5742886066436768,18.83157244454525,18.54487092132069,75.1446832077271,67.78591117093472,-6.47544875391759e-05,0.0931148082017898,0,0,0
6294,218389.14731543625,2010-11-19 00:25:08,2221.1347267610304,7,19,-1.099568486213684,3.5715365409851074,18.83157244454525,18.55404024410435,75.1446832077271,67.81867162350873,-6.47544875391759e-05,0.0931148082017898,0,0,0
6295,218419.16265047525,2010-11-19 00:25:38,2251.1500618000314,7,19,-1.0997490882873535,3.568460702896118,18.83157244454525,18.56320963945802,75.1446832077271,67.851406075705,-9.713172767078504e-05,0.0931148082017898,0,0,0
6296,218449.1779834391,2010-11-19 00:26:08,2281.165394768865,7,19,-1.0997490882873535,3.565708637237549,18.83157244454525,18.57237902425157,75.1446832077271,67.88411434297599,-6.47544875391759e-05,0.0931148082017898,0,0,0
6297,218479.19344646257,2010-11-19 00:26:38,2311.1808578173977,7,19,-1.099929690361023,3.562794685363769,18.83157244454525,18.58154835696708,75.1446832077271,67.91679589027086,-3.237724376958795e-05,0.0931148082017898,0,0,0
6298,218509.2086277277,2010-11-19 00:27:08,2341.196039062506,7,19,-1.099929690361023,3.5598807334899902,18.83157244454525,18.590718056997,75.1446832077271,67.94945233986768,-6.47544875391759e-05,0.0931148082017898,0,0,0
6299,218539.2239700198,2010-11-19 00:27:38,2371.2113813495994,7,19,-1.0997490882873535,3.556804895401001,18.83157244454525,18.59988808068876,75.1446832077271,67.9820823556958,-9.713172767078504e-05,0.0931148082017898,0,0,0
6300,218569.2394708276,2010-11-19 00:28:08,2401.226882162398,7,19,-1.0997490882873535,3.553729057312012,18.83157244454525,18.609057716906246,75.1446832077271,68.01468314059791,-6.47544875391759e-05,0.0931148082017898,0,0,0
6301,218599.25466647864,2010-11-19 00:28:38,2431.2420778234905,7,19,-1.099568486213684,3.5508151054382324,18.83157244454525,18.61822702682551,75.1446832077271,68.04725439308476,-3.237724376958795e-05,0.0931148082017898,0,0,0
6302,218629.2700032119,2010-11-19 00:29:08,2461.2574145366702,7,19,-1.0997490882873535,3.5472536087036133,18.83157244454525,18.627396402769577,75.1446832077271,68.07979664672509,-0.0001295089750783,0.0931148082017898,0,0,0
6303,218659.2853761605,2010-11-19 00:29:38,2491.272787485299,7,19,-1.099568486213684,3.544015884399414,18.83157244454525,18.6365658047173,75.1446832077271,68.11230872866354,-9.713172767078504e-05,0.0931148082017898,0,0,0
6304,218689.30094583012,2010-11-19 00:30:08,2521.2883571650004,7,19,-1.099929690361023,3.540454387664795,18.83157244454525,18.64573525267699,75.1446832077271,68.14478957042928,-9.713172767078504e-05,0.0931148082017898,0,0,0
6305,218719.3162111652,2010-11-19 00:30:38,2551.3036225000096,7,19,-1.0997490882873535,3.536892890930176,18.83157244454525,18.65490456705739,75.1446832077271,68.1772374706006,-9.713172767078504e-05,0.0931148082017898,0,0,0
6306,218749.3313809968,2010-11-19 00:31:08,2581.318792321603,7,19,-1.099929690361023,3.5331695079803467,18.83157244454525,18.664073976113126,75.1446832077271,68.20965235513728,-0.0001295089750783,0.0931148082017898,0,0,0
6307,218779.3467340057,2010-11-19 00:31:38,2611.3341453605344,7,19,-1.0997490882873535,3.5294461250305176,18.83157244454525,18.673243373502675,75.1446832077271,68.24203290067464,-9.713172767078504e-05,0.0931148082017898,0,0,0
6308,218809.36217360068,2010-11-19 00:32:08,2641.3495849254487,7,19,-1.099929690361023,3.5255608558654785,18.83157244454525,18.6824128358535,75.1446832077271,68.27437833391818,-0.0001295089750783,0.0931148082017898,0,0,0
6309,218839.37741433928,2010-11-19 00:32:38,2671.364825674086,7,19,-1.099568486213684,3.5216755867004395,18.83157244454525,18.69158226116912,75.1446832077271,68.30668674279052,-3.237724376958795e-05,0.0931148082017898,0,0,0
6310,218869.39285698187,2010-11-19 00:33:08,2701.3802683166828,7,19,-1.099929690361023,3.5171427726745605,18.83157244454525,18.70075177608992,75.1446832077271,68.33895712402341,-9.713172767078504e-05,0.0931148082017898,0,0,0
6311,218899.4083378148,2010-11-19 00:33:38,2731.395749144596,7,19,-1.0997490882873535,3.5126099586486816,18.83157244454525,18.709921269963527,75.1446832077271,68.37118702240375,-0.0001295089750783,0.0931148082017898,0,0,0
6312,218929.4233969,2010-11-19 00:34:08,2761.410808224761,7,19,-1.0997490882873535,3.507753610610962,18.83157244454525,18.71909060835268,75.1446832077271,68.40337382948623,-0.0001618862152099,0.0931148082017898,0,0,0
6313,218959.4388780236,2010-11-19 00:34:38,2791.426289348412,7,19,-1.0997490882873535,3.502735137939453,18.83157244454525,18.728260089091997,75.1446832077271,68.43551567730402,-0.0001618862152099,0.0931148082017898,0,0,0
6314,218989.4540892235,2010-11-19 00:35:08,2821.4415005482915,7,19,-1.099929690361023,3.4969072341918945,18.83157244454525,18.737429424496693,75.1446832077271,68.46760773105716,-0.0001618862152099,0.0931148082017898,0,0,0
6315,219019.4694260269,2010-11-19 00:35:38,2851.456837351697,7,19,-1.099568486213684,3.490755558013916,18.83157244454525,18.746598839990163,75.1446832077271,68.49964623737262,-0.0001942634553415,0.0931148082017898,0,0,0
6316,219049.4847459231,2010-11-19 00:36:08,2881.4721572479,7,19,-1.0997490882873535,3.4839563369750977,18.83157244454525,18.75576828409181,75.1446832077271,68.53162500924292,-0.0001942634553415,0.0931148082017898,0,0,0
6317,219079.50310068985,2010-11-19 00:36:38,2911.4905120998183,7,19,-1.099929690361023,3.4758620262146,18.83157244454525,18.76493863378593,75.1446832077271,68.56353878683761,-0.0003237724304199,0.0931148082017898,0,0,0
6318,219109.51557289777,2010-11-19 00:37:08,2941.5029842275526,7,19,-1.0997490882873535,3.466634511947632,18.83157244454525,18.77410712781625,75.1446832077271,68.59536715255828,-0.0002913951757363,0.0931148082017898,0,0,0
6319,219139.53076009772,2010-11-19 00:37:38,2971.5181714325377,7,19,-1.099568486213684,3.4554643630981445,18.83157244454525,18.783276495331933,75.1446832077271,68.62710455387624,-0.0002913951757363,0.0931148082017898,0,0,0
6320,219169.5461022796,2010-11-19 00:38:08,3001.5335136043427,7,19,-1.0997490882873535,3.441218376159668,18.83157244454525,18.792445880824587,75.1446832077271,68.65872593598462,-0.0003885269106831,0.0931148082017898,0,0,0
6321,219199.5614789776,2010-11-19 00:38:38,3031.548890307344,7,19,-1.099929690361023,3.4226016998291016,18.83157244454525,18.80161526371812,75.1446832077271,68.69019842071158,-0.0005827903514727,0.0931148082017898,0,0,0
6322,219229.57678213692,2010-11-19 00:39:08,3061.5641934617565,7,19,-1.0997490882873535,3.397833108901977,18.83157244454525,18.81078472575009,75.1446832077271,68.72147470867658,-0.0007770538213662,0.0931148082017898,0,0,0
6323,219259.592143221,2010-11-19 00:39:38,3091.57955454577,7,19,-1.0997490882873535,3.364322662353516,18.83157244454525,18.819954156051818,75.1446832077271,68.75248596783305,-0.0010036944877356,0.0931148082017898,0,0,0
6324,219289.60758436483,2010-11-19 00:40:08,3121.594995689625,7,19,-1.0997490882873535,3.317537784576416,18.83157244454525,18.829123642209566,75.1446832077271,68.78313254910607,-0.0014245987404137,0.0931148082017898,0,0,0
6325,219319.62279522387,2010-11-19 00:40:38,3151.610206573717,7,19,-1.0997490882873535,3.251488447189331,18.83157244454525,18.838292989557544,75.1446832077271,68.81326625930383,-0.0020073889754712,0.0931148082017898,0,0,0
6326,219349.63825585137,2010-11-19 00:41:08,3181.625667176144,7,19,-1.0997490882873535,3.154680728912353,18.83157244454525,18.847462476567262,75.1446832077271,68.84266600273175,-0.0030434608925133,0.0931148082017898,0,0,0
6327,219379.65348597348,2010-11-19 00:41:38,3211.640897318306,7,19,-1.0997490882873535,2.9984610080718994,18.83157244454525,18.85663194158448,75.1446832077271,68.87094620878248,-0.0054069994948804,0.0931148082017898,0,0,0
6328,219399.2157830315,2010-11-19 00:41:58,3231.2031943713346,7,19,-1.0997490882873535,2.798370122909546,18.83157244454525,18.86260807071537,75.1446832077271,68.88832946937883,-0.010231208987534,0.0931148082017898,0,0,0
6329,219406.3250883012,2010-11-19 00:42:05,3238.312499631002,7,19,-1.099929690361023,2.699943780899048,18.83157244454525,18.86477990902841,75.1446832077271,68.89430122334022,-0.0112024787813425,0.0931148082017898,0,0,0
6330,219466.33336699137,2010-11-19 00:43:05,60.01498048937541,8,19,0.0,3.2987589836120605,18.83157244454525,18.86477990902841,75.1446832077271,68.89430122334022,0.0012303352123126,0.0931148082017898,0,0,0
6331,219466.51492663863,2010-11-19 00:43:05,0.187660063388998,9,19,-1.9243103452026844e-05,3.2987589836120605,18.83157244454525,18.864779910031512,75.1446832077271,68.8943012266492,0.0,0.0946486890316009,0,0,0
6332,219471.34284004828,2010-11-19 00:43:10,5.015573498077894,9,19,0.0007031940040178,3.3063676357269287,18.83157318654229,18.864779910115097,75.14468565879463,68.89430122692492,0.0010684489971026,0.0946486890316009,0,0,0
