Data_Point,Test_Time(s),Date_Time,Step_Time(s),Step_Index,Cycle_Index,Current(A),Voltage(V),Charge_Capacity(Ah),Discharge_Capacity(Ah),Charge_Energy(Wh),Discharge_Energy(Wh),dV/dt(V/s),Internal_Resistance(Ohm),Is_FC_Data,AC_Impedance(Ohm),ACI_Phase_Angle(Deg)
11227,389240.09922783263,2010-11-20 23:52:57,30.015472592355533,1,35,0.0,3.339230537414551,33.40852721832537,33.43794716448501,133.33901823686713,121.99514630313328,0.0007446765666827,0.0931989923119545,0,0,0
11228,389270.1163779022,2010-11-20 23:53:27,60.03262266195234,1,35,0.0,3.362380027770996,33.40852721832537,33.43794716448501,133.33901823686713,121.99514630313328,0.0005180359003134,0.0931989923119545,0,0,0
11229,389300.12985209125,2010-11-20 23:53:57,90.04609686602326,1,35,0.0,3.379863739013672,33.40852721832537,33.43794716448501,133.33901823686713,121.99514630313328,0.0003885269106831,0.0931989923119545,0,0,0
11230,389330.09846516507,2010-11-20 23:54:27,120.014710025024,1,35,0.0,3.3939478397369385,33.40852721832537,33.43794716448501,133.33901823686713,121.99514630313328,0.0003561496851034,0.0931989923119545,0,0,0
11231,389360.12440076174,2010-11-20 23:54:57,30.015534246253143,2,35,0.550297200679779,3.556804895401001,33.4131148355561,33.43794716448501,133.355157849142,121.99514630313328,0.0017483711708337,0.0931989923119545,0,0,0
11232,389390.13962928986,2010-11-20 23:55:27,60.03076277939935,2,35,0.5501165986061096,3.609417676925659,33.41770240884789,33.43794716448501,133.37160261722005,121.99514630313328,0.0012303352123126,0.0931989923119545,0,0,0
11233,389420.1551689997,2010-11-20 23:55:57,90.04630248427806,2,35,0.550297200679779,3.64827036857605,33.42229005278359,33.43794716448501,133.3882539814391,121.99514630313328,0.0009389400365762,0.0931989923119545,0,0,0
11234,389450.17049906135,2010-11-20 23:56:27,120.06163254585483,2,35,0.550297200679779,3.6790285110473633,33.42687762909393,33.43794716448501,133.40506309877384,121.99514630313328,0.0007770538213662,0.0931989923119545,0,0,0
11235,389480.1857455343,2010-11-20 23:56:57,150.07687903381904,2,35,0.5504778623580933,3.704282760620117,33.431465130970686,33.43794716448501,133.4219994542588,121.99514630313328,0.0006151676061563,0.0931989923119545,0,0,0
11236,389510.2011034102,2010-11-20 23:57:27,180.09223689979987,2,35,0.5501165986061096,3.725166082382202,33.436052684338144,33.43794716448501,133.43904214631274,121.99514630313328,0.0005180359003134,0.0931989923119545,0,0,0
11237,389540.216547296,2010-11-20 23:57:57,210.1076808807369,2,35,0.550297200679779,3.742649793624878,33.44064028175266,33.43794716448501,133.45617355188952,121.99514630313328,0.0004209041653666,0.0931989923119545,0,0,0
11238,389570.2318448264,2010-11-20 23:58:27,240.1229783108606,2,35,0.5501165986061096,3.7560861110687256,33.44522782253039,33.43794716448501,133.47337586188294,121.99514630313328,0.0003237724304199,0.0931989923119545,0,0,0
11239,389600.24724589015,2010-11-20 23:58:57,270.1383793897074,2,35,0.550297200679779,3.764504194259644,33.44981539129623,33.43794716448501,133.49062793850246,121.99514630313328,0.0001618862152099,0.0931989923119545,0,0,0
11240,389630.26286903326,2010-11-20 23:59:27,300.15400251782336,2,35,0.550297200679779,3.7700083255767822,33.454403009006086,33.43794716448501,133.507911078134,121.99514630313328,0.0001295089750783,0.0931989923119545,0,0,0
11241,389660.2779787398,2010-11-20 23:59:57,330.16911222436005,2,35,0.5501165986061096,3.7740554809570312,33.45899057137942,33.43794716448501,133.52521543668075,121.99514630313328,9.713172767078504e-05,0.0931989923119545,0,0,0
11242,389690.2934629312,2010-11-21 00:00:27,360.1845964357184,2,35,0.550297200679779,3.7779407501220703,33.46357818871596,33.43794716448501,133.54253836202864,121.99514630313328,9.713172767078504e-05,0.0931989923119545,0,0,0
11243,389720.3105363344,2010-11-21 00:00:57,390.2016698138815,2,35,0.550297200679779,3.7815022468566895,33.468166039472464,33.43794716448501,133.55987918408056,121.99514630313328,9.713172767078504e-05,0.0931989923119545,0,0,0
11244,389750.3240952749,2010-11-21 00:01:27,420.2152287745179,2,35,0.5501165986061096,3.7850637435913086,33.472753268031425,33.43794716448501,133.57723389820916,121.99514630313328,0.0001295089750783,0.0931989923119545,0,0,0
11245,389780.3395920076,2010-11-21 00:01:57,450.23072549209365,2,35,0.550297200679779,3.788301467895508,33.477340827376494,33.43794716448501,133.59460549744458,121.99514630313328,9.713172767078504e-05,0.0931989923119545,0,0,0
11246,389810.3548293326,2010-11-21 00:02:27,480.24596283222354,2,35,0.550297200679779,3.791539192199707,33.48192844994817,33.43794716448501,133.61199238454975,121.99514630313328,6.47544875391759e-05,0.0931989923119545,0,0,0
11247,389840.37040042086,2010-11-21 00:02:57,510.2615339054024,2,35,0.550297200679779,3.794776916503906,33.48651607147097,33.43794716448501,133.62939387605758,121.99514630313328,9.713172767078504e-05,0.0931989923119545,0,0,0
11248,389870.3727652743,2010-11-21 00:03:27,540.2638987738624,2,35,0.550297200679779,3.797852754592896,33.4911016503029,33.43794716448501,133.646801960938,121.99514630313328,6.47544875391759e-05,0.0931989923119545,0,0,0
11249,389900.3853268754,2010-11-21 00:03:57,570.2764603799484,2,35,0.5501165986061096,3.8009285926818848,33.495688780576366,33.43794716448501,133.66423001396058,121.99514630313328,9.713172767078504e-05,0.0931989923119545,0,0,0
11250,389930.40069658594,2010-11-21 00:04:27,600.291830070445,2,35,0.550297200679779,3.803842544555664,33.500276349937195,33.43794716448501,133.68167354341844,121.99514630313328,6.47544875391759e-05,0.0931989923119545,0,0,0
11251,389960.4160656098,2010-11-21 00:04:57,630.3071991093152,2,35,0.550297200679779,3.8070802688598633,33.504863994288044,33.43794716448501,133.6991311124305,121.99514630313328,0.0001295089750783,0.0931989923119545,0,0,0
11252,389990.4315090494,2010-11-21 00:05:27,660.3226425338635,2,35,0.550297200679779,3.8098323345184326,33.50945164326626,33.43794716448501,133.71660246579273,121.99514630313328,9.713172767078504e-05,0.0931989923119545,0,0,0
11253,390020.4468356322,2010-11-21 00:05:57,690.3379691167568,2,35,0.5501165986061096,3.813070058822632,33.5140392556864,33.43794716448501,133.7340875839116,121.99514630313328,0.0001295089750783,0.0931989923119545,0,0,0
11254,390050.46218273125,2010-11-21 00:06:27,720.3533162158619,2,35,0.550297200679779,3.816145896911621,33.51862680846294,33.43794716448501,133.75158697471278,121.99514630313328,9.713172767078504e-05,0.0931989923119545,0,0,0
11255,390080.47755365993,2010-11-21 00:06:57,750.3686871594865,2,35,0.550297200679779,3.8195455074310303,33.52321437898959,33.43794716448501,133.76910094612998,121.99514630313328,0.0001295089750783,0.0931989923119545,0,0,0
11256,390110.4929413102,2010-11-21 00:07:27,780.3840747947762,2,35,0.5504778623580933,3.82262134552002,33.52780195211663,33.43794716448501,133.78662989463496,121.99514630313328,6.47544875391759e-05,0.0931989923119545,0,0,0
11257,390140.5084558122,2010-11-21 00:07:57,810.3995892967447,2,35,0.5499359965324402,3.8258590698242183,33.53238952597482,33.43794716448501,133.80417416450186,121.99514630313328,6.47544875391759e-05,0.0931989923119545,0,0,0
11258,390170.52379702165,2010-11-21 00:08:27,840.414930506148,2,35,0.550297200679779,3.829582452774048,33.536977079018314,33.43794716448501,133.8217340844448,121.99514630313328,0.0001295089750783,0.0931989923119545,0,0,0
11259,390200.539253604,2010-11-21 00:08:57,870.4303870885402,2,35,0.5504778623580933,3.832982063293457,33.541564670213106,33.43794716448501,133.83931003742248,121.99514630313328,9.713172767078504e-05,0.0931989923119545,0,0,0
11260,390230.5544293103,2010-11-21 00:09:27,900.44556280986,2,35,0.550297200679779,3.836381435394287,33.54615220803608,33.43794716448501,133.85690161838463,121.99514630313328,9.713172767078504e-05,0.0931989923119545,0,0,0
11261,390260.5697800385,2010-11-21 00:09:57,930.4609135229864,2,35,0.5501165986061096,3.839781045913696,33.55073969612159,33.43794716448501,133.8745088167234,121.99514630313328,9.713172767078504e-05,0.0931989923119545,0,0,0
11262,390290.5853299288,2010-11-21 00:10:27,960.4764634132893,2,35,0.550297200679779,3.843342542648315,33.5553272436128,33.43794716448501,133.89213191567484,121.99514630313328,0.0001295089750783,0.0931989923119545,0,0,0
11263,390320.6005266426,2010-11-21 00:10:57,990.4916601270096,2,35,0.5501165986061096,3.846580266952514,33.55991472641279,33.43794716448501,133.90977017977968,121.99514630313328,9.713172767078504e-05,0.0931989923119545,0,0,0
11264,390350.6178181401,2010-11-21 00:11:27,1020.5089516296448,2,35,0.5501165986061096,3.849817991256714,33.56450261764487,33.43794716448501,133.92742529561733,121.99514630313328,9.713172767078504e-05,0.0931989923119545,0,0,0
11265,390380.6312725648,2010-11-21 00:11:57,1050.5224060693808,2,35,0.550297200679779,3.853055715560913,33.56908989854298,33.43794716448501,133.9450930125469,121.99514630313328,6.47544875391759e-05,0.0931989923119545,0,0,0
11266,390410.64683093625,2010-11-21 00:12:27,1080.5379644208042,2,35,0.550297200679779,3.8561315536499023,33.5736774593855,33.43794716448501,133.96277629454045,121.99514630313328,6.47544875391759e-05,0.0931989923119545,0,0,0
11267,390440.66215211566,2010-11-21 00:12:57,1110.5532856102348,2,35,0.550297200679779,3.859207391738892,33.578264960793746,33.43794716448501,133.9804735907624,121.99514630313328,6.47544875391759e-05,0.0931989923119545,0,0,0
11268,390470.6774054156,2010-11-21 00:13:27,1140.568538920228,2,35,0.550297200679779,3.862121343612671,33.58285249665788,33.43794716448501,133.9981846749417,121.99514630313328,6.47544875391759e-05,0.0931989923119545,0,0,0
11269,390500.6927493368,2010-11-21 00:13:58,1170.5838828363878,2,35,0.550297200679779,3.86503529548645,33.58744003755521,33.43794716448501,134.01590888646112,121.99514630313328,9.713172767078504e-05,0.0931989923119545,0,0,0
11270,390530.7081363455,2010-11-21 00:14:28,1200.5992698451134,2,35,0.5499359965324402,3.8674635887146,33.59202757116638,33.43794716448501,134.03364563423844,121.99514630313328,3.237724376958795e-05,0.0931989923119545,0,0,0
11271,390560.72350999096,2010-11-21 00:14:58,1230.6146434904822,2,35,0.550297200679779,3.870215654373169,33.59661514961582,33.43794716448501,134.05139452090134,121.99514630313328,6.47544875391759e-05,0.0931989923119545,0,0,0
11272,390590.738896353,2010-11-21 00:15:28,1260.630029857606,2,35,0.550297200679779,3.8726439476013184,33.601202752018835,33.43794716448501,134.06915484720813,121.99514630313328,6.47544875391759e-05,0.0931989923119545,0,0,0
11273,390620.7544265541,2010-11-21 00:15:58,1290.645560038712,2,35,0.5501165986061096,3.874748468399048,33.60579039774472,33.43794716448501,134.0869259752744,121.99514630313328,6.47544875391759e-05,0.0931989923119545,0,0,0
11274,390650.7696303756,2010-11-21 00:16:28,1320.6607638752116,2,35,0.550297200679779,3.8770148754119873,33.61037795053293,33.43794716448501,134.10470677403583,121.99514630313328,6.47544875391759e-05,0.0931989923119545,0,0,0
11275,390680.7851189378,2010-11-21 00:16:58,1350.6762524223927,2,35,0.550297200679779,3.878957509994507,33.61496552520406,33.43794716448501,134.12249707655886,121.99514630313328,3.237724376958795e-05,0.0931989923119545,0,0,0
11276,390710.8003315814,2010-11-21 00:17:28,1380.6914650809135,2,35,0.5501165986061096,3.880738258361816,33.61955270242613,33.43794716448501,134.14029450426793,121.99514630313328,3.237724376958795e-05,0.0931989923119545,0,0,0
11277,390740.81568673055,2010-11-21 00:17:58,1410.706820230113,2,35,0.5501165986061096,3.882357120513916,33.62413958190264,33.43794716448501,134.15809898439932,121.99514630313328,3.237724376958795e-05,0.0931989923119545,0,0,0
11278,390770.831083233,2010-11-21 00:18:28,1440.7222167325365,2,35,0.5499359965324402,3.883975982666016,33.62872661172979,33.43794716448501,134.17591189673018,121.99514630313328,0.0,0.0931989923119545,0,0,0
11279,390800.84645220166,2010-11-21 00:18:58,1470.7375857012312,2,35,0.550297200679779,3.885756731033325,33.63331352264713,33.43794716448501,134.19373152721968,121.99514630313328,6.47544875391759e-05,0.0931989923119545,0,0,0
11280,390830.8622254946,2010-11-21 00:19:28,1500.7533589941818,2,35,0.550297200679779,3.887375593185425,33.63790043035433,33.43794716448501,134.21155821303702,121.99514630313328,6.47544875391759e-05,0.0931989923119545,0,0,0
11281,390860.8773270208,2010-11-21 00:19:58,1530.7684605253112,2,35,0.5501165986061096,3.8885087966918954,33.64248722076616,33.43794716448501,134.22939120799808,121.99514630313328,-3.237724376958795e-05,0.0931989923119545,0,0,0
11282,390890.89257364906,2010-11-21 00:20:28,1560.7837071486133,2,35,0.550297200679779,3.889965772628784,33.64707435455511,33.43794716448501,134.24723221353366,121.99514630313328,0.0,0.0931989923119545,0,0,0
11283,390920.9079513896,2010-11-21 00:20:58,1590.7990848892043,2,35,0.5501165986061096,3.891260862350464,33.651661995816816,33.43794716448501,134.26508173017177,121.99514630313328,0.0,0.0931989923119545,0,0,0
11284,390950.92520234105,2010-11-21 00:21:28,1620.8163358305926,2,35,0.550297200679779,3.892879724502564,33.65624996852383,33.43794716448501,134.2829388109791,121.99514630313328,3.237724376958795e-05,0.0931989923119545,0,0,0
11285,390980.93868108647,2010-11-21 00:21:58,1650.8298145860242,2,35,0.550297200679779,3.894336700439453,33.6608374153911,33.43794716448501,134.30080014615862,121.99514630313328,6.47544875391759e-05,0.0931989923119545,0,0,0
11286,391010.95421193424,2010-11-21 00:22:28,1680.8453453987067,2,35,0.550297200679779,3.895308017730713,33.66542515820549,33.43794716448501,134.31866844484802,121.99514630313328,6.47544875391759e-05,0.0931989923119545,0,0,0
11287,391040.9695292389,2010-11-21 00:22:58,1710.8606627385282,2,35,0.5504778623580933,3.896926879882813,33.67001280359226,33.43794716448501,134.33654247205925,121.99514630313328,3.237724376958795e-05,0.0931989923119545,0,0,0
11288,391070.9848496765,2010-11-21 00:23:28,1740.875983176082,2,35,0.550297200679779,3.898060083389282,33.67460048277366,33.43794716448501,134.35442277579986,121.99514630313328,3.237724376958795e-05,0.0931989923119545,0,0,0
11289,391101.00033246935,2010-11-21 00:23:58,1770.8914659538618,2,35,0.550297200679779,3.899517059326172,33.679188208369204,33.43794716448501,134.37230944613933,121.99514630313328,3.237724376958795e-05,0.0931989923119545,0,0,0
11290,391131.01557961886,2010-11-21 00:24:28,1800.90671310849,2,35,0.550297200679779,3.900812149047852,33.68377584656548,33.43794716448501,134.39020182717917,121.99514630313328,3.237724376958795e-05,0.0931989923119545,0,0,0
11291,391161.0309532994,2010-11-21 00:24:58,1830.9220867989711,2,35,0.550297200679779,3.902269124984741,33.68836351589232,33.43794716448501,134.4081004816937,121.99514630313328,3.237724376958795e-05,0.0931989923119545,0,0,0
11292,391191.046339842,2010-11-21 00:25:28,1860.937473326496,2,35,0.5504778623580933,3.903564214706421,33.692951131879866,33.43794716448501,134.42600508528938,121.99514630313328,3.237724376958795e-05,0.0931989923119545,0,0,0
11293,391221.0617087956,2010-11-21 00:25:58,1890.9528422951907,2,35,0.550297200679779,3.9048593044281006,33.69753877603297,33.43794716448501,134.443916028388,121.99514630313328,3.237724376958795e-05,0.0931989923119545,0,0,0
11294,391251.0771091327,2010-11-21 00:26:28,1920.9682426321856,2,35,0.550297200679779,3.90615439414978,33.702126422071906,33.43794716448501,134.46183309810252,121.99514630313328,6.47544875391759e-05,0.0931989923119545,0,0,0
11295,391281.09246662766,2010-11-21 00:26:58,1950.9836001322533,2,35,0.5501165986061096,3.90744948387146,33.70671400484916,33.43794716448501,134.4797562246808,121.99514630313328,6.47544875391759e-05,0.0931989923119545,0,0,0
11296,391311.1078393357,2010-11-21 00:27:28,1980.998972840282,2,35,0.550297200679779,3.9089064598083496,33.71130169701194,33.43794716448501,134.49768611233125,121.99514630313328,3.237724376958795e-05,0.0931989923119545,0,0,0
11297,391341.1231915275,2010-11-21 00:27:58,2011.0143250120493,2,35,0.5504778623580933,3.9103634357452393,33.71588929240112,33.43794716448501,134.5156219892853,121.99514630313328,3.237724376958795e-05,0.0931989923119545,0,0,0
11298,391371.1386907263,2010-11-21 00:28:28,2041.029824225856,2,35,0.5501165986061096,3.911658525466919,33.720476982807185,33.43794716448501,134.53356458842177,121.99514630313328,0.0,0.0931989923119545,0,0,0
11299,391401.154053645,2010-11-21 00:28:58,2071.0451871294117,2,35,0.550297200679779,3.9132773876190186,33.72506466295346,33.43794716448501,134.55151357728533,121.99514630313328,6.47544875391759e-05,0.0931989923119545,0,0,0
11300,391431.16932587215,2010-11-21 00:29:28,2101.060459371662,2,35,0.550297200679779,3.914734125137329,33.72965230435736,33.43794716448501,134.56946886907068,121.99514630313328,6.47544875391759e-05,0.0931989923119545,0,0,0
11301,391461.1847236928,2010-11-21 00:29:58,2131.075857192376,2,35,0.550297200679779,3.916029214859009,33.73423996716227,33.43794716448501,134.587430657961,121.99514630313328,9.713172767078504e-05,0.0931989923119545,0,0,0
11302,391491.2000493033,2010-11-21 00:30:28,2161.0911828028425,2,35,0.5501165986061096,3.9174861907958975,33.738827487619616,33.43794716448501,134.6053983719912,121.99514630313328,3.237724376958795e-05,0.0931989923119545,0,0,0
11303,391521.21542240726,2010-11-21 00:30:58,2191.106555896835,2,35,0.550297200679779,3.918781280517578,33.74341511459636,33.43794716448501,134.62337312245018,121.99514630313328,3.237724376958795e-05,0.0931989923119545,0,0,0
11304,391551.2326851782,2010-11-21 00:31:28,2221.123818662739,2,35,0.5499359965324402,3.920238256454468,33.748002996562604,33.43794716448501,134.64135551411565,121.99514630313328,3.237724376958795e-05,0.0931989923119545,0,0,0
11305,391581.24640283495,2010-11-21 00:31:58,2251.137536319505,2,35,0.550297200679779,3.921857118606568,33.752590405156745,33.43794716448501,134.65934265154917,121.99514630313328,9.713172767078504e-05,0.0931989923119545,0,0,0
11306,391611.261567253,2010-11-21 00:32:28,2281.152700752648,2,35,0.550297200679779,3.922990322113037,33.757177923460745,33.43794716448501,134.67733690183368,121.99514630313328,3.237724376958795e-05,0.0931989923119545,0,0,0
11307,391641.2769068635,2010-11-21 00:32:58,2311.1680403480227,2,35,0.5501165986061096,3.9246091842651367,33.761765564606605,33.43794716448501,134.6953384139566,121.99514630313328,3.237724376958795e-05,0.0931989923119545,0,0,0
11308,391671.2923396064,2010-11-21 00:33:28,2341.183473110957,2,35,0.550297200679779,3.9260661602020255,33.76635326900161,33.43794716448501,134.71334697518256,121.99514630313328,3.237724376958795e-05,0.0931989923119545,0,0,0
11309,391701.30766035966,2010-11-21 00:33:58,2371.198793859287,2,35,0.550297200679779,3.927685022354126,33.77094088289672,33.43794716448501,134.73136192088614,121.99514630313328,9.713172767078504e-05,0.0931989923119545,0,0,0
11310,391731.32302872685,2010-11-21 00:34:28,2401.214162231493,2,35,0.550297200679779,3.929141998291016,33.77552856083905,33.43794716448501,134.749384093541,121.99514630313328,6.47544875391759e-05,0.0931989923119545,0,0,0
11311,391761.33839623694,2010-11-21 00:34:58,2431.229529736535,2,35,0.550297200679779,3.9307608604431152,33.78011617423156,33.43794716448501,134.7674129035682,121.99514630313328,6.47544875391759e-05,0.0931989923119545,0,0,0
11312,391791.3566733248,2010-11-21 00:35:28,2461.247806909555,2,35,0.5501165986061096,3.932055950164795,33.784704306763146,33.43794716448501,134.78545070433046,121.99514630313328,0.0,0.0931989923119545,0,0,0
11313,391821.3691914824,2010-11-21 00:35:58,2491.260324946887,2,35,0.550297200679779,3.9336748123168954,33.789291453432526,33.43794716448501,134.80349164251822,121.99514630313328,3.237724376958795e-05,0.0931989923119545,0,0,0
11314,391851.3845142006,2010-11-21 00:36:28,2521.275647700221,2,35,0.550297200679779,3.935293674468994,33.79387917050541,33.43794716448501,134.82154190235488,121.99514630313328,6.47544875391759e-05,0.0931989923119545,0,0,0
11315,391881.40007640165,2010-11-21 00:36:58,2551.2912098912284,2,35,0.550297200679779,3.936750650405884,33.79846693658063,33.43794716448501,134.83959942423542,121.99514630313328,3.237724376958795e-05,0.0931989923119545,0,0,0
11316,391911.4153946438,2010-11-21 00:37:28,2581.306528143328,2,35,0.5501165986061096,3.938369512557984,33.80305460830549,33.43794716448501,134.85766377774672,121.99514630313328,6.47544875391759e-05,0.0931989923119545,0,0,0
11317,391941.4306214576,2010-11-21 00:37:58,2611.3217549421443,2,35,0.550297200679779,3.939988374710083,33.807642218837046,33.43794716448501,134.87573511923313,121.99514630313328,6.47544875391759e-05,0.0931989923119545,0,0,0
11318,391971.4459970929,2010-11-21 00:38:28,2641.33713057748,2,35,0.550297200679779,3.941607236862183,33.81222987640826,33.43794716448501,134.89381395766128,121.99514630313328,6.47544875391759e-05,0.0931989923119545,0,0,0
11319,392001.4613671695,2010-11-21 00:38:58,2671.3525006689774,2,35,0.5501165986061096,3.943064212799072,33.816817491244755,33.43794716448501,134.9118999040716,121.99514630313328,3.237724376958795e-05,0.0931989923119545,0,0,0
11320,392031.4768850798,2010-11-21 00:39:28,2701.3680185644166,2,35,0.550297200679779,3.944844961166382,33.821405205107425,33.43794716448501,134.92999371725105,121.99514630313328,3.237724376958795e-05,0.0931989923119545,0,0,0
11321,392061.4921094276,2010-11-21 00:39:58,2731.383242927153,2,35,0.5501165986061096,3.9464638233184814,33.82599280695135,33.43794716448501,134.94809458048755,121.99514630313328,6.47544875391759e-05,0.0931989923119545,0,0,0
11322,392091.5076430222,2010-11-21 00:40:28,2761.3987765217794,2,35,0.550297200679779,3.947920799255371,33.830580542018545,33.43794716448501,134.96620331501603,121.99514630313328,3.237724376958795e-05,0.0931989923119545,0,0,0
11323,392121.5228644727,2010-11-21 00:40:58,2791.4139979722463,2,35,0.5501165986061096,3.9497015476226807,33.83516818012302,33.43794716448501,134.98431924749102,121.99514630313328,0.0,0.0931989923119545,0,0,0
11324,392151.5401228827,2010-11-21 00:41:28,2821.43125636724,2,35,0.550297200679779,3.95132040977478,33.83975616519142,33.43794716448501,135.00244415982883,121.99514630313328,3.237724376958795e-05,0.0931989923119545,0,0,0
11325,392181.5536077735,2010-11-21 00:41:58,2851.4447412579866,2,35,0.5501165986061096,3.95277738571167,33.84434364117569,33.43794716448501,135.02057469519195,121.99514630313328,-3.237724376958795e-05,0.0931989923119545,0,0,0
11326,392211.5689839652,2010-11-21 00:42:28,2881.460117449711,2,35,0.5501165986061096,3.9547200202941895,33.84893132054952,33.43794716448501,135.03871375763205,121.99514630313328,3.237724376958795e-05,0.0931989923119545,0,0,0
11327,392241.58437287866,2010-11-21 00:42:58,2911.475506363191,2,35,0.5501165986061096,3.956338882446289,33.853519051786925,33.43794716448501,135.05686085897418,121.99514630313328,3.237724376958795e-05,0.0931989923119545,0,0,0
11328,392271.5997489501,2010-11-21 00:43:28,2941.490882434616,2,35,0.550297200679779,3.958119630813599,33.85810678233541,33.43794716448501,135.0750157446992,121.99514630313328,6.47544875391759e-05,0.0931989923119545,0,0,0
11329,392301.6152754019,2010-11-21 00:43:58,2971.506408886413,2,35,0.550297200679779,3.959900379180908,33.86269454137126,33.43794716448501,135.093178662456,121.99514630313328,6.47544875391759e-05,0.0931989923119545,0,0,0
11330,392331.63059205,2010-11-21 00:44:28,3001.5217255495445,2,35,0.550297200679779,3.9616811275482178,33.86728216199272,33.43794716448501,135.111348973946,121.99514630313328,6.47544875391759e-05,0.0931989923119545,0,0,0
11331,392361.6459597304,2010-11-21 00:44:58,3031.537093235037,2,35,0.550297200679779,3.963299989700317,33.871869887970185,33.43794716448501,135.12952772711176,121.99514630313328,3.237724376958795e-05,0.0931989923119545,0,0,0
11332,392391.6612135217,2010-11-21 00:45:28,3061.5523470212183,2,35,0.5501165986061096,3.965242624282837,33.87645755562001,33.43794716448501,135.14771439806816,121.99514630313328,6.47544875391759e-05,0.0931989923119545,0,0,0
11333,392421.6767063896,2010-11-21 00:45:59,3091.5678398941973,2,35,0.550297200679779,3.966861486434937,33.88104528752744,33.43794716448501,135.16590955430672,121.99514630313328,3.237724376958795e-05,0.0931989923119545,0,0,0
11334,392451.69194861193,2010-11-21 00:46:29,3121.5830821115014,2,35,0.5504778623580933,3.968804121017456,33.88563301968264,33.43794716448501,135.1841129313894,121.99514630313328,3.237724376958795e-05,0.0931989923119545,0,0,0
11335,392481.70731806685,2010-11-21 00:46:59,3151.598451556385,2,35,0.5499359965324402,3.9705848693847656,33.89022072677183,33.43794716448501,135.20232457327404,121.99514630313328,0.0,0.0931989923119545,0,0,0
11336,392511.7228925786,2010-11-21 00:47:29,3181.6140260631346,2,35,0.5501165986061096,3.972365617752075,33.89480838298405,33.43794716448501,135.2205444485236,121.99514630313328,6.47544875391759e-05,0.0931989923119545,0,0,0
11337,392541.7380774127,2010-11-21 00:47:59,3211.6292109172514,2,35,0.550297200679779,3.9744701385498047,33.899395996139745,33.43794716448501,135.23877267099516,121.99514630313328,9.713172767078504e-05,0.0931989923119545,0,0,0
11338,392571.75345206045,2010-11-21 00:48:29,3241.6445855450725,2,35,0.550297200679779,3.976250886917114,33.90398371824247,33.43794716448501,135.25701001190106,121.99514630313328,6.47544875391759e-05,0.0931989923119545,0,0,0
11339,392601.7688510842,2010-11-21 00:48:59,3271.659984583827,2,35,0.550297200679779,3.977869749069214,33.908571403390674,33.43794716448501,135.27525583562308,121.99514630313328,3.237724376958795e-05,0.0931989923119545,0,0,0
11340,392631.7843294912,2010-11-21 00:49:29,3301.6754629756583,2,35,0.550297200679779,3.980136156082153,33.91315905018254,33.43794716448501,135.29351034682915,121.99514630313328,6.47544875391759e-05,0.0931989923119545,0,0,0
11341,392661.7995583902,2010-11-21 00:49:59,3331.6906918897557,2,35,0.550297200679779,3.982078790664673,33.917746600834114,33.43794716448501,135.3117737006819,121.99514630313328,3.237724376958795e-05,0.0931989923119545,0,0,0
11342,392691.8149560104,2010-11-21 00:50:29,3361.706089509969,2,35,0.550297200679779,3.9841833114624015,33.922334224760704,33.43794716448501,135.3300464581964,121.99514630313328,6.47544875391759e-05,0.0931989923119545,0,0,0
11343,392721.830351791,2010-11-21 00:50:59,3391.721485290591,2,35,0.5501165986061096,3.985964059829712,33.92692177307533,33.43794716448501,135.34832804276823,121.99514630313328,3.237724376958795e-05,0.0931989923119545,0,0,0
11344,392751.847761995,2010-11-21 00:51:29,3421.7388955797355,2,35,0.550297200679779,3.987906694412232,33.93150964785985,33.43794716448501,135.36662026838258,121.99514630313328,0.0,0.0931989923119545,0,0,0
11345,392781.86104504194,2010-11-21 00:51:59,3451.7521785414365,2,35,0.5501165986061096,3.990173101425171,33.936096895608976,33.43794716448501,135.38491931044385,121.99514630313328,6.47544875391759e-05,0.0931989923119545,0,0,0
11346,392811.8764254792,2010-11-21 00:52:29,3481.767558978758,2,35,0.550297200679779,3.992277622222901,33.94068445392495,33.43794716448501,135.40322922050217,121.99514630313328,6.47544875391759e-05,0.0931989923119545,0,0,0
11347,392841.89178834273,2010-11-21 00:52:59,3511.782921842214,2,35,0.550297200679779,3.9945437908172607,33.945272011261814,33.43794716448501,135.42154878518292,121.99514630313328,9.713172767078504e-05,0.0931989923119545,0,0,0
11348,392871.9071784792,2010-11-21 00:53:29,3541.7983119787477,2,35,0.550297200679779,3.9966483116149902,33.949859618549546,33.43794716448501,135.4398783517658,121.99514630313328,9.713172767078504e-05,0.0931989923119545,0,0,0
11349,392901.9226505753,2010-11-21 00:53:59,3571.8137840598265,2,35,0.550297200679779,3.99875283241272,33.95444723253635,33.43794716448501,135.45821784314992,121.99514630313328,9.713172767078504e-05,0.0931989923119545,0,0,0
11350,392931.9379660605,2010-11-21 00:54:29,3601.829099560056,2,35,0.550297200679779,4.000857353210449,33.95903480728567,33.43794716448501,135.4765671000269,121.99514630313328,6.47544875391759e-05,0.0931989923119545,0,0,0
11351,392961.9532635608,2010-11-21 00:54:59,3631.8443970603553,2,35,0.550297200679779,4.002962112426758,33.96362235884101,33.43794716448501,135.49492628045164,121.99514630313328,6.47544875391759e-05,0.0931989923119545,0,0,0
11352,392991.968817441,2010-11-21 00:55:29,3661.859950925579,2,35,0.5501165986061096,4.005228519439697,33.96820994558166,33.43794716448501,135.5132956701208,121.99514630313328,6.47544875391759e-05,0.0931989923119545,0,0,0
11353,393021.98400622,2010-11-21 00:55:59,3691.8751397245433,2,35,0.550297200679779,4.007494926452637,33.97279753748793,33.43794716448501,135.53167536154962,121.99514630313328,6.47544875391759e-05,0.0931989923119545,0,0,0
11354,393051.9994055295,2010-11-21 00:56:29,3721.8905390289606,2,35,0.550297200679779,4.009922981262207,33.977385162208634,33.43794716448501,135.5500654230601,121.99514630313328,9.70840483205393e-05,0.0931989923119545,0,0,0
11355,393082.0147586786,2010-11-21 00:56:59,3751.905892178167,2,35,0.5501165986061096,4.012027740478516,33.98197278893429,33.43794716448501,135.56846588950668,121.99514630313328,6.47544875391759e-05,0.0931989923119545,0,0,0
11356,393112.03015577246,2010-11-21 00:57:29,3781.9212892570295,2,35,0.5501165986061096,4.014294147491455,33.98656036775265,33.43794716448501,135.58687670062326,121.99514630313328,6.47544875391759e-05,0.0931989923119545,0,0,0
11357,393142.0455273527,2010-11-21 00:57:59,3811.9366608522814,2,35,0.550297200679779,4.0165605545043945,33.99114793309371,33.43794716448501,135.6052980825223,121.99514630313328,6.47544875391759e-05,0.0931989923119545,0,0,0
11358,393172.0608627527,2010-11-21 00:58:29,3841.951996242158,2,35,0.550297200679779,4.018988609313965,33.99573559629947,33.43794716448501,135.62373054054984,121.99514630313328,6.47544875391759e-05,0.0931989923119545,0,0,0
11359,393202.0763684426,2010-11-21 00:58:59,3871.967501947168,2,35,0.550297200679779,4.021417140960693,34.000323184625444,33.43794716448501,135.64217337060654,121.99514630313328,9.71794142969884e-05,0.0931989923119545,0,0,0
11360,393232.0916245194,2010-11-21 00:59:29,3901.982758019056,2,35,0.5504778623580933,4.023845195770264,34.00491076359597,33.43794716448501,135.6606271877986,121.99514630313328,9.70840483205393e-05,0.0931989923119545,0,0,0
11361,393262.1069807414,2010-11-21 00:59:59,3931.9981142258944,2,35,0.550297200679779,4.026111602783203,34.00949838354444,33.43794716448501,135.67909216086198,121.99514630313328,6.47544875391759e-05,0.0931989923119545,0,0,0
11362,393292.1225948068,2010-11-21 01:00:29,3962.0137282913897,2,35,0.5501165986061096,4.028540134429932,34.01408604065409,33.43794716448501,135.6975684079861,121.99514630313328,6.47544875391759e-05,0.0931989923119545,0,0,0
11363,393322.1377510596,2010-11-21 01:00:59,3992.028884544112,2,35,0.550297200679779,4.031130313873291,34.01867355877537,33.43794716448501,135.7160551756475,121.99514630313328,6.47544875391759e-05,0.0931989923119545,0,0,0
11364,393352.15505214606,2010-11-21 01:01:29,4022.0461856356833,2,35,0.5501165986061096,4.033396720886231,34.023261491577145,33.43794716448501,135.73455488725412,121.99514630313328,6.47544875391759e-05,0.0931989923119545,0,0,0
11365,393382.16847417,2010-11-21 01:01:59,4052.0596076695297,2,35,0.5501165986061096,4.035986423492432,34.027848773821844,33.43794716448501,135.75306333151246,121.99514630313328,6.47544875391759e-05,0.0931989923119545,0,0,0
11366,393412.18386340427,2010-11-21 01:02:29,4082.0749969038097,2,35,0.5501165986061096,4.03841495513916,34.03243637807555,33.43794716448501,135.77158460621263,121.99514630313328,3.24249267578125e-05,0.0931989923119545,0,0,0
11367,393442.1992298968,2010-11-21 01:02:59,4112.090363401337,2,35,0.550297200679779,4.04116678237915,34.03702400080464,33.43794716448501,135.79011759451438,121.99514630313328,6.47544875391759e-05,0.0931989923119545,0,0,0
11368,393472.2145824194,2010-11-21 01:03:29,4142.105715918967,2,35,0.5501165986061096,4.043595314025879,34.0416115101298,33.43794716448501,135.80866184861875,121.99514630313328,6.47544875391759e-05,0.0931989923119545,0,0,0
11369,393502.2301574224,2010-11-21 01:03:59,4172.121290906918,2,35,0.550297200679779,4.046185493469238,34.04619916805946,33.43794716448501,135.8272186127636,121.99514630313328,6.47544875391759e-05,0.0931989923119545,0,0,0
11370,393532.245344472,2010-11-21 01:04:29,4202.136477951503,2,35,0.550297200679779,4.0489373207092285,34.05078673586641,33.43794716448501,135.8457870098662,121.99514630313328,6.47544875391759e-05,0.0931989923119545,0,0,0
11371,393562.2607845983,2010-11-21 01:04:59,4232.151918097868,2,35,0.550297200679779,4.051527500152588,34.05537437918546,33.43794716448501,135.86436779184152,121.99514630313328,9.70840483205393e-05,0.0931989923119545,0,0,0
11372,393592.2761184895,2010-11-21 01:05:29,4262.167251989004,2,35,0.5501165986061096,4.053956031799316,34.05996193739523,33.43794716448501,135.88296033586187,121.99514630313328,0.0,0.0931989923119545,0,0,0
11373,393622.291474571,2010-11-21 01:05:59,4292.18260807053,2,35,0.550297200679779,4.056869983673096,34.064549581795994,33.43794716448501,135.90156556549604,121.99514630313328,6.47544875391759e-05,0.0931989923119545,0,0,0
11374,393652.3068234796,2010-11-21 01:06:29,4322.197956979152,2,35,0.5504778623580933,4.059783935546875,34.06913726254336,33.43794716448501,135.92018333003915,121.99514630313328,0.0001619339018361,0.0931989923119545,0,0,0
11375,393682.3221991852,2010-11-21 01:06:59,4352.213332684663,2,35,0.550297200679779,4.062050342559815,34.073724987215115,33.43794716448501,135.93881341203533,121.99514630313328,3.24249267578125e-05,0.0931989923119545,0,0,0
11376,393712.337790524,2010-11-21 01:07:29,4382.228924023428,2,35,0.550297200679779,4.064964294433594,34.07831260828596,33.43794716448501,135.95745560467736,121.99514630313328,6.47544875391759e-05,0.0931989923119545,0,0,0
11377,393742.3402192918,2010-11-21 01:07:59,4412.231352876604,2,35,0.550297200679779,4.067716121673584,34.082898305735384,33.43794716448501,135.9761027252941,121.99514630313328,6.47544875391759e-05,0.0931989923119545,0,0,0
11378,393772.3527431988,2010-11-21 01:08:29,4442.243876783587,2,35,0.5501165986061096,4.070468425750732,34.08748554384089,33.43794716448501,135.99476897230792,121.99514630313328,6.47544875391759e-05,0.0931989923119545,0,0,0
11379,393802.3680731852,2010-11-21 01:08:59,4472.259206684764,2,35,0.550297200679779,4.073382377624512,34.092073155203614,33.43794716448501,136.01344960237756,121.99514630313328,6.47544875391759e-05,0.0931989923119545,0,0,0
11380,393832.38342983805,2010-11-21 01:09:29,4502.274563337716,2,35,0.550297200679779,4.076296329498291,34.09666078677035,33.43794716448501,136.03214338352674,121.99514630313328,6.47544875391759e-05,0.0931989923119545,0,0,0
11381,393862.3988182754,2010-11-21 01:09:59,4532.289951775008,2,35,0.550297200679779,4.079048156738281,34.101248374725,33.43794716448501,136.05085005615285,121.99514630313328,6.47544875391759e-05,0.0931989923119545,0,0,0
11382,393892.4141881163,2010-11-21 01:10:29,4562.305321600842,2,35,0.550297200679779,4.0819621086120605,34.10583601292391,33.43794716448501,136.06957011684102,121.99514630313328,9.70840483205393e-05,0.0931989923119545,0,0,0
11383,393922.42969999166,2010-11-21 01:10:59,4592.320833476254,2,35,0.550297200679779,4.085038185119629,34.11042368119846,33.43794716448501,136.08830358044528,121.99514630313328,9.71794142969884e-05,0.0931989923119545,0,0,0
11384,393952.444974254,2010-11-21 01:11:29,4622.336107758598,2,35,0.5501165986061096,4.087790012359619,34.11501130562282,33.43794716448501,136.10705036560063,121.99514630313328,6.47544875391759e-05,0.0931989923119545,0,0,0
11385,393982.46218303015,2010-11-21 01:11:59,4652.353316599897,2,35,0.5501165986061096,4.090866088867188,34.11959921028432,33.43794716448501,136.125811955298,121.99514630313328,9.71794142969884e-05,0.0931989923119545,0,0,0
11386,394012.4756507731,2010-11-21 01:12:29,4682.366784272665,2,35,0.5501165986061096,4.093780040740967,34.124186510076534,33.43794716448501,136.14458473117045,121.99514630313328,6.47544875391759e-05,0.0931989923119545,0,0,0
11387,394042.4911466386,2010-11-21 01:12:59,4712.382280138114,2,35,0.550297200679779,4.096855640411377,34.12877409165356,33.43794716448501,136.16337247162014,121.99514630313328,6.47544875391759e-05,0.0931989923119545,0,0,0
11388,394072.5063734224,2010-11-21 01:13:29,4742.397506921894,2,35,0.550297200679779,4.100093364715576,34.13336167155136,33.43794716448501,136.18217404576416,121.99514630313328,0.0001295089750783,0.0931989923119545,0,0,0
11389,394102.5217510627,2010-11-21 01:13:59,4772.4128845622345,2,35,0.5501165986061096,4.102845668792725,34.13794932777317,33.43794716448501,136.20098997659616,121.99514630313328,6.47544875391759e-05,0.0931989923119545,0,0,0
11390,394132.5371804422,2010-11-21 01:14:29,4802.428313926686,2,35,0.550297200679779,4.106083393096924,34.142536863567244,33.43794716448501,136.21981962925415,121.99514630313328,6.47544875391759e-05,0.0931989923119545,0,0,0
11391,394162.5524958572,2010-11-21 01:14:59,4832.443629346715,2,35,0.550297200679779,4.109321117401123,34.14712434869608,33.43794716448501,136.23866338994628,121.99514630313328,0.0001295089750783,0.0931989923119545,0,0,0
11392,394192.56785881583,2010-11-21 01:15:29,4862.458992300396,2,35,0.550297200679779,4.112235069274902,34.151711857628065,33.43794716448501,136.25752176477275,121.99514630313328,6.47544875391759e-05,0.0931989923119545,0,0,0
11393,394222.5832618396,2010-11-21 01:15:59,4892.47439532911,2,35,0.550297200679779,4.115634441375732,34.15629945276705,33.43794716448501,136.27639495882863,121.99514630313328,9.71794142969884e-05,0.0931989923119545,0,0,0
11394,394252.5987241212,2010-11-21 01:16:29,4922.489857605716,2,35,0.5501165986061096,4.118710041046143,34.16088706586522,33.43794716448501,136.29528285095623,121.99514630313328,6.47544875391759e-05,0.0931989923119545,0,0,0
11395,394282.61410128034,2010-11-21 01:16:59,4952.505234769868,2,35,0.550297200679779,4.121947765350342,34.165474715986875,33.43794716448501,136.3141856445281,121.99514630313328,6.47544875391759e-05,0.0931989923119545,0,0,0
11396,394312.62934080086,2010-11-21 01:17:29,4982.520474285428,2,35,0.550297200679779,4.12534761428833,34.170062345000844,33.43794716448501,136.333103182041,121.99514630313328,9.71794142969884e-05,0.0931989923119545,0,0,0
11397,394342.644766812,2010-11-21 01:17:59,5012.53590029651,2,35,0.550297200679779,4.128585338592529,34.174649977937484,33.43794716448501,136.35203569708892,121.99514630313328,9.71794142969884e-05,0.0931989923119545,0,0,0
11398,394372.660087029,2010-11-21 01:18:30,5042.551220513513,2,35,0.5501165986061096,4.13166093826294,34.17923755752515,33.43794716448501,136.37098313989097,121.99514630313328,6.47544875391759e-05,0.0931989923119545,0,0,0
11399,394402.6754483335,2010-11-21 01:19:00,5072.566581838127,2,35,0.5501165986061096,4.135222434997559,34.18382518590342,33.43794716448501,136.38994589208485,121.99514630313328,9.70840483205393e-05,0.0931989923119545,0,0,0
11400,394432.69082173327,2010-11-21 01:19:30,5102.581955217832,2,35,0.5501165986061096,4.138298511505127,34.18841286619558,33.43794716448501,136.40892418966803,121.99514630313328,0.0,0.0931989923119545,0,0,0
11401,394462.7062040604,2010-11-21 01:20:00,5132.59733755991,2,35,0.5501165986061096,4.141697883605957,34.19300054236157,33.43794716448501,136.4279178816806,121.99514630313328,6.47544875391759e-05,0.0931989923119545,0,0,0
11402,394492.7216887529,2010-11-21 01:20:30,5162.6128222524685,2,35,0.5501165986061096,4.145259380340576,34.19758820559232,33.43794716448501,136.4469270305366,121.99514630313328,9.70840483205393e-05,0.0931989923119545,0,0,0
11403,394522.736934454,2010-11-21 01:21:00,5192.628067953468,2,35,0.5501165986061096,4.1486592292785645,34.202175760209826,33.43794716448501,136.4659516911873,121.99514630313328,6.47544875391759e-05,0.0931989923119545,0,0,0
11404,394552.7524142392,2010-11-21 01:21:30,5222.643547728753,2,35,0.5501165986061096,4.152220726013184,34.20676337379464,33.43794716448501,136.48499229101589,121.99514630313328,9.71794142969884e-05,0.0931989923119545,0,0,0
11405,394582.7697273458,2010-11-21 01:22:00,5252.660860830303,2,35,0.550297200679779,4.155620098114014,34.211351253784514,33.43794716448501,136.50404980350825,121.99514630313328,6.47544875391759e-05,0.0931989923119545,0,0,0
11406,394612.7830521469,2010-11-21 01:22:30,5282.674185646479,2,35,0.550297200679779,4.159181594848633,34.215938500383004,33.43794716448501,136.52312068197557,121.99514630313328,9.70840483205393e-05,0.0931989923119545,0,0,0
11407,394642.7984101983,2010-11-21 01:23:00,5312.689543682885,2,35,0.550297200679779,4.162743091583252,34.220526111281934,33.43794716448501,136.542209172519,121.99514630313328,9.70840483205393e-05,0.0931989923119545,0,0,0
11408,394672.81378727726,2010-11-21 01:23:30,5342.704920776862,2,35,0.5501165986061096,4.16614294052124,34.22511365718053,33.43794716448501,136.56131349380732,121.99514630313328,9.71794142969884e-05,0.0931989923119545,0,0,0
11409,394702.8294245658,2010-11-21 01:24:00,5372.720558065325,2,35,0.550297200679779,4.169704437255859,34.22970123674246,33.43794716448501,136.58043426273247,121.99514630313328,9.71794142969884e-05,0.0931989923119545,0,0,0
11410,394732.844530122,2010-11-21 01:24:30,5402.735663621501,2,35,0.550297200679779,4.173265933990479,34.23428871903028,33.43794716448501,136.59957100593712,121.99514630313328,6.47544875391759e-05,0.0931989923119545,0,0,0
11411,394762.8599459877,2010-11-21 01:25:00,5432.751079487259,2,35,0.550297200679779,4.1769890785217285,34.23887630722042,33.43794716448501,136.61872468649665,121.99514630313328,9.70840483205393e-05,0.0931989923119545,0,0,0
11412,394792.875267934,2010-11-21 01:25:30,5462.766401433579,2,35,0.5501165986061096,4.180388927459717,34.2434638839768,33.43794716448501,136.63789483628395,121.99514630313328,6.47544875391759e-05,0.0931989923119545,0,0,0
11413,394822.890660256,2010-11-21 01:26:00,5492.781793755567,2,35,0.550297200679779,4.184112071990967,34.2480515458357,33.43794716448501,136.65708204909075,121.99514630313328,6.47544875391759e-05,0.0931989923119545,0,0,0
11414,394852.9061325426,2010-11-21 01:26:30,5522.797266047171,2,35,0.550297200679779,4.187835693359375,34.252639140892825,33.43794716448501,136.676285765418,121.99514630313328,6.47544875391759e-05,0.0931989923119545,0,0,0
11415,394882.9213900431,2010-11-21 01:27:00,5552.812523547625,2,35,0.5501165986061096,4.191558837890625,34.2572267001277,33.43794716448501,136.69550632229814,121.99514630313328,9.70840483205393e-05,0.0931989923119545,0,0,0
11416,394912.9367559741,2010-11-21 01:27:30,5582.827889473725,2,35,0.5501165986061096,4.195281982421875,34.26181429810682,33.43794716448501,136.71474410150722,121.99514630313328,9.70840483205393e-05,0.0931989923119545,0,0,0
11417,394942.95213328366,2010-11-21 01:28:00,5612.843266783239,2,35,0.550297200679779,4.199005603790283,34.26640188021036,33.43794716448501,136.7339988668463,121.99514630313328,6.47544875391759e-05,0.0931989923119545,0,0,0
11418,394950.2179539699,2010-11-21 01:28:07,5620.109087454454,2,35,0.550297200679779,4.200138568878174,34.26751239853111,33.43794716448501,136.73866246294202,121.99514630313328,0.0001295089750783,0.0931989923119545,0,0,0
11419,394980.2153412522,2010-11-21 01:28:37,30.00221278884601,3,35,0.0,4.117738723754883,34.26751239853111,33.43794716448501,136.73866246294202,121.99514630313328,-0.0003237724304199,0.0931989923119545,0,0,0
11420,395010.22812062193,2010-11-21 01:29:07,60.01499214346581,3,35,0.0,4.107540130615234,34.26751239853111,33.43794716448501,136.73866246294202,121.99514630313328,-0.0002266883820993,0.0931989923119545,0,0,0
11421,395040.2433184484,2010-11-21 01:29:37,90.0301898997883,3,35,0.0,4.101874351501465,34.26751239853111,33.43794716448501,136.73866246294202,121.99514630313328,-9.70840483205393e-05,0.0931989923119545,0,0,0
11422,395070.2274804646,2010-11-21 01:30:07,120.01435200134182,3,35,0.0,4.098150730133057,34.26751239853111,33.43794716448501,136.73866246294202,121.99514630313328,-6.47544875391759e-05,0.0931989923119545,0,0,0
11423,395070.23965981306,2010-11-21 01:30:07,0.015763663529348,4,35,0.9819533824920654,4.199653148651123,34.267516698304284,33.43794716448501,136.73868052049795,121.99514630313328,0.0,0.0931989923119545,0,0,0
11424,395071.2238857775,2010-11-21 01:30:08,0.999989617930912,4,35,0.9310215711593628,4.199491024017334,34.26777665421207,33.43794716448501,136.739772252751,121.99514630313328,-3.24249267578125e-05,0.0931989923119545,0,0,0
11425,395073.39574613504,2010-11-21 01:30:11,3.171849985540831,4,35,0.8808122277259827,4.199814796447754,34.26832202312535,33.43794716448501,136.74206263786903,121.99514630313328,3.23295607813634e-05,0.0931989923119545,0,0,0
11426,395076.6614026511,2010-11-21 01:30:14,6.437506501613643,4,35,0.8307834267616272,4.199653148651123,34.269097030161134,33.43794716448501,136.7453174192274,121.99514630313328,0.0,0.0931989923119545,0,0,0
11427,395081.1769410948,2010-11-21 01:30:18,10.953044945267225,4,35,0.7807546854019165,4.199653148651123,34.270106276478785,33.43794716448501,136.7495559756698,121.99514630313328,0.0,0.0931989923119545,0,0,0
11428,395087.06751838187,2010-11-21 01:30:24,16.84362222239359,4,35,0.7305452823638916,4.199653148651123,34.2713410457922,33.43794716448501,136.7547416544785,121.99514630313328,0.0,0.0931989923119545,0,0,0
11429,395094.8331998175,2010-11-21 01:30:32,24.609303652964517,4,35,0.6805165410041809,4.199653148651123,34.27286077327032,33.43794716448501,136.76112408078097,121.99514630313328,-3.23295607813634e-05,0.0931989923119545,0,0,0
11430,395105.23924425535,2010-11-21 01:30:42,35.01534810584883,4,35,0.6304877400398254,4.199491024017334,34.27475173852937,33.43794716448501,136.76906560989704,121.99514630313328,-3.24249267578125e-05,0.0931989923119545,0,0,0
11431,395119.99101107486,2010-11-21 01:30:57,49.76711491029531,4,35,0.5804589986801147,4.199814796447754,34.27722685072068,33.43794716448501,136.77946039778865,121.99514630313328,3.23295607813634e-05,0.0931989923119545,0,0,0
11432,395143.0357804245,2010-11-21 01:31:20,72.8118842799912,4,35,0.5304301977157593,4.199653148651123,34.28077006263032,33.43794716448501,136.79434095567493,121.99514630313328,0.0,0.0931989923119545,0,0,0
11433,395182.5198209039,2010-11-21 01:32:00,112.29592475448332,4,35,0.4804014265537262,4.199814796447754,34.28628793211394,33.43794716448501,136.81751448023277,121.99514630313328,0.0,0.0931989923119545,0,0,0
11434,395252.4411002143,2010-11-21 01:33:10,182.2172040647617,4,35,0.4303726553916931,4.199491024017334,34.295097073104394,33.43794716448501,136.8545104940374,121.99514630313328,-3.24249267578125e-05,0.0931989923119545,0,0,0
11435,395352.5964944117,2010-11-21 01:34:50,282.37259826220065,4,35,0.38034388422966,4.199653148651123,34.30634859683612,33.43794716448501,136.90176378803852,121.99514630313328,-3.23295607813634e-05,0.0931989923119545,0,0,0
11436,395476.1735848312,2010-11-21 01:36:53,405.94968868676045,4,35,0.3303151130676269,4.199653148651123,34.31852574000315,33.43794716448501,136.95290450676993,121.99514630313328,0.0,0.0931989923119545,0,0,0
11437,395620.7505988408,2010-11-21 01:39:18,550.5267026913334,4,35,0.2802863419055938,4.199653148651123,34.33076260451763,33.43794716448501,137.00429604261237,121.99514630313328,0.0,0.0931989923119545,0,0,0
11438,395796.1239826474,2010-11-21 01:42:13,725.900086497835,4,35,0.2302575856447219,4.199653148651123,34.34316980392808,33.43794716448501,137.0564029733728,121.99514630313328,-3.23295607813634e-05,0.0931989923119545,0,0,0
11439,396015.997131704,2010-11-21 01:45:53,945.7732355545188,4,35,0.1802288144826889,4.199653148651123,34.35565868130864,33.43794716448501,137.10885294474534,121.99514630313328,0.0,0.0931989923119545,0,0,0
11440,396317.4008157392,2010-11-21 01:50:55,1247.1769195896682,4,35,0.1302000433206558,4.199653148651123,34.368554640608416,33.43794716448501,137.16301249262392,121.99514630313328,0.0,0.0931989923119545,0,0,0
11441,396795.34988684126,2010-11-21 01:58:52,1725.1259906767275,4,35,0.0801712721586227,4.199653148651123,34.38222910189122,33.43794716448501,137.22044134329067,121.99514630313328,-3.23295607813634e-05,0.0931989923119545,0,0,0
11442,397305.7205468823,2010-11-21 02:07:23,2235.4966507327904,4,35,0.0498289167881011,4.199491024017334,34.39128161213473,33.43794716448501,137.25845944701138,121.99514630313328,-6.47544875391759e-05,0.0931989923119545,0,0,0
11443,397335.735819616,2010-11-21 02:07:53,30.01545541948942,5,35,0.0,4.192206382751465,34.39128161213473,33.43794716448501,137.25845944701138,121.99514630313328,-3.24249267578125e-05,0.0931989923119545,0,0,0
11444,397365.7354096881,2010-11-21 02:08:23,60.01504551168109,5,35,0.0,4.191235065460205,34.39128161213473,33.43794716448501,137.25845944701138,121.99514630313328,0.0,0.0931989923119545,0,0,0
11445,397365.93893890217,2010-11-21 02:08:23,0.187634429402624,6,35,-1.9243103452026844e-05,4.190911293029785,34.39128161213473,33.43794716548798,137.25845944701138,121.9951463073366,0.0,0.0938397273421287,0,0,0
11446,397370.7668926625,2010-11-21 02:08:28,5.01558818975057,6,35,0.0007031940040178,4.190911293029785,34.39128263728713,33.43794716565487,137.25846374353063,121.99514630803606,-9.71794142969884e-05,0.0938397273421287,0,0,0
11447,397400.7983669044,2010-11-21 02:08:58,30.015494993271663,7,35,-1.0993878841400146,4.021740913391113,34.39128263728713,33.4471162916031,137.25846374353063,122.0322089225423,-0.0008418083307333,0.0938397273421287,0,0,0
11448,397430.8136833269,2010-11-21 02:09:28,60.0308114158033,7,35,-1.099568486213684,3.99648642539978,34.39128263728713,33.45628531874462,137.25846374353063,122.06895920437933,-0.0005504131549969,0.0938397273421287,0,0,0
11449,397460.8289878047,2010-11-21 02:09:58,90.04611589351883,7,35,-1.0997490882873535,3.979326725006104,34.39128263728713,33.465454297011874,137.25846374353063,122.10551952046347,-0.0003885269106831,0.0938397273421287,0,0,0
11450,397490.8443696656,2010-11-21 02:10:28,120.06149775439464,7,35,-1.099568486213684,3.965566396713257,34.39128263728713,33.47462327422798,137.25846374353063,122.14193989184696,-0.0002913951757363,0.0938397273421287,0,0,0
11451,397520.8597139074,2010-11-21 02:10:58,150.07684200138036,7,35,-1.0997490882873535,3.9540724754333496,34.39128263728713,33.4837921411311,137.25846374353063,122.17824514849632,-0.0002590179501567,0.0938397273421287,0,0,0
11452,397550.8751120941,2010-11-21 02:11:28,180.09224018800776,7,35,-1.0997490882873535,3.943549871444702,34.39128263728713,33.49296113576937,137.25846374353063,122.21445053561382,-0.0002590179501567,0.0938397273421287,0,0,0
11453,397580.8904534388,2010-11-21 02:11:58,210.10758153274907,7,35,-1.099568486213684,3.9336748123168954,34.39128263728713,33.50213007550911,137.25846374353063,122.25056299067624,-0.0002590179501567,0.0938397273421287,0,0,0
11454,397610.905931154,2010-11-21 02:12:28,240.1230592428793,7,35,-1.0997490882873535,3.924285411834717,34.39128263728713,33.51129907191332,137.25846374353063,122.28658804463372,-0.0002590179501567,0.0938397273421287,0,0,0
11455,397640.9212702731,2010-11-21 02:12:58,270.1383983620653,7,35,-1.0997490882873535,3.915381669998169,34.39128263728713,33.52046806246381,137.25846374353063,122.32252936085987,-0.0001942634553415,0.0938397273421287,0,0,0
11456,397670.9386465424,2010-11-21 02:13:28,300.1557746112411,7,35,-1.099568486213684,3.90664005279541,34.39128263728713,33.52963769806529,137.25846374353063,122.35839178667094,-0.0002266406954731,0.0938397273421287,0,0,0
11457,397700.95196902775,2010-11-21 02:13:58,330.16909712166137,7,35,-1.0997490882873535,3.898060083389282,34.39128263728713,33.5388060780713,137.25846374353063,122.3941702033578,-0.0002266406954731,0.0938397273421287,0,0,0
11458,397730.9673280968,2010-11-21 02:14:28,360.18445617059507,7,35,-1.099568486213684,3.889803886413574,34.39128263728713,33.5479750101384,137.25846374353063,122.42987304029656,-0.0002266406954731,0.0938397273421287,0,0,0
11459,397760.9827029802,2010-11-21 02:14:58,390.19983106909166,7,35,-1.099568486213684,3.881385803222656,34.39128263728713,33.557144005710335,137.25846374353063,122.46549987400014,-0.0002266406954731,0.0938397273421287,0,0,0
11460,397790.9980926807,2010-11-21 02:15:28,420.2152207695363,7,35,-1.099568486213684,3.873291492462158,34.39128263728713,33.56631300640074,137.25846374353063,122.50105167570824,-0.0001942634553415,0.0938397273421287,0,0,0
11461,397821.013425058,2010-11-21 02:15:58,450.2305531468936,7,35,-1.0997490882873535,3.86519718170166,34.39128263728713,33.5754819544621,137.25846374353063,122.53652832380322,-0.0001942634553415,0.0938397273421287,0,0,0
11462,397851.02896236687,2010-11-21 02:16:28,480.246090440754,7,35,-1.099568486213684,3.857102870941162,34.39128263728713,33.58465096736826,137.25846374353063,122.5719314554792,-0.0002590179501567,0.0938397273421287,0,0,0
11463,397881.0442056267,2010-11-21 02:16:58,510.261333715698,7,35,-1.0997490882873535,3.849170446395874,34.39128263728713,33.593819983642334,137.25846374353063,122.60726235131386,-0.0002590179501567,0.0938397273421287,0,0,0
11464,397911.059588425,2010-11-21 02:17:28,540.276716518926,7,35,-1.0997490882873535,3.841561794281006,34.39128263728713,33.60298910682858,137.25846374353063,122.64252254728592,-0.0002266406954731,0.0938397273421287,0,0,0
11465,397941.0749426018,2010-11-21 02:17:59,570.2920706906857,7,35,-1.0997490882873535,3.834115028381348,34.39128263728713,33.61215815653178,137.25846374353063,122.67771225275996,-0.0002266406954731,0.0938397273421287,0,0,0
11466,397971.0903233148,2010-11-21 02:18:29,600.3074514036962,7,35,-1.099568486213684,3.826668500900269,34.39128263728713,33.62132719038014,137.25846374353063,122.71283301005424,-0.0001618862152099,0.0938397273421287,0,0,0
11467,398001.1057343485,2010-11-21 02:18:59,630.3228624223543,7,35,-1.099929690361023,3.8190598487854,34.39128263728713,33.63049625939613,137.25846374353063,122.7478854627832,-0.0002266406954731,0.0938397273421287,0,0,0
11468,398031.1210607309,2010-11-21 02:19:29,660.3381888197848,7,35,-1.0997490882873535,3.811936855316162,34.39128263728713,33.639665223414845,137.25846374353063,122.78287078083898,-0.0001942634553415,0.0938397273421287,0,0,0
11469,398061.1365851726,2010-11-21 02:19:59,690.3537132465269,7,35,-1.0997490882873535,3.804975748062134,34.39128263728713,33.64883425239414,137.25846374353063,122.81779040223742,-0.0001942634553415,0.0938397273421287,0,0,0
11470,398091.15192196605,2010-11-21 02:20:29,720.3690500549449,7,35,-1.0997490882873535,3.7980146408081055,34.39128263728713,33.65800325097342,137.25846374353063,122.85264539666682,-0.0001618862152099,0.0938397273421287,0,0,0
11471,398121.16725942114,2010-11-21 02:20:59,750.3843876302772,7,35,-1.0997490882873535,3.791053533554077,34.39128263728713,33.66717222604495,137.25846374353063,122.88743694307198,-0.0002266406954731,0.0938397273421287,0,0,0
11472,398151.1825522196,2010-11-21 02:21:29,780.3996802935018,7,35,-1.099568486213684,3.7844161987304688,34.39128263728713,33.67634119837419,137.25846374353063,122.92216662589335,-0.0001618862152099,0.0938397273421287,0,0,0
11473,398181.197909023,2010-11-21 02:21:59,810.4150371118677,7,35,-1.0997490882873535,3.7779407501220703,34.39128263728713,33.68551023106028,137.25846374353063,122.95683636365042,-0.0001618862152099,0.0938397273421287,0,0,0
11474,398211.213282538,2010-11-21 02:22:29,840.430410626911,7,35,-1.099568486213684,3.771627187728882,34.39128263728713,33.694679329240536,137.25846374353063,122.99144726486212,-0.0001618862152099,0.0938397273421287,0,0,0
11475,398241.2287934611,2010-11-21 02:22:59,870.4459215349083,7,35,-1.0997490882873535,3.7654755115509033,34.39128263728713,33.703848403377464,137.25846374353063,123.02600030079448,-0.0001295089750783,0.0938397273421287,0,0,0
11476,398271.24619659735,2010-11-21 02:23:29,900.463324686236,7,35,-1.099568486213684,3.759161949157715,34.39128263728713,33.713018137042354,137.25846374353063,123.06049964200751,-0.0001942634553415,0.0938397273421287,0,0,0
11477,398301.25952984457,2010-11-21 02:23:59,930.476657923432,7,35,-1.0997490882873535,3.7531721591949454,34.39128263728713,33.72218661137939,137.25846374353063,123.0949384156488,-0.0001942634553415,0.0938397273421287,0,0,0
11478,398331.27475167095,2010-11-21 02:24:29,960.4918797448246,7,35,-1.0997490882873535,3.747344493865967,34.39128263728713,33.73135565832395,137.25846374353063,123.129324202986,-0.0001295089750783,0.0938397273421287,0,0,0
11479,398361.2901337574,2010-11-21 02:24:59,990.5072618463008,7,35,-1.0997490882873535,3.741192817687988,34.39128263728713,33.74052477732277,137.25846374353063,123.16365636465888,-0.0001942634553415,0.0938397273421287,0,0,0
11480,398391.3055115231,2010-11-21 02:25:29,1020.5226396019294,7,35,-1.0997490882873535,3.7356886863708496,34.39128263728713,33.74969385595387,137.25846374353063,123.19793591068272,-0.0001618862152099,0.0938397273421287,0,0,0
11481,398421.320866166,2010-11-21 02:25:59,1050.537994244865,7,35,-1.099568486213684,3.730346441268921,34.39128263728713,33.75886291599112,137.25846374353063,123.23216395511504,-0.0001295089750783,0.0938397273421287,0,0,0
11482,398451.3362452199,2010-11-21 02:26:29,1080.553373308759,7,35,-1.099568486213684,3.7248423099517822,34.39128263728713,33.768031945189264,137.25846374353063,123.26634137109316,-0.0001295089750783,0.0938397273421287,0,0,0
11483,398481.3516800329,2010-11-21 02:26:59,1110.5688081218118,7,35,-1.099568486213684,3.7195000648498535,34.39128263728713,33.77720104540034,137.25846374353063,123.30046885222043,-0.0001295089750783,0.0938397273421287,0,0,0
11484,398511.3669952675,2010-11-21 02:27:29,1140.584123356378,7,35,-1.0997490882873535,3.713995933532715,34.39128263728713,33.78637009879032,137.25846374353063,123.33454652337346,-9.713172767078504e-05,0.0938397273421287,0,0,0
11485,398541.38234065234,2010-11-21 02:27:59,1170.599468741204,7,35,-1.1001102924346924,3.708491802215576,34.39128263728713,33.795539218360965,137.25846374353063,123.36857568456678,-0.0001618862152099,0.0938397273421287,0,0,0
11486,398571.3977175057,2010-11-21 02:28:29,1200.6148455945802,7,35,-1.0997490882873535,3.703635215759277,34.39128263728713,33.8047083034376,137.25846374353063,123.40255703080416,-9.713172767078504e-05,0.0938397273421287,0,0,0
11487,398601.41309410846,2010-11-21 02:28:59,1230.630222197331,7,35,-1.0997490882873535,3.698454856872559,34.39128263728713,33.81387744434438,137.25846374353063,123.4364912281185,-0.0001295089750783,0.0938397273421287,0,0,0
11488,398631.4284752275,2010-11-21 02:29:29,1260.6456033013174,7,35,-1.0997490882873535,3.69327449798584,34.39128263728713,33.82304653220438,137.25846374353063,123.47037861757528,-0.0001295089750783,0.0938397273421287,0,0,0
11489,398661.44382340426,2010-11-21 02:29:59,1290.6609514931504,7,35,-1.0997490882873535,3.688256025314331,34.39128263728713,33.83221566935446,137.25846374353063,123.5042203575244,-0.0001295089750783,0.0938397273421287,0,0,0
11490,398691.45923896425,2010-11-21 02:30:29,1320.676367053144,7,35,-1.0997490882873535,3.683399438858032,34.39128263728713,33.84138484989708,137.25846374353063,123.53801659698136,-0.0001295089750783,0.0938397273421287,0,0,0
11491,398721.4745664795,2010-11-21 02:30:59,1350.6916945683647,7,35,-1.0997490882873535,3.678542852401733,34.39128263728713,33.850553913921445,137.25846374353063,123.5717674069138,-0.0001295089750783,0.0938397273421287,0,0,0
11492,398751.4899692927,2010-11-21 02:31:29,1380.7070973865534,7,35,-1.0997490882873535,3.673848152160645,34.39128263728713,33.859722992979066,137.25846374353063,123.6054739707374,-9.713172767078504e-05,0.0938397273421287,0,0,0
11493,398781.5053078755,2010-11-21 02:31:59,1410.722435964388,7,35,-1.0997490882873535,3.668991804122925,34.39128263728713,33.86889212840646,137.25846374353063,123.63913731472412,-0.0001618862152099,0.0938397273421287,0,0,0
11494,398811.52082840254,2010-11-21 02:32:29,1440.7379564763582,7,35,-1.0997490882873535,3.664458990097046,34.39128263728713,33.87806124689527,137.25846374353063,123.6727577924202,-0.0001295089750783,0.0938397273421287,0,0,0
11495,398841.5361110408,2010-11-21 02:32:59,1470.7532391145587,7,35,-1.0997490882873535,3.659764289855957,34.39128263728713,33.887230364183935,137.25846374353063,123.7063361018414,-0.0001295089750783,0.0938397273421287,0,0,0
11496,398871.5533419922,2010-11-21 02:33:29,1500.7704701662997,7,35,-1.0997490882873535,3.655393362045288,34.39128263728713,33.89640082941542,137.25846374353063,123.7398774623111,-6.47544875391759e-05,0.0938397273421287,0,0,0
11497,398901.5668138855,2010-11-21 02:33:59,1530.7839419593524,7,35,-1.099568486213684,3.651022434234619,34.39128263728713,33.90557005383525,137.25846374353063,123.77337354157586,-6.47544875391759e-05,0.0938397273421287,0,0,0
11498,398931.5824019712,2010-11-21 02:34:29,1560.7995301753222,7,35,-1.0997490882873535,3.64648962020874,34.39128263728713,33.91473921656279,137.25846374353063,123.8068297356072,-0.0001618862152099,0.0938397273421287,0,0,0
11499,398961.5975553466,2010-11-21 02:34:59,1590.8146834355755,7,35,-1.0997490882873535,3.642442464828491,34.39128263728713,33.92390817351368,137.25846374353063,123.84024568464568,-9.713172767078504e-05,0.0938397273421287,0,0,0
11500,398991.61300974863,2010-11-21 02:35:29,1620.8301378726128,7,35,-1.0997490882873535,3.638233423233032,34.39128263728713,33.933077258261555,137.25846374353063,123.87362353420656,-0.0001295089750783,0.0938397273421287,0,0,0
11501,399021.62864038046,2010-11-21 02:35:59,1650.8457684693717,7,35,-1.0997490882873535,3.634024381637573,34.39128263728713,33.94224642536224,137.25846374353063,123.9069637709847,-0.0001295089750783,0.0938397273421287,0,0,0
11502,399051.6436681175,2010-11-21 02:36:29,1680.860796191262,7,35,-1.0997490882873535,3.629977226257324,34.39128263728713,33.95141551286045,137.25846374353063,123.94026634448149,-0.0001295089750783,0.0938397273421287,0,0,0
11503,399081.6590414018,2010-11-21 02:36:59,1710.876169490767,7,35,-1.0997490882873535,3.626091957092285,34.39128263728713,33.96058459602855,137.25846374353063,123.97353256728752,-9.713172767078504e-05,0.0938397273421287,0,0,0
11504,399111.67444345815,2010-11-21 02:37:29,1740.891571547054,7,35,-1.0997490882873535,3.622206687927246,34.39128263728713,33.96975368733716,137.25846374353063,124.00676327065264,-0.0001295089750783,0.0938397273421287,0,0,0
11505,399141.6899170229,2010-11-21 02:37:59,1770.9070451118369,7,35,-1.0997490882873535,3.618321418762207,34.39128263728713,33.97892288756293,137.25846374353063,124.03995972904468,-0.0001295089750783,0.0938397273421287,0,0,0
11506,399171.7051381074,2010-11-21 02:38:29,1800.9222661963902,7,35,-1.0997490882873535,3.614921808242798,34.39128263728713,33.98809196380823,137.25846374353063,124.07312199189114,-9.713172767078504e-05,0.0938397273421287,0,0,0
11507,399201.7205160385,2010-11-21 02:38:59,1830.937644127457,7,35,-1.099568486213684,3.6113603115081783,34.39128263728713,33.99726109974286,137.25846374353063,124.10625199090804,-0.0001295089750783,0.0938397273421287,0,0,0
11508,399231.73860018473,2010-11-21 02:39:29,1860.955728343827,7,35,-1.0997490882873535,3.6079607009887695,34.39128263728713,34.006431110615395,137.25846374353063,124.13935309270538,-9.713172767078504e-05,0.0938397273421287,0,0,0
11509,399261.7512678656,2010-11-21 02:39:59,1890.968395944492,7,35,-1.099568486213684,3.6047229766845694,34.39128263728713,34.01559947049064,137.25846374353063,124.17241712716728,-6.47544875391759e-05,0.0938397273421287,0,0,0
11510,399291.7667698564,2010-11-21 02:40:29,1920.983897930218,7,35,-1.0997490882873535,3.601485252380371,34.39128263728713,34.0247686005122,137.25846374353063,124.2054538564845,-3.237724376958795e-05,0.0938397273421287,0,0,0
11511,399321.7822178473,2010-11-21 02:40:59,1950.9993459261773,7,35,-1.0997490882873535,3.598247528076172,34.39128263728713,34.03393776595791,137.25846374353063,124.23846143640222,-0.0001295089750783,0.0938397273421287,0,0,0
11512,399351.7973808719,2010-11-21 02:41:29,1981.0145089608293,7,35,-1.0997490882873535,3.5953335762023926,34.39128263728713,34.04310691101001,137.25846374353063,124.2714401985951,-6.47544875391759e-05,0.0938397273421287,0,0,0
11513,399381.812760392,2010-11-21 02:41:59,2011.029888470837,7,35,-1.099929690361023,3.5919342041015625,34.39128263728713,34.05227605370525,137.25846374353063,124.3043908522806,-9.70840483205393e-05,0.0938397273421287,0,0,0
11514,399411.8281060074,2010-11-21 02:42:29,2041.0452340962631,7,35,-1.099568486213684,3.589182138442993,34.39128263728713,34.06144522391902,137.25846374353063,124.33731398311107,-6.47544875391759e-05,0.0938397273421287,0,0,0
11515,399441.8434856277,2010-11-21 02:42:59,2071.0606137165464,7,35,-1.0997490882873535,3.586268186569214,34.39128263728713,34.07061438290767,137.25846374353063,124.37020982253335,-6.47544875391759e-05,0.0938397273421287,0,0,0
11516,399471.86074049387,2010-11-21 02:43:29,2101.077868562681,7,35,-1.0997490882873535,3.5833542346954346,34.39128263728713,34.07978412754524,137.25846374353063,124.40308096436968,-9.713172767078504e-05,0.0938397273421287,0,0,0
11517,399501.8742413996,2010-11-21 02:43:59,2131.091369488454,7,35,-1.099568486213684,3.5804402828216557,34.39128263728713,34.08895271803609,137.25846374353063,124.43592140990856,-6.47544875391759e-05,0.0938397273421287,0,0,0
11518,399531.8897688488,2010-11-21 02:44:29,2161.106896927716,7,35,-1.099568486213684,3.577526330947876,34.39128263728713,34.098121925347954,137.25846374353063,124.4687376447214,-6.47544875391759e-05,0.0938397273421287,0,0,0
11519,399561.9049618935,2010-11-21 02:44:59,2191.122089982302,7,35,-1.0997490882873535,3.5746123790740967,34.39128263728713,34.107291120493635,137.25846374353063,124.50152737350864,-6.47544875391759e-05,0.0938397273421287,0,0,0
11520,399591.92036025046,2010-11-21 02:45:29,2221.1374883393546,7,35,-1.099929690361023,3.5716984272003174,34.39128263728713,34.1164603423257,137.25846374353063,124.53429082505102,-9.713172767078504e-05,0.0938397273421287,0,0,0
11521,399621.93569849245,2010-11-21 02:45:59,2251.152826581351,7,35,-1.099568486213684,3.568946361541748,34.39128263728713,34.12562948117444,137.25846374353063,124.56702745871672,-3.237724376958795e-05,0.0938397273421287,0,0,0
11522,399651.95106653887,2010-11-21 02:46:29,2281.168194627744,7,35,-1.099568486213684,3.565870523452759,34.39128263728713,34.13479868620063,137.25846374353063,124.59973737475376,-6.47544875391759e-05,0.0938397273421287,0,0,0
11523,399681.96657800325,2010-11-21 02:46:59,2311.1837060971425,7,35,-1.0997490882873535,3.5629565715789795,34.39128263728713,34.14396790735501,137.25846374353063,124.63242017357686,-6.47544875391759e-05,0.0938397273421287,0,0,0
11524,399711.9818528118,2010-11-21 02:47:29,2341.198980900787,7,35,-1.0993878841400146,3.5600426197052,34.39128263728713,34.153137007257094,137.25846374353063,124.66507582148192,-6.47544875391759e-05,0.0938397273421287,0,0,0
11525,399741.9973746822,2010-11-21 02:47:59,2371.2145027761603,7,35,-1.0997490882873535,3.556804895401001,34.39128263728713,34.16230618262061,137.25846374353063,124.69770361647474,-0.0001295089750783,0.0938397273421287,0,0,0
11526,399772.0126915208,2010-11-21 02:48:29,2401.229819614731,7,35,-1.0997490882873535,3.553729057312012,34.39128263728713,34.17147529400357,137.25846374353063,124.7303024130468,-6.47544875391759e-05,0.0938397273421287,0,0,0
11527,399802.0279287657,2010-11-21 02:48:59,2431.2450568546105,7,35,-1.0997490882873535,3.5504913330078125,34.39128263728713,34.18064434701859,137.25846374353063,124.76287125673844,-3.237724376958795e-05,0.0938397273421287,0,0,0
11528,399832.0433012031,2010-11-21 02:49:29,2461.260429291964,7,35,-1.0997490882873535,3.5470917224884038,34.39128263728713,34.18981349417069,137.25846374353063,124.79540974170529,-9.713172767078504e-05,0.0938397273421287,0,0,0
11529,399862.0587035552,2010-11-21 02:50:00,2491.275831643989,7,35,-1.0997490882873535,3.543530225753784,34.39128263728713,34.19898270332596,137.25846374353063,124.82791710825845,-9.713172767078504e-05,0.0938397273421287,0,0,0
11530,399892.0740308798,2010-11-21 02:50:30,2521.2911589687337,7,35,-1.099568486213684,3.539968729019165,34.39128263728713,34.20815184807839,137.25846374353063,124.86039182508776,-0.0001295089750783,0.0938397273421287,0,0,0
11531,399922.08953037433,2010-11-21 02:51:00,2551.3066584482035,7,35,-1.099929690361023,3.536083459854126,34.39128263728713,34.21732105159949,137.25846374353063,124.8928332538228,-0.0001295089750783,0.0938397273421287,0,0,0
11532,399952.10493840056,2010-11-21 02:51:30,2581.322066474392,7,35,-1.099929690361023,3.532198190689087,34.39128263728713,34.226490246249135,137.25846374353063,124.9252398063873,-0.0001618862152099,0.0938397273421287,0,0,0
11533,399982.12027704855,2010-11-21 02:52:00,2611.3374051374394,7,35,-1.099568486213684,3.528474807739258,34.39128263728713,34.2356593595916,137.25846374353063,124.95761023590153,-6.47544875391759e-05,0.0938397273421287,0,0,0
11534,400012.13552540616,2010-11-21 02:52:30,2641.3526534950706,7,35,-1.0997490882873535,3.524103879928589,34.39128263728713,34.244828517992566,137.25846374353063,124.98994367877567,-0.0001295089750783,0.0938397273421287,0,0,0
11535,400042.1509261993,2010-11-21 02:53:00,2671.3680542932166,7,35,-1.0997490882873535,3.51989483833313,34.39128263728713,34.253997698842795,137.25846374353063,125.02223853012347,-0.0001295089750783,0.0938397273421287,0,0,0
11536,400072.1683389596,2010-11-21 02:53:30,2701.38546703348,7,35,-1.0997490882873535,3.515362024307251,34.39128263728713,34.26316750594923,137.25846374353063,125.05449500822998,-0.0001295089750783,0.0938397273421287,0,0,0
11537,400102.1816535904,2010-11-21 02:54:00,2731.3987816792683,7,35,-1.099929690361023,3.5105056762695312,34.39128263728713,34.272336029260664,137.25846374353063,125.08670442588884,-0.0001295089750783,0.0938397273421287,0,0,0
11538,400132.19699847896,2010-11-21 02:54:30,2761.414126567856,7,35,-1.0997490882873535,3.5054872035980225,34.39128263728713,34.28150524940445,137.25846374353063,125.11887085031692,-0.0001295089750783,0.0938397273421287,0,0,0
11539,400162.2125620284,2010-11-21 02:55:00,2791.4296901172543,7,35,-1.099568486213684,3.5001449584960938,34.39128263728713,34.29067451113154,137.25846374353063,125.150988489547,-0.0001295089750783,0.0938397273421287,0,0,0
11540,400192.2281546855,2010-11-21 02:55:30,2821.44528277431,7,35,-1.099929690361023,3.4938313961029053,34.39128263728713,34.299843816897656,137.25846374353063,125.18305278476504,-0.0001618862152099,0.0938397273421287,0,0,0
11541,400222.24325560505,2010-11-21 02:56:00,2851.460383693913,7,35,-1.099568486213684,3.486870288848877,34.39128263728713,34.30901292574382,137.25846374353063,125.21505668541214,-0.0001618862152099,0.0938397273421287,0,0,0
11542,400252.2584867447,2010-11-21 02:56:30,2881.475614833565,7,35,-1.0997490882873535,3.478937864303589,34.39128263728713,34.31818203578712,137.25846374353063,125.24699310431056,-0.0002590179501567,0.0938397273421287,0,0,0
11543,400282.27388480096,2010-11-21 02:57:00,2911.4910128898678,7,35,-1.0997490882873535,3.469710350036621,34.39128263728713,34.3273512340438,137.25846374353063,125.27885138164358,-0.0002590179501567,0.0938397273421287,0,0,0
11544,400312.28924407554,2010-11-21 02:57:30,2941.5063721543397,7,35,-1.0997490882873535,3.458540201187134,34.39128263728713,34.336520423059824,137.25846374353063,125.31061669607466,-0.0003237724304199,0.0938397273421287,0,0,0
11545,400342.3045869641,2010-11-21 02:58:00,2971.5217150579715,7,35,-1.099568486213684,3.444941759109497,34.39128263728713,34.34568961123586,137.25846374353063,125.34226855382842,-0.0003885269106831,0.0938397273421287,0,0,0
11546,400372.3200282032,2010-11-21 02:58:30,3001.537156277014,7,35,-1.099568486213684,3.4271345138549805,34.39128263728713,34.35485880874622,137.25846374353063,125.373777240508,-0.0005504131549969,0.0938397273421287,0,0,0
11547,400402.3353369917,2010-11-21 02:59:00,3031.552465080528,7,35,-1.0997490882873535,3.403661012649536,34.39128263728713,34.36402802728786,137.25846374353063,125.4050985322573,-0.0007446765666827,0.0938397273421287,0,0,0
11548,400432.35072485753,2010-11-21 02:59:30,3061.567852946393,7,35,-1.0997490882873535,3.371607542037964,34.39128263728713,34.373197253007945,137.25846374353063,125.43616772713246,-0.0009713172912597,0.0938397273421287,0,0,0
11549,400462.36610058806,2010-11-21 03:00:00,3091.583228676967,7,35,-1.0997490882873535,3.327089071273804,34.39128263728713,34.382366471462696,137.25846374353063,125.46689000991962,-0.0013598442310467,0.0938397273421287,0,0,0
11550,400492.3814444541,2010-11-21 03:00:30,3121.598572543002,7,35,-1.099568486213684,3.264925003051758,34.39128263728713,34.391535650584494,137.25846374353063,125.49712740766142,-0.0018778324592858,0.0938397273421287,0,0,0
11551,400522.39681424986,2010-11-21 03:01:00,3151.613942338761,7,35,-1.099929690361023,3.1745927333831787,34.39128263728713,34.40070487848737,137.25846374353063,125.526676834781,-0.0028815746773034,0.0938397273421287,0,0,0
11552,400552.4122017548,2010-11-21 03:01:30,3181.6293298337005,7,35,-1.099929690361023,3.034075736999512,34.39128263728713,34.40987404458283,137.25846374353063,125.55519703260612,-0.0046947002410888,0.0938397273421287,0,0,0
11553,400574.5838701001,2010-11-21 03:01:52,3203.800998188941,7,35,-1.099568486213684,2.8339850902557373,34.39128263728713,34.4166471414362,137.25846374353063,125.57515074708786,-0.0095512391999363,0.0938397273421287,0,0,0
11554,400584.53704518126,2010-11-21 03:02:02,3213.754173270201,7,35,-1.0997490882873535,2.699781894683838,34.39128263728713,34.419687676540484,137.25846374353063,125.5835663608932,-0.011008215136826,0.0938397273421287,0,0,0
11555,400644.550278382,2010-11-21 03:03:02,60.01702935365585,8,35,0.0,3.30151104927063,34.39128263728713,34.419687676540484,137.25846374353063,125.5835663608932,0.0012303352123126,0.0938397273421287,0,0,0
11556,400644.7327729529,2010-11-21 03:03:02,0.187582339377909,9,35,-1.9243103452026844e-05,3.30167293548584,34.39128263728713,34.419687677543166,137.25846374353063,125.58356636420372,0.0,0.0945633500814437,0,0,0
11557,400649.545200733,2010-11-21 03:03:07,5.000010114478063,9,35,0.0003419754502829,3.309281587600708,34.39128361701991,34.41968767762795,137.25846698269012,125.58356636448364,0.0011008263099938,0.0945633500814437,0,0,0
