Data_Point,Test_Time(s),Date_Time,Step_Time(s),Step_Index,Cycle_Index,Current(A),Voltage(V),Charge_Capacity(Ah),Discharge_Capacity(Ah),Charge_Energy(Wh),Discharge_Energy(Wh),dV/dt(V/s),Internal_Resistance(Ohm),Is_FC_Data,AC_Impedance(Ohm),ACI_Phase_Angle(Deg)
7968,277186.24980642693,2010-11-19 16:45:11,30.015408071301056,1,25,0.0,3.4013946056365967,23.729741518120868,23.749749565426384,94.72144243465868,86.6559234097504,0.0007446765666827,0.0932833403348922,0,0,0
7969,277216.2649726496,2010-11-19 16:45:41,60.0305742638355,1,25,0.0,3.4230873584747314,23.729741518120868,23.749749565426384,94.72144243465868,86.6559234097504,0.0004856586456298,0.0932833403348922,0,0,0
7970,277246.282055361,2010-11-19 16:46:11,90.04765697529602,1,25,0.0,3.4395995140075684,23.729741518120868,23.749749565426384,94.72144243465868,86.6559234097504,0.0004209041653666,0.0932833403348922,0,0,0
7971,277276.2489031233,2010-11-19 16:46:41,120.01450475764504,1,25,0.0,3.4523885250091557,23.729741518120868,23.749749565426384,94.72144243465868,86.6559234097504,0.0002913951757363,0.0932833403348922,0,0,0
7972,277306.2704580468,2010-11-19 16:47:11,30.01532561547864,2,25,0.5501165986061096,3.615083694458008,23.734328004616355,23.749749565426384,94.73786437617832,86.6559234097504,0.0015541076427325,0.0932833403348922,0,0,0
7973,277336.28564181324,2010-11-19 16:47:41,60.03050938689266,2,25,0.5501165986061096,3.6613831520080566,23.73891451280169,23.749749565426384,94.75455763964904,86.6559234097504,0.0010360718006268,0.0932833403348922,0,0,0
7974,277366.3010345763,2010-11-19 16:48:11,90.04590214496956,2,25,0.550297200679779,3.6947314739227295,23.7435009629496,23.749749565426384,94.77143009671596,86.6559234097504,0.0008094310760498,0.0932833403348922,0,0,0
7975,277396.31616992183,2010-11-19 16:48:41,120.06103749050514,2,25,0.5501165986061096,3.720957040786743,23.74808739124916,23.749749565426384,94.78843806796206,86.6559234097504,0.0006151676061563,0.0932833403348922,0,0,0
7976,277426.3314050915,2010-11-19 16:49:11,150.0762726852798,2,25,0.5499359965324402,3.742326021194458,23.752673801725997,23.749749565426384,94.80555461142607,86.6559234097504,0.0005504131549969,0.0932833403348922,0,0,0
7977,277456.34665771987,2010-11-19 16:49:42,180.09152528850862,2,25,0.5501165986061096,3.7596476078033447,23.757260245200417,23.749749565426384,94.82276024315024,86.6559234097504,0.0004209041653666,0.0932833403348922,0,0,0
7978,277486.36192159617,2010-11-19 16:50:12,210.10678916487697,2,25,0.5499359965324402,3.7722747325897217,23.761846642037423,23.749749565426384,94.84003491196596,86.6559234097504,0.0002266406954731,0.0932833403348922,0,0,0
7979,277516.377239322,2010-11-19 16:50:42,240.1221068906617,2,25,0.5501165986061096,3.78036904335022,23.76643299997891,23.749749565426384,94.8573562222259,86.6559234097504,0.0001942634553415,0.0932833403348922,0,0,0
7980,277546.39243517857,2010-11-19 16:51:12,270.13730274724213,2,25,0.5501165986061096,3.7858731746673584,23.771019373605608,23.749749565426384,94.87470734322544,86.6559234097504,0.0001295089750783,0.0932833403348922,0,0,0
7981,277576.4078140319,2010-11-19 16:51:42,300.1526816106358,2,25,0.5501165986061096,3.7902441024780273,23.775605827800693,23.749749565426384,94.89208073826076,86.6559234097504,9.713172767078504e-05,0.0932833403348922,0,0,0
7982,277606.4229414828,2010-11-19 16:52:12,330.1678090765025,2,25,0.5501165986061096,3.7941293716430655,23.780192261673456,23.749749565426384,94.90947317724384,86.6559234097504,9.713172767078504e-05,0.0932833403348922,0,0,0
7983,277636.43821654207,2010-11-19 16:52:42,360.1830841107225,2,25,0.5499359965324402,3.798176527023315,23.784778706526268,23.749749565426384,94.92688393162447,86.6559234097504,0.0001295089750783,0.0932833403348922,0,0,0
7984,277666.4534372457,2010-11-19 16:53:12,390.198304814325,2,25,0.5501165986061096,3.801899909973145,23.789365123352592,23.749749565426384,94.94431221922746,86.6559234097504,9.713172767078504e-05,0.0932833403348922,0,0,0
7985,277696.4705935809,2010-11-19 16:53:42,420.2154611495618,2,25,0.5501165986061096,3.8056232929229736,23.79395179397657,23.749749565426384,94.96175848060923,86.6559234097504,9.713172767078504e-05,0.0932833403348922,0,0,0
7986,277726.484020116,2010-11-19 16:54:12,450.2288876846436,2,25,0.5499359965324402,3.809022903442383,23.798537951366004,23.749749565426384,94.9792195580122,86.6559234097504,6.47544875391759e-05,0.0932833403348922,0,0,0
7987,277756.4993334959,2010-11-19 16:54:42,480.2442011798682,2,25,0.5501165986061096,3.812746286392212,23.803124423532985,23.749749565426384,94.99669799736331,86.6559234097504,0.0001295089750783,0.0932833403348922,0,0,0
7988,277786.51448009955,2010-11-19 16:55:12,510.259347668218,2,25,0.550297200679779,3.816145896911621,23.807710799748666,23.749749565426384,95.01419205195003,86.6559234097504,6.47544875391759e-05,0.0932833403348922,0,0,0
7989,277816.5297514696,2010-11-19 16:55:42,540.2746190433043,2,25,0.5501165986061096,3.81938362121582,23.812297238856225,23.749749565426384,95.03170171278684,86.6559234097504,0.0001295089750783,0.0932833403348922,0,0,0
7990,277846.544989722,2010-11-19 16:56:12,570.2898572906987,2,25,0.5501165986061096,3.8227832317352295,23.816883668347643,23.749749565426384,95.04922650295464,86.6559234097504,0.0001295089750783,0.0932833403348922,0,0,0
7991,277876.56027292664,2010-11-19 16:56:42,600.3051404953134,2,25,0.5501165986061096,3.8258590698242183,23.821470107228432,23.749749565426384,95.06676621003108,86.6559234097504,6.47544875391759e-05,0.0932833403348922,0,0,0
7992,277906.57549814146,2010-11-19 16:57:12,630.3203657101765,2,25,0.5501165986061096,3.829096794128418,23.826056512941932,23.749749565426384,95.08432058167858,86.6559234097504,6.47544875391759e-05,0.0932833403348922,0,0,0
7993,277936.5908000377,2010-11-19 16:57:42,660.3356676064484,2,25,0.5499359965324402,3.832334518432617,23.83064292345124,23.749749565426384,95.10188976453554,86.6559234097504,9.713172767078504e-05,0.0932833403348922,0,0,0
7994,277966.6060155133,2010-11-19 16:58:12,690.3508830820009,2,25,0.5501165986061096,3.835572004318237,23.835229392546125,23.749749565426384,95.11947400645366,86.6559234097504,9.713172767078504e-05,0.0932833403348922,0,0,0
7995,277996.6212834899,2010-11-19 16:58:42,720.3661510886791,2,25,0.5499359965324402,3.838809728622437,23.839815750207105,23.749749565426384,95.1370729468926,86.6559234097504,6.47544875391759e-05,0.0932833403348922,0,0,0
7996,278026.6365284892,2010-11-19 16:59:12,750.381396057852,2,25,0.5501165986061096,3.842371225357056,23.844402170732145,23.749749565426384,95.15468748973348,86.6559234097504,9.713172767078504e-05,0.0932833403348922,0,0,0
7997,278056.6519046859,2010-11-19 16:59:42,780.3967723999522,2,25,0.5501165986061096,3.845608949661255,23.84898859642761,23.749749565426384,95.17231748835084,86.6559234097504,9.713172767078504e-05,0.0932833403348922,0,0,0
7998,278086.6671813241,2010-11-19 17:00:12,810.4120489028383,2,25,0.5499359965324402,3.849008560180664,23.853575036031348,23.749749565426384,95.18996314678344,86.6559234097504,0.0001295089750783,0.0932833403348922,0,0,0
7999,278116.68235825846,2010-11-19 17:00:42,840.4272258271609,2,25,0.5501165986061096,3.852570056915283,23.858161538020525,23.749749565426384,95.20762474088296,86.6559234097504,9.713172767078504e-05,0.0932833403348922,0,0,0
8000,278146.6976182251,2010-11-19 17:01:12,870.4424857937697,2,25,0.5499359965324402,3.8558077812194815,23.862748046162867,23.749749565426384,95.22530185886438,86.6559234097504,6.47544875391759e-05,0.0932833403348922,0,0,0
8001,278176.71280960547,2010-11-19 17:01:42,900.4576771992395,2,25,0.550297200679779,3.859207391738892,23.867334582517493,23.749749565426384,95.24299456487468,86.6559234097504,6.47544875391759e-05,0.0932833403348922,0,0,0
8002,278206.728196118,2010-11-19 17:02:12,930.473063686664,2,25,0.5501165986061096,3.862445116043091,23.871921006064188,23.749749565426384,95.26070214229532,86.6559234097504,6.47544875391759e-05,0.0932833403348922,0,0,0
8003,278236.7433524409,2010-11-19 17:02:42,960.4882200095624,2,25,0.5501165986061096,3.86568284034729,23.876507479760164,23.749749565426384,95.27842499692622,86.6559234097504,9.713172767078504e-05,0.0932833403348922,0,0,0
8004,278266.7585958411,2010-11-19 17:03:12,990.5034634348816,2,25,0.5501165986061096,3.869082450866699,23.88109390260673,23.749749565426384,95.29616249056524,86.6559234097504,9.713172767078504e-05,0.0932833403348922,0,0,0
8005,278296.7757349183,2010-11-19 17:03:42,1020.5206024919896,2,25,0.550297200679779,3.872158288955689,23.885680655845487,23.749749565426384,95.31391586388388,86.6559234097504,9.713172767078504e-05,0.0932833403348922,0,0,0
8006,278326.789351603,2010-11-19 17:04:12,1050.5342191717018,2,25,0.5501165986061096,3.8752341270446777,23.89026688170165,23.749749565426384,95.33168141967684,86.6559234097504,9.713172767078504e-05,0.0932833403348922,0,0,0
8007,278356.80450102873,2010-11-19 17:04:42,1080.5493685973834,2,25,0.5501165986061096,3.878148078918457,23.8948532246979,23.749749565426384,95.3494611690796,86.6559234097504,6.47544875391759e-05,0.0932833403348922,0,0,0
8008,278386.81974471966,2010-11-19 17:05:12,1110.5646122933786,2,25,0.5501165986061096,3.8809001445770255,23.89943971473451,23.749749565426384,95.36725486315812,86.6559234097504,6.47544875391759e-05,0.0932833403348922,0,0,0
8009,278416.834878391,2010-11-19 17:05:42,1140.5797459597225,2,25,0.5501165986061096,3.883975982666016,23.90402610592429,23.749749565426384,95.38506099341056,86.6559234097504,0.0001295089750783,0.0932833403348922,0,0,0
8010,278446.8501558613,2010-11-19 17:06:12,1170.5950234300233,2,25,0.5499359965324402,3.886242389678955,23.908612583850285,23.749749565426384,95.4028796830632,86.6559234097504,3.237724376958795e-05,0.0932833403348922,0,0,0
8011,278476.865574484,2010-11-19 17:06:42,1200.6104421579248,2,25,0.5501165986061096,3.8888325691223145,23.913199054599968,23.749749565426384,95.42070993686184,86.6559234097504,9.713172767078504e-05,0.0932833403348922,0,0,0
8012,278506.88065415056,2010-11-19 17:07:12,1230.6255217192145,2,25,0.5499359965324402,3.891098976135254,23.917785536428006,23.749749565426384,95.43855117081588,86.6559234097504,3.237724376958795e-05,0.0932833403348922,0,0,0
8013,278536.89614330424,2010-11-19 17:07:42,1260.641010877922,2,25,0.5501165986061096,3.893203496932984,23.92237212758091,23.749749565426384,95.45640306720853,86.6559234097504,3.237724376958795e-05,0.0932833403348922,0,0,0
8014,278566.91121669015,2010-11-19 17:08:12,1290.6560842587846,2,25,0.5501165986061096,3.895146131515503,23.92695866680524,23.749749565426384,95.47426414931344,86.6559234097504,6.47544875391759e-05,0.0932833403348922,0,0,0
8015,278596.926448722,2010-11-19 17:08:42,1320.671316290664,2,25,0.5501165986061096,3.896926879882813,23.93154516396416,23.749749565426384,95.492133498496,86.6559234097504,3.237724376958795e-05,0.0932833403348922,0,0,0
8016,278626.94173888897,2010-11-19 17:09:12,1350.6866064526453,2,25,0.5501165986061096,3.898869514465332,23.93613159865317,23.749749565426384,95.51001084420596,86.6559234097504,9.713172767078504e-05,0.0932833403348922,0,0,0
8017,278656.9569372969,2010-11-19 17:09:42,1380.7018048756318,2,25,0.5501165986061096,3.9003264904022217,23.940718081862247,23.749749565426384,95.52789604020154,86.6559234097504,3.237724376958795e-05,0.0932833403348922,0,0,0
8018,278686.9722049076,2010-11-19 17:10:12,1410.7170724762966,2,25,0.5501165986061096,3.9017834663391113,23.945304525957248,23.749749565426384,95.54578827954572,86.6559234097504,0.0,0.0932833403348922,0,0,0
8019,278716.9874889844,2010-11-19 17:10:42,1440.7323565530885,2,25,0.5501165986061096,3.903240442276001,23.94989099067193,23.749749565426384,95.56368740795902,86.6559234097504,0.0,0.0932833403348922,0,0,0
8020,278747.00542392314,2010-11-19 17:11:12,1470.7502915870773,2,25,0.5501165986061096,3.90469741821289,23.95447785711542,23.749749565426384,95.58159469273669,86.6559234097504,0.0,0.0932833403348922,0,0,0
8021,278777.01804042124,2010-11-19 17:11:42,1500.762907989944,2,25,0.5501165986061096,3.9059925079345694,23.959063932892747,23.749749565426384,95.59950509960169,86.6559234097504,0.0,0.0932833403348922,0,0,0
8022,278807.0332498918,2010-11-19 17:12:12,1530.7781174705322,2,25,0.5501165986061096,3.90744948387146,23.963650406624748,23.749749565426384,95.61742322296536,86.6559234097504,3.237724376958795e-05,0.0932833403348922,0,0,0
8023,278837.04853305634,2010-11-19 17:12:42,1560.7934006250216,2,25,0.5499359965324402,3.9085826873779297,23.968236944101715,23.749749565426384,95.63534760770196,86.6559234097504,3.237724376958795e-05,0.0932833403348922,0,0,0
8024,278867.0637710632,2010-11-19 17:13:12,1590.8086386318157,2,25,0.5501165986061096,3.9100396633148193,23.972823385307635,23.749749565426384,95.65327765454242,86.6559234097504,3.237724376958795e-05,0.0932833403348922,0,0,0
8025,278897.0808345667,2010-11-19 17:13:42,1620.8257021353302,2,25,0.5501165986061096,3.911334753036499,23.97741021148284,23.749749565426384,95.67121515000592,86.6559234097504,0.0,0.0932833403348922,0,0,0
8026,278927.0942671769,2010-11-19 17:14:12,1650.8391347455763,2,25,0.5501165986061096,3.9126298427581783,23.981996407840526,23.749749565426384,95.68915621505067,86.6559234097504,3.237724376958795e-05,0.0932833403348922,0,0,0
8027,278957.10956740903,2010-11-19 17:14:42,1680.8544349776944,2,25,0.5501165986061096,3.913762807846069,23.98658293615973,23.749749565426384,95.7071045097922,86.6559234097504,0.0,0.0932833403348922,0,0,0
8028,278987.1248052203,2010-11-19 17:15:12,1710.869672789,2,25,0.5501165986061096,3.915219783782959,23.991169423580025,23.749749565426384,95.72505861390844,86.6559234097504,3.237724376958795e-05,0.0932833403348922,0,0,0
8029,279017.14005250024,2010-11-19 17:15:42,1740.8849200689413,2,25,0.5501165986061096,3.9163529872894287,23.995755901765605,23.749749565426384,95.74301838557096,86.6559234097504,0.0,0.0932833403348922,0,0,0
8030,279047.1554104665,2010-11-19 17:16:12,1770.9002780652474,2,25,0.5501165986061096,3.9178099632263184,24.00034241329779,23.749749565426384,95.76098433501812,86.6559234097504,3.237724376958795e-05,0.0932833403348922,0,0,0
8031,279077.17056004255,2010-11-19 17:16:42,1800.9154276112297,2,25,0.5501165986061096,3.919105052947998,24.004928814131404,23.749749565426384,95.77895575751867,86.6559234097504,6.47544875391759e-05,0.0932833403348922,0,0,0
8032,279107.1859330864,2010-11-19 17:17:12,1830.9308006550968,2,25,0.5501165986061096,3.9204001426696777,24.00951530256399,23.749749565426384,95.79693370336912,86.6559234097504,0.0,0.0932833403348922,0,0,0
8033,279137.2010622565,2010-11-19 17:17:42,1860.9459298252173,2,25,0.5501165986061096,3.921695232391357,24.01410179704535,23.749749565426384,95.81491772236645,86.6559234097504,3.237724376958795e-05,0.0932833403348922,0,0,0
8034,279167.2163163184,2010-11-19 17:18:12,1890.9611838870871,2,25,0.5501165986061096,3.923152208328247,24.018688277470265,23.749749565426384,95.8329079211904,86.6559234097504,0.0,0.0932833403348922,0,0,0
8035,279197.2315731923,2010-11-19 17:18:42,1920.9764407609764,2,25,0.5501165986061096,3.9247710704803462,24.023274804861703,23.749749565426384,95.850904544423,86.6559234097504,9.713172767078504e-05,0.0932833403348922,0,0,0
8036,279227.2487751064,2010-11-19 17:19:12,1950.9936426799973,2,25,0.5501165986061096,3.925904273986816,24.02786163035829,23.749749565426384,95.86890871759572,86.6559234097504,3.237724376958795e-05,0.0932833403348922,0,0,0
8037,279257.26210294,2010-11-19 17:19:42,1981.0069705337555,2,25,0.5501165986061096,3.927199363708496,24.03244781792655,23.749749565426384,95.88691664821732,86.6559234097504,3.237724376958795e-05,0.0932833403348922,0,0,0
8038,279287.27748454025,2010-11-19 17:20:12,2011.022352108918,2,25,0.5501165986061096,3.9286563396453857,24.0370343441191,23.749749565426384,95.90493238795254,86.6559234097504,3.237724376958795e-05,0.0932833403348922,0,0,0
8039,279317.2927043767,2010-11-19 17:20:42,2041.0375719503684,2,25,0.5501165986061096,3.9301133155822754,24.041620858066796,23.749749565426384,95.92295449652909,86.6559234097504,6.47544875391759e-05,0.0932833403348922,0,0,0
8040,279347.3078730955,2010-11-19 17:21:12,2071.0527406641963,2,25,0.5501165986061096,3.931732177734375,24.04620736635048,23.749749565426384,95.94098300579216,86.6559234097504,9.713172767078504e-05,0.0932833403348922,0,0,0
8041,279377.323114992,2010-11-19 17:21:43,2101.0679825607,2,25,0.5501165986061096,3.933027267456055,24.05079387886094,23.749749565426384,95.95901803516814,86.6559234097504,9.713172767078504e-05,0.0932833403348922,0,0,0
8042,279407.33847585047,2010-11-19 17:22:13,2131.08334341915,2,25,0.5501165986061096,3.9343223571777344,24.0553804225421,23.749749565426384,95.97705974659178,86.6559234097504,6.47544875391759e-05,0.0932833403348922,0,0,0
8043,279437.3537372707,2010-11-19 17:22:43,2161.0986048393875,2,25,0.5501165986061096,3.935779333114624,24.05996691141448,23.749749565426384,95.9951079673716,86.6559234097504,3.237724376958795e-05,0.0932833403348922,0,0,0
8044,279467.3689342,2010-11-19 17:23:13,2191.113801798721,2,25,0.550297200679779,3.937398195266724,24.064553387049525,23.749749565426384,96.0131627292554,86.6559234097504,3.237724376958795e-05,0.0932833403348922,0,0,0
8045,279497.3841692895,2010-11-19 17:23:43,2221.1290368631703,2,25,0.5501165986061096,3.9386932849884033,24.06913982173817,23.749749565426384,96.03122424840558,86.6559234097504,3.237724376958795e-05,0.0932833403348922,0,0,0
8046,279527.3994571156,2010-11-19 17:24:13,2251.144324684308,2,25,0.5501165986061096,3.940150260925293,24.07372626263008,23.749749565426384,96.0492925521772,86.6559234097504,0.0,0.0932833403348922,0,0,0
8047,279557.4146857841,2010-11-19 17:24:43,2281.159553362817,2,25,0.5501165986061096,3.9417691230773926,24.078312657284823,23.749749565426384,96.06736746997473,86.6559234097504,6.47544875391759e-05,0.0932833403348922,0,0,0
8048,279587.4300753442,2010-11-19 17:25:13,2311.174942917899,2,25,0.5501165986061096,3.943226099014282,24.08289911123943,23.749749565426384,96.08544943993395,86.6559234097504,3.237724376958795e-05,0.0932833403348922,0,0,0
8049,279617.4451974366,2010-11-19 17:25:43,2341.1900650053403,2,25,0.5499359965324402,3.944683074951172,24.087485555133664,23.749749565426384,96.10353830695202,86.6559234097504,6.47544875391759e-05,0.0932833403348922,0,0,0
8050,279647.4605536435,2010-11-19 17:26:13,2371.2054212372423,2,25,0.5501165986061096,3.946301937103272,24.09207199274392,23.749749565426384,96.1216340995456,86.6559234097504,6.47544875391759e-05,0.0932833403348922,0,0,0
8051,279677.47569914936,2010-11-19 17:26:43,2401.220566743139,2,25,0.5501165986061096,3.947597026824951,24.09665847186248,23.749749565426384,96.13973695408843,86.6559234097504,0.0,0.0932833403348922,0,0,0
8052,279707.49100793287,2010-11-19 17:27:13,2431.2358755015407,2,25,0.5501165986061096,3.9493777751922607,24.10124487433892,23.749749565426384,96.1578466176166,86.6559234097504,6.47544875391759e-05,0.0932833403348922,0,0,0
8053,279737.5064486056,2010-11-19 17:27:43,2461.251316179232,2,25,0.5501165986061096,3.9508347511291504,24.105831382752665,23.749749565426384,96.17596379001068,86.6559234097504,3.237724376958795e-05,0.0932833403348922,0,0,0
8054,279767.5216320962,2010-11-19 17:28:13,2491.266499664933,2,25,0.5501165986061096,3.95261549949646,24.110417860841988,23.749749565426384,96.19408799813984,86.6559234097504,6.47544875391759e-05,0.0932833403348922,0,0,0
8055,279797.5367658278,2010-11-19 17:28:43,2521.28163339644,2,25,0.5501165986061096,3.95391058921814,24.11500428740049,23.749749565426384,96.21221921965784,86.6559234097504,3.237724376958795e-05,0.0932833403348922,0,0,0
8056,279827.55393531086,2010-11-19 17:29:13,2551.298802879496,2,25,0.5501165986061096,3.955691337585449,24.1195909628622,23.749749565426384,96.23035865623088,86.6559234097504,6.47544875391759e-05,0.0932833403348922,0,0,0
8057,279857.56743501854,2010-11-19 17:29:43,2581.3123025972523,2,25,0.550297200679779,3.957310199737549,24.124177170388748,23.749749565426384,96.24850359913276,86.6559234097504,6.47544875391759e-05,0.0932833403348922,0,0,0
8058,279887.5825498028,2010-11-19 17:30:13,2611.327417391489,2,25,0.5501165986061096,3.958929061889648,24.128763589815257,23.749749565426384,96.26665666866832,86.6559234097504,9.713172767078504e-05,0.0932833403348922,0,0,0
8059,279917.597811609,2010-11-19 17:30:43,2641.34267917764,2,25,0.5499359965324402,3.960386037826538,24.133350014785066,23.749749565426384,96.2848172222902,86.6559234097504,6.47544875391759e-05,0.0932833403348922,0,0,0
8060,279947.61312277336,2010-11-19 17:31:13,2671.3579903520717,2,25,0.550297200679779,3.962166786193848,24.137936430429047,23.749749565426384,96.30298523305648,86.6559234097504,6.47544875391759e-05,0.0932833403348922,0,0,0
8061,279977.62847759173,2010-11-19 17:31:43,2701.3733452005195,2,25,0.5497553944587708,3.963623762130737,24.14252285893538,23.749749565426384,96.32116078031872,86.6559234097504,3.237724376958795e-05,0.0932833403348922,0,0,0
8062,280007.6435701454,2010-11-19 17:32:13,2731.3884377141403,2,25,0.5501165986061096,3.965404510498047,24.14710925053629,23.749749565426384,96.33934387310816,86.6559234097504,6.47544875391759e-05,0.0932833403348922,0,0,0
8063,280037.6588259717,2010-11-19 17:32:43,2761.4036935654767,2,25,0.5501165986061096,3.967185258865357,24.151695678397115,23.749749565426384,96.35753484430846,86.6559234097504,6.47544875391759e-05,0.0932833403348922,0,0,0
8064,280067.6741072766,2010-11-19 17:33:13,2791.418974845287,2,25,0.5499359965324402,3.968642234802246,24.15628216167616,23.749749565426384,96.3757336931321,86.6559234097504,0.0,0.0932833403348922,0,0,0
8065,280097.689386772,2010-11-19 17:33:43,2821.4342543406424,2,25,0.550297200679779,3.9705848693847656,24.160868621005385,23.749749565426384,96.39394027786923,86.6559234097504,6.47544875391759e-05,0.0932833403348922,0,0,0
8066,280127.7045957463,2010-11-19 17:34:13,2851.4494633149666,2,25,0.5501165986061096,3.972203731536865,24.165455029405337,23.749749565426384,96.41215455337884,86.6559234097504,3.237724376958795e-05,0.0932833403348922,0,0,0
8067,280157.71990520146,2010-11-19 17:34:43,2881.4647727701067,2,25,0.5501165986061096,3.973984479904175,24.170041525858142,23.749749565426384,96.43037704558868,86.6559234097504,9.713172767078504e-05,0.0932833403348922,0,0,0
8068,280187.7351248976,2010-11-19 17:35:13,2911.4799924661947,2,25,0.550297200679779,3.975765228271485,24.174627965822125,23.749749565426384,96.44860734695436,86.6559234097504,6.47544875391759e-05,0.0932833403348922,0,0,0
8069,280217.75040730013,2010-11-19 17:35:43,2941.495274893869,2,25,0.5499359965324402,3.977222204208374,24.179214474261578,23.749749565426384,96.466846016871,86.6559234097504,0.0,0.0932833403348922,0,0,0
8070,280247.76575182786,2010-11-19 17:36:13,2971.5106193914808,2,25,0.5501165986061096,3.979326725006104,24.18380086215275,23.749749565426384,96.48509172193543,86.6559234097504,6.47544875391759e-05,0.0932833403348922,0,0,0
8071,280277.78100001503,2010-11-19 17:36:43,3001.5258675937243,2,25,0.5499359965324402,3.980945587158203,24.18838730539136,23.749749565426384,96.50334636899376,86.6559234097504,6.47544875391759e-05,0.0932833403348922,0,0,0
8072,280307.79614845326,2010-11-19 17:37:13,3031.541016021916,2,25,0.5501165986061096,3.9827263355255127,24.192973653276933,23.749749565426384,96.52160885264152,86.6559234097504,3.237724376958795e-05,0.0932833403348922,0,0,0
8073,280337.81138826953,2010-11-19 17:37:43,3061.556255838227,2,25,0.550297200679779,3.984830856323242,24.19756004003377,23.749749565426384,96.53987961804006,86.6559234097504,9.713172767078504e-05,0.0932833403348922,0,0,0
8074,280367.8266824516,2010-11-19 17:38:13,3091.571550020243,2,25,0.5499359965324402,3.986449718475342,24.202146422004063,23.749749565426384,96.55815864432068,86.6559234097504,3.237724376958795e-05,0.0932833403348922,0,0,0
8075,280397.84190781176,2010-11-19 17:38:43,3121.586775380469,2,25,0.5499359965324402,3.9882304668426514,24.20673276065092,23.749749565426384,96.57644587073928,86.6559234097504,6.47544875391759e-05,0.0932833403348922,0,0,0
8076,280427.85717147763,2010-11-19 17:39:13,3151.602039046312,2,25,0.5501165986061096,3.990173101425171,24.21131912101153,23.749749565426384,96.5947415833366,86.6559234097504,3.237724376958795e-05,0.0932833403348922,0,0,0
8077,280457.85867934686,2010-11-19 17:39:43,3181.603546920582,2,25,0.5501165986061096,3.9921157360076895,24.2159033493482,23.749749565426384,96.6130374655442,86.6559234097504,6.47544875391759e-05,0.0932833403348922,0,0,0
8078,280487.87230587617,2010-11-19 17:40:13,3211.617173444868,2,25,0.5499359965324402,3.99373459815979,24.220489471390348,23.749749565426384,96.63134964038407,86.6559234097504,3.237724376958795e-05,0.0932833403348922,0,0,0
8079,280517.8873651017,2010-11-19 17:40:43,3241.632232680421,2,25,0.5501165986061096,3.995838880538941,24.22507579425828,23.749749565426384,96.64967139657736,86.6559234097504,6.47544875391759e-05,0.0932833403348922,0,0,0
8080,280547.90256582544,2010-11-19 17:41:13,3271.647433404152,2,25,0.5501165986061096,3.99778151512146,24.229662182452824,23.749749565426384,96.6680022637096,86.6559234097504,3.237724376958795e-05,0.0932833403348922,0,0,0
8081,280577.91786516533,2010-11-19 17:41:43,3301.662732744042,2,25,0.5501165986061096,3.99972414970398,24.23424856311879,23.749749565426384,96.68634198749648,86.6559234097504,3.237724376958795e-05,0.0932833403348922,0,0,0
8082,280607.9333750859,2010-11-19 17:42:13,3331.6782427848743,2,25,0.5501165986061096,4.001828670501709,24.238834978269036,23.749749565426384,96.70469105230876,86.6559234097504,6.47544875391759e-05,0.0932833403348922,0,0,0
8083,280637.9483342917,2010-11-19 17:42:43,3361.693201860413,2,25,0.5501165986061096,4.0037713050842285,24.24342127450461,23.749749565426384,96.7230489877899,86.6559234097504,6.47544875391759e-05,0.0932833403348922,0,0,0
8084,280667.96371722023,2010-11-19 17:43:13,3391.708584788954,2,25,0.5499359965324402,4.005713939666748,24.24800763543044,23.749749565426384,96.74141664884635,86.6559234097504,0.0,0.0932833403348922,0,0,0
8085,280697.981672986,2010-11-19 17:43:43,3421.7265405847675,2,25,0.5501165986061096,4.007980346679688,24.252594363006,23.749749565426384,96.75979537759711,86.6559234097504,3.23295607813634e-05,0.0932833403348922,0,0,0
8086,280727.9942074293,2010-11-19 17:44:13,3451.7390750280506,2,25,0.5501165986061096,4.010246753692627,24.257180334350657,23.749749565426384,96.7781806989896,86.6559234097504,9.70840483205393e-05,0.0932833403348922,0,0,0
8087,280758.009359266,2010-11-19 17:44:43,3481.754226834676,2,25,0.5501165986061096,4.0121893882751465,24.261766657414523,23.749749565426384,96.79657713930456,86.6559234097504,6.47544875391759e-05,0.0932833403348922,0,0,0
8088,280788.02462137793,2010-11-19 17:45:13,3511.7694889516524,2,25,0.5499359965324402,4.014455795288086,24.26635302726737,23.749749565426384,96.8149835760028,86.6559234097504,6.47544875391759e-05,0.0932833403348922,0,0,0
8089,280818.0398858859,2010-11-19 17:45:43,3541.7847534545845,2,25,0.5497553944587708,4.0163984298706055,24.270939359071548,23.749749565426384,96.83339981249031,86.6559234097504,6.47544875391759e-05,0.0932833403348922,0,0,0
8090,280848.05513028364,2010-11-19 17:46:13,3571.799997852332,2,25,0.5499359965324402,4.018826961517334,24.275525727280765,23.749749565426384,96.85182628097672,86.6559234097504,3.24249267578125e-05,0.0932833403348922,0,0,0
8091,280878.07038239564,2010-11-19 17:46:43,3601.8152499693465,2,25,0.5501165986061096,4.020931243896484,24.280112135511573,23.749749565426384,96.87026294189836,86.6559234097504,6.47544875391759e-05,0.0932833403348922,0,0,0
8092,280908.0856786128,2010-11-19 17:47:13,3631.8305461914542,2,25,0.5501165986061096,4.023197650909424,24.28469850676851,23.749749565426384,96.88870981874756,86.6559234097504,3.23295607813634e-05,0.0932833403348922,0,0,0
8093,280938.1009383237,2010-11-19 17:47:43,3661.845805917463,2,25,0.5501165986061096,4.025626182556152,24.289284854503403,23.749749565426384,96.90716696392944,86.6559234097504,9.71794142969884e-05,0.0932833403348922,0,0,0
8094,280968.1161658694,2010-11-19 17:48:13,3691.8610334380814,2,25,0.5499359965324402,4.027730464935303,24.29387118617121,23.749749565426384,96.92563437613843,86.6559234097504,6.47544875391759e-05,0.0932833403348922,0,0,0
8095,280998.131539204,2010-11-19 17:48:43,3721.876406772675,2,25,0.5501165986061096,4.029996871948242,24.29845762506876,23.749749565426384,96.94411272700772,86.6559234097504,3.23295607813634e-05,0.0932833403348922,0,0,0
8096,281028.1468044187,2010-11-19 17:49:13,3751.891671987384,2,25,0.5501165986061096,4.032425403594971,24.303043939467177,23.749749565426384,96.96260124205295,86.6559234097504,6.47544875391759e-05,0.0932833403348922,0,0,0
8097,281058.16385566164,2010-11-19 17:49:43,3781.908723325532,2,25,0.5501165986061096,4.034691333770752,24.30763058376215,23.749749565426384,96.9811018640674,86.6559234097504,3.23295607813634e-05,0.0932833403348922,0,0,0
8098,281088.1772670389,2010-11-19 17:50:13,3811.922134722827,2,25,0.5497553944587708,4.0371198654174805,24.3122166566642,23.749749565426384,96.99961098252078,86.6559234097504,6.47544875391759e-05,0.0932833403348922,0,0,0
8099,281118.1924462289,2010-11-19 17:50:43,3841.9373137975176,2,25,0.5501165986061096,4.03971004486084,24.31680307015776,23.749749565426384,97.01813247678044,86.6559234097504,6.47544875391759e-05,0.0932833403348922,0,0,0
8100,281148.2077687917,2010-11-19 17:51:13,3871.952636390451,2,25,0.5501165986061096,4.041976451873779,24.32138955655532,23.749749565426384,97.0366651871852,86.6559234097504,9.71794142969884e-05,0.0932833403348922,0,0,0
8101,281178.2229819314,2010-11-19 17:51:43,3901.9678495051103,2,25,0.5501165986061096,4.04440450668335,24.32597593087737,23.749749565426384,97.05520866501428,86.6559234097504,9.70840483205393e-05,0.0932833403348922,0,0,0
8102,281208.2383457222,2010-11-19 17:52:13,3931.983213305906,2,25,0.5501165986061096,4.046994686126709,24.330562291457092,23.749749565426384,97.07376344587747,86.6559234097504,6.47544875391759e-05,0.0932833403348922,0,0,0
8103,281238.2536087414,2010-11-19 17:52:43,3961.9984763201214,2,25,0.5501165986061096,4.0494232177734375,24.33514862460531,23.749749565426384,97.09232962670865,86.6559234097504,6.47544875391759e-05,0.0932833403348922,0,0,0
8104,281268.2687604929,2010-11-19 17:53:13,3992.0136280716097,2,25,0.5499359965324402,4.052013397216797,24.339735012389447,23.749749565426384,97.11090753947369,86.6559234097504,9.71794142969884e-05,0.0932833403348922,0,0,0
8105,281298.2840035724,2010-11-19 17:53:43,4022.028871141041,2,25,0.5499359965324402,4.054441452026367,24.344321438185244,23.749749565426384,97.1294972368362,86.6559234097504,3.23295607813634e-05,0.0932833403348922,0,0,0
8106,281328.2992389576,2010-11-19 17:54:14,4052.044106536316,2,25,0.5501165986061096,4.057193756103516,24.34890779353293,23.749749565426384,97.148098468478,86.6559234097504,9.71794142969884e-05,0.0932833403348922,0,0,0
8107,281358.31453952554,2010-11-19 17:54:44,4082.059407104272,2,25,0.5501165986061096,4.059621810913086,24.35349418534565,23.749749565426384,97.16671176247937,86.6559234097504,6.47544875391759e-05,0.0932833403348922,0,0,0
8108,281388.3298452865,2010-11-19 17:55:14,4112.074712880229,2,25,0.5501165986061096,4.062211990356445,24.35808092943224,23.749749565426384,97.18533801652973,86.6559234097504,6.47544875391759e-05,0.0932833403348922,0,0,0
8109,281418.3449097651,2010-11-19 17:55:44,4142.0897773588695,2,25,0.5501165986061096,4.064802169799805,24.36266803312285,23.749749565426384,97.20397773192344,86.6559234097504,6.47544875391759e-05,0.0932833403348922,0,0,0
8110,281448.3602388443,2010-11-19 17:56:14,4172.105106432981,2,25,0.550297200679779,4.067554473876953,24.36725507238781,23.749749565426384,97.22262935269468,86.6559234097504,6.47544875391759e-05,0.0932833403348922,0,0,0
8111,281478.37561695074,2010-11-19 17:56:44,4202.120484544498,2,25,0.550297200679779,4.0701446533203125,24.371842273994044,23.749749565426384,97.2412939642624,86.6559234097504,6.47544875391759e-05,0.0932833403348922,0,0,0
8112,281508.3908845564,2010-11-19 17:57:14,4232.135752125112,2,25,0.5501165986061096,4.072896480560303,24.376429443965545,23.749749565426384,97.25997077033384,86.6559234097504,9.70840483205393e-05,0.0932833403348922,0,0,0
8113,281538.4059319775,2010-11-19 17:57:44,4262.150799546174,2,25,0.5499359965324402,4.075648784637451,24.38101658504187,23.749749565426384,97.2786600148422,86.6559234097504,6.47544875391759e-05,0.0932833403348922,0,0,0
8114,281568.42129957274,2010-11-19 17:58:14,4292.166167141441,2,25,0.550297200679779,4.078562736511231,24.38560364091931,23.749749565426384,97.29736151721052,86.6559234097504,9.71794142969884e-05,0.0932833403348922,0,0,0
8115,281598.4365219004,2010-11-19 17:58:44,4322.181389469099,2,25,0.5499359965324402,4.08115291595459,24.39019015798435,23.749749565426384,97.31607368289276,86.6559234097504,3.24249267578125e-05,0.0932833403348922,0,0,0
8116,281628.4519091948,2010-11-19 17:59:14,4352.196776763537,2,25,0.5501165986061096,4.08390474319458,24.394776651460383,23.749749565426384,97.33479853111,86.6559234097504,6.47544875391759e-05,0.0932833403348922,0,0,0
8117,281658.46893402684,2010-11-19 17:59:44,4382.213801605546,2,25,0.5501165986061096,4.086818695068359,24.39936345581112,23.749749565426384,97.35353775661444,86.6559234097504,6.47544875391759e-05,0.0932833403348922,0,0,0
8118,281688.48229731404,2010-11-19 18:00:14,4412.227164882726,2,25,0.5501165986061096,4.089570999145508,24.40394965519036,23.749749565426384,97.3722877072112,86.6559234097504,6.47544875391759e-05,0.0932833403348922,0,0,0
8119,281718.4975971051,2010-11-19 18:00:44,4442.242464673744,2,25,0.5501165986061096,4.092808723449707,24.40853618620283,23.749749565426384,97.39105228576236,86.6559234097504,9.71794142969884e-05,0.0932833403348922,0,0,0
8120,281748.5128209114,2010-11-19 18:01:14,4472.25768848009,2,25,0.5501165986061096,4.095722675323486,24.41312268856052,23.749749565426384,97.40983019180904,86.6559234097504,0.0001295089750783,0.0932833403348922,0,0,0
8121,281778.52814069734,2010-11-19 18:01:44,4502.273008266018,2,25,0.5499359965324402,4.098636627197266,24.41770921371801,23.749749565426384,97.42862180761826,86.6559234097504,6.47544875391759e-05,0.0932833403348922,0,0,0
8122,281808.5433139224,2010-11-19 18:02:14,4532.288181491107,2,25,0.5501165986061096,4.101712226867676,24.422295736408067,23.749749565426384,97.44742714938992,86.6559234097504,0.0001295089750783,0.0932833403348922,0,0,0
8123,281838.5585676334,2010-11-19 18:02:44,4562.3034352021,2,25,0.5501165986061096,4.104626178741455,24.42688220216746,23.749749565426384,97.46624600669868,86.6559234097504,9.70840483205393e-05,0.0932833403348922,0,0,0
8124,281868.57382790075,2010-11-19 18:03:14,4592.31869546946,2,25,0.5499359965324402,4.107540130615234,24.43146867691227,23.749749565426384,97.48507888844772,86.6559234097504,6.47544875391759e-05,0.0932833403348922,0,0,0
8125,281898.58908929094,2010-11-19 18:03:44,4622.333956859623,2,25,0.550297200679779,4.110777854919434,24.436055136423445,23.749749565426384,97.50392570812468,86.6559234097504,9.70840483205393e-05,0.0932833403348922,0,0,0
8126,281928.6044561794,2010-11-19 18:04:14,4652.349323748124,2,25,0.5497553944587708,4.113691806793213,24.44064093740925,23.749749565426384,97.5227837264552,86.6559234097504,6.47544875391759e-05,0.0932833403348922,0,0,0
8127,281958.61959115404,2010-11-19 18:04:44,4682.36445873276,2,25,0.5499359965324402,4.116767406463623,24.445226522760485,23.749749565426384,97.5416548585688,86.6559234097504,6.47544875391759e-05,0.0932833403348922,0,0,0
8128,281988.6348801832,2010-11-19 18:05:14,4712.379747756901,2,25,0.5501165986061096,4.120005130767822,24.449812166585293,23.749749565426384,97.56054045157174,86.6559234097504,6.47544875391759e-05,0.0932833403348922,0,0,0
8129,282018.6501325158,2010-11-19 18:05:44,4742.395000084442,2,25,0.5501165986061096,4.123081207275391,24.454397843941777,23.749749565426384,97.57944060852545,86.6559234097504,0.0001295089750783,0.0932833403348922,0,0,0
8130,282048.6653601567,2010-11-19 18:06:14,4772.4102277253605,2,25,0.550297200679779,4.12664270401001,24.458984225696504,23.749749565426384,97.59835834492364,86.6559234097504,0.0001295089750783,0.0932833403348922,0,0,0
8131,282078.68069546134,2010-11-19 18:06:44,4802.425563030025,2,25,0.5501165986061096,4.129556655883789,24.463570758078408,23.749749565426384,97.61729145678088,86.6559234097504,6.47544875391759e-05,0.0932833403348922,0,0,0
8132,282108.69586729293,2010-11-19 18:07:14,4832.440734861636,2,25,0.5499359965324402,4.132794380187988,24.468157302662625,23.749749565426384,97.6362394147381,86.6559234097504,6.47544875391759e-05,0.0932833403348922,0,0,0
8133,282138.71116791107,2010-11-19 18:07:44,4862.456035484729,2,25,0.5501165986061096,4.136032104492188,24.47274380084501,23.749749565426384,97.65520199924552,86.6559234097504,6.47544875391759e-05,0.0932833403348922,0,0,0
8134,282168.7263827901,2010-11-19 18:08:14,4892.471250353768,2,25,0.5501165986061096,4.139269828796387,24.477330255011783,23.749749565426384,97.674179440488,86.6559234097504,6.47544875391759e-05,0.0932833403348922,0,0,0
8135,282198.741849558,2010-11-19 18:08:44,4922.486717136621,2,25,0.5501165986061096,4.142831325531006,24.48191680767716,23.749749565426384,97.69317246115608,86.6559234097504,0.0001295089750783,0.0932833403348922,0,0,0
8136,282228.7568976105,2010-11-19 18:09:14,4952.501765179236,2,25,0.5501165986061096,4.146069049835205,24.4865032356034,23.749749565426384,97.71218036592532,86.6559234097504,3.24249267578125e-05,0.0932833403348922,0,0,0
8137,282258.77402378555,2010-11-19 18:09:44,4982.518891354188,2,25,0.5501165986061096,4.149630546569824,24.491089973255384,23.749749565426384,97.73120522373792,86.6559234097504,9.71794142969884e-05,0.0932833403348922,0,0,0
8138,282288.7874054035,2010-11-19 18:10:14,5012.53227297215,2,25,0.550297200679779,4.153029918670654,24.495676128181312,23.749749565426384,97.75024322165572,86.6559234097504,9.70840483205393e-05,0.0932833403348922,0,0,0
8139,282318.80265389144,2010-11-19 18:10:44,5042.5475214601065,2,25,0.5501165986061096,4.1562676429748535,24.50026258865829,23.749749565426384,97.7692981323229,86.6559234097504,6.47544875391759e-05,0.0932833403348922,0,0,0
8140,282348.81792762736,2010-11-19 18:11:14,5072.562795191073,2,25,0.550297200679779,4.159667491912842,24.50484899755195,23.749749565426384,97.78836862286128,86.6559234097504,9.71794142969884e-05,0.0932833403348922,0,0,0
8141,282378.833348626,2010-11-19 18:11:44,5102.578216204681,2,25,0.5499359965324402,4.163228988647461,24.50943542946832,23.749749565426384,97.80745519542708,86.6559234097504,9.71794142969884e-05,0.0932833403348922,0,0,0
8142,282408.8489724709,2010-11-19 18:12:14,5132.5938401598605,2,25,0.5501165986061096,4.16679048538208,24.51402197505344,23.749749565426384,97.8265583537655,86.6559234097504,9.71794142969884e-05,0.0932833403348922,0,0,0
8143,282438.86381825863,2010-11-19 18:12:44,5162.608685827315,2,25,0.5499359965324402,4.170351982116699,24.518608328573176,23.749749565426384,97.84567683816982,86.6559234097504,9.71794142969884e-05,0.0932833403348922,0,0,0
8144,282468.8788972836,2010-11-19 18:13:14,5192.623764852266,2,25,0.550297200679779,4.174075126647949,24.523194788033027,23.749749565426384,97.86481205280568,86.6559234097504,0.0001618385285837,0.0932833403348922,0,0,0
8145,282498.89419081394,2010-11-19 18:13:44,5222.639058402705,2,25,0.5501165986061096,4.1774749755859375,24.52778136239907,23.749749565426384,97.88396414531572,86.6559234097504,9.71794142969884e-05,0.0932833403348922,0,0,0
8146,282528.9095348204,2010-11-19 18:14:14,5252.654402394052,2,25,0.5501165986061096,4.181036472320557,24.53236783413888,23.749749565426384,97.90313236816854,86.6559234097504,6.47544875391759e-05,0.0932833403348922,0,0,0
8147,282558.92467106314,2010-11-19 18:14:44,5282.6695386418405,2,25,0.5501165986061096,4.184759616851807,24.536954335873173,23.749749565426384,97.92231728612089,86.6559234097504,9.70840483205393e-05,0.0932833403348922,0,0,0
8148,282588.9399202127,2010-11-19 18:15:14,5312.684787781423,2,25,0.550297200679779,4.188483238220215,24.5415408629829,23.749749565426384,97.941518965241,86.6559234097504,9.71794142969884e-05,0.0932833403348922,0,0,0
8149,282618.955994477,2010-11-19 18:15:44,5342.7008620456445,2,25,0.5501165986061096,4.192044734954834,24.54612752369812,23.749749565426384,97.96073801936596,86.6559234097504,9.71794142969884e-05,0.0932833403348922,0,0,0
8150,282648.95766438567,2010-11-19 18:16:14,5372.702531949366,2,25,0.5501165986061096,4.195767879486084,24.55071197391465,23.749749565426384,97.97996453431163,86.6559234097504,0.0001295089750783,0.0932833403348922,0,0,0
8151,282678.9702282825,2010-11-19 18:16:44,5402.715095861207,2,25,0.5501165986061096,4.199491024017334,24.55529807785432,23.749749565426384,97.99921486750674,86.6559234097504,0.0001295089750783,0.0932833403348922,0,0,0
8152,282683.39189439634,2010-11-19 18:16:49,5407.136761965059,2,25,0.550297200679779,4.200138568878174,24.55597374746089,23.749749565426384,98.00205247440869,86.6559234097504,9.70840483205393e-05,0.0932833403348922,0,0,0
8153,282713.4018992263,2010-11-19 18:17:19,30.01519300947365,3,25,0.0,4.109644889831543,24.55597374746089,23.749749565426384,98.00205247440869,86.6559234097504,-0.0004208564641885,0.0932833403348922,0,0,0
8154,282743.4171599899,2010-11-19 18:17:49,60.0304537680595,3,25,0.0,4.098312854766846,24.55597374746089,23.749749565426384,98.00205247440869,86.6559234097504,-0.0002265930233988,0.0932833403348922,0,0,0
8155,282773.43240678863,2010-11-19 18:18:19,90.04570056679944,3,25,0.0,4.091513633728027,24.55597374746089,23.749749565426384,98.00205247440869,86.6559234097504,-0.0001618385285837,0.0932833403348922,0,0,0
8156,282803.4007785751,2010-11-19 18:18:49,120.0140723683348,3,25,0.0,4.087142467498779,24.55597374746089,23.749749565426384,98.00205247440869,86.6559234097504,-9.71794142969884e-05,0.0932833403348922,0,0,0
8157,282803.4127130573,2010-11-19 18:18:49,2.676681409e-06,4,25,0.9900808334350586,4.199814796447754,24.55597374819704,23.749749565426384,98.00205247750036,86.6559234097504,0.0,0.0932833403348922,0,0,0
8158,282804.3814748708,2010-11-19 18:18:50,0.968764510258299,4,25,0.9389683604240416,4.199653148651123,24.55623159940065,23.749749565426384,98.00313540651877,86.6559234097504,-3.23295607813634e-05,0.0932833403348922,0,0,0
8159,282806.615791143,2010-11-19 18:18:52,3.203080777402054,4,25,0.888939619064331,4.199653148651123,24.556797827456226,23.749749565426384,98.0055134588,86.6559234097504,-3.23295607813634e-05,0.0932833403348922,0,0,0
8160,282810.0065140891,2010-11-19 18:18:55,6.593803723525261,4,25,0.8383690118789673,4.199653148651123,24.557610400352093,23.749749565426384,98.00892610049306,86.6559234097504,0.0,0.0932833403348922,0,0,0
8161,282814.6469399359,2010-11-19 18:19:00,11.234229575363118,4,25,0.7883402705192566,4.199814796447754,24.558657768670507,23.749749565426384,98.01332486582106,86.6559234097504,3.23295607813634e-05,0.0932833403348922,0,0,0
8162,282820.69654314127,2010-11-19 18:19:06,17.283832855859433,4,25,0.7381308674812317,4.199814796447754,24.559938905490064,23.749749565426384,98.01870543959058,86.6559234097504,3.23295607813634e-05,0.0932833403348922,0,0,0
8163,282828.6000116295,2010-11-19 18:19:14,25.18730137921196,4,25,0.688102126121521,4.199814796447754,24.561502281130256,23.749749565426384,98.0252713558674,86.6559234097504,0.0,0.0932833403348922,0,0,0
8164,282839.1622631743,2010-11-19 18:19:25,35.74955281375433,4,25,0.6380733251571655,4.199653148651123,24.563444036962483,23.749749565426384,98.03342640826352,86.6559234097504,-3.23295607813634e-05,0.0932833403348922,0,0,0
8165,282854.00587938906,2010-11-19 18:19:39,50.59316902344698,4,25,0.5880445837974548,4.199814796447754,24.56596556914143,23.749749565426384,98.04401643313533,86.6559234097504,-3.24249267578125e-05,0.0932833403348922,0,0,0
8166,282877.1462057687,2010-11-19 18:20:03,73.73349539812841,4,25,0.5380157828330994,4.199814796447754,24.56957203794233,23.749749565426384,98.0591630097682,86.6559234097504,0.0,0.0932833403348922,0,0,0
8167,282918.2081472118,2010-11-19 18:20:44,114.79543684620457,4,25,0.4879870116710663,4.199814796447754,24.575394148919635,23.749749565426384,98.08361495395836,86.6559234097504,0.0,0.0932833403348922,0,0,0
8168,282994.1134476143,2010-11-19 18:22:00,190.7007372537603,4,25,0.4379582405090332,4.199653148651123,24.585113001162338,23.749749565426384,98.12443259712158,86.6559234097504,-3.23295607813634e-05,0.0932833403348922,0,0,0
8169,283106.8465509087,2010-11-19 18:23:52,303.43384053811246,4,25,0.3879294693470001,4.199814796447754,24.59801752943532,23.749749565426384,98.17862952570866,86.6559234097504,-3.24249267578125e-05,0.0932833403348922,0,0,0
8170,283244.9228796227,2010-11-19 18:26:10,441.5101692571072,4,25,0.3375394940376282,4.199814796447754,24.611915640121648,23.749749565426384,98.23699941907428,86.6559234097504,0.0,0.0932833403348922,0,0,0
8171,283411.32719587174,2010-11-19 18:28:57,607.9144856966043,4,25,0.2875107228755951,4.199814796447754,24.626343381020995,23.749749565426384,98.29759364274364,86.6559234097504,-3.24249267578125e-05,0.0932833403348922,0,0,0
8172,283612.4496871067,2010-11-19 18:32:18,809.0369768815235,4,25,0.237481951713562,4.199814796447754,24.64097543058988,23.749749565426384,98.35904598928568,86.6559234097504,3.23295607813634e-05,0.0932833403348922,0,0,0
8173,283863.7433449423,2010-11-19 18:36:29,1060.3306345666683,4,25,0.1874531805515289,4.199814796447754,24.655749530625368,23.749749565426384,98.4210948804824,86.6559234097504,0.0,0.0932833403348922,0,0,0
8174,284198.5360552187,2010-11-19 18:42:04,1395.1233448430892,4,25,0.1374244093894958,4.199491024017334,24.67076088763636,23.749749565426384,98.48414022846605,86.6559234097504,-6.47544875391759e-05,0.0932833403348922,0,0,0
8175,284706.07665319944,2010-11-19 18:50:32,1902.6639428288304,4,25,0.0873956456780433,4.199814796447754,24.686363895336186,23.749749565426384,98.54967038589795,86.6559234097504,3.23295607813634e-05,0.0932833403348922,0,0,0
8176,285388.78875664726,2010-11-19 19:01:54,2585.3760462866926,4,25,0.0498289167881011,4.199814796447754,24.699064986635992,23.749749565426384,98.60301287837268,86.6559234097504,3.23295607813634e-05,0.0932833403348922,0,0,0
8177,285418.7992812155,2010-11-19 19:02:24,30.015265545534813,5,25,0.0,4.191397190093994,24.699064986635992,23.749749565426384,98.60301287837268,86.6559234097504,-6.47544875391759e-05,0.0932833403348922,0,0,0
8178,285448.7988969166,2010-11-19 19:02:54,60.0148812516628,5,25,0.0,4.1901021003723145,24.699064986635992,23.749749565426384,98.60301287837268,86.6559234097504,0.0,0.0932833403348922,0,0,0
8179,285449.00004698563,2010-11-19 19:02:55,0.187720614533971,6,25,-1.9243103452026844e-05,4.189939975738525,24.699064986635992,23.74974956642981,98.60301287837268,86.65592341395468,0.0,0.0986935049295425,0,0,0
8180,285453.82786354347,2010-11-19 19:03:00,5.01553706714067,6,25,0.0007031940040178,4.189939975738525,24.69906592890142,23.74974956659557,98.60301682660892,86.65592341464922,-3.24249267578125e-05,0.0986935049295425,0,0,0
8181,285483.85674927395,2010-11-19 19:03:30,30.015388878392603,7,25,-1.099568486213684,4.001667022705078,24.69906592890142,23.75891717906313,98.60301682660892,86.69281739585975,-0.0009388923645019,0.0986935049295425,0,0,0
8182,285513.8722504226,2010-11-19 19:04:00,60.03089008216664,7,25,-1.099568486213684,3.972689390182495,24.69906592890142,23.768084780102143,98.60301682660892,86.72936095608391,-0.0006475448608398,0.0986935049295425,0,0,0
8183,285543.88713398465,2010-11-19 19:04:30,90.04577358907426,7,25,-1.0997490882873535,3.95277738571167,24.69906592890142,23.777252038826216,98.60301682660892,86.76568406698073,-0.0004856586456298,0.0986935049295425,0,0,0
8184,285573.9024114399,2010-11-19 19:05:00,120.0610510443376,7,25,-1.099568486213684,3.937398195266724,24.69906592890142,23.786419433162948,98.60301682660892,86.80184768861768,-0.0003885269106831,0.0986935049295425,0,0,0
8185,285603.91762743675,2010-11-19 19:05:30,150.07626704119127,7,25,-1.099568486213684,3.9247710704803462,24.69906592890142,23.795586787416408,98.60301682660892,86.83788409441325,-0.0003237724304199,0.0986935049295425,0,0,0
8186,285633.93296192435,2010-11-19 19:06:00,180.09160152881617,7,25,-1.099568486213684,3.913439273834229,24.69906592890142,23.80475421571851,98.60301682660892,86.87381144249662,-0.0002913475036621,0.0986935049295425,0,0,0
8187,285663.9481327334,2010-11-19 19:06:30,210.1067723679492,7,25,-1.099568486213684,3.903078556060791,24.69906592890142,23.81392150406306,98.60301682660892,86.90964004981527,-0.0002913951757363,0.0986935049295425,0,0,0
8188,285693.9633981988,2010-11-19 19:07:00,240.1220378082213,7,25,-1.0993878841400146,3.8935272693634033,24.69906592890142,23.823088866495105,98.60301682660892,86.94537683583529,-0.0002590179501567,0.0986935049295425,0,0,0
8189,285723.9786542556,2010-11-19 19:07:30,270.1372938600584,7,25,-1.099568486213684,3.884299755096436,24.69906592890142,23.832256141163885,98.60301682660892,86.98102673426193,-0.0002266406954731,0.0986935049295425,0,0,0
8190,285753.9939007536,2010-11-19 19:08:00,300.1525403580476,7,25,-1.099568486213684,3.875396013259888,24.69906592890142,23.84142353612576,98.60301682660892,87.01659398051584,-0.0002590179501567,0.0986935049295425,0,0,0
8191,285784.00919167243,2010-11-19 19:08:30,330.1678312769182,7,25,-1.0997490882873535,3.86633038520813,24.69906592890142,23.850590918447764,98.60301682660892,87.0520800075974,-0.0002913951757363,0.0986935049295425,0,0,0
8192,285814.02439040627,2010-11-19 19:09:00,360.183030015693,7,25,-1.0993878841400146,3.858074188232422,24.69906592890142,23.859758354692435,98.60301682660892,87.0874866824876,-0.0001942634553415,0.0986935049295425,0,0,0
8193,285844.0397687433,2010-11-19 19:09:30,390.1984083678104,7,25,-1.099568486213684,3.849656105041504,24.69906592890142,23.86892576913576,98.60301682660892,87.12281550816759,-0.0002266406954731,0.0986935049295425,0,0,0
8194,285874.0549051966,2010-11-19 19:10:00,420.2135448010611,7,25,-1.099568486213684,3.841561794281006,24.69906592890142,23.87809310267861,98.60301682660892,87.15806938266519,-0.0001942634553415,0.0986935049295425,0,0,0
8195,285904.07026983454,2010-11-19 19:10:30,450.2289094389458,7,25,-1.0997490882873535,3.8336293697357178,24.69906592890142,23.88726051973066,98.60301682660892,87.19325075257441,-0.0002266406954731,0.0986935049295425,0,0,0
8196,285934.0854221474,2010-11-19 19:11:00,480.2440617518344,7,25,-1.0993878841400146,3.8258590698242183,24.69906592890142,23.896427876370325,98.60301682660892,87.22835953761593,-0.0002266406954731,0.0986935049295425,0,0,0
8197,285964.1006614223,2010-11-19 19:11:30,510.25930102679376,7,25,-1.0993878841400146,3.8180885314941406,24.69906592890142,23.905595308174235,98.60301682660892,87.26339678771362,-0.0001942634553415,0.0986935049295425,0,0,0
8198,285994.117974168,2010-11-19 19:12:00,540.2766139128055,7,25,-1.0993878841400146,3.8103179931640634,24.69906592890142,23.91476335340433,98.60301682660892,87.29836520856665,-0.0001942634553415,0.0986935049295425,0,0,0
8199,286024.1311810598,2010-11-19 19:12:30,570.2898206642734,7,25,-1.099568486213684,3.802871227264404,24.69906592890142,23.923930110217952,98.60301682660892,87.33325824210927,-0.0001295089750783,0.0986935049295425,0,0,0
8200,286054.1465450561,2010-11-19 19:13:00,600.305184655544,7,25,-1.0993878841400146,3.795586347579956,24.69906592890142,23.93309754540879,98.60301682660892,87.36808589565699,-0.0002266406954731,0.0986935049295425,0,0,0
8201,286084.1616721661,2010-11-19 19:13:30,630.320311770535,7,25,-1.0993878841400146,3.788139581680298,24.69906592890142,23.942264958151863,98.60301682660892,87.40284641740836,-0.0001942634553415,0.0986935049295425,0,0,0
8202,286114.1769459472,2010-11-19 19:14:00,660.335585551627,7,25,-1.099568486213684,3.7811784744262695,24.69906592890142,23.95143243097261,98.60301682660892,87.43754215264491,-0.0001942634553415,0.0986935049295425,0,0,0
8203,286144.19217801414,2010-11-19 19:14:30,690.3508176185942,7,25,-1.099568486213684,3.774379253387451,24.69906592890142,23.96059985499091,98.60301682660892,87.47217413706082,-0.0001618862152099,0.0986935049295425,0,0,0
8204,286174.2074202665,2010-11-19 19:15:00,720.3660598709857,7,25,-1.099568486213684,3.767418146133423,24.69906592890142,23.96976723457631,98.60301682660892,87.50674300990606,-0.0001942634553415,0.0986935049295425,0,0,0
8205,286204.22273412265,2010-11-19 19:15:30,750.3813737321237,7,25,-1.099568486213684,3.760618925094605,24.69906592890142,23.978934698430965,98.60301682660892,87.54124916233344,-0.0001942634553415,0.0986935049295425,0,0,0
8206,286234.237920671,2010-11-19 19:16:00,780.3965602754567,7,25,-1.099568486213684,3.753981590270996,24.69906592890142,23.988102140232225,98.60301682660892,87.57569467783021,-0.0002266406954731,0.0986935049295425,0,0,0
8207,286264.2533857897,2010-11-19 19:16:30,810.4120253891444,7,25,-1.099568486213684,3.7476682662963863,24.69906592890142,23.99726965980376,98.60301682660892,87.61008131069435,-0.0001295089750783,0.0986935049295425,0,0,0
8208,286294.2684511355,2010-11-19 19:17:00,840.4270907399624,7,25,-1.0993878841400146,3.741516590118408,24.69906592890142,24.0064370543908,98.60301682660892,87.64440865890711,-9.713172767078504e-05,0.0986935049295425,0,0,0
8209,286324.2837134129,2010-11-19 19:17:30,870.4423530173393,7,25,-1.099568486213684,3.7350411415100098,24.69906592890142,24.015604517889443,98.60301682660892,87.67867847582936,-0.0001942634553415,0.0986935049295425,0,0,0
8210,286354.29907261726,2010-11-19 19:18:00,900.4577122567484,7,25,-1.0993878841400146,3.7288894653320312,24.69906592890142,24.02477197308604,98.60301682660892,87.71289172322551,-0.0001942634553415,0.0986935049295425,0,0,0
8211,286384.3142187146,2010-11-19 19:18:30,930.4728583290598,7,25,-1.0997490882873535,3.7230615615844727,24.69906592890142,24.033939253056857,98.60301682660892,87.74704965566767,-0.0001618862152099,0.0986935049295425,0,0,0
8212,286414.3295146359,2010-11-19 19:19:00,960.4881542403924,7,25,-1.0993878841400146,3.717395544052124,24.69906592890142,24.043106685388725,98.60301682660892,87.781154016812,-0.0001618862152099,0.0986935049295425,0,0,0
8213,286444.34471797623,2010-11-19 19:19:30,990.5033575806532,7,25,-1.099568486213684,3.711405754089356,24.69906592890142,24.05227411321776,98.60301682660892,87.81520513947737,-0.0001618862152099,0.0986935049295425,0,0,0
8214,286474.36124365224,2010-11-19 19:20:00,1020.51988326168,7,25,-1.099568486213684,3.705739736557007,24.69906592890142,24.06144193296136,98.60301682660892,87.84920538439673,-0.0001618862152099,0.0986935049295425,0,0,0
8215,286504.3613114067,2010-11-19 19:20:30,1050.5199510963903,7,25,-1.099568486213684,3.699911832809448,24.69906592890142,24.070604716344803,98.60301682660892,87.88313474920534,-0.0001618862152099,0.0986935049295425,0,0,0
8216,286534.3749680813,2010-11-19 19:21:00,1080.5336077709358,7,25,-1.099568486213684,3.6944077014923096,24.69906592890142,24.07977173762475,98.60301682660892,87.91702780532447,-0.0001618862152099,0.0986935049295425,0,0,0
8217,286564.3901584792,2010-11-19 19:21:30,1110.5487980886908,7,25,-1.0997490882873535,3.688903570175171,24.69906592890142,24.08893916842716,98.60301682660892,87.95087154043603,-0.0001942634553415,0.0986935049295425,0,0,0
8218,286594.4054017642,2010-11-19 19:22:00,1140.5640413636347,7,25,-1.0993878841400146,3.683561325073242,24.69906592890142,24.098106630299988,98.60301682660892,87.98466527966326,-0.0001942634553415,0.0986935049295425,0,0,0
8219,286624.42240559874,2010-11-19 19:22:30,1170.581045213244,7,25,-1.099568486213684,3.678380966186523,24.69906592890142,24.10727465614367,98.60301682660892,88.01841247563834,-0.0001618862152099,0.0986935049295425,0,0,0
8220,286654.4226000596,2010-11-19 19:23:00,1200.5812397742827,7,25,-1.0997490882873535,3.6728768348693848,24.69906592890142,24.11643758774825,98.60301682660892,88.05209252590612,-0.0001618862152099,0.0986935049295425,0,0,0
8221,286684.4356136589,2010-11-19 19:23:30,1230.5942532683507,7,25,-1.0993878841400146,3.668020486831665,24.69906592890142,24.125604417817986,98.60301682660892,88.08573877814857,-9.713172767078504e-05,0.0986935049295425,0,0,0
8222,286714.4507928439,2010-11-19 19:24:00,1260.6094324483036,7,25,-1.0993878841400146,3.6628401279449454,24.69906592890142,24.13477186284555,98.60301682660892,88.11933989560242,-9.713172767078504e-05,0.0986935049295425,0,0,0
8223,286744.4660089159,2010-11-19 19:24:30,1290.624648520345,7,25,-1.099568486213684,3.6574978828430176,24.69906592890142,24.1439389796036,98.60301682660892,88.15289364689373,-0.0001942634553415,0.0986935049295425,0,0,0
8224,286774.4812635592,2010-11-19 19:25:00,1320.639903163666,7,25,-1.0993878841400146,3.6528031826019287,24.69906592890142,24.15310588477732,98.60301682660892,88.18640093774022,-0.0001618862152099,0.0986935049295425,0,0,0
8225,286804.49651283416,2010-11-19 19:25:30,1350.655152438587,7,25,-1.0993878841400146,3.64794659614563,24.69906592890142,24.162272718887717,98.60301682660892,88.21986285135976,-9.713172767078504e-05,0.0986935049295425,0,0,0
8226,286834.511884675,2010-11-19 19:26:00,1380.6705243646643,7,25,-1.0993878841400146,3.643090009689331,24.69906592890142,24.171439577974137,98.60301682660892,88.25327966238898,-0.0001295089750783,0.0986935049295425,0,0,0
8227,286864.52700993035,2010-11-19 19:26:30,1410.6856495348004,7,25,-1.099568486213684,3.638233423233032,24.69906592890142,24.180606747445285,98.60301682660892,88.2866535014249,-0.0001295089750783,0.0986935049295425,0,0,0
8228,286894.5422699772,2010-11-19 19:27:00,1440.7009095816095,7,25,-1.099568486213684,3.633538722991944,24.69906592890142,24.18977420526521,98.60301682660892,88.31998524834123,-9.713172767078504e-05,0.0986935049295425,0,0,0
8229,286924.5575716328,2010-11-19 19:27:30,1470.7162112272556,7,25,-1.0997490882873535,3.628682136535645,24.69906592890142,24.198941722464877,98.60301682660892,88.35327392520838,-0.0001295089750783,0.0986935049295425,0,0,0
8230,286954.5727813791,2010-11-19 19:28:00,1500.7314210988195,7,25,-1.0993878841400146,3.624311208724976,24.69906592890142,24.20810919662797,98.60301682660892,88.386520005482,-9.713172767078504e-05,0.0986935049295425,0,0,0
8231,286984.5880097569,2010-11-19 19:28:30,1530.7466493612903,7,25,-1.0992072820663452,3.6201021671295166,24.69906592890142,24.217276706951107,98.60301682660892,88.41972518386615,-6.47544875391759e-05,0.0986935049295425,0,0,0
8232,287014.6032869364,2010-11-19 19:29:00,1560.761926545878,7,25,-1.0993878841400146,3.6155693531036377,24.69906592890142,24.226444294228028,98.60301682660892,88.45289052942262,-9.713172767078504e-05,0.0986935049295425,0,0,0
8233,287044.618512828,2010-11-19 19:29:30,1590.777152452468,7,25,-1.099568486213684,3.611036539077759,24.69906592890142,24.23561179579825,98.60301682660892,88.48601577412785,-0.0001618862152099,0.0986935049295425,0,0,0
8234,287074.63390257355,2010-11-19 19:30:00,1620.7925421930129,7,25,-1.0993878841400146,3.60715126991272,24.69906592890142,24.244779361290508,98.60301682660892,88.51910244791499,-9.713172767078504e-05,0.0986935049295425,0,0,0
8235,287104.6490223652,2010-11-19 19:30:30,1650.8076619797107,7,25,-1.099568486213684,3.6029422283172607,24.69906592890142,24.25394681908196,98.60301682660892,88.55215112362163,-0.0001295089750783,0.0986935049295425,0,0,0
8236,287134.66434407595,2010-11-19 19:31:00,1680.8229836703924,7,25,-1.0993878841400146,3.5990569591522217,24.69906592890142,24.263114326855025,98.60301682660892,88.58516320976788,-9.713172767078504e-05,0.0986935049295425,0,0,0
8237,287164.67952583235,2010-11-19 19:31:31,1710.8381654267766,7,25,-1.0993878841400146,3.5951716899871826,24.69906592890142,24.27228186988016,98.60301682660892,88.61813898486338,-9.713172767078504e-05,0.0986935049295425,0,0,0
8238,287194.69477814983,2010-11-19 19:32:01,1740.853417749305,7,25,-1.099568486213684,3.5911247730255127,24.69906592890142,24.281449395534924,98.60301682660892,88.65107893622871,-0.0001295089750783,0.0986935049295425,0,0,0
8239,287224.71027455665,2010-11-19 19:32:31,1770.8689141962052,7,25,-1.0993878841400146,3.587401390075684,24.69906592890142,24.290617064717573,98.60301682660892,88.68398425095609,-9.713172767078504e-05,0.0986935049295425,0,0,0
8240,287254.7271943214,2010-11-19 19:33:01,1800.8858339308506,7,25,-1.099568486213684,3.5836780071258545,24.69906592890142,24.299785100233088,98.60301682660892,88.71685635001606,-6.47544875391759e-05,0.0986935049295425,0,0,0
8241,287284.7406685405,2010-11-19 19:33:31,1830.899308154971,7,25,-1.099568486213684,3.580116510391236,24.69906592890142,24.308952032246857,98.60301682660892,88.74969151542052,-0.0001295089750783,0.0986935049295425,0,0,0
8242,287314.7557924224,2010-11-19 19:34:01,1860.914432026867,7,25,-1.099568486213684,3.576555013656616,24.69906592890142,24.318119577400424,98.60301682660892,88.78249661647736,-0.0001295089750783,0.0986935049295425,0,0,0
8243,287344.77112159674,2010-11-19 19:34:31,1890.9297612012288,7,25,-1.099568486213684,3.573317289352417,24.69906592890142,24.327287102973827,98.60301682660892,88.81526950885979,-6.47544875391759e-05,0.0986935049295425,0,0,0
8244,287374.7863138544,2010-11-19 19:35:01,1920.944953448801,7,25,-1.099568486213684,3.569917678833008,24.69906592890142,24.33645459642426,98.60301682660892,88.84801161654259,-6.47544875391759e-05,0.0986935049295425,0,0,0
8245,287404.80154737,2010-11-19 19:35:31,1950.9601869643843,7,25,-1.099568486213684,3.5666799545288086,24.69906592890142,24.3456221413111,98.60301682660892,88.88072388985341,-9.713172767078504e-05,0.0986935049295425,0,0,0
8246,287434.8168223641,2010-11-19 19:36:01,1980.9754619785544,7,25,-1.0997490882873535,3.5634422302246094,24.69906592890142,24.35478963819666,98.60301682660892,88.91340647763921,-9.713172767078504e-05,0.0986935049295425,0,0,0
8247,287464.83206461644,2010-11-19 19:36:31,2010.990704250996,7,25,-1.0993878841400146,3.56052827835083,24.69906592890142,24.363957122496338,98.60301682660892,88.94606145441223,-6.47544875391759e-05,0.0986935049295425,0,0,0
8248,287494.8475336249,2010-11-19 19:37:01,2041.0061732543927,7,25,-1.0993878841400146,3.557614326477051,24.69906592890142,24.37312469476569,98.60301682660892,88.97868893367338,-3.237724376958795e-05,0.0986935049295425,0,0,0
8249,287524.8625625949,2010-11-19 19:37:31,2071.0212022243986,7,25,-1.099568486213684,3.554538488388061,24.69906592890142,24.38229215372134,98.60301682660892,89.01128872110623,-9.713172767078504e-05,0.0986935049295425,0,0,0
8250,287554.87788134324,2010-11-19 19:38:01,2101.0365209476736,7,25,-1.0997490882873535,3.5516245365142822,24.69906592890142,24.39145974132113,98.60301682660892,89.0438620574047,-6.47544875391759e-05,0.0986935049295425,0,0,0
8251,287584.893078082,2010-11-19 19:38:31,2131.0517176814437,7,25,-1.0993878841400146,3.548710584640503,24.69906592890142,24.400627299402437,98.60301682660892,89.07640862427546,-6.47544875391759e-05,0.0986935049295425,0,0,0
8252,287614.90834680543,2010-11-19 19:39:01,2161.0669864399983,7,25,-1.099568486213684,3.5456347465515137,24.69906592890142,24.409794840609344,98.60301682660892,89.10892777751933,-9.713172767078504e-05,0.0986935049295425,0,0,0
8253,287644.9236015039,2010-11-19 19:39:31,2191.0822411033696,7,25,-1.0997490882873535,3.5423970222473145,24.69906592890142,24.418962426793048,98.60301682660892,89.14141871195177,-0.0001295089750783,0.0986935049295425,0,0,0
8254,287674.9388481423,2010-11-19 19:40:01,2221.097487806872,7,25,-1.099568486213684,3.539644956588745,24.69906592890142,24.42813001174663,98.60301682660892,89.17388192391395,-9.713172767078504e-05,0.0986935049295425,0,0,0
8255,287704.95409456006,2010-11-19 19:40:31,2251.1127341444603,7,25,-1.099568486213684,3.536407232284546,24.69906592890142,24.43729759692908,98.60301682660892,89.20631704598678,-0.0001295089750783,0.0986935049295425,0,0,0
8256,287734.96934803046,2010-11-19 19:41:01,2281.1279876399167,7,25,-1.099568486213684,3.5333313941955566,24.69906592890142,24.44646529076638,98.60301682660892,89.23872424555249,-0.0001295089750783,0.0986935049295425,0,0,0
8257,287764.9846566034,2010-11-19 19:41:31,2311.143296207842,7,25,-1.099568486213684,3.5304174423217773,24.69906592890142,24.455632850503516,98.60301682660892,89.27110272976888,-6.47544875391759e-05,0.0986935049295425,0,0,0
8258,287794.9998413673,2010-11-19 19:42:01,2341.158480996796,7,25,-1.0993878841400146,3.527179718017578,24.69906592890142,24.46480046956716,98.60301682660892,89.30345252061565,-3.237724376958795e-05,0.0986935049295425,0,0,0
8259,287825.01528220536,2010-11-19 19:42:31,2371.1739218399,7,25,-1.0993878841400146,3.523941993713379,24.69906592890142,24.47396811881924,98.60301682660892,89.33577340858061,-6.47544875391759e-05,0.0986935049295425,0,0,0
8260,287855.030374298,2010-11-19 19:43:01,2401.1890139324696,7,25,-1.099568486213684,3.5205423831939697,24.69906592890142,24.483135645617285,98.60301682660892,89.36806338360167,-9.713172767078504e-05,0.0986935049295425,0,0,0
8261,287885.0318860218,2010-11-19 19:43:31,2431.190525631287,7,25,-1.099568486213684,3.5171427726745605,24.69906592890142,24.49229903104044,98.60301682660892,89.40030787595325,-9.713172767078504e-05,0.0986935049295425,0,0,0
8262,287915.0454406767,2010-11-19 19:44:01,2461.2040802911883,7,25,-1.099568486213684,3.513743162155152,24.69906592890142,24.501466056759103,98.60301682660892,89.43253366705405,-6.47544875391759e-05,0.0986935049295425,0,0,0
8263,287945.06051517033,2010-11-19 19:44:31,2491.219154774803,7,25,-1.0993878841400146,3.5101819038391118,24.69906592890142,24.5106335959768,98.60301682660892,89.46472852248189,-6.47544875391759e-05,0.0986935049295425,0,0,0
8264,287975.0757507912,2010-11-19 19:45:01,2521.234390395641,7,25,-1.099568486213684,3.5062966346740723,24.69906592890142,24.519801205301285,98.60301682660892,89.49688972091315,-6.47544875391759e-05,0.0986935049295425,0,0,0
8265,288005.0910287878,2010-11-19 19:45:31,2551.249668422331,7,25,-1.0993878841400146,3.502411365509033,24.69906592890142,24.528968874649227,98.60301682660892,89.52901590510317,-9.713172767078504e-05,0.0986935049295425,0,0,0
8266,288035.10625724576,2010-11-19 19:46:01,2581.264896850215,7,25,-1.099568486213684,3.498202323913574,24.69906592890142,24.538136426826785,98.60301682660892,89.56110545328899,-9.713172767078504e-05,0.0986935049295425,0,0,0
8267,288065.1217523292,2010-11-19 19:46:31,2611.280391933711,7,25,-1.099568486213684,3.4939932823181152,24.69906592890142,24.54730409824911,98.60301682660892,89.59315764651042,-0.0001295089750783,0.0986935049295425,0,0,0
8268,288095.1367626377,2010-11-19 19:47:01,2641.2954022421354,7,25,-1.099568486213684,3.4892985820770264,24.69906592890142,24.55647159858666,98.60301682660892,89.62516871323989,-0.0001618862152099,0.0986935049295425,0,0,0
8269,288125.1522191148,2010-11-19 19:47:31,2671.3108587192646,7,25,-1.099568486213684,3.4844419956207275,24.69906592890142,24.565639306354328,98.60301682660892,89.65713691668905,-0.0001618862152099,0.0986935049295425,0,0,0
8270,288155.16725631035,2010-11-19 19:48:01,2701.325895919815,7,25,-1.0997490882873535,3.478937864303589,24.69906592890142,24.574806871075115,98.60301682660892,89.6890567085021,-0.0001942634553415,0.0986935049295425,0,0,0
8271,288185.1825051843,2010-11-19 19:48:31,2731.341144778697,7,25,-1.0993878841400146,3.47327184677124,24.69906592890142,24.58397433466057,98.60301682660892,89.7209245695315,-0.0001295089750783,0.0986935049295425,0,0,0
8272,288215.19790614786,2010-11-19 19:49:01,2761.356545747269,7,25,-1.099568486213684,3.466634511947632,24.69906592890142,24.593141848864388,98.60301682660892,89.75273554830373,-0.0001618862152099,0.0986935049295425,0,0,0
8273,288245.2130201752,2010-11-19 19:49:31,2791.3716597946413,7,25,-1.099568486213684,3.459349632263184,24.69906592890142,24.602309330331156,98.60301682660892,89.78448307601131,-0.0001942634553415,0.0986935049295425,0,0,0
8274,288275.2284919856,2010-11-19 19:50:01,2821.3871316000327,7,25,-1.099568486213684,3.4509315490722656,24.69906592890142,24.611476900301493,98.60301682660892,89.81615913269701,-0.0002266406954731,0.0986935049295425,0,0,0
8275,288305.24363727093,2010-11-19 19:50:31,2851.4022768753543,7,25,-1.0993878841400146,3.441218376159668,24.69906592890142,24.620644441923105,98.60301682660892,89.84775334707,-0.0002913951757363,0.0986935049295425,0,0,0
8276,288335.25883558363,2010-11-19 19:51:01,2881.4174751980904,7,25,-1.099568486213684,3.43004846572876,24.69906592890142,24.629812052048216,98.60301682660892,89.87925259082284,-0.0003237247583456,0.0986935049295425,0,0,0
8277,288365.2741617655,2010-11-19 19:51:31,2911.4328013699583,7,25,-1.0993878841400146,3.416450023651123,24.69906592890142,24.63897968817521,98.60301682660892,89.9106377014446,-0.0003561496851034,0.0986935049295425,0,0,0
8278,288395.28940001794,2010-11-19 19:52:01,2941.44803963239,7,25,-1.099568486213684,3.399451971054077,24.69906592890142,24.648147330493902,98.60301682660892,89.94188280226027,-0.0004856586456298,0.0986935049295425,0,0,0
8279,288425.3045008423,2010-11-19 19:52:31,2971.4631404517427,7,25,-1.099568486213684,3.3777592182159424,24.69906592890142,24.657314886893907,98.60301682660892,89.9729517652944,-0.0006151676061563,0.0986935049295425,0,0,0
8280,288455.31991935463,2010-11-19 19:53:01,3001.478558959094,7,25,-1.0997490882873535,3.3491055965423584,24.69906592890142,24.6664825554824,98.60301682660892,90.00379190620507,-0.0008741378551349,0.0986935049295425,0,0,0
8281,288485.3380155208,2010-11-19 19:53:31,3031.496655210506,7,25,-1.099568486213684,3.3112242221832275,24.69906592890142,24.675651094138853,98.60301682660892,90.03433263278804,-0.0011655807029455,0.0986935049295425,0,0,0
8282,288515.35039039084,2010-11-19 19:54:01,3061.50903002032,7,25,-1.0997490882873535,3.259582757949829,24.69906592890142,24.68481777638213,98.60301682660892,90.06446068389151,-0.0015864849556237,0.0986935049295425,0,0,0
8283,288545.36565173086,2010-11-19 19:54:31,3091.5242913653697,7,25,-1.099568486213684,3.186896085739136,24.69906592890142,24.693985435124432,98.60301682660892,90.09403062910437,-0.0022663592826575,0.0986935049295425,0,0,0
8284,288575.380829768,2010-11-19 19:55:01,3121.5394694024703,7,25,-1.099568486213684,3.079080104827881,24.69906592890142,24.703153037223693,98.60301682660892,90.1227886850663,-0.0034643649123609,0.0986935049295425,0,0,0
8285,288605.3960965165,2010-11-19 19:55:31,3151.554736151008,7,25,-1.0997490882873535,2.892911434173584,24.69906592890142,24.712320680937665,98.60301682660892,90.1502607961231,-0.0065725804306566,0.0986935049295425,0,0,0
8286,288623.6928648802,2010-11-19 19:55:50,3169.851504494681,7,25,-1.099568486213684,2.699458122253418,24.69906592890142,24.717909093761044,98.60301682660892,90.16591708772036,-0.0094864843413233,0.0986935049295425,0,0,0
8287,288683.6978772868,2010-11-19 19:56:50,60.01489642453663,8,25,0.0,3.3646464347839355,24.69906592890142,24.717909093761044,98.60301682660892,90.16591708772036,0.0012303352123126,0.0986935049295425,0,0,0
8288,288683.8761775388,2010-11-19 19:56:50,0.187322896769243,9,25,-1.9243103452026844e-05,3.364808320999145,24.69906592890142,24.71790909476234,98.60301682660892,90.16591709108953,0.0,0.0948198437690734,0,0,0
8289,288688.7043620651,2010-11-19 19:56:55,5.015507453219768,9,25,0.0003419754502829,3.371931314468384,24.69906678951701,24.71790909492964,98.60301972599297,90.16591709165246,0.0010036944877356,0.0948198437690734,0,0,0
