Data_Point,Test_Time(s),Date_Time,Step_Time(s),Step_Index,Cycle_Index,Current(A),Voltage(V),Charge_Capacity(Ah),Discharge_Capacity(Ah),Charge_Energy(Wh),Discharge_Energy(Wh),dV/dt(V/s),Internal_Resistance(Ohm),Is_FC_Data,AC_Impedance(Ohm),ACI_Phase_Angle(Deg)
14198,491984.5459607189,2010-11-22 04:25:32,30.01537594109913,1,44,0.0,3.3453822135925293,42.23265300104183,42.25721744464151,168.53528244223642,154.23199797618042,0.0007122993702068,0.0931148082017898,0,0,0
14199,492014.5613689857,2010-11-22 04:26:02,60.03078421791318,1,44,0.0,3.368693590164185,42.23265300104183,42.25721744464151,168.53528244223642,154.23199797618042,0.0005504131549969,0.0931148082017898,0,0,0
14200,492044.57672896696,2010-11-22 04:26:32,90.04614418914908,1,44,0.0,3.3865010738372803,42.23265300104183,42.25721744464151,168.53528244223642,154.23199797618042,0.0004856586456298,0.0931148082017898,0,0,0
14201,492074.5452315951,2010-11-22 04:27:02,120.0146468272727,1,44,0.0,3.400423288345337,42.23265300104183,42.25721744464151,168.53528244223642,154.23199797618042,0.0003237724304199,0.0931148082017898,0,0,0
14202,492104.5520374685,2010-11-22 04:27:32,30.01539636207302,2,44,0.550297200679779,3.56263279914856,42.23724059236115,42.25721744464151,168.55145111431872,154.23199797618042,0.0017159938579425,0.0931148082017898,0,0,0
14203,492134.5675344317,2010-11-22 04:28:02,60.030893335286926,2,44,0.5499359965324402,3.614274263381958,42.24182832161063,42.25721744464151,168.5679213503884,154.23199797618042,0.0011655807029455,0.0931148082017898,0,0,0
14204,492164.5827948995,2010-11-22 04:28:32,90.04615379312207,2,44,0.550297200679779,3.652317523956299,42.24641598350211,42.25721744464151,168.58459402373865,154.23199797618042,0.0009065627818927,0.0931148082017898,0,0,0
14205,492194.5983821681,2010-11-22 04:29:02,120.06174106172716,2,44,0.550297200679779,3.682428121566773,42.25100362634675,42.25721744464151,168.60142164190142,154.23199797618042,0.0006799221155233,0.0931148082017898,0,0,0
14206,492224.6135798594,2010-11-22 04:29:32,150.0769387478745,2,44,0.5501165986061096,3.707196712493897,42.25559118687552,42.25721744464151,168.6183740820578,154.23199797618042,0.0006151676061563,0.0931148082017898,0,0,0
14207,492254.628984076,2010-11-22 04:30:02,180.09234294951628,2,44,0.5501165986061096,3.727918148040772,42.26017878615197,42.25721744464151,168.63543054805783,154.23199797618042,0.0004856586456298,0.0931148082017898,0,0,0
14208,492284.64630252594,2010-11-22 04:30:32,210.1096614294913,2,44,0.550297200679779,3.7449162006378174,42.26476660816881,42.25721744464151,168.6525739667544,154.23199797618042,0.0004209041653666,0.0931148082017898,0,0,0
14209,492314.65975026885,2010-11-22 04:31:02,240.12310915747383,2,44,0.5501165986061096,3.7575430870056152,42.26935391839195,42.25721744464151,168.66978341352336,154.23199797618042,0.0003237724304199,0.0931148082017898,0,0,0
14210,492344.6751548515,2010-11-22 04:31:32,270.13851374006657,2,44,0.550297200679779,3.765313625335693,42.27394143656564,42.25721744464151,168.6870398458145,154.23199797618042,0.0001942634553415,0.0931148082017898,0,0,0
14211,492374.6905239104,2010-11-22 04:32:02,300.15388280399924,2,44,0.550297200679779,3.770332098007202,42.27852902275422,42.25721744464151,168.70432556424785,154.23199797618042,9.713172767078504e-05,0.0931148082017898,0,0,0
14212,492404.7088292687,2010-11-22 04:32:32,330.17218824257475,2,44,0.5501165986061096,3.774541139602661,42.28311698518081,42.25721744464151,168.72163366309076,154.23199797618042,0.0001295089750783,0.0931148082017898,0,0,0
14213,492434.72137035866,2010-11-22 04:33:02,360.18472925224887,2,44,0.5504778623580933,3.7784264087677,42.28770401553831,42.25721744464151,168.73895658335496,154.23199797618042,9.713172767078504e-05,0.0931148082017898,0,0,0
14214,492464.73667233007,2010-11-22 04:33:32,390.2000312186959,2,44,0.550297200679779,3.7819879055023193,42.29229152535305,42.25721744464151,168.7562984126483,154.23199797618042,9.713172767078504e-05,0.0931148082017898,0,0,0
14215,492494.7520581859,2010-11-22 04:34:02,420.2154170895813,2,44,0.5501165986061096,3.785387516021729,42.29687903988724,42.25721744464151,168.77365648808504,154.23199797618042,6.47544875391759e-05,0.0931148082017898,0,0,0
14216,492524.7674627084,2010-11-22 04:34:32,450.2308216170364,2,44,0.550297200679779,3.7887871265411377,42.3014665910522,42.25721744464151,168.7910303183366,154.23199797618042,6.47544875391759e-05,0.0931148082017898,0,0,0
14217,492554.782837617,2010-11-22 04:35:02,480.2461965205456,2,44,0.5501165986061096,3.792024850845337,42.30605414918647,42.25721744464151,168.80841927873422,154.23199797618042,0.0001295089750783,0.0931148082017898,0,0,0
14218,492584.7982157586,2010-11-22 04:35:32,510.26157466213743,2,44,0.550297200679779,3.795262575149536,42.31064174472756,42.25721744464151,168.82582308567612,154.23199797618042,6.47544875391759e-05,0.0931148082017898,0,0,0
14219,492614.8135956244,2010-11-22 04:36:02,540.2769545280333,2,44,0.5501165986061096,3.798176527023315,42.31522933027895,42.25721744464151,168.8432412161255,154.23199797618042,6.47544875391759e-05,0.0931148082017898,0,0,0
14220,492644.8290695501,2010-11-22 04:36:32,570.2924284537171,2,44,0.5501165986061096,3.801414251327514,42.319816950744176,42.25721744464151,168.86067361430526,154.23199797618042,9.713172767078504e-05,0.0931148082017898,0,0,0
14221,492674.84450059873,2010-11-22 04:37:02,600.3078595073857,2,44,0.5501165986061096,3.804490089416504,42.32440452715217,42.25721744464151,168.87811965524793,154.23199797618042,0.0001295089750783,0.0931148082017898,0,0,0
14222,492704.8598913018,2010-11-22 04:37:32,630.3232502053202,2,44,0.5501165986061096,3.807404041290283,42.3289921677636,42.25721744464151,168.89557978680705,154.23199797618042,9.713172767078504e-05,0.0931148082017898,0,0,0
14223,492734.8751354388,2010-11-22 04:38:02,660.3384943424163,2,44,0.550297200679779,3.810479879379273,42.333579756733606,42.25721744464151,168.91305360094768,154.23199797618042,9.713172767078504e-05,0.0931148082017898,0,0,0
14224,492764.8906774995,2010-11-22 04:38:32,690.3540364031757,2,44,0.550297200679779,3.813717603683472,42.33816734984243,42.25721744464151,168.93054152601863,154.23199797618042,9.713172767078504e-05,0.0931148082017898,0,0,0
14225,492794.9059370852,2010-11-22 04:39:02,720.3692959888336,2,44,0.5499359965324402,3.816793441772461,42.34275490845899,42.25721744464151,168.94804399883992,154.23199797618042,6.47544875391759e-05,0.0931148082017898,0,0,0
14226,492824.92129903135,2010-11-22 04:39:32,750.3846579349994,2,44,0.550297200679779,3.81986927986145,42.34734242073392,42.25721744464151,168.96556100509628,154.23199797618042,6.47544875391759e-05,0.0931148082017898,0,0,0
14227,492854.93687967845,2010-11-22 04:40:02,780.4002385670384,2,44,0.5501165986061096,3.8232688903808594,42.35192998355825,42.25721744464151,168.98309338963205,154.23199797618042,3.237724376958795e-05,0.0931148082017898,0,0,0
14228,492884.95399321686,2010-11-22 04:40:32,810.4173521004353,2,44,0.5501165986061096,3.826668500900269,42.356517774142695,42.25721744464151,169.00064219893412,154.23199797618042,3.237724376958795e-05,0.0931148082017898,0,0,0
14229,492914.9674850649,2010-11-22 04:41:02,840.4308439685985,2,44,0.5501165986061096,3.8300681114196777,42.36110507058359,42.25721744464151,169.0182049331185,154.23199797618042,3.237724376958795e-05,0.0931148082017898,0,0,0
14230,492944.9830449352,2010-11-22 04:41:32,870.4464039440759,2,44,0.5501165986061096,3.833791255950928,42.36569265159768,42.25721744464151,169.03578465461385,154.23199797618042,9.713172767078504e-05,0.0931148082017898,0,0,0
14231,492974.9982126967,2010-11-22 04:42:02,900.4615715852262,2,44,0.5501165986061096,3.837028980255127,42.37028015869839,42.25721744464151,169.05337999738654,154.23199797618042,3.237724376958795e-05,0.0931148082017898,0,0,0
14232,493005.0137747624,2010-11-22 04:42:32,930.4771336509208,2,44,0.5501165986061096,3.840752363204956,42.37486774881192,42.25721744464151,169.07099145359945,154.23199797618042,0.0001295089750783,0.0931148082017898,0,0,0
14233,493035.028988634,2010-11-22 04:43:03,960.4923475124444,2,44,0.550297200679779,3.8439900875091553,42.37945534102682,42.25721744464151,169.08861857767707,154.23199797618042,9.713172767078504e-05,0.0931148082017898,0,0,0
14234,493065.04456855415,2010-11-22 04:43:33,990.507927442732,2,44,0.550297200679779,3.847389698028565,42.38404288517823,42.25721744464151,169.1062609437076,154.23199797618042,6.47544875391759e-05,0.0931148082017898,0,0,0
14235,493095.0598947811,2010-11-22 04:44:03,1020.5232536697372,2,44,0.550297200679779,3.850627422332764,42.38863045071032,42.25721744464151,169.12391862353678,154.23199797618042,6.47544875391759e-05,0.0931148082017898,0,0,0
14236,493125.075166482,2010-11-22 04:44:33,1050.5385253706368,2,44,0.5501165986061096,3.853541374206543,42.39321800596168,42.25721744464151,169.1415910959349,154.23199797618042,3.237724376958795e-05,0.0931148082017898,0,0,0
14237,493155.0905330248,2010-11-22 04:45:03,1080.553891933326,2,44,0.550297200679779,3.856940984725952,42.39780556841095,42.25721744464151,169.15927803753183,154.23199797618042,9.713172767078504e-05,0.0931148082017898,0,0,0
14238,493185.105913437,2010-11-22 04:45:33,1110.569272330548,2,44,0.5501165986061096,3.860016822814941,42.40239312810889,42.25721744464151,169.17697896562575,154.23199797618042,6.47544875391759e-05,0.0931148082017898,0,0,0
14239,493215.1213074682,2010-11-22 04:46:03,1140.5846663718282,2,44,0.5501165986061096,3.8629307746887207,42.40698067754723,42.25721744464151,169.19469333813444,154.23199797618042,0.0001295089750783,0.0931148082017898,0,0,0
14240,493245.1367267175,2010-11-22 04:46:33,1170.600085621031,2,44,0.550297200679779,3.86552095413208,42.41156822863224,42.25721744464151,169.2124205809526,154.23199797618042,6.47544875391759e-05,0.0931148082017898,0,0,0
14241,493275.1521600367,2010-11-22 04:47:03,1200.6155189453675,2,44,0.5501165986061096,3.86811113357544,42.41615579012698,42.25721744464151,169.23016019868834,154.23199797618042,6.47544875391759e-05,0.0931148082017898,0,0,0
14242,493305.16758322576,2010-11-22 04:47:33,1230.6309421293922,2,44,0.550297200679779,3.870863199234009,42.42074337639209,42.25721744464151,169.2479116555667,154.23199797618042,9.713172767078504e-05,0.0931148082017898,0,0,0
14243,493335.1828415533,2010-11-22 04:48:03,1260.6462004569098,2,44,0.5501165986061096,3.8729677200317374,42.42533093585594,42.25721744464151,169.26567412728534,154.23199797618042,3.237724376958795e-05,0.0931148082017898,0,0,0
14244,493365.1984545261,2010-11-22 04:48:33,1290.6618134296764,2,44,0.5504778623580933,3.875396013259888,42.42991852643885,42.25721744464151,169.28344715735687,154.23199797618042,6.47544875391759e-05,0.0931148082017898,0,0,0
14245,493395.2136138514,2010-11-22 04:49:03,1320.6769727400315,2,44,0.550297200679779,3.877500534057617,42.43450607639364,42.25721744464151,169.30122981922096,154.23199797618042,9.713172767078504e-05,0.0931148082017898,0,0,0
14246,493425.22897853446,2010-11-22 04:49:33,1350.6923374380665,2,44,0.5501165986061096,3.879281282424927,42.43909353097876,42.25721744464151,169.3190213028965,154.23199797618042,6.47544875391759e-05,0.0931148082017898,0,0,0
14247,493455.24435904686,2010-11-22 04:50:03,1380.707717935539,2,44,0.5501165986061096,3.881062030792236,42.443681019667984,42.25721744464151,169.33682148126084,154.23199797618042,3.237724376958795e-05,0.0931148082017898,0,0,0
14248,493485.2617245543,2010-11-22 04:50:33,1410.7250834429017,2,44,0.550297200679779,3.882842779159546,42.448268862041765,42.25721744464151,169.3546311947552,154.23199797618042,3.237724376958795e-05,0.0931148082017898,0,0,0
14249,493515.27513855806,2010-11-22 04:51:03,1440.7384974467036,2,44,0.5501165986061096,3.8844616413116455,42.45285613619155,42.25721744464151,169.372446421902,154.23199797618042,3.237724376958795e-05,0.0931148082017898,0,0,0
14250,493545.2905202386,2010-11-22 04:51:33,1470.7538791421664,2,44,0.5501165986061096,3.885756731033325,42.457443720802935,42.25721744464151,169.39026999676884,154.23199797618042,0.0,0.0931148082017898,0,0,0
14251,493575.3059049415,2010-11-22 04:52:03,1500.7692638451367,2,44,0.550297200679779,3.887375593185425,42.46203127643709,42.25721744464151,169.40810048111024,154.23199797618042,0.0,0.0931148082017898,0,0,0
14252,493605.32131925336,2010-11-22 04:52:33,1530.7846781620276,2,44,0.550297200679779,3.8888325691223145,42.466618836381855,42.25721744464151,169.4259377466196,154.23199797618042,6.47544875391759e-05,0.0931148082017898,0,0,0
14253,493635.3368048482,2010-11-22 04:53:03,1560.8001637367893,2,44,0.5504778623580933,3.890289545059204,42.471206424199096,42.25721744464151,169.4437816956462,154.23199797618042,3.237724376958795e-05,0.0931148082017898,0,0,0
14254,493665.3520629702,2010-11-22 04:53:33,1590.8154218788438,2,44,0.550297200679779,3.891584634780884,42.4757940174124,42.25721744464151,169.46163215640036,154.23199797618042,0.0,0.0931148082017898,0,0,0
14255,493695.3675123747,2010-11-22 04:54:03,1620.8308712833189,2,44,0.550297200679779,3.893041610717773,42.48038163821782,42.25721744464151,169.47948907168157,154.23199797618042,0.0,0.0931148082017898,0,0,0
14256,493725.3828522658,2010-11-22 04:54:33,1650.8462111744316,2,44,0.5501165986061096,3.894660472869873,42.48496920505261,42.25721744464151,169.49735208232886,154.23199797618042,6.47544875391759e-05,0.0931148082017898,0,0,0
14257,493755.3982152395,2010-11-22 04:55:03,1680.8615741431497,2,44,0.550297200679779,3.895631790161133,42.48955684548896,42.25721744464151,169.51522115445832,154.23199797618042,3.237724376958795e-05,0.0931148082017898,0,0,0
14258,493785.41360637854,2010-11-22 04:55:33,1710.8769652821852,2,44,0.550297200679779,3.8970887660980233,42.49414441137928,42.25721744464151,169.5330961867264,154.23199797618042,6.47544875391759e-05,0.0931148082017898,0,0,0
14259,493815.4292706945,2010-11-22 04:56:03,1740.8926296031248,2,44,0.550297200679779,3.898545742034912,42.498732018262416,42.25721744464151,169.5509775711112,154.23199797618042,3.237724376958795e-05,0.0931148082017898,0,0,0
14260,493845.44440629066,2010-11-22 04:56:33,1770.907765199286,2,44,0.550297200679779,3.9000027179718018,42.50331952464403,42.25721744464151,169.5688648034216,154.23199797618042,6.47544875391759e-05,0.0931148082017898,0,0,0
14261,493875.4597715802,2010-11-22 04:57:03,1800.9231304837845,2,44,0.550297200679779,3.901135921478272,42.50790716792733,42.25721744464151,169.58675875292576,154.23199797618042,3.237724376958795e-05,0.0931148082017898,0,0,0
14262,493905.47534092405,2010-11-22 04:57:33,1830.9386998276464,2,44,0.550297200679779,3.902592897415161,42.51249471195188,42.25721744464151,169.60465855047195,154.23199797618042,6.47544875391759e-05,0.0931148082017898,0,0,0
14263,493935.49052862026,2010-11-22 04:58:03,1860.95388750882,2,44,0.5501165986061096,3.903726100921631,42.51708228174214,42.25721744464151,169.6225646801314,154.23199797618042,0.0,0.0931148082017898,0,0,0
14264,493965.50594482187,2010-11-22 04:58:33,1890.9693037254533,2,44,0.5504778623580933,3.905183076858521,42.52166986762317,42.25721744464151,169.64047722404234,154.23199797618042,3.237724376958795e-05,0.0931148082017898,0,0,0
14265,493995.5213126477,2010-11-22 04:59:03,1920.9846715512952,2,44,0.550297200679779,3.90680193901062,42.52625744921885,42.25721744464151,169.65839596651412,154.23199797618042,6.47544875391759e-05,0.0931148082017898,0,0,0
14266,494025.5368360017,2010-11-22 04:59:33,1951.0001950106227,2,44,0.550297200679779,3.9080970287323,42.53084495971759,42.25721744464151,169.67632082066447,154.23199797618042,6.47544875391759e-05,0.0931148082017898,0,0,0
14267,494055.55208679545,2010-11-22 05:00:03,1981.0154457040844,2,44,0.550297200679779,3.9095540046691895,42.535432460621365,42.25721744464151,169.69425200681758,154.23199797618042,9.713172767078504e-05,0.0931148082017898,0,0,0
14268,494085.56941663387,2010-11-22 05:00:33,2011.032775527374,2,44,0.550297200679779,3.910849094390869,42.54002032697063,42.25721744464151,169.71219101217338,154.23199797618042,3.237724376958795e-05,0.0931148082017898,0,0,0
14269,494115.5831471126,2010-11-22 05:01:03,2041.0465060161712,2,44,0.550297200679779,3.912306070327759,42.544607687219305,42.25721744464151,169.7301346606312,154.23199797618042,3.237724376958795e-05,0.0931148082017898,0,0,0
14270,494145.5982278768,2010-11-22 05:01:33,2071.061586780464,2,44,0.550297200679779,3.913762807846069,42.5491952026898,42.25721744464151,169.7480857449514,154.23199797618042,3.23295607813634e-05,0.0931148082017898,0,0,0
14271,494175.61360434425,2010-11-22 05:02:03,2101.0769632478764,2,44,0.550297200679779,3.915543556213379,42.55378272780185,42.25721744464151,169.7660438489811,154.23199797618042,9.713172767078504e-05,0.0931148082017898,0,0,0
14272,494205.6289968968,2010-11-22 05:02:33,2131.092355805453,2,44,0.5501165986061096,3.9168386459350586,42.55837018936614,42.25721744464151,169.78400861336607,154.23199797618042,6.47544875391759e-05,0.0931148082017898,0,0,0
14273,494235.64436696825,2010-11-22 05:03:03,2161.1077258769005,2,44,0.5501165986061096,3.918295621871948,42.56295760889567,42.25721744464151,169.80198048207035,154.23199797618042,0.0,0.0931148082017898,0,0,0
14274,494265.6598636758,2010-11-22 05:03:33,2191.123222579439,2,44,0.5501165986061096,3.920076370239258,42.56754507850367,42.25721744464151,169.81995994087447,154.23199797618042,6.47544875391759e-05,0.0931148082017898,0,0,0
14275,494295.6751055172,2010-11-22 05:04:03,2221.138464420804,2,44,0.550297200679779,3.921857118606568,42.57213251032163,42.25721744464151,169.83794660305696,154.23199797618042,6.47544875391759e-05,0.0931148082017898,0,0,0
14276,494325.693429091,2010-11-22 05:04:33,2251.156788079861,2,44,0.550297200679779,3.923314094543457,42.57672034493674,42.25721744464151,169.85594225082608,154.23199797618042,3.237724376958795e-05,0.0931148082017898,0,0,0
14277,494355.70583645714,2010-11-22 05:05:03,2281.16919534569,2,44,0.5501165986061096,3.9249329566955566,42.58130729108437,42.25721744464151,169.87394187557214,154.23199797618042,6.47544875391759e-05,0.0931148082017898,0,0,0
14278,494385.7211755412,2010-11-22 05:05:33,2311.1845344448257,2,44,0.550297200679779,3.926551818847656,42.585894773436586,42.25721744464151,169.8919511660026,154.23199797618042,3.237724376958795e-05,0.0931148082017898,0,0,0
14279,494415.7365327856,2010-11-22 05:06:03,2341.199891689255,2,44,0.5501165986061096,3.928170680999756,42.590482147501085,42.25721744464151,169.90996763928462,154.23199797618042,3.237724376958795e-05,0.0931148082017898,0,0,0
14280,494445.7519140099,2010-11-22 05:06:33,2371.2152729135423,2,44,0.5504778623580933,3.9301133155822754,42.59506950243405,42.25721744464151,169.9279916214989,154.23199797618042,9.713172767078504e-05,0.0931148082017898,0,0,0
14281,494475.7672508284,2010-11-22 05:07:03,2401.2306097369974,2,44,0.5501165986061096,3.931732177734375,42.599656929442,42.25721744464151,169.94602368686236,154.23199797618042,9.713172767078504e-05,0.0931148082017898,0,0,0
14282,494505.78257913055,2010-11-22 05:07:33,2431.2459380341697,2,44,0.550297200679779,3.9331891536712646,42.60424432294221,42.25721744464151,169.9640633958091,154.23199797618042,3.237724376958795e-05,0.0931148082017898,0,0,0
14283,494535.7979889412,2010-11-22 05:08:03,2461.2613478448125,2,44,0.5501165986061096,3.934969902038574,42.60883166315693,42.25721744464151,169.9821106969653,154.23199797618042,3.237724376958795e-05,0.0931148082017898,0,0,0
14284,494565.8132815242,2010-11-22 05:08:33,2491.2766404278373,2,44,0.550297200679779,3.936750650405884,42.61341903805487,42.25721744464151,170.00016599286198,154.23199797618042,9.713172767078504e-05,0.0931148082017898,0,0,0
14285,494595.8286014454,2010-11-22 05:09:03,2521.2919603390774,2,44,0.5501165986061096,3.938531398773194,42.61800640000194,42.25721744464151,170.018229174923,154.23199797618042,3.237724376958795e-05,0.0931148082017898,0,0,0
14286,494625.8440653812,2010-11-22 05:09:33,2551.3074242848493,2,44,0.5501165986061096,3.940312147140503,42.62259369781787,42.25721744464151,170.03630001319863,154.23199797618042,6.47544875391759e-05,0.0931148082017898,0,0,0
14287,494655.8592704759,2010-11-22 05:10:03,2581.3226293794896,2,44,0.5501165986061096,3.9417691230773926,42.62718105114059,42.25721744464151,170.05437904715853,154.23199797618042,3.237724376958795e-05,0.0931148082017898,0,0,0
14288,494685.87673282495,2010-11-22 05:10:33,2611.3400917135464,2,44,0.550297200679779,3.943711757659912,42.63176878533636,42.25721744464151,170.07246761417142,154.23199797618042,6.47544875391759e-05,0.0931148082017898,0,0,0
14289,494715.889940213,2010-11-22 05:11:03,2641.353299116641,2,44,0.5501165986061096,3.945330619812012,42.636355776456256,42.25721744464151,170.09056127907974,154.23199797618042,3.237724376958795e-05,0.0931148082017898,0,0,0
14290,494745.9054768052,2010-11-22 05:11:33,2671.3688356987245,2,44,0.550297200679779,3.947111368179321,42.64094319299991,42.25721744464151,170.10866474887408,154.23199797618042,6.47544875391759e-05,0.0931148082017898,0,0,0
14291,494775.9207247217,2010-11-22 05:12:03,2701.38408362528,2,44,0.550297200679779,3.949054002761841,42.645530522039074,42.25721744464151,170.12677601807422,154.23199797618042,6.47544875391759e-05,0.0931148082017898,0,0,0
14292,494805.9360812091,2010-11-22 05:12:33,2731.39944011282,2,44,0.5501165986061096,3.9508347511291504,42.650117796989775,42.25721744464151,170.14489523939028,154.23199797618042,6.47544875391759e-05,0.0931148082017898,0,0,0
14293,494835.95137293503,2010-11-22 05:13:03,2761.414731823668,2,44,0.5504778623580933,3.95261549949646,42.65470514579071,42.25721744464151,170.1630230748637,154.23199797618042,6.47544875391759e-05,0.0931148082017898,0,0,0
14294,494865.9667102347,2010-11-22 05:13:33,2791.430069123312,2,44,0.5501165986061096,3.9543962478637695,42.65929249573093,42.25721744464151,170.18115922122007,154.23199797618042,6.47544875391759e-05,0.0931148082017898,0,0,0
14295,494895.9818944523,2010-11-22 05:14:03,2821.445253355877,2,44,0.550297200679779,3.956176996231079,42.66387977891439,42.25721744464151,170.19930347620067,154.23199797618042,0.0,0.0931148082017898,0,0,0
14296,494925.9972370601,2010-11-22 05:14:33,2851.460595963771,2,44,0.550297200679779,3.958119630813599,42.66846713287605,42.25721744464151,170.21745632110267,154.23199797618042,9.713172767078504e-05,0.0931148082017898,0,0,0
14297,494956.0125930715,2010-11-22 05:15:04,2881.4759519751224,2,44,0.5501165986061096,3.959900379180908,42.67305441204796,42.25721744464151,170.23561732970046,154.23199797618042,3.237724376958795e-05,0.0931148082017898,0,0,0
14298,494986.0278467826,2010-11-22 05:15:34,2911.4912056861167,2,44,0.550297200679779,3.9620048999786377,42.67764176475284,42.25721744464151,170.2537872614068,154.23199797618042,9.713172767078504e-05,0.0931148082017898,0,0,0
14299,495016.0431690095,2010-11-22 05:16:04,2941.506527913137,2,44,0.5501165986061096,3.9637856483459473,42.68222911357147,42.25721744464151,170.27196579203394,154.23199797618042,6.47544875391759e-05,0.0931148082017898,0,0,0
14300,495046.0584967904,2010-11-22 05:16:34,2971.521855694021,2,44,0.550297200679779,3.965566396713257,42.68681644892851,42.25721744464151,170.29015298173132,154.23199797618042,0.0,0.0931148082017898,0,0,0
14301,495076.07392318745,2010-11-22 05:17:04,3001.5372820910657,2,44,0.5501165986061096,3.967509031295776,42.69140378749993,42.25721744464151,170.3083489373574,154.23199797618042,6.47544875391759e-05,0.0931148082017898,0,0,0
14302,495106.0891109838,2010-11-22 05:17:34,3031.552469887527,2,44,0.5501165986061096,3.969451665878296,42.695991100638864,42.25721744464151,170.32655360673414,154.23199797618042,3.237724376958795e-05,0.0931148082017898,0,0,0
14303,495136.1044086095,2010-11-22 05:18:04,3061.567767498101,2,44,0.5499359965324402,3.971394300460816,42.70057838664479,42.25721744464151,170.34476711511087,154.23199797618042,3.237724376958795e-05,0.0931148082017898,0,0,0
14304,495166.1198506055,2010-11-22 05:18:34,3091.583209509121,2,44,0.550297200679779,3.973336935043335,42.70516575785695,42.25721744464151,170.36298997022408,154.23199797618042,6.47544875391759e-05,0.0931148082017898,0,0,0
14305,495196.1350314045,2010-11-22 05:19:04,3121.598390313128,2,44,0.550297200679779,3.975441455841065,42.7097530088162,42.25721744464151,170.38122141915457,154.23199797618042,6.47544875391759e-05,0.0931148082017898,0,0,0
14306,495226.1503490401,2010-11-22 05:19:34,3151.613707943675,2,44,0.5501165986061096,3.977384090423584,42.71434029484388,42.25721744464151,170.39946221457268,154.23199797618042,6.47544875391759e-05,0.0931148082017898,0,0,0
14307,495256.1656789513,2010-11-22 05:20:04,3181.6290378298136,2,44,0.550297200679779,3.9794886112213135,42.718927566388444,42.25721744464151,170.41771182162893,154.23199797618042,6.47544875391759e-05,0.0931148082017898,0,0,0
14308,495286.18306138087,2010-11-22 05:20:34,3211.6464202644293,2,44,0.550297200679779,3.981431245803833,42.72351508367315,42.25721744464151,170.43597224129255,154.23199797618042,3.237724376958795e-05,0.0931148082017898,0,0,0
14309,495316.19625407225,2010-11-22 05:21:04,3241.659612975852,2,44,0.550297200679779,3.9835357666015625,42.728102018331086,42.25721744464151,170.45423980789465,154.23199797618042,3.237724376958795e-05,0.0931148082017898,0,0,0
14310,495346.2115629259,2010-11-22 05:21:34,3271.67492182949,2,44,0.5501165986061096,3.985640287399292,42.73268898305574,42.25721744464151,170.47251709144567,154.23199797618042,6.47544875391759e-05,0.0931148082017898,0,0,0
14311,495376.2269234735,2010-11-22 05:22:04,3301.6902823771643,2,44,0.5499359965324402,3.987906694412232,42.73727532484957,42.25721744464151,170.49080151228458,154.23199797618042,6.47544875391759e-05,0.0931148082017898,0,0,0
14312,495406.2421830242,2010-11-22 05:22:34,3331.705541927735,2,44,0.5501165986061096,3.989849328994751,42.74186174520139,42.25721744464151,170.50909582824465,154.23199797618042,6.47544875391759e-05,0.0931148082017898,0,0,0
14313,495436.25789541006,2010-11-22 05:23:04,3361.7212543186647,2,44,0.5501165986061096,3.9921157360076895,42.74644822643087,42.25721744464151,170.52740014936094,154.23199797618042,9.713172767078504e-05,0.0931148082017898,0,0,0
14314,495466.27277507726,2010-11-22 05:23:34,3391.7361339809754,2,44,0.550297200679779,3.994058132171631,42.75103495203042,42.25721744464151,170.54571536596288,154.23199797618042,0.0,0.0931148082017898,0,0,0
14315,495496.28806382586,2010-11-22 05:24:04,3421.751422729428,2,44,0.550297200679779,3.9963245391845694,42.755622235948266,42.25721744464151,170.56404289609705,154.23199797618042,6.47544875391759e-05,0.0931148082017898,0,0,0
14316,495526.3033830052,2010-11-22 05:24:34,3451.7667419088416,2,44,0.5501165986061096,3.9985909461975098,42.76020955381229,42.25721744464151,170.5823806554311,154.23199797618042,6.47544875391759e-05,0.0931148082017898,0,0,0
14317,495556.3186717386,2010-11-22 05:25:04,3481.7820306422573,2,44,0.5501165986061096,4.000695705413818,42.76479684177077,42.25721744464151,170.6007282928373,154.23199797618042,3.24249267578125e-05,0.0931148082017898,0,0,0
14318,495586.3340326622,2010-11-22 05:25:34,3511.79739156587,2,44,0.550297200679779,4.003123760223389,42.769384087858384,42.25721744464151,170.61908605146473,154.23199797618042,6.47544875391759e-05,0.0931148082017898,0,0,0
14319,495616.3492188999,2010-11-22 05:26:04,3541.812577788403,2,44,0.5501165986061096,4.005228519439697,42.77397133996663,42.25721744464151,170.63745418820557,154.23199797618042,6.47544875391759e-05,0.0931148082017898,0,0,0
14320,495646.3645761242,2010-11-22 05:26:34,3571.8279350127814,2,44,0.5504778623580933,4.007656574249268,42.77855860503808,42.25721744464151,170.65583288164365,154.23199797618042,6.47544875391759e-05,0.0931148082017898,0,0,0
14321,495676.37982978,2010-11-22 05:27:04,3601.843188683676,2,44,0.5501165986061096,4.009922981262207,42.7831458357632,42.25721744464151,170.6742218712651,154.23199797618042,6.47544875391759e-05,0.0931148082017898,0,0,0
14322,495706.3951795207,2010-11-22 05:27:34,3631.8585384093367,2,44,0.550297200679779,4.0121893882751465,42.78773315057011,42.25721744464151,170.6926217224472,154.23199797618042,6.47544875391759e-05,0.0931148082017898,0,0,0
14323,495736.4104807153,2010-11-22 05:28:04,3661.873839603857,2,44,0.5501165986061096,4.014617919921875,42.79232050096644,42.25721744464151,170.71103244755437,154.23199797618042,6.47544875391759e-05,0.0931148082017898,0,0,0
14324,495766.42580145854,2010-11-22 05:28:34,3691.8891603471743,2,44,0.550297200679779,4.016884326934815,42.79690785192464,42.25721744464151,170.72945397450775,154.23199797618042,6.47544875391759e-05,0.0931148082017898,0,0,0
14325,495796.4411444324,2010-11-22 05:29:04,3721.9045033159696,2,44,0.5501165986061096,4.019150733947754,42.80149516475118,42.25721744464151,170.7478862406383,154.23199797618042,3.24249267578125e-05,0.0931148082017898,0,0,0
14326,495826.4564943386,2010-11-22 05:29:34,3751.919853227093,2,44,0.5501165986061096,4.021740913391113,42.80608249978732,42.25721744464151,170.76632941762014,154.23199797618042,6.47544875391759e-05,0.0931148082017898,0,0,0
14327,495856.4716719445,2010-11-22 05:30:04,3781.9350308381295,2,44,0.550297200679779,4.024007320404053,42.81066974326428,42.25721744464151,170.78478339508817,154.23199797618042,6.47544875391759e-05,0.0931148082017898,0,0,0
14328,495886.48900617886,2010-11-22 05:30:34,3811.9523651676686,2,44,0.5501165986061096,4.026435375213623,42.81525732589693,42.25721744464151,170.80324981990938,154.23199797618042,3.23295607813634e-05,0.0931148082017898,0,0,0
14329,495916.5022609301,2010-11-22 05:31:04,3841.9656198187017,2,44,0.5501165986061096,4.029025554656982,42.81984428303874,42.25721744464151,170.8217250132512,154.23199797618042,6.47544875391759e-05,0.0931148082017898,0,0,0
14330,495946.51755272114,2010-11-22 05:31:34,3871.9809116247866,2,44,0.550297200679779,4.031291961669922,42.82443149893695,42.25721744464151,170.84021242823766,154.23199797618042,3.23295607813634e-05,0.0931148082017898,0,0,0
14331,495976.5329659604,2010-11-22 05:32:04,3901.99632484895,2,44,0.550297200679779,4.03404426574707,42.82901877467221,42.25721744464151,170.85871149926524,154.23199797618042,0.0001295089750783,0.0931148082017898,0,0,0
14332,496006.5482260623,2010-11-22 05:32:34,3932.0115849508966,2,44,0.5501165986061096,4.036472320556641,42.8336060039347,42.25721744464151,170.8772218503706,154.23199797618042,9.71794142969884e-05,0.0931148082017898,0,0,0
14333,496036.5636698428,2010-11-22 05:33:04,3962.0270287313338,2,44,0.5501165986061096,4.038900375366211,42.83819330422226,42.25721744464151,170.89574410367948,154.23199797618042,3.23295607813634e-05,0.0931148082017898,0,0,0
14334,496066.57872969983,2010-11-22 05:33:34,3992.042088588438,2,44,0.5504778623580933,4.041652679443359,42.84278048912312,42.25721744464151,170.9142774861241,154.23199797618042,9.71794142969884e-05,0.0931148082017898,0,0,0
14335,496096.5940094007,2010-11-22 05:34:04,4022.0573683093567,2,44,0.5501165986061096,4.04408073425293,42.8473677359533,42.25721744464151,170.93282301566168,154.23199797618042,6.47544875391759e-05,0.0931148082017898,0,0,0
14336,496126.6093291616,2010-11-22 05:34:34,4052.0726880652087,2,44,0.5499359965324402,4.046670913696289,42.85195505210896,42.25721744464151,170.9513807138936,154.23199797618042,6.47544875391759e-05,0.0931148082017898,0,0,0
14337,496156.624595469,2010-11-22 05:35:04,4082.0879543626206,2,44,0.5501165986061096,4.0494232177734375,42.85654232451568,42.25721744464151,170.9699502826792,154.23199797618042,9.71794142969884e-05,0.0931148082017898,0,0,0
14338,496186.6403039652,2010-11-22 05:35:34,4112.103662858828,2,44,0.550297200679779,4.052013397216797,42.86112961710781,42.25721744464151,170.98853190405487,154.23199797618042,9.71794142969884e-05,0.0931148082017898,0,0,0
14339,496216.65549890953,2010-11-22 05:36:04,4142.118857798119,2,44,0.550297200679779,4.054603576660156,42.86571689836238,42.25721744464151,171.00712569473936,154.23199797618042,3.24249267578125e-05,0.0931148082017898,0,0,0
14340,496246.656559011,2010-11-22 05:36:34,4172.119918019981,2,44,0.550297200679779,4.057517528533936,42.87030199930997,42.25721744464151,171.02572292758626,154.23199797618042,9.71794142969884e-05,0.0931148082017898,0,0,0
14341,496276.6730579104,2010-11-22 05:37:04,4202.136416899106,2,44,0.5501165986061096,4.060107707977295,42.87488949225288,42.25721744464151,171.04434234805672,154.23199797618042,9.71794142969884e-05,0.0931148082017898,0,0,0
14342,496306.6855690303,2010-11-22 05:37:34,4232.14892791892,2,44,0.5501165986061096,4.062697887420654,42.879476419022026,42.25721744464151,171.06297177134294,154.23199797618042,3.24249267578125e-05,0.0931148082017898,0,0,0
14343,496336.70071417536,2010-11-22 05:38:04,4262.164073063917,2,44,0.5501165986061096,4.065611839294434,42.88406366990871,42.25721744464151,171.08161525506833,154.23199797618042,9.71794142969884e-05,0.0931148082017898,0,0,0
14344,496366.71607838216,2010-11-22 05:38:34,4292.179437270726,2,44,0.550297200679779,4.068363666534424,42.88865098326123,42.25721744464151,171.10027174493797,154.23199797618042,6.47544875391759e-05,0.0931148082017898,0,0,0
14345,496396.7313209704,2010-11-22 05:39:04,4322.194679858955,2,44,0.5501165986061096,4.071115970611572,42.89323830310266,42.25721744464151,171.11894114529383,154.23199797618042,6.47544875391759e-05,0.0931148082017898,0,0,0
14346,496426.7467130067,2010-11-22 05:39:34,4352.210071895231,2,44,0.5501165986061096,4.074029922485352,42.89782557938135,42.25721744464151,171.13762325860415,154.23199797618042,6.47544875391759e-05,0.0931148082017898,0,0,0
14347,496456.7618716855,2010-11-22 05:40:04,4382.225230589047,2,44,0.5501165986061096,4.076781749725342,42.90241283201304,42.25721744464151,171.1563183284146,154.23199797618042,6.47544875391759e-05,0.0931148082017898,0,0,0
14348,496486.7772826741,2010-11-22 05:40:34,4412.240641562593,2,44,0.5501165986061096,4.079695701599121,42.9070000493893,42.25721744464151,171.1750264536787,154.23199797618042,9.70840483205393e-05,0.0931148082017898,0,0,0
14349,496516.7943469344,2010-11-22 05:41:04,4442.257705817984,2,44,0.5501165986061096,4.0827717781066895,42.91158755685514,42.25721744464151,171.19374907372173,154.23199797618042,6.47544875391759e-05,0.0931148082017898,0,0,0
14350,496546.80773912376,2010-11-22 05:41:34,4472.271098027384,2,44,0.550297200679779,4.085685729980469,42.91617450442859,42.25721744464151,171.21248280490198,154.23199797618042,0.0001295089750783,0.0931148082017898,0,0,0
14351,496576.8232372649,2010-11-22 05:42:04,4502.286596153475,2,44,0.5501165986061096,4.088599681854248,42.92076178897239,42.25721744464151,171.2312314071845,154.23199797618042,9.71794142969884e-05,0.0931148082017898,0,0,0
14352,496606.83844089584,2010-11-22 05:42:34,4532.301799784462,2,44,0.5501165986061096,4.091513633728027,42.92534909320755,42.25721744464151,171.24999376915972,154.23199797618042,9.71794142969884e-05,0.0931148082017898,0,0,0
14353,496636.8537547419,2010-11-22 05:43:04,4562.317113630562,2,44,0.550297200679779,4.0945892333984375,42.929936311898,42.25721744464151,171.26876945992842,154.23199797618042,9.70840483205393e-05,0.0931148082017898,0,0,0
14354,496666.8688805236,2010-11-22 05:43:34,4592.332239432275,2,44,0.550297200679779,4.097503185272217,42.93452358344318,42.25721744464151,171.2875592164403,154.23199797618042,9.70840483205393e-05,0.0931148082017898,0,0,0
14355,496696.8841632872,2010-11-22 05:44:04,4622.347522175739,2,44,0.5501165986061096,4.100579261779785,42.93911084290413,42.25721744464151,171.3063629728484,154.23199797618042,6.47544875391759e-05,0.0931148082017898,0,0,0
14356,496726.8994602812,2010-11-22 05:44:34,4652.3628191697735,2,44,0.5501165986061096,4.103816986083984,42.94369814270389,42.25721744464151,171.32518105301483,154.23199797618042,9.71794142969884e-05,0.0931148082017898,0,0,0
14357,496756.9147719167,2010-11-22 05:45:04,4682.378130805357,2,44,0.5501165986061096,4.1068925857543945,42.948285369892346,42.25721744464151,171.34401312443956,154.23199797618042,9.70840483205393e-05,0.0931148082017898,0,0,0
14358,496786.93010850967,2010-11-22 05:45:34,4712.393467398237,2,44,0.5501165986061096,4.109968662261963,42.95287260162253,42.25721744464151,171.36285941102844,154.23199797618042,9.71794142969884e-05,0.0931148082017898,0,0,0
14359,496816.94558130245,2010-11-22 05:46:04,4742.408940176055,2,44,0.5501165986061096,4.113044261932373,42.95745988558696,42.25721744464151,171.38172017186014,154.23199797618042,9.70840483205393e-05,0.0931148082017898,0,0,0
14360,496846.9606023227,2010-11-22 05:46:34,4772.423961226292,2,44,0.5501165986061096,4.116281986236572,42.96204702389908,42.25721744464151,171.40059459161523,154.23199797618042,9.71794142969884e-05,0.0931148082017898,0,0,0
14361,496876.97590525646,2010-11-22 05:47:04,4802.4392641601535,2,44,0.550297200679779,4.119357585906982,42.96663432994964,42.25721744464151,171.41948426583014,154.23199797618042,6.47544875391759e-05,0.0931148082017898,0,0,0
14362,496906.9911688472,2010-11-22 05:47:35,4832.454527750809,2,44,0.550297200679779,4.122595310211182,42.971221617372976,42.25721744464151,171.43838866658254,154.23199797618042,9.70840483205393e-05,0.0931148082017898,0,0,0
14363,496937.0064568439,2010-11-22 05:48:05,4862.469815732346,2,44,0.5501165986061096,4.125833034515381,42.97580895009827,42.25721744464151,171.45730800590053,154.23199797618042,6.47544875391759e-05,0.0931148082017898,0,0,0
14364,496967.02174592303,2010-11-22 05:48:35,4892.485104816639,2,44,0.550297200679779,4.129232883453369,42.98039627405612,42.25721744464151,171.47624235010997,154.23199797618042,9.71794142969884e-05,0.0931148082017898,0,0,0
14365,496997.0371104608,2010-11-22 05:49:05,4922.50046934926,2,44,0.550297200679779,4.132632255554199,42.9849836079947,42.25721744464151,171.4951919582114,154.23199797618042,9.70840483205393e-05,0.0931148082017898,0,0,0
14366,497027.0524421513,2010-11-22 05:49:35,4952.515801039904,2,44,0.5501165986061096,4.135869979858398,42.98957093235784,42.25721744464151,171.5141567582631,154.23199797618042,6.47544875391759e-05,0.0931148082017898,0,0,0
14367,497057.06759941153,2010-11-22 05:50:05,4982.530958315178,2,44,0.5501165986061096,4.139269828796387,42.99415818786942,42.25721744464151,171.53313657060707,154.23199797618042,9.71794142969884e-05,0.0931148082017898,0,0,0
14368,497087.0828771024,2010-11-22 05:50:35,5012.5462359909925,2,44,0.5504778623580933,4.142669200897217,42.99874545566541,42.25721744464151,171.55213195478885,154.23199797618042,9.70840483205393e-05,0.0931148082017898,0,0,0
14369,497117.10007270565,2010-11-22 05:51:05,5042.563431594249,2,44,0.550297200679779,4.146230697631836,43.00333306077023,42.25721744464151,171.57114444168377,154.23199797618042,9.70840483205393e-05,0.0931148082017898,0,0,0
14370,497147.1134580229,2010-11-22 05:51:35,5072.576816891395,2,44,0.5501165986061096,4.149468421936035,43.007920026275166,42.25721744464151,171.59017019905147,154.23199797618042,6.47544875391759e-05,0.0931148082017898,0,0,0
14371,497177.1287382601,2010-11-22 05:52:05,5102.592097148652,2,44,0.550297200679779,4.153192043304443,43.01250721229785,42.25721744464151,171.60921277613895,154.23199797618042,0.0001295089750783,0.0931148082017898,0,0,0
14372,497207.144096512,2010-11-22 05:52:35,5132.607455415634,2,44,0.5501165986061096,4.156429767608643,43.0170944688679,42.25721744464151,171.62827152018,154.23199797618042,0.0001295089750783,0.0931148082017898,0,0,0
14373,497237.1595396408,2010-11-22 05:53:05,5162.622898544444,2,44,0.5501165986061096,4.159991264343262,43.02168182249546,42.25721744464151,171.64734666411283,154.23199797618042,6.47544875391759e-05,0.0931148082017898,0,0,0
14374,497267.17459517205,2010-11-22 05:53:35,5192.637954060713,2,44,0.550297200679779,4.163390636444092,43.02626909674908,42.25721744464151,171.66643752804077,154.23199797618042,9.70840483205393e-05,0.0931148082017898,0,0,0
14375,497297.18987658224,2010-11-22 05:54:05,5222.653235485886,2,44,0.5501165986061096,4.1671142578125,43.03085638163093,42.25721744464151,171.68554452967592,154.23199797618042,9.71794142969884e-05,0.0931148082017898,0,0,0
14376,497327.2051598671,2010-11-22 05:54:35,5252.668518770701,2,44,0.5501165986061096,4.170675754547119,43.035443647085735,42.25721744464151,171.70466776179828,154.23199797618042,0.0001295089750783,0.0931148082017898,0,0,0
14377,497357.2204656781,2010-11-22 05:55:05,5282.683824566707,2,44,0.5501165986061096,4.174237251281738,43.04003087389975,42.25721744464151,171.72380725547146,154.23199797618042,0.0001295089750783,0.0931148082017898,0,0,0
14378,497387.235762988,2010-11-22 05:55:35,5312.699121876531,2,44,0.5501165986061096,4.177798748016357,43.04461813732449,42.25721744464151,171.74296340520948,154.23199797618042,0.0001295089750783,0.0931148082017898,0,0,0
14379,497417.2510840871,2010-11-22 05:56:05,5342.714442980748,2,44,0.5501165986061096,4.181198120117188,43.04920545641892,42.25721744464151,171.76213636651147,154.23199797618042,6.47544875391759e-05,0.0931148082017898,0,0,0
14380,497447.26641937176,2010-11-22 05:56:35,5372.729778275388,2,44,0.550297200679779,4.184921741485596,43.05379275845979,42.25721744464151,171.7813260078997,154.23199797618042,3.24249267578125e-05,0.0931148082017898,0,0,0
14381,497477.281602241,2010-11-22 05:57:05,5402.744961129512,2,44,0.5501165986061096,4.188644886016846,43.05838005145386,42.25721744464151,171.8005323609297,154.23199797618042,9.70840483205393e-05,0.0931148082017898,0,0,0
14382,497507.2969007036,2010-11-22 05:57:35,5432.760259612263,2,44,0.550297200679779,4.192368507385254,43.062967390912,42.25721744464151,171.8197558561118,154.23199797618042,6.47544875391759e-05,0.0931148082017898,0,0,0
14383,497537.31214958255,2010-11-22 05:58:05,5462.775508471145,2,44,0.5504778623580933,4.196091651916504,43.06755473472428,42.25721744464151,171.8389963213911,154.23199797618042,6.47544875391759e-05,0.0931148082017898,0,0,0
14384,497567.3274493435,2010-11-22 05:58:35,5492.790808232086,2,44,0.550297200679779,4.199814796447754,43.07214202680402,42.25721744464151,171.85825359392072,154.23199797618042,0.0001295089750783,0.0931148082017898,0,0,0
14385,497567.9524183674,2010-11-22 05:58:35,5493.41577725592,2,44,0.5504778623580933,4.200138568878174,43.07223754147838,42.25721744464151,171.85865474370507,154.23199797618042,0.0001295089750783,0.0931148082017898,0,0,0
14386,497597.9808277639,2010-11-22 05:59:06,30.015281846223843,3,44,0.0,4.112720489501953,43.07223754147838,42.25721744464151,171.85865474370507,154.23199797618042,-0.0004532813909463,0.0931148082017898,0,0,0
14387,497627.9961060211,2010-11-22 05:59:36,60.03056010348909,3,44,0.0,4.102035999298096,43.07223754147838,42.25721744464151,171.85865474370507,154.23199797618042,-0.0002590179501567,0.0931148082017898,0,0,0
14388,497658.0114485589,2010-11-22 06:00:06,90.04590264120824,3,44,0.0,4.095722675323486,43.07223754147838,42.25721744464151,171.85865474370507,154.23199797618042,-0.0001295089750783,0.0931148082017898,0,0,0
14389,497687.97984997433,2010-11-22 06:00:36,120.01430406167702,3,44,0.0,4.091513633728027,43.07223754147838,42.25721744464151,171.85865474370507,154.23199797618042,-6.47544875391759e-05,0.0931148082017898,0,0,0
14390,497687.9942730143,2010-11-22 06:00:36,0.015608085181858,4,44,0.9880940914154052,4.199814796447754,43.07224184854231,42.25721744464151,171.85867283292512,154.23199797618042,-3.24249267578125e-05,0.0931148082017898,0,0,0
14391,497689.02551482746,2010-11-22 06:00:37,1.046849893387726,4,44,0.9378847479820251,4.199814796447754,43.072516150929786,42.25721744464151,171.85982485894192,154.23199797618042,-3.24249267578125e-05,0.0931148082017898,0,0,0
14392,497691.2598628388,2010-11-22 06:00:39,3.281198015045248,4,44,0.8871335387229919,4.199814796447754,43.07308131608252,42.25721744464151,171.86219844394222,154.23199797618042,-3.24249267578125e-05,0.0931148082017898,0,0,0
14393,497694.5569318854,2010-11-22 06:00:42,6.578267061626907,4,44,0.8371047377586365,4.199814796447754,43.07386984545231,42.25721744464151,171.86551011320643,154.23199797618042,0.0,0.0931148082017898,0,0,0
14394,497699.10349440994,2010-11-22 06:00:47,11.12482946585901,4,44,0.7867147922515869,4.199814796447754,43.07489419451081,42.25721744464151,171.86981220046223,154.23199797618042,0.0,0.0931148082017898,0,0,0
14395,497705.056501702,2010-11-22 06:00:53,17.077836777957287,4,44,0.7366859912872314,4.199814796447754,43.07615222515447,42.25721744464151,171.87509570949842,154.23199797618042,0.0,0.0931148082017898,0,0,0
14396,497712.7926918126,2010-11-22 06:01:01,24.814026953819344,4,44,0.6864766478538513,4.199814796447754,43.07767913266829,42.25721744464151,171.88150846157862,154.23199797618042,-3.24249267578125e-05,0.0931148082017898,0,0,0
14397,497723.1657119568,2010-11-22 06:01:11,35.187047027773176,4,44,0.6364478468894958,4.199814796447754,43.07958148307824,42.25721744464151,171.88949802846696,154.23199797618042,0.0,0.0931148082017898,0,0,0
14398,497737.6342567305,2010-11-22 06:01:25,49.65559178642072,4,44,0.5864191055297852,4.199653148651123,43.08203308921681,42.25721744464151,171.8997943687278,154.23199797618042,-6.47544875391759e-05,0.0931148082017898,0,0,0
14399,497760.1496693944,2010-11-22 06:01:48,72.17100445033951,4,44,0.5363903045654297,4.199653148651123,43.085532078582695,42.25721744464151,171.9144895616739,154.23199797618042,-6.47544875391759e-05,0.0931148082017898,0,0,0
14400,497799.6491706965,2010-11-22 06:02:27,111.67050576747344,4,44,0.4863615334033966,4.199814796447754,43.09111542443635,42.25721744464151,171.93793848672323,154.23199797618042,3.23295607813634e-05,0.0931148082017898,0,0,0
14401,497872.1659197636,2010-11-22 06:03:40,184.1872548195303,4,44,0.4363327622413635,4.199653148651123,43.10036781528452,42.25721744464151,171.9767967912642,154.23199797618042,0.0,0.0931148082017898,0,0,0
14402,497977.8190661012,2010-11-22 06:05:26,289.8404011721567,4,44,0.3863039910793304,4.199814796447754,43.11241525502876,42.25721744464151,172.02739412759942,154.23199797618042,0.0,0.0931148082017898,0,0,0
14403,498109.4739361364,2010-11-22 06:07:37,421.4952711923224,4,44,0.3360946178436279,4.199814796447754,43.12561065198713,42.25721744464151,172.08281274153578,154.23199797618042,0.0,0.0931148082017898,0,0,0
14404,498266.6908547325,2010-11-22 06:10:14,578.7121897883563,4,44,0.2860658466815948,4.199814796447754,43.13917735262291,42.25721744464151,172.13979088434286,154.23199797618042,0.0,0.0931148082017898,0,0,0
14405,498455.3604311663,2010-11-22 06:13:23,767.3817662372614,4,44,0.2360370755195617,4.199814796447754,43.15283434107476,42.25721744464151,172.19714823318122,154.23199797618042,-3.24249267578125e-05,0.0931148082017898,0,0,0
14406,498693.0939938933,2010-11-22 06:17:21,1005.1153289491848,4,44,0.1860083192586898,4.199653148651123,43.1667190574699,42.25721744464151,172.2554620585805,154.23199797618042,-3.23295607813634e-05,0.0931148082017898,0,0,0
14407,499008.8383928943,2010-11-22 06:22:37,1320.8597280554152,4,44,0.1359795480966568,4.199814796447754,43.18072909042056,42.25721744464151,172.31430214438242,154.23199797618042,-6.47544875391759e-05,0.0931148082017898,0,0,0
14408,499496.1919745766,2010-11-22 06:30:44,1808.2133096325056,4,44,0.0859507694840431,4.199653148651123,43.19549096266089,42.25721744464151,172.3762997520912,154.23199797618042,-3.23295607813634e-05,0.0931148082017898,0,0,0
14409,500135.4658095385,2010-11-22 06:41:23,2447.487144609429,4,44,0.0496483072638511,4.199814796447754,43.20725452094407,42.25721744464151,172.42570501549176,154.23199797618042,-3.24249267578125e-05,0.0931148082017898,0,0,0
14410,500165.4908110497,2010-11-22 06:41:53,30.01337075083574,5,44,0.0,4.191720962524414,43.20725452094407,42.25721744464151,172.42570501549176,154.23199797618042,-6.47544875391759e-05,0.0931148082017898,0,0,0
14411,500195.4904582696,2010-11-22 06:42:23,60.01301795558914,5,44,0.0,4.190425872802734,43.20725452094407,42.25721744464151,172.42570501549176,154.23199797618042,-6.47544875391759e-05,0.0931148082017898,0,0,0
14412,500195.6903005159,2010-11-22 06:42:24,0.187517547647782,6,44,-1.9243103452026844e-05,4.190425872802734,43.20725452094407,42.25721744564385,172.42570501549176,154.23199798038064,0.0,0.0956302732229232,0,0,0
14413,500200.518277835,2010-11-22 06:42:29,5.015494731464309,6,44,0.0008838032954372,4.190587520599365,43.20725562899184,42.25721744572798,172.4257096588359,154.23199798073315,-3.24249267578125e-05,0.0956302732229232,0,0,0
14414,500230.5459186816,2010-11-22 06:42:59,30.015257700953537,7,44,-1.099568486213684,4.0084662437438965,43.20725562899184,42.26638499526922,172.4257096588359,154.26895051475063,-0.0009713172912597,0.0956302732229232,0,0,0
14415,500260.5612042872,2010-11-22 06:43:29,60.03054330154887,7,44,-1.099568486213684,3.980459928512573,43.20725562899184,42.27555259226829,172.4257096588359,154.30556159623742,-0.0006475448608398,0.0956302732229232,0,0,0
14416,500290.576475948,2010-11-22 06:43:59,90.04581496234832,7,44,-1.099568486213684,3.961195468902588,43.20725562899184,42.28472006745371,172.4257096588359,154.34195950297894,-0.0004532813909463,0.0956302732229232,0,0,0
14417,500320.59388023714,2010-11-22 06:44:29,120.06321925151629,7,44,-1.099568486213684,3.946301937103272,43.20725562899184,42.29388819717629,172.4257096588359,154.37820546994038,-0.0003561496851034,0.0956302732229232,0,0,0
14418,500350.6070828031,2010-11-22 06:44:59,150.07642180751182,7,44,-1.099568486213684,3.9336748123168954,43.20725562899184,42.30305498736452,172.4257096588359,154.41432173829693,-0.0003561496851034,0.0956302732229232,0,0,0
14419,500380.6223151408,2010-11-22 06:45:29,180.09165416019218,7,44,-1.0992072820663452,3.922828435897827,43.20725562899184,42.312222417368815,172.4257096588359,154.45033279534482,-0.0002590179501567,0.0956302732229232,0,0,0
14420,500410.63769771846,2010-11-22 06:45:59,210.10703671780715,7,44,-1.099568486213684,3.9124679565429688,43.20725562899184,42.32138992819963,172.4257096588359,154.48624659471736,-0.0002589702489785,0.0956302732229232,0,0,0
14421,500440.6529917952,2010-11-22 06:46:29,240.1223308095978,7,44,-1.099568486213684,3.902754783630371,43.20725562899184,42.330557519978846,172.4257096588359,154.52206976988583,-0.0002913951757363,0.0956302732229232,0,0,0
14422,500470.66816517065,2010-11-22 06:46:59,270.1375041800494,7,44,-1.0993878841400146,3.893365383148194,43.20725562899184,42.33972498437877,172.4257096588359,154.55780442810996,-0.0002590179501567,0.0956302732229232,0,0,0
14423,500500.6834010522,2010-11-22 06:47:29,300.15274006655073,7,44,-1.0993878841400146,3.8844616413116455,43.20725562899184,42.34889253005679,172.4257096588359,154.59345607806037,-0.0002266406954731,0.0956302732229232,0,0,0
14424,500530.6987250386,2010-11-22 06:47:59,330.16806404293794,7,44,-1.099568486213684,3.8755578994750977,43.20725562899184,42.35805998411388,172.4257096588359,154.62902568123693,-0.0002266406954731,0.0956302732229232,0,0,0
14425,500560.7139658273,2010-11-22 06:48:29,360.183304841701,7,44,-1.099568486213684,3.86681604385376,43.20725562899184,42.36722740879026,172.4257096588359,154.6645149066881,-0.0002266406954731,0.0956302732229232,0,0,0
14426,500590.72924025,2010-11-22 06:48:59,390.1985792543695,7,44,-1.0993878841400146,3.858397960662842,43.20725562899184,42.376394958906445,172.4257096588359,154.69992484734394,-0.0002590179501567,0.0956302732229232,0,0,0
14427,500620.7445046727,2010-11-22 06:49:29,420.2138436771017,7,44,-1.0993878841400146,3.849979877471924,43.20725562899184,42.3855624070596,172.4257096588359,154.73525645601651,-0.0001942634553415,0.0956302732229232,0,0,0
14428,500650.7597790353,2010-11-22 06:49:59,450.22911803964513,7,44,-1.099929690361023,3.841561794281006,43.20725562899184,42.39472989267074,172.4257096588359,154.77051261309282,-0.0002266406954731,0.0956302732229232,0,0,0
14429,500680.775078676,2010-11-22 06:50:29,480.24441767527406,7,44,-1.099929690361023,3.833467483520508,43.20725562899184,42.40389740296105,172.4257096588359,154.80569427785082,-0.0002266406954731,0.0956302732229232,0,0,0
14430,500710.7903288932,2010-11-22 06:50:59,510.2596679075848,7,44,-1.099568486213684,3.825697183609009,43.20725562899184,42.41306486094505,172.4257096588359,154.84080236235698,-0.0002266406954731,0.0956302732229232,0,0,0
14431,500740.8056365288,2010-11-22 06:51:29,540.2749755281452,7,44,-1.0993878841400146,3.81792664527893,43.20725562899184,42.4222324055681,172.4257096588359,154.87583933084548,-0.0002266406954731,0.0956302732229232,0,0,0
14432,500770.82088529743,2010-11-22 06:51:59,570.2902242968024,7,44,-1.099568486213684,3.810156106948853,43.20725562899184,42.43139983784297,172.4257096588359,154.91080523269446,-0.0002266406954731,0.0956302732229232,0,0,0
14433,500800.83616291307,2010-11-22 06:52:29,600.3055019275037,7,44,-1.099568486213684,3.8027093410491934,43.20725562899184,42.44056730824531,172.4257096588359,154.94570144977575,-0.0001942634553415,0.0956302732229232,0,0,0
14434,500830.8514221078,2010-11-22 06:52:59,630.3207611271982,7,44,-1.099568486213684,3.795262575149536,43.20725562899184,42.4497347968705,172.4257096588359,154.98052934428873,-0.0002266406954731,0.0956302732229232,0,0,0
14435,500860.8668470663,2010-11-22 06:53:29,660.3361860656022,7,44,-1.0997490882873535,3.788139581680298,43.20725562899184,42.458902363280544,172.4257096588359,155.01529020339788,-0.0001942634553415,0.0956302732229232,0,0,0
14436,500890.8819837952,2010-11-22 06:53:59,690.3513228096286,7,44,-1.0997490882873535,3.7808547019958496,43.20725562899184,42.46806978589392,172.4257096588359,155.04998441210714,-0.0002266406954731,0.0956302732229232,0,0,0
14437,500920.89915799006,2010-11-22 06:54:29,720.3684969843956,7,44,-1.099568486213684,3.774217367172241,43.20725562899184,42.477237859193295,172.4257096588359,155.08461752393433,-0.0001618862152099,0.0956302732229232,0,0,0
14438,500950.9125883498,2010-11-22 06:54:59,750.3819273440241,7,44,-1.099568486213684,3.767418146133423,43.20725562899184,42.48640473837237,172.4257096588359,155.1191841660864,-0.0002266406954731,0.0956302732229232,0,0,0
14439,500980.92793076206,2010-11-22 06:55:29,780.3972698717182,7,44,-1.0993878841400146,3.7607808113098153,43.20725562899184,42.49557226846777,172.4257096588359,155.15369210990846,-0.0001942634553415,0.0956302732229232,0,0,0
14440,501010.9430716014,2010-11-22 06:55:59,810.4124106157293,7,44,-1.099568486213684,3.754305362701416,43.20725562899184,42.50473970589659,172.4257096588359,155.18813917744245,-0.0001618862152099,0.0956302732229232,0,0,0
14441,501040.9583632219,2010-11-22 06:56:29,840.4277022363515,7,44,-1.0993878841400146,3.747992038726807,43.20725562899184,42.5139072097883,172.4257096588359,155.22252699249773,-0.0001618862152099,0.0956302732229232,0,0,0
14442,501070.9739735631,2010-11-22 06:56:59,870.4433125574993,7,44,-1.099568486213684,3.741678476333618,43.20725562899184,42.52307482365431,172.4257096588359,155.25685758493935,-0.0001618862152099,0.0956302732229232,0,0,0
14443,501100.98889712,2010-11-22 06:57:29,900.4582361193904,7,44,-1.099568486213684,3.73552680015564,43.20725562899184,42.53224224153741,172.4257096588359,155.29113121228227,-0.0001942634553415,0.0956302732229232,0,0,0
14444,501131.00418104144,2010-11-22 06:57:59,930.4735200558316,7,44,-1.0993878841400146,3.729537010192871,43.20725562899184,42.541409740406245,172.4257096588359,155.32534917423064,-0.0001618862152099,0.0956302732229232,0,0,0
14445,501161.0195144514,2010-11-22 06:58:29,960.4888534657664,7,44,-1.099568486213684,3.7233853340148926,43.20725562899184,42.55057724197463,172.4257096588359,155.35951205751374,-0.0001942634553415,0.0956302732229232,0,0,0
14446,501191.03471731045,2010-11-22 06:58:59,990.5040563248264,7,44,-1.099568486213684,3.717395544052124,43.20725562899184,42.55974473616134,172.4257096588359,155.39361991414154,-0.0001942634553415,0.0956302732229232,0,0,0
14447,501221.0500112569,2010-11-22 06:59:29,1020.5193502562164,7,44,-1.0992072820663452,3.711891412734986,43.20725562899184,42.56891222087137,172.4257096588359,155.42767409712584,-0.0001295089750783,0.0956302732229232,0,0,0
14448,501251.0652708726,2010-11-22 06:59:59,1050.5346098919997,7,44,-1.099568486213684,3.705901622772217,43.20725562899184,42.57807974905032,172.4257096588359,155.46167567267375,-0.0001942634553415,0.0956302732229232,0,0,0
14449,501281.0834601262,2010-11-22 07:00:29,1080.5527992257596,7,44,-1.0993878841400146,3.700721263885498,43.20725562899184,42.58724817821663,172.4257096588359,155.4956291709853,-0.0001295089750783,0.0956302732229232,0,0,0
14450,501311.0958339836,2010-11-22 07:00:59,1110.5651729979834,7,44,-1.0993878841400146,3.695055246353149,43.20725562899184,42.59641481935122,172.4257096588359,155.5295250071036,-0.0001295089750783,0.0956302732229232,0,0,0
14451,501341.1110904815,2010-11-22 07:01:29,1140.5804294808966,7,44,-1.099568486213684,3.6895511150360103,43.20725562899184,42.60558238398237,172.4257096588359,155.56337361739915,-0.0001295089750783,0.0956302732229232,0,0,0
14452,501371.1264362122,2010-11-22 07:01:59,1170.595775211586,7,44,-1.099568486213684,3.684208869934082,43.20725562899184,42.6147499117448,172.4257096588359,155.5971722499388,-9.713172767078504e-05,0.0956302732229232,0,0,0
14453,501401.14165324665,2010-11-22 07:02:29,1200.6109922610667,7,44,-1.099568486213684,3.678704738616944,43.20725562899184,42.62391747371213,172.4257096588359,155.63092211976905,-0.0001295089750783,0.0956302732229232,0,0,0
14454,501431.15693154914,2010-11-22 07:02:59,1230.6262705484075,7,44,-1.099568486213684,3.6735243797302246,43.20725562899184,42.63308501782903,172.4257096588359,155.66462325543557,-0.0001295089750783,0.0956302732229232,0,0,0
14455,501461.1723115452,2010-11-22 07:03:29,1260.6416505596662,7,44,-1.099568486213684,3.668020486831665,43.20725562899184,42.64225261180116,172.4257096588359,155.69827603541972,-0.0001618862152099,0.0956302732229232,0,0,0
14456,501491.1874509058,2010-11-22 07:03:59,1290.6567899051863,7,44,-1.099568486213684,3.663002014160156,43.20725562899184,42.65142009345952,172.4257096588359,155.73188003664518,-0.0001295089750783,0.0956302732229232,0,0,0
14457,501521.20455515606,2010-11-22 07:04:29,1320.6738941554113,7,44,-1.099568486213684,3.6578216552734375,43.20725562899184,42.66058818557526,172.4257096588359,155.7654395062982,-0.0001618862152099,0.0956302732229232,0,0,0
14458,501551.2181324374,2010-11-22 07:04:59,1350.6874714217413,7,44,-1.0993878841400146,3.6531269550323486,43.20725562899184,42.669755172185376,172.4257096588359,155.79894880471005,-9.713172767078504e-05,0.0956302732229232,0,0,0
14459,501581.233682428,2010-11-22 07:05:29,1380.7030214523943,7,44,-1.0993878841400146,3.64810848236084,43.20725562899184,42.67892273076405,172.4257096588359,155.83241485320798,-9.713172767078504e-05,0.0956302732229232,0,0,0
14460,501611.2486716036,2010-11-22 07:05:59,1410.7180106030053,7,44,-1.099568486213684,3.642928123474121,43.20725562899184,42.68809007531437,172.4257096588359,155.86583414137462,-0.0001295089750783,0.0956302732229232,0,0,0
14461,501641.26383913454,2010-11-22 07:06:29,1440.733178148918,7,44,-1.099568486213684,3.638233423233032,43.20725562899184,42.697257502951096,172.4257096588359,155.8992090841987,-0.0001295089750783,0.0956302732229232,0,0,0
14462,501671.27908930666,2010-11-22 07:06:59,1470.7484282910032,7,44,-1.099568486213684,3.633376836776733,43.20725562899184,42.70642501424296,172.4257096588359,155.93254066112686,-0.0001942634553415,0.0956302732229232,0,0,0
14463,501701.2943680652,2010-11-22 07:07:29,1500.7637070795947,7,44,-1.099568486213684,3.628682136535645,43.20725562899184,42.71559251290507,172.4257096588359,155.9658292721691,-0.0001618862152099,0.0956302732229232,0,0,0
14464,501731.3096414904,2010-11-22 07:07:59,1530.7789805047985,7,44,-1.0997490882873535,3.6241493225097656,43.20725562899184,42.7247599401052,172.4257096588359,155.99907558147586,-0.0001295089750783,0.0956302732229232,0,0,0
14465,501761.3249501034,2010-11-22 07:08:29,1560.7942891027988,7,44,-1.099568486213684,3.619616508483887,43.20725562899184,42.733927374725525,172.4257096588359,156.03228021091476,-0.0001618862152099,0.0956302732229232,0,0,0
14466,501791.3402146063,2010-11-22 07:08:59,1590.8095536057313,7,44,-1.0997490882873535,3.615407466888428,43.20725562899184,42.74309486552734,172.4257096588359,156.06544436316508,-9.713172767078504e-05,0.0956302732229232,0,0,0
14467,501821.35558558506,2010-11-22 07:09:29,1620.8249245794311,7,44,-1.099568486213684,3.6111984252929688,43.20725562899184,42.75226232861444,172.4257096588359,156.09856883459327,-0.0001295089750783,0.0956302732229232,0,0,0
14468,501851.3707306399,2010-11-22 07:09:59,1650.8400696392148,7,44,-1.099568486213684,3.6069893836975098,43.20725562899184,42.76142974741894,172.4257096588359,156.13165425673844,-9.713172767078504e-05,0.0956302732229232,0,0,0
14469,501881.3860147016,2010-11-22 07:10:29,1680.8553537210191,7,44,-1.099568486213684,3.602780342102051,43.20725562899184,42.77059717557309,172.4257096588359,156.16470126640303,-9.713172767078504e-05,0.0956302732229232,0,0,0
14470,501911.4012690242,2010-11-22 07:11:00,1710.8706080385273,7,44,-1.099568486213684,3.598571300506592,43.20725562899184,42.779764633944765,172.4257096588359,156.19771072606085,-0.0001618862152099,0.0956302732229232,0,0,0
14471,501941.4166736368,2010-11-22 07:11:30,1740.8860126562072,7,44,-1.099568486213684,3.5945241451263428,43.20725562899184,42.78893218819493,172.4257096588359,156.2306832033418,-0.0001295089750783,0.0956302732229232,0,0,0
14472,501971.43181897234,2010-11-22 07:12:00,1770.9011579766418,7,44,-1.0997490882873535,3.590477228164673,43.20725562899184,42.798099615587965,172.4257096588359,156.26361854055358,-0.0001295089750783,0.0956302732229232,0,0,0
14473,502001.44712461287,2010-11-22 07:12:30,1800.9164636322976,7,44,-1.0993878841400146,3.587077617645264,43.20725562899184,42.80726707277974,172.4257096588359,156.29651839108794,-6.47544875391759e-05,0.0956302732229232,0,0,0
14474,502031.4623762438,2010-11-22 07:13:00,1830.9317152580863,7,44,-1.0997490882873535,3.5831923484802246,43.20725562899184,42.81643454080283,172.4257096588359,156.32938408622178,-9.713172767078504e-05,0.0956302732229232,0,0,0
14475,502061.4776571726,2010-11-22 07:13:30,1860.9469961619584,7,44,-1.099568486213684,3.579630851745605,43.20725562899184,42.82560209272612,172.4257096588359,156.3622168327064,-6.47544875391759e-05,0.0956302732229232,0,0,0
14476,502091.4929090941,2010-11-22 07:14:00,1890.9622480935104,7,44,-1.099568486213684,3.5759074687957764,43.20725562899184,42.83476957009359,172.4257096588359,156.39501642145402,-0.0001295089750783,0.0956302732229232,0,0,0
14477,502121.5100823616,2010-11-22 07:14:30,1920.9794213610128,7,44,-1.099568486213684,3.572669744491577,43.20725562899184,42.84393760605388,172.4257096588359,156.42778628655142,-9.713172767078504e-05,0.0956302732229232,0,0,0
14478,502151.523469764,2010-11-22 07:15:00,1950.9928087634128,7,44,-1.099568486213684,3.569270133972168,43.20725562899184,42.85310453063001,172.4257096588359,156.46052081663123,-6.47544875391759e-05,0.0956302732229232,0,0,0
14479,502181.5387180515,2010-11-22 07:15:30,1981.008057065907,7,44,-1.0993878841400146,3.565870523452759,43.20725562899184,42.862271966719305,172.4257096588359,156.493225818467,-9.713172767078504e-05,0.0956302732229232,0,0,0
14480,502211.55412423314,2010-11-22 07:16:00,2011.0234632324527,7,44,-1.0993878841400146,3.562794685363769,43.20725562899184,42.871439443862215,172.4257096588359,156.5259002690828,-6.47544875391759e-05,0.0956302732229232,0,0,0
14481,502241.5695047105,2010-11-22 07:16:30,2041.0388436998508,7,44,-1.099568486213684,3.5593950748443604,43.20725562899184,42.88060694406269,172.4257096588359,156.55854585398907,-9.713172767078504e-05,0.0956302732229232,0,0,0
14482,502271.5845014351,2010-11-22 07:17:00,2071.053840434392,7,44,-1.0997490882873535,3.555995464324951,43.20725562899184,42.88977436161145,172.4257096588359,156.59116137346942,-9.713172767078504e-05,0.0956302732229232,0,0,0
14483,502301.5998237674,2010-11-22 07:17:30,2101.0691627817127,7,44,-1.099568486213684,3.552919626235962,43.20725562899184,42.89894185760725,172.4257096588359,156.62374745771052,-9.713172767078504e-05,0.0956302732229232,0,0,0
14484,502331.6152237484,2010-11-22 07:18:00,2131.08456276282,7,44,-1.099568486213684,3.5496819019317627,43.20725562899184,42.90810934391148,172.4257096588359,156.65630403389676,-6.47544875391759e-05,0.0956302732229232,0,0,0
14485,502361.6303897104,2010-11-22 07:18:30,2161.0997287247783,7,44,-1.0993878841400146,3.546606063842773,43.20725562899184,42.917276833680965,172.4257096588359,156.68883116425684,-6.47544875391759e-05,0.0956302732229232,0,0,0
14486,502391.6456381983,2010-11-22 07:19:00,2191.1149772177478,7,44,-1.0992072820663452,3.543368339538574,43.20725562899184,42.92644431033055,172.4257096588359,156.72132903181503,-6.47544875391759e-05,0.0956302732229232,0,0,0
14487,502421.66094757325,2010-11-22 07:19:30,2221.130286572637,7,44,-1.0993878841400146,3.540130615234375,43.20725562899184,42.935611795725,172.4257096588359,156.75379707295428,-6.47544875391759e-05,0.0956302732229232,0,0,0
14488,502451.6761812192,2010-11-22 07:20:00,2251.1455202185457,7,44,-1.099568486213684,3.536731004714966,43.20725562899184,42.94477928484968,172.4257096588359,156.7862353806918,-9.713172767078504e-05,0.0956302732229232,0,0,0
14489,502481.6914648348,2010-11-22 07:20:30,2281.160803849224,7,44,-1.099568486213684,3.5334932804107666,43.20725562899184,42.95394683209122,172.4257096588359,156.81864384513554,-9.713172767078504e-05,0.0956302732229232,0,0,0
14490,502511.7067337738,2010-11-22 07:21:00,2311.176072788229,7,44,-1.099568486213684,3.5304174423217773,43.20725562899184,42.96311432352836,172.4257096588359,156.85102267790364,-6.47544875391759e-05,0.0956302732229232,0,0,0
14491,502541.7219956853,2010-11-22 07:21:30,2341.191334689668,7,44,-1.099568486213684,3.526855945587158,43.20725562899184,42.972281843221374,172.4257096588359,156.8833715337563,-6.47544875391759e-05,0.0956302732229232,0,0,0
14492,502571.73727670446,2010-11-22 07:22:00,2371.206615703815,7,44,-1.099568486213684,3.523456335067749,43.20725562899184,42.98144934731647,172.4257096588359,156.91568923970613,-9.713172767078504e-05,0.0956302732229232,0,0,0
14493,502601.75256076624,2010-11-22 07:22:30,2401.2218997655687,7,44,-1.099568486213684,3.51989483833313,43.20725562899184,42.99061684416317,172.4257096588359,156.94797531488874,-9.713172767078504e-05,0.0956302732229232,0,0,0
14494,502631.7678529984,2010-11-22 07:23:00,2431.2371919977177,7,44,-1.0997490882873535,3.5163333415985107,43.20725562899184,42.99978429572048,172.4257096588359,156.9802290024018,-0.0001295089750783,0.0956302732229232,0,0,0
14495,502661.7830822533,2010-11-22 07:23:30,2461.252421267702,7,44,-1.099568486213684,3.512771844863892,43.20725562899184,43.0089517656485,172.4257096588359,157.01244952134644,-9.713172767078504e-05,0.0956302732229232,0,0,0
14496,502691.7983680544,2010-11-22 07:24:00,2491.267707148999,7,44,-1.0993878841400146,3.5090487003326416,43.20725562899184,43.01811923440323,172.4257096588359,157.04463566261325,-3.237724376958795e-05,0.0956302732229232,0,0,0
14497,502721.8155182694,2010-11-22 07:24:30,2521.2848572687208,7,44,-1.099568486213684,3.5048396587371826,43.20725562899184,43.02728737194656,172.4257096588359,157.07678810125495,-0.0001618862152099,0.0956302732229232,0,0,0
14498,502751.8290421525,2010-11-22 07:25:00,2551.2983811467857,7,44,-1.0997490882873535,3.5007925033569336,43.20725562899184,43.03645437820411,172.4257096588359,157.1088989521696,-0.0001295089750783,0.0956302732229232,0,0,0
14499,502781.8443000589,2010-11-22 07:25:30,2581.3136390582645,7,44,-1.099568486213684,3.4964215755462646,43.20725562899184,43.045621877252266,172.4257096588359,157.1409721478173,-0.0001295089750783,0.0956302732229232,0,0,0
14500,502811.8594385974,2010-11-22 07:26:00,2611.32877759677,7,44,-1.099568486213684,3.491726875305176,43.20725562899184,43.05478941143456,172.4257096588359,157.17300406544186,-9.713172767078504e-05,0.0956302732229232,0,0,0
14501,502841.8749144078,2010-11-22 07:26:30,2641.3442534071582,7,44,-1.099568486213684,3.486546516418457,43.20725562899184,43.06395700117653,172.4257096588359,157.20499213299232,-0.0001618862152099,0.0956302732229232,0,0,0
14502,502871.88997930754,2010-11-22 07:27:00,2671.359318321888,7,44,-1.099568486213684,3.4813661575317383,43.20725562899184,43.0731244244782,172.4257096588359,157.23693183440577,-0.0001618862152099,0.0956302732229232,0,0,0
14503,502901.9052492539,2010-11-22 07:27:30,2701.374588253371,7,44,-1.0993878841400146,3.4753763675689697,43.20725562899184,43.08229176193824,172.4257096588359,157.26881894225966,-0.0001295089750783,0.0956302732229232,0,0,0
14504,502931.9205202231,2010-11-22 07:28:00,2731.389859237481,7,44,-1.0993878841400146,3.4689009189605717,43.20725562899184,43.091459165528526,172.4257096588359,157.3006493472943,-0.0001618862152099,0.0956302732229232,0,0,0
14505,502961.9358229213,2010-11-22 07:28:30,2761.405161920717,7,44,-1.0993878841400146,3.461616039276123,43.20725562899184,43.10062663003328,172.4257096588359,157.3324167054881,-0.0001942634553415,0.0956302732229232,0,0,0
14506,502991.95124248136,2010-11-22 07:29:00,2791.420581480696,7,44,-1.099568486213684,3.453197956085205,43.20725562899184,43.10979419118929,172.4257096588359,157.36411309811578,-0.0002266406954731,0.0956302732229232,0,0,0
14507,503021.96633836336,2010-11-22 07:29:30,2821.4356773627246,7,44,-1.0993878841400146,3.4436466693878174,43.20725562899184,43.11896160431466,172.4257096588359,157.3957274351874,-0.0002266406954731,0.0956302732229232,0,0,0
14508,503051.9816433473,2010-11-22 07:30:00,2851.4509823517164,7,44,-1.0993878841400146,3.43231463432312,43.20725562899184,43.12812906650758,172.4257096588359,157.42724644906804,-0.0002913951757363,0.0956302732229232,0,0,0
14509,503081.9968868078,2010-11-22 07:30:30,2881.4662258221483,7,44,-1.0993878841400146,3.4183926582336426,43.20725562899184,43.13729652358371,172.4257096588359,157.45865033955354,-0.0003885269106831,0.0956302732229232,0,0,0
14510,503112.0121592254,2010-11-22 07:31:00,2911.481498239837,7,44,-1.099568486213684,3.4013946056365967,43.20725562899184,43.14646400789328,172.4257096588359,157.48991342712043,-0.0004856586456298,0.0956302732229232,0,0,0
14511,503142.0274577784,2010-11-22 07:31:30,2941.496796777726,7,44,-1.099568486213684,3.380187511444092,43.20725562899184,43.15563142985951,172.4257096588359,157.5210021434668,-0.0006151676061563,0.0956302732229232,0,0,0
14512,503172.0426930433,2010-11-22 07:32:00,2971.512032057713,7,44,-1.099568486213684,3.3523430824279785,43.20725562899184,43.16479886621959,172.4257096588359,157.55186722078352,-0.0008094310760498,0.0956302732229232,0,0,0
14513,503202.05981517816,2010-11-22 07:32:30,3001.5291542828054,7,44,-1.099568486213684,3.3157570362091064,43.20725562899184,43.17396682476872,172.4257096588359,157.5824419556379,-0.0011008263099938,0.0956302732229232,0,0,0
14514,503232.073410289,2010-11-22 07:33:00,3031.5427493836546,7,44,-1.099568486213684,3.2665438652038574,43.20725562899184,43.1831337013197,172.4257096588359,157.61262350544442,-0.0014893055194988,0.0956302732229232,0,0,0
14515,503262.0885504115,2010-11-22 07:33:30,3061.557889410876,7,44,-1.0993878841400146,3.198227882385254,43.20725562899184,43.192301083433215,172.4257096588359,157.6422736286582,-0.0020721436012536,0.0956302732229232,0,0,0
14516,503292.1037717868,2010-11-22 07:34:00,3091.573110806205,7,44,-1.099568486213684,3.098668336868286,43.20725562899184,43.20146844076822,172.4257096588359,157.6711689461661,-0.0031729221809655,0.0956302732229232,0,0,0
14517,503322.1208262929,2010-11-22 07:34:30,3121.590165282186,7,44,-1.0993878841400146,2.935001850128174,43.20725562899184,43.21063642199884,172.4257096588359,157.69890676801847,-0.005730724427849,0.0956302732229232,0,0,0
14518,503343.1657414738,2010-11-22 07:34:51,3142.635080548369,7,44,-1.0997490882873535,2.7345871925354004,43.20725562899184,43.21706406843444,172.4257096588359,157.71717380010938,-0.0089037418365478,0.0956302732229232,0,0,0
14519,503346.2128722661,2010-11-22 07:34:54,3145.6822112704403,7,44,-1.099568486213684,2.699943780899048,43.20725562899184,43.21799474700757,172.4257096588359,157.71970304341804,-0.009097957983613,0.0956302732229232,0,0,0
14520,503406.2299493728,2010-11-22 07:35:54,60.015039286141175,8,44,0.0,3.372578859329224,43.20725562899184,43.21799474700757,172.4257096588359,157.71970304341804,0.0012303352123126,0.0956302732229232,0,0,0
14521,503406.4202882082,2010-11-22 07:35:55,0.187419808676273,9,44,-1.9243103452026844e-05,3.3727407455444336,43.20725562899184,43.21799474800939,172.4257096588359,157.71970304679692,0.0,0.0962666198611259,0,0,0
14522,503411.2502747878,2010-11-22 07:36:00,5.017406403291293,9,44,0.0007031940040178,3.3803493976593018,43.20725663853481,43.21799474809436,172.42571306820008,157.7197030470835,0.0011008263099938,0.0962666198611259,0,0,0
