Data_Point,Test_Time(s),Date_Time,Step_Time(s),Step_Index,Cycle_Index,Current(A),Voltage(V),Charge_Capacity(Ah),Discharge_Capacity(Ah),Charge_Energy(Wh),Discharge_Energy(Wh),dV/dt(V/s),Internal_Resistance(Ohm),Is_FC_Data,AC_Impedance(Ohm),ACI_Phase_Angle(Deg)
9572,331941.40057613014,2010-11-20 07:57:52,30.015321299705803,1,30,0.0,3.3290317058563232,28.48722317955088,28.52165097299319,113.71062996422316,104.02157276141996,0.0006799221155233,0.0956302732229232,0,0,0
9573,331971.41596445715,2010-11-20 07:58:22,60.03070963674711,1,30,0.0,3.350724458694458,28.48722317955088,28.52165097299319,113.71062996422316,104.02157276141996,0.0005180359003134,0.0956302732229232,0,0,0
9574,332001.4312575214,2010-11-20 07:58:52,90.04600269094779,1,30,0.0,3.366912841796875,28.48722317955088,28.52165097299319,113.71062996422316,104.02157276141996,0.0003885269106831,0.0956302732229232,0,0,0
9575,332031.39971419977,2010-11-20 07:59:22,120.01445935431134,1,30,0.0,3.379863739013672,28.48722317955088,28.52165097299319,113.71062996422316,104.02157276141996,0.0002913951757363,0.0956302732229232,0,0,0
9576,332061.4194469761,2010-11-20 07:59:52,30.01547281791857,2,30,0.550297200679779,3.547577381134033,28.49181006669495,28.52165097299319,113.7267191315964,104.02157276141996,0.0018131255637854,0.0956302732229232,0,0,0
9577,332091.43657335656,2010-11-20 08:00:22,60.03259920339617,2,30,0.550297200679779,3.601970911026001,28.496397263120087,28.52165097299319,113.74312390132842,104.02157276141996,0.0012950897216796,0.0956302732229232,0,0,0
9578,332121.45004839275,2010-11-20 08:00:52,90.04607423453159,2,30,0.5499359965324402,3.641956806182861,28.50098383119141,28.52165097299319,113.75974018089124,104.02157276141996,0.0009065627818927,0.0956302732229232,0,0,0
9579,332151.46546862443,2010-11-20 08:01:22,120.06149446117423,2,30,0.5501165986061096,3.6740100383758554,28.505570711980603,28.52165097299319,113.7765219455816,104.02157276141996,0.0007446288946084,0.0956302732229232,0,0,0
9580,332181.480668481,2010-11-20 08:01:52,150.07669432275182,2,30,0.5501165986061096,3.700397491455078,28.51015753424896,28.52165097299319,113.793436445635,104.02157276141996,0.0006475448608398,0.0956302732229232,0,0,0
9581,332211.496018357,2010-11-20 08:02:22,180.092044203801,2,30,0.5499359965324402,3.722414016723633,28.51474441936007,28.52165097299319,113.81046189931736,104.02157276141996,0.0005180359003134,0.0956302732229232,0,0,0
9582,332241.5113437269,2010-11-20 08:02:53,210.1073695686541,2,30,0.550297200679779,3.7410309314727774,28.51933128484209,28.52165097299319,113.827580126588,104.02157276141996,0.0004532813909463,0.0956302732229232,0,0,0
9583,332271.52670958784,2010-11-20 08:03:23,240.12273543460407,2,30,0.550297200679779,3.7554385662078857,28.52391811941822,28.52165097299319,113.8447743847266,104.02157276141996,0.0003237724304199,0.0956302732229232,0,0,0
9584,332301.54203615064,2010-11-20 08:03:53,270.1380619874225,2,30,0.5501165986061096,3.7649898529052734,28.528504957852437,28.52165097299319,113.86202397394196,104.02157276141996,0.0001942634553415,0.0956302732229232,0,0,0
9585,332331.5574369488,2010-11-20 08:04:23,300.1534627905811,2,30,0.550297200679779,3.771141529083252,28.533091858293258,28.52165097299319,113.87930849927176,104.02157276141996,0.0001618862152099,0.0956302732229232,0,0,0
9586,332361.5728269049,2010-11-20 08:04:53,330.1688527366388,2,30,0.550297200679779,3.775350570678711,28.537678782995865,28.52165097299319,113.89661618354714,104.02157276141996,0.0001295089750783,0.0956302732229232,0,0,0
9587,332391.5880302451,2010-11-20 08:05:23,360.1840560919372,2,30,0.5499359965324402,3.77923583984375,28.542265667083168,28.52165097299319,113.91394245510376,104.02157276141996,0.0001295089750783,0.0956302732229232,0,0,0
9588,332421.6033756751,2010-11-20 08:05:53,390.1994015168633,2,30,0.550297200679779,3.782959222793579,28.54685255792927,28.52165097299319,113.93128608809938,104.02157276141996,0.0001295089750783,0.0956302732229232,0,0,0
9589,332451.6187220273,2010-11-20 08:06:23,420.214747869104,2,30,0.5501165986061096,3.7865207195281982,28.55143942789137,28.52165097299319,113.9486461702366,104.02157276141996,9.713172767078504e-05,0.0956302732229232,0,0,0
9590,332481.6340551716,2010-11-20 08:06:53,450.2300810133757,2,30,0.5501165986061096,3.789596557617188,28.55602625878964,28.52165097299319,113.96602195082724,104.02157276141996,3.237724376958795e-05,0.0956302732229232,0,0,0
9591,332511.6493873585,2010-11-20 08:07:23,480.2454132002576,2,30,0.550297200679779,3.7933199405670166,28.56061314621024,28.52165097299319,113.98341321825042,104.02157276141996,0.0001295089750783,0.0956302732229232,0,0,0
9592,332541.6647684775,2010-11-20 08:07:53,510.2607943192816,2,30,0.5501165986061096,3.796395778656006,28.565199978248707,28.52165097299319,114.00081909394262,104.02157276141996,9.713172767078504e-05,0.0956302732229232,0,0,0
9593,332571.68028341053,2010-11-20 08:08:23,540.276309252326,2,30,0.5501165986061096,3.799471616744995,28.569786895932985,28.52165097299319,114.01823975059972,104.02157276141996,9.713172767078504e-05,0.0956302732229232,0,0,0
9594,332601.69554058515,2010-11-20 08:08:53,570.2915664269658,2,30,0.5501165986061096,3.802547454833984,28.574373777384217,28.52165097299319,114.03567446252713,104.02157276141996,9.713172767078504e-05,0.0956302732229232,0,0,0
9595,332631.7107435495,2010-11-20 08:09:23,600.3067693912883,2,30,0.5499359965324402,3.805461406707764,28.578960582851256,28.52165097299319,114.05312275798649,104.02157276141996,9.713172767078504e-05,0.0956302732229232,0,0,0
9596,332661.7262192947,2010-11-20 08:09:53,630.3222451365139,2,30,0.550297200679779,3.808699131011963,28.58354746660196,28.52165097299319,114.07058507872914,104.02157276141996,0.0001295089750783,0.0956302732229232,0,0,0
9597,332691.7433316001,2010-11-20 08:10:23,660.339357537083,2,30,0.550297200679779,3.811774969100952,28.58813469558251,28.52165097299319,114.08806247171528,104.02157276141996,0.0001618862152099,0.0956302732229232,0,0,0
9598,332721.7567637291,2010-11-20 08:10:53,690.3527895809154,2,30,0.550297200679779,3.8145270347595215,28.592721199356458,28.52165097299319,114.10555102291394,104.02157276141996,6.47544875391759e-05,0.0956302732229232,0,0,0
9599,332751.77213854244,2010-11-20 08:11:23,720.3681643941994,2,30,0.5501165986061096,3.8177647590637207,28.5973080028526,28.52165097299319,114.1230548453229,104.02157276141996,0.0001295089750783,0.0956302732229232,0,0,0
9600,332781.7875497315,2010-11-20 08:11:53,750.3835755732579,2,30,0.5499359965324402,3.8206787109375,28.60189476989323,28.52165097299319,114.14057286214933,104.02157276141996,3.237724376958795e-05,0.0956302732229232,0,0,0
9601,332811.8028221542,2010-11-20 08:12:23,780.3988479959592,2,30,0.5501165986061096,3.823916435241699,28.60648156220395,28.52165097299319,114.15810569840728,104.02157276141996,3.237724376958795e-05,0.0956302732229232,0,0,0
9602,332841.81814543885,2010-11-20 08:12:53,810.4141712806197,2,30,0.5499359965324402,3.8274779319763184,28.611068336614327,28.52165097299319,114.17565359291854,104.02157276141996,6.47544875391759e-05,0.0956302732229232,0,0,0
9603,332871.8334847786,2010-11-20 08:13:23,840.4295106203562,2,30,0.5501165986061096,3.830877542495728,28.615655174582624,28.52165097299319,114.19321719534123,104.02157276141996,9.713172767078504e-05,0.0956302732229232,0,0,0
9604,332901.8489856465,2010-11-20 08:13:53,870.4450114933043,2,30,0.5501165986061096,3.834115028381348,28.620242069207617,28.52165097299319,114.2107966646429,104.02157276141996,6.47544875391759e-05,0.0956302732229232,0,0,0
9605,332931.8641891021,2010-11-20 08:14:23,900.4602149438406,2,30,0.5501165986061096,3.837676525115967,28.62482892617808,28.52165097299319,114.22839184574742,104.02157276141996,6.47544875391759e-05,0.0956302732229232,0,0,0
9606,332961.87956976995,2010-11-20 08:14:53,930.4755956117384,2,30,0.5501165986061096,3.841238021850586,28.62941579964064,28.52165097299319,114.2460028202471,104.02157276141996,0.0001295089750783,0.0956302732229232,0,0,0
9607,332991.894873561,2010-11-20 08:15:23,960.490899412765,2,30,0.5501165986061096,3.844637632369995,28.634002658903768,28.52165097299319,114.263629370887,104.02157276141996,0.0001295089750783,0.0956302732229232,0,0,0
9608,333021.9101968456,2010-11-20 08:15:53,990.5062226874004,2,30,0.550297200679779,3.848037242889404,28.63858957427148,28.52165097299319,114.28127166366116,104.02157276141996,0.0001295089750783,0.0956302732229232,0,0,0
9609,333051.925553273,2010-11-20 08:16:23,1020.5215791248154,2,30,0.5501165986061096,3.851274967193604,28.643176474799105,28.52165097299319,114.29892913063908,104.02157276141996,9.713172767078504e-05,0.0956302732229232,0,0,0
9610,333081.940880322,2010-11-20 08:16:53,1050.5369061638476,2,30,0.5499359965324402,3.8543508052825928,28.647763383854585,28.52165097299319,114.31660156659056,104.02157276141996,6.47544875391759e-05,0.0956302732229232,0,0,0
9611,333111.95636940055,2010-11-20 08:17:23,1080.5523952523802,2,30,0.5501165986061096,3.857588529586792,28.65235024188553,28.52165097299319,114.33428850093637,104.02157276141996,6.47544875391759e-05,0.0956302732229232,0,0,0
9612,333141.97156180354,2010-11-20 08:17:53,1110.5675876453147,2,30,0.5501165986061096,3.8605024814605713,28.65693715014764,28.52165097299319,114.35198991662358,104.02157276141996,3.237724376958795e-05,0.0956302732229232,0,0,0
9613,333171.98698674195,2010-11-20 08:18:23,1140.5830125837183,2,30,0.5501165986061096,3.8637402057647705,28.661524044137472,28.52165097299319,114.36970511865702,104.02157276141996,9.713172767078504e-05,0.0956302732229232,0,0,0
9614,333202.0022952748,2010-11-20 08:18:53,1170.5983212117942,2,30,0.550297200679779,3.86649227142334,28.666110815905316,28.52165097299319,114.3874330314442,104.02157276141996,9.713172767078504e-05,0.0956302732229232,0,0,0
9615,333232.01755648444,2010-11-20 08:19:23,1200.6135823262682,2,30,0.550297200679779,3.869082450866699,28.670697652676257,28.52165097299319,114.40517399218224,104.02157276141996,6.47544875391759e-05,0.0956302732229232,0,0,0
9616,333262.0331519686,2010-11-20 08:19:53,1230.6291779256685,2,30,0.5501165986061096,3.8716726303100586,28.675284941056542,28.52165097299319,114.42292893580536,104.02157276141996,6.47544875391759e-05,0.0956302732229232,0,0,0
9617,333292.0501491014,2010-11-20 08:20:23,1260.6461749382113,2,30,0.5501165986061096,3.873939037322998,28.679872714287647,28.52165097299319,114.44069736355353,104.02157276141996,0.0,0.0956302732229232,0,0,0
9618,333322.06384023203,2010-11-20 08:20:53,1290.6598660737766,2,30,0.550297200679779,3.876529216766357,28.68445999524789,28.52165097299319,114.4584747270382,104.02157276141996,6.47544875391759e-05,0.0956302732229232,0,0,0
9619,333352.07894437964,2010-11-20 08:21:23,1320.6749702214372,2,30,0.550297200679779,3.878633737564087,28.689047450057704,28.52165097299319,114.47626302852612,104.02157276141996,6.47544875391759e-05,0.0956302732229232,0,0,0
9620,333382.09452676604,2010-11-20 08:21:53,1350.6905526078558,2,30,0.5501165986061096,3.880738258361816,28.69363462225905,28.52165097299319,114.494059762744,104.02157276141996,6.47544875391759e-05,0.0956302732229232,0,0,0
9621,333412.10961803154,2010-11-20 08:22:23,1380.7056438783734,2,30,0.5504778623580933,3.882680892944336,28.69822140412305,28.52165097299319,114.51186390472436,104.02157276141996,6.47544875391759e-05,0.0956302732229232,0,0,0
9622,333442.12493708567,2010-11-20 08:22:53,1410.7209629575364,2,30,0.550297200679779,3.8844616413116455,28.70280828237388,28.52165097299319,114.52967681263615,104.02157276141996,6.47544875391759e-05,0.0956302732229232,0,0,0
9623,333472.1404022094,2010-11-20 08:23:23,1440.7364280561862,2,30,0.5501165986061096,3.886080503463745,28.70739512169983,28.52165097299319,114.54749729674404,104.02157276141996,3.237724376958795e-05,0.0956302732229232,0,0,0
9624,333502.1557522859,2010-11-20 08:23:53,1470.751778137736,2,30,0.550297200679779,3.8875374794006343,28.71198197638889,28.52165097299319,114.5653253019066,104.02157276141996,0.0,0.0956302732229232,0,0,0
9625,333532.174010246,2010-11-20 08:24:23,1500.770036097798,2,30,0.550297200679779,3.888994455337525,28.71656926220307,28.52165097299319,114.58316206222044,104.02157276141996,3.237724376958795e-05,0.0956302732229232,0,0,0
9626,333562.1863651712,2010-11-20 08:24:53,1530.7823911282392,2,30,0.550297200679779,3.890613317489624,28.7211556676647,28.52165097299319,114.60100215159676,104.02157276141996,6.47544875391759e-05,0.0956302732229232,0,0,0
9627,333592.20170522766,2010-11-20 08:25:23,1560.7977310744898,2,30,0.5501165986061096,3.891908407211304,28.725742532380128,28.52165097299319,114.61885060858022,104.02157276141996,-3.237724376958795e-05,0.0956302732229232,0,0,0
9628,333622.21698334464,2010-11-20 08:25:53,1590.8130091863925,2,30,0.5499359965324402,3.893203496932984,28.730329398607925,28.52165097299319,114.63670540926864,104.02157276141996,3.237724376958795e-05,0.0956302732229232,0,0,0
9629,333652.232335366,2010-11-20 08:26:23,1620.8283612178093,2,30,0.5499359965324402,3.894498586654663,28.73491627220472,28.52165097299319,114.6545665541602,104.02157276141996,0.0,0.0956302732229232,0,0,0
9630,333682.2476549264,2010-11-20 08:26:53,1650.8436807681485,2,30,0.5499359965324402,3.895793676376343,28.739503177987206,28.52165097299319,114.6724334870792,104.02157276141996,0.0,0.0956302732229232,0,0,0
9631,333712.2629926671,2010-11-20 08:27:23,1680.8590185088935,2,30,0.5501165986061096,3.8970887660980233,28.744089997597325,28.52165097299319,114.6903063420448,104.02157276141996,3.237724376958795e-05,0.0956302732229232,0,0,0
9632,333742.2783385582,2010-11-20 08:27:53,1710.8743643999833,2,30,0.550297200679779,3.898707628250122,28.748676808517835,28.52165097299319,114.70818522558076,104.02157276141996,6.47544875391759e-05,0.0956302732229232,0,0,0
9633,333772.2936852061,2010-11-20 08:28:23,1740.889711047962,2,30,0.5501165986061096,3.899840831756592,28.75326362802205,28.52165097299319,114.72607031958763,104.02157276141996,3.237724376958795e-05,0.0956302732229232,0,0,0
9634,333802.3090603302,2010-11-20 08:28:53,1770.9050862020968,2,30,0.5501165986061096,3.9012978076934814,28.75785045548137,28.52165097299319,114.7439614596398,104.02157276141996,6.47544875391759e-05,0.0956302732229232,0,0,0
9635,333832.32447808067,2010-11-20 08:29:23,1800.9205039325084,2,30,0.550297200679779,3.902592897415161,28.76243722429959,28.52165097299319,114.76185851922448,104.02157276141996,3.237724376958795e-05,0.0956302732229232,0,0,0
9636,333862.3396939723,2010-11-20 08:29:53,1830.9357198140744,2,30,0.5501165986061096,3.903887987136841,28.767024029270008,28.52165097299319,114.779761884966,104.02157276141996,3.237724376958795e-05,0.0956302732229232,0,0,0
9637,333892.35693660297,2010-11-20 08:30:23,1860.952962539956,2,30,0.5501165986061096,3.9053449630737305,28.771611187618632,28.52165097299319,114.79767282796622,104.02157276141996,3.237724376958795e-05,0.0956302732229232,0,0,0
9638,333922.3703864462,2010-11-20 08:30:53,1890.9664122879803,2,30,0.5499359965324402,3.9064781665802,28.77619773615891,28.52165097299319,114.81558744690106,104.02157276141996,0.0,0.0956302732229232,0,0,0
9639,333952.3857132697,2010-11-20 08:31:23,1920.981739136537,2,30,0.550297200679779,3.9080970287323,28.78078451059374,28.52165097299319,114.83350918225048,104.02157276141996,6.47544875391759e-05,0.0956302732229232,0,0,0
9640,333982.4011833408,2010-11-20 08:31:53,1950.9972091825364,2,30,0.550297200679779,3.90939211845398,28.78537131860697,28.52165097299319,114.851437283189,104.02157276141996,6.47544875391759e-05,0.0956302732229232,0,0,0
9641,334012.4164791267,2010-11-20 08:32:23,1981.012504978581,2,30,0.550297200679779,3.910849094390869,28.78995809409057,28.52165097299319,114.86937155205874,104.02157276141996,9.713172767078504e-05,0.0956302732229232,0,0,0
9642,334042.4317342914,2010-11-20 08:32:53,2011.0277601331784,2,30,0.5501165986061096,3.911982297897339,28.79454492155616,28.52165097299319,114.8873122946164,104.02157276141996,6.47544875391759e-05,0.0956302732229232,0,0,0
9643,334072.4472156356,2010-11-20 08:33:23,2041.043241487405,2,30,0.550297200679779,3.9136011600494394,28.79913176530381,28.52165097299319,114.90525944118012,104.02157276141996,6.47544875391759e-05,0.0956302732229232,0,0,0
9644,334102.4624122942,2010-11-20 08:33:53,2071.0584381359627,2,30,0.550297200679779,3.915057897567749,28.80371860095852,28.52165097299319,114.92321293960696,104.02157276141996,6.47544875391759e-05,0.0956302732229232,0,0,0
9645,334132.47777315264,2010-11-20 08:34:23,2101.073798999425,2,30,0.5501165986061096,3.9161911010742183,28.808305517500045,28.52165097299319,114.94117303741112,104.02157276141996,3.237724376958795e-05,0.0956302732229232,0,0,0
9646,334162.493105931,2010-11-20 08:34:54,2131.0891317727715,2,30,0.5501165986061096,3.917648077011109,28.812892306769857,28.52165097299319,114.95913916174612,104.02157276141996,3.237724376958795e-05,0.0956302732229232,0,0,0
9647,334192.50842782215,2010-11-20 08:35:24,2161.1044536739782,2,30,0.5501165986061096,3.919105052947998,28.817479120633667,28.52165097299319,114.97711186913916,104.02157276141996,3.237724376958795e-05,0.0956302732229232,0,0,0
9648,334222.52381109155,2010-11-20 08:35:54,2191.119836933345,2,30,0.550297200679779,3.920562028884888,28.822065955517267,28.52165097299319,114.99509127233956,104.02157276141996,6.47544875391759e-05,0.0956302732229232,0,0,0
9649,334252.53912421083,2010-11-20 08:36:24,2221.135150052631,2,30,0.5501165986061096,3.922019004821777,28.82665274765708,28.52165097299319,115.01307709636818,104.02157276141996,6.47544875391759e-05,0.0956302732229232,0,0,0
9650,334282.55446041777,2010-11-20 08:36:54,2251.150486259548,2,30,0.5501165986061096,3.923314094543457,28.83123951741453,28.52165097299319,115.03106951505404,104.02157276141996,3.237724376958795e-05,0.0956302732229232,0,0,0
9651,334312.5698149504,2010-11-20 08:37:24,2281.1658407922087,2,30,0.5501165986061096,3.9249329566955566,28.835826276912588,28.52165097299319,115.04906860165067,104.02157276141996,3.237724376958795e-05,0.0956302732229232,0,0,0
9652,334342.58515528264,2010-11-20 08:37:54,2311.1811811294347,2,30,0.5501165986061096,3.9263899326324463,28.84041310069796,28.52165097299319,115.06707463101654,104.02157276141996,6.47544875391759e-05,0.0956302732229232,0,0,0
9653,334372.6005284568,2010-11-20 08:38:24,2341.1965542986145,2,30,0.550297200679779,3.928008794784546,28.84499990142153,28.52165097299319,115.08508733685872,104.02157276141996,6.47544875391759e-05,0.0956302732229232,0,0,0
9654,334402.61581101484,2010-11-20 08:38:54,2371.21183686664,2,30,0.550297200679779,3.9293038845062256,28.849586751133483,28.52165097299319,115.103107097998,104.02157276141996,6.47544875391759e-05,0.0956302732229232,0,0,0
9655,334432.6312193518,2010-11-20 08:39:24,2401.2272451985923,2,30,0.5501165986061096,3.9307608604431152,28.854173559964817,28.52165097299319,115.12113363692782,104.02157276141996,0.0,0.0956302732229232,0,0,0
9656,334462.6464935289,2010-11-20 08:39:54,2431.24251937066,2,30,0.5499359965324402,3.932217836380005,28.85876037003403,28.52165097299319,115.13916706767826,104.02157276141996,3.237724376958795e-05,0.0956302732229232,0,0,0
9657,334492.6637450768,2010-11-20 08:40:24,2461.2597709285874,2,30,0.5501165986061096,3.9336748123168954,28.86334746627076,28.52165097299319,115.15720859633426,104.02157276141996,3.237724376958795e-05,0.0956302732229232,0,0,0
9658,334522.67719897017,2010-11-20 08:40:54,2491.2732248119346,2,30,0.5504778623580933,3.935617446899414,28.867934030394544,28.52165097299319,115.1752550595422,104.02157276141996,9.713172767078504e-05,0.0956302732229232,0,0,0
9659,334552.69251210947,2010-11-20 08:41:24,2521.2885379512704,2,30,0.5501165986061096,3.937074422836304,28.87252093016317,28.52165097299319,115.19330977036658,104.02157276141996,9.713172767078504e-05,0.0956302732229232,0,0,0
9660,334582.7078644316,2010-11-20 08:41:54,2551.3038902734133,2,30,0.550297200679779,3.9386932849884033,28.87710776568214,28.52165097299319,115.21137140738642,104.02157276141996,9.713172767078504e-05,0.0956302732229232,0,0,0
9661,334612.7232047839,2010-11-20 08:42:24,2581.3192306256774,2,30,0.5501165986061096,3.940150260925293,28.88169452480572,28.52165097299319,115.22943984397313,104.02157276141996,3.237724376958795e-05,0.0956302732229232,0,0,0
9662,334642.738589166,2010-11-20 08:42:54,2611.3346150078464,2,30,0.5501165986061096,3.941607236862183,28.88628136459336,28.52165097299319,115.2475158154034,104.02157276141996,3.237724376958795e-05,0.0956302732229232,0,0,0
9663,334672.7538731727,2010-11-20 08:43:24,2641.349899014463,2,30,0.5501165986061096,3.943226099014282,28.89086816082089,28.52165097299319,115.26559879702718,104.02157276141996,6.47544875391759e-05,0.0956302732229232,0,0,0
9664,334702.769185901,2010-11-20 08:43:54,2671.365211757811,2,30,0.550297200679779,3.945006847381592,28.89545493808249,28.52165097299319,115.28368897510158,104.02157276141996,9.713172767078504e-05,0.0956302732229232,0,0,0
9665,334732.7845384587,2010-11-20 08:44:24,2701.380564310529,2,30,0.5501165986061096,3.946301937103272,28.900041799786436,28.52165097299319,115.3017868441474,104.02157276141996,3.237724376958795e-05,0.0956302732229232,0,0,0
9666,334762.7998698837,2010-11-20 08:44:54,2731.395895725484,2,30,0.5501165986061096,3.947920799255371,28.904628571913985,28.52165097299319,115.31989159240908,104.02157276141996,3.237724376958795e-05,0.0956302732229232,0,0,0
9667,334792.81521484745,2010-11-20 08:45:24,2761.411240689259,2,30,0.550297200679779,3.9497015476226807,28.90921535629223,28.52165097299319,115.33800382847348,104.02157276141996,6.47544875391759e-05,0.0956302732229232,0,0,0
9668,334822.83055243787,2010-11-20 08:45:54,2791.4265782796288,2,30,0.5501165986061096,3.95132040977478,28.91380218631106,28.52165097299319,115.3561237512148,104.02157276141996,9.713172767078504e-05,0.0956302732229232,0,0,0
9669,334852.8459269604,2010-11-20 08:46:24,2821.4419528021867,2,30,0.5501165986061096,3.95293927192688,28.91838897655844,28.52165097299319,115.37425097974092,104.02157276141996,6.47544875391759e-05,0.0956302732229232,0,0,0
9670,334882.86123725265,2010-11-20 08:46:54,2851.457263094416,2,30,0.550297200679779,3.95455813407898,28.922975749825817,28.52165097299319,115.39238570559148,104.02157276141996,3.237724376958795e-05,0.0956302732229232,0,0,0
9671,334912.8765755798,2010-11-20 08:47:24,2881.472601416613,2,30,0.5501165986061096,3.956176996231079,28.927562576107103,28.52165097299319,115.41052832983324,104.02157276141996,3.237724376958795e-05,0.0956302732229232,0,0,0
9672,334942.8919295862,2010-11-20 08:47:54,2911.4879554279723,2,30,0.5499359965324402,3.9579577445983887,28.93214944352832,28.52165097299319,115.42867874192098,104.02157276141996,3.237724376958795e-05,0.0956302732229232,0,0,0
9673,334972.9072764998,2010-11-20 08:48:24,2941.503302351639,2,30,0.5501165986061096,3.959576606750488,28.93673622195308,28.52165097299319,115.4468366038334,104.02157276141996,6.47544875391759e-05,0.0956302732229232,0,0,0
9674,335002.9225903008,2010-11-20 08:48:54,2971.518616152627,2,30,0.5501165986061096,3.961195468902588,28.9413229757315,28.52165097299319,115.46500219056416,104.02157276141996,0.0,0.0956302732229232,0,0,0
9675,335032.93817996536,2010-11-20 08:49:24,3001.5342058172128,2,30,0.5501165986061096,3.9631381034851074,28.94590983763952,28.52165097299319,115.48317620219856,104.02157276141996,6.47544875391759e-05,0.0956302732229232,0,0,0
9676,335062.95332007785,2010-11-20 08:49:54,3031.549345929647,2,30,0.5501165986061096,3.964756965637207,28.95049656318164,28.52165097299319,115.5013577013656,104.02157276141996,3.237724376958795e-05,0.0956302732229232,0,0,0
9677,335092.97068043234,2010-11-20 08:50:24,3061.5667062891603,2,30,0.5504778623580933,3.966699600219727,28.95508371064447,28.52165097299319,115.51954894350588,104.02157276141996,6.47544875391759e-05,0.0956302732229232,0,0,0
9678,335122.9840297547,2010-11-20 08:50:54,3091.5800555964693,2,30,0.5501165986061096,3.968318462371826,28.95967028276339,28.52165097299319,115.53774600078336,104.02157276141996,3.237724376958795e-05,0.0956302732229232,0,0,0
9679,335152.9993039318,2010-11-20 08:51:24,3121.59532977355,2,30,0.5501165986061096,3.970099210739136,28.96425708343333,28.52165097299319,115.5559521735065,104.02157276141996,3.237724376958795e-05,0.0956302732229232,0,0,0
9680,335183.0147755768,2010-11-20 08:51:54,3151.610801418541,2,30,0.5501165986061096,3.971879959106445,28.968843961418987,28.52165097299319,115.57416699175572,104.02157276141996,0.0,0.0956302732229232,0,0,0
9681,335213.0300269369,2010-11-20 08:52:24,3181.6260527786667,2,30,0.5499359965324402,3.973660707473755,28.97343083621861,28.52165097299319,115.592390236073,104.02157276141996,3.237724376958795e-05,0.0956302732229232,0,0,0
9682,335243.045559549,2010-11-20 08:52:54,3211.641585415904,2,30,0.5501165986061096,3.975765228271485,28.978017463133963,28.52165097299319,115.6106209412262,104.02157276141996,9.713172767078504e-05,0.0956302732229232,0,0,0
9683,335273.06070784194,2010-11-20 08:53:24,3241.656733683695,2,30,0.5499359965324402,3.977545976638794,28.98260347914792,28.52165097299319,115.62885770417438,104.02157276141996,6.47544875391759e-05,0.0956302732229232,0,0,0
9684,335303.07600939734,2010-11-20 08:53:54,3271.672035239116,2,30,0.5499359965324402,3.9794886112213135,28.98718964773495,28.52165097299319,115.64710331772872,104.02157276141996,9.713172767078504e-05,0.0956302732229232,0,0,0
9685,335333.09133665194,2010-11-20 08:54:24,3301.687362488673,2,30,0.550297200679779,3.981431245803833,28.991775598020016,28.52165097299319,115.66535729578425,104.02157276141996,6.47544875391759e-05,0.0956302732229232,0,0,0
9686,335363.1067917305,2010-11-20 08:54:54,3331.7028175773376,2,30,0.5501165986061096,3.983211994171143,28.996361537619297,28.52165097299319,115.68362008893092,104.02157276141996,6.47544875391759e-05,0.0956302732229232,0,0,0
9687,335393.1220283238,2010-11-20 08:55:24,3361.7180541655903,2,30,0.5499359965324402,3.985154628753662,29.00094739889092,28.52165097299319,115.70189152831584,104.02157276141996,3.237724376958795e-05,0.0956302732229232,0,0,0
9688,335423.1374845904,2010-11-20 08:55:54,3391.733510437207,2,30,0.5501165986061096,3.987259149551392,29.00553347663677,28.52165097299319,115.72017295900284,104.02157276141996,3.237724376958795e-05,0.0956302732229232,0,0,0
9689,335453.1557400793,2010-11-20 08:56:24,3421.7517660163253,2,30,0.550297200679779,3.989525556564331,29.01012070315704,28.52165097299319,115.73846821074086,104.02157276141996,9.713172767078504e-05,0.0956302732229232,0,0,0
9690,335483.16823754023,2010-11-20 08:56:54,3451.7642633820574,2,30,0.5501165986061096,3.9913063049316406,29.014707053005505,28.52165097299319,115.7567693354152,104.02157276141996,3.237724376958795e-05,0.0956302732229232,0,0,0
9691,335513.18338050484,2010-11-20 08:57:24,3481.7794063466117,2,30,0.5501165986061096,3.99341082572937,29.019293766866905,28.52165097299319,115.77508140927162,104.02157276141996,3.237724376958795e-05,0.0956302732229232,0,0,0
9692,335543.1988456235,2010-11-20 08:57:54,3511.794871465311,2,30,0.5501165986061096,3.995515108108521,29.02388059364199,28.52165097299319,115.7934035297438,104.02157276141996,6.47544875391759e-05,0.0956302732229232,0,0,0
9693,335573.21407186094,2010-11-20 08:58:24,3541.810097702727,2,30,0.550297200679779,3.99778151512146,29.028467451685696,28.52165097299319,115.81173545631351,104.02157276141996,6.47544875391759e-05,0.0956302732229232,0,0,0
9694,335603.2294000679,2010-11-20 08:58:54,3571.825425909675,2,30,0.5501165986061096,3.99972414970398,29.033054291006344,28.52165097299319,115.83007700249262,104.02157276141996,3.237724376958795e-05,0.0956302732229232,0,0,0
9695,335633.2447463499,2010-11-20 08:59:24,3601.84077219174,2,30,0.5501165986061096,4.001828670501709,29.037641181143808,28.52165097299319,115.84842858633102,104.02157276141996,3.23295607813634e-05,0.0956302732229232,0,0,0
9696,335663.260083399,2010-11-20 08:59:54,3631.856109240759,2,30,0.5499359965324402,4.003933429718018,29.042228001770905,28.52165097299319,115.86678971296368,104.02157276141996,3.24249267578125e-05,0.0956302732229232,0,0,0
9697,335693.2772830673,2010-11-20 09:00:24,3661.873308909162,2,30,0.550297200679779,4.006361484527588,29.046815098218687,28.52165097299319,115.88516193955576,104.02157276141996,6.47544875391759e-05,0.0956302732229232,0,0,0
9698,335723.2912280065,2010-11-20 09:00:54,3691.8872538783344,2,30,0.5501165986061096,4.0084662437438965,29.05140172254185,28.52165097299319,115.90354237087976,104.02157276141996,3.24249267578125e-05,0.0956302732229232,0,0,0
9699,335753.30623868085,2010-11-20 09:01:24,3721.9022645476593,2,30,0.550297200679779,4.010894298553467,29.05598843124692,28.52165097299319,115.9219332148823,104.02157276141996,9.70840483205393e-05,0.0956302732229232,0,0,0
9700,335783.32145545457,2010-11-20 09:01:54,3751.917481321452,2,30,0.550297200679779,4.013160705566406,29.06057519056974,28.52165097299319,115.94033465640462,104.02157276141996,6.47544875391759e-05,0.0956302732229232,0,0,0
9701,335813.3368054008,2010-11-20 09:02:24,3781.9328312426014,2,30,0.5501165986061096,4.015265464782715,29.06516198519955,28.52165097299319,115.95874667864896,104.02157276141996,6.47544875391759e-05,0.0956302732229232,0,0,0
9702,335843.35226126644,2010-11-20 09:02:54,3811.9482871182295,2,30,0.550297200679779,4.017531871795654,29.069748846376957,28.52165097299319,115.97716951344624,104.02157276141996,3.24249267578125e-05,0.0956302732229232,0,0,0
9703,335873.36744263687,2010-11-20 09:03:24,3841.963468503688,2,30,0.5499359965324402,4.019798278808594,29.07433568698846,28.52165097299319,115.99560277285988,104.02157276141996,3.24249267578125e-05,0.0956302732229232,0,0,0
9704,335903.38286330964,2010-11-20 09:03:54,3871.978889156394,2,30,0.550297200679779,4.022226333618164,29.07892242533162,28.52165097299319,116.0140462486694,104.02157276141996,6.47544875391759e-05,0.0956302732229232,0,0,0
9705,335933.3982873508,2010-11-20 09:04:24,3901.9943131925465,2,30,0.5501165986061096,4.024492740631104,29.083509247263475,28.52165097299319,116.0325008564192,104.02157276141996,6.47544875391759e-05,0.0956302732229232,0,0,0
9706,335963.4134704956,2010-11-20 09:04:54,3932.009496357447,2,30,0.5501165986061096,4.026921272277832,29.08809598691955,28.52165097299319,116.05096603295058,104.02157276141996,3.24249267578125e-05,0.0956302732229232,0,0,0
9707,335993.4289468373,2010-11-20 09:05:24,3962.0249727041737,2,30,0.5499359965324402,4.029349327087402,29.09268289744907,28.52165097299319,116.0694429461988,104.02157276141996,6.47544875391759e-05,0.0956302732229232,0,0,0
9708,336023.4441592001,2010-11-20 09:05:54,3992.040185066955,2,30,0.5501165986061096,4.031777858734131,29.097269735588764,28.52165097299319,116.08793062803107,104.02157276141996,6.47544875391759e-05,0.0956302732229232,0,0,0
9709,336053.45951280545,2010-11-20 09:06:24,4022.055538657264,2,30,0.5501165986061096,4.034205913543701,29.10185656306625,28.52165097299319,116.10642941260456,104.02157276141996,6.47544875391759e-05,0.0956302732229232,0,0,0
9710,336083.474838822,2010-11-20 09:06:55,4052.070864663719,2,30,0.5501165986061096,4.036633968353272,29.106443353871168,28.52165097299319,116.1249392713367,104.02157276141996,6.47544875391759e-05,0.0956302732229232,0,0,0
9711,336113.4902269184,2010-11-20 09:07:25,4082.086252785221,2,30,0.5501165986061096,4.0390625,29.111030192632096,28.52165097299319,116.14346065674866,104.02157276141996,3.24249267578125e-05,0.0956302732229232,0,0,0
9712,336143.5056470999,2010-11-20 09:07:55,4112.101672951714,2,30,0.550297200679779,4.04181432723999,29.115617108781823,28.52165097299319,116.16199370047538,104.02157276141996,6.47544875391759e-05,0.0956302732229232,0,0,0
9713,336173.5208805904,2010-11-20 09:08:25,4142.116906457272,2,30,0.5501165986061096,4.044242858886719,29.12020391792857,28.52165097299319,116.18053790990804,104.02157276141996,6.47544875391759e-05,0.0956302732229232,0,0,0
9714,336203.5362039603,2010-11-20 09:08:55,4172.132229827145,2,30,0.550297200679779,4.046833038330078,29.1247908682211,28.52165097299319,116.19909447429042,104.02157276141996,6.47544875391759e-05,0.0956302732229232,0,0,0
9715,336233.55168031703,2010-11-20 09:09:25,4202.14770616886,2,30,0.5501165986061096,4.0494232177734375,29.12937778903443,28.52165097299319,116.21766281946194,104.02157276141996,6.47544875391759e-05,0.0956302732229232,0,0,0
9716,336263.56695335126,2010-11-20 09:09:55,4232.162979223138,2,30,0.550297200679779,4.052013397216797,29.133964684943805,28.52165097299319,116.23624298791655,104.02157276141996,6.47544875391759e-05,0.0956302732229232,0,0,0
9717,336293.5841585284,2010-11-20 09:10:25,4262.180184455429,2,30,0.550297200679779,4.054603576660156,29.138551847947912,28.52165097299319,116.25483624377152,104.02157276141996,6.47544875391759e-05,0.0956302732229232,0,0,0
9718,336323.59762949945,2010-11-20 09:10:55,4292.193655341217,2,30,0.5501165986061096,4.057193756103516,29.14313844116664,28.52165097299319,116.2734392853357,104.02157276141996,6.47544875391759e-05,0.0956302732229232,0,0,0
9719,336353.61294932547,2010-11-20 09:11:25,4322.208975177269,2,30,0.5501165986061096,4.059945583343506,29.147725349872843,28.52165097299319,116.29205589582152,104.02157276141996,6.47544875391759e-05,0.0956302732229232,0,0,0
9720,336383.62826351245,2010-11-20 09:11:55,4352.224289379259,2,30,0.5501165986061096,4.062535762786865,29.152312275387036,28.52165097299319,116.31068452947692,104.02157276141996,6.47544875391759e-05,0.0956302732229232,0,0,0
9721,336413.6436246766,2010-11-20 09:12:25,4382.239650543472,2,30,0.5501165986061096,4.065288066864014,29.15689913298247,28.52165097299319,116.32932529764568,104.02157276141996,3.24249267578125e-05,0.0956302732229232,0,0,0
9722,336443.6589321518,2010-11-20 09:12:55,4412.254957993607,2,30,0.5501165986061096,4.068039894104004,29.161485963080416,28.52165097299319,116.34797849502098,104.02157276141996,6.47544875391759e-05,0.0956302732229232,0,0,0
9723,336473.6743599674,2010-11-20 09:13:25,4442.270385844281,2,30,0.550297200679779,4.071115970611572,29.16607280096952,28.52165097299319,116.36664444379144,104.02157276141996,0.0001295089750783,0.0956302732229232,0,0,0
9724,336503.6896678937,2010-11-20 09:13:55,4472.285693760579,2,30,0.5501165986061096,4.073544025421143,29.17065967014891,28.52165097299319,116.38532321830198,104.02157276141996,3.23295607813634e-05,0.0956302732229232,0,0,0
9725,336533.7051001354,2010-11-20 09:14:25,4502.301126002213,2,30,0.550297200679779,4.076620101928711,29.175246549638757,28.52165097299319,116.40401505245224,104.02157276141996,0.0001295089750783,0.0956302732229232,0,0,0
9726,336563.72045848257,2010-11-20 09:14:55,4532.316484324332,2,30,0.5501165986061096,4.079371929168701,29.179833941868846,28.52165097299319,116.42272203278434,104.02157276141996,9.70840483205393e-05,0.0956302732229232,0,0,0
9727,336593.7356764794,2010-11-20 09:15:25,4562.331702321178,2,30,0.5497553944587708,4.08212423324585,29.18442155218221,28.52165097299319,116.44144305020716,104.02157276141996,6.47544875391759e-05,0.0956302732229232,0,0,0
9728,336623.7513216525,2010-11-20 09:15:55,4592.347347534423,2,30,0.5501165986061096,4.08519983291626,29.189008620462683,28.52165097299319,116.46017514557316,104.02157276141996,9.70840483205393e-05,0.0956302732229232,0,0,0
9729,336653.7663991386,2010-11-20 09:16:25,4622.3624250305575,2,30,0.5501165986061096,4.087952136993408,29.193595371803312,28.52165097299319,116.47891937079363,104.02157276141996,3.24249267578125e-05,0.0956302732229232,0,0,0
9730,336683.7817491099,2010-11-20 09:16:55,4652.377774956719,2,30,0.5501165986061096,4.091027736663818,29.198182182257792,28.52165097299319,116.49767742816968,104.02157276141996,9.70840483205393e-05,0.0956302732229232,0,0,0
9731,336713.79707122664,2010-11-20 09:17:25,4682.393097068451,2,30,0.5501165986061096,4.093941688537598,29.20276899325067,28.52165097299319,116.5164489385672,104.02157276141996,9.70840483205393e-05,0.0956302732229232,0,0,0
9732,336743.81261821976,2010-11-20 09:17:55,4712.408644061523,2,30,0.5501165986061096,4.097017765045166,29.207355815144915,28.52165097299319,116.5352341537838,104.02157276141996,6.47544875391759e-05,0.0956302732229232,0,0,0
9733,336773.82776781084,2010-11-20 09:18:25,4742.423793672668,2,30,0.5501165986061096,4.100093364715576,29.211942606823182,28.52165097299319,116.55403305777838,104.02157276141996,9.70840483205393e-05,0.0956302732229232,0,0,0
9734,336803.8430870204,2010-11-20 09:18:55,4772.4391128621055,2,30,0.550297200679779,4.1031694412231445,29.21652945956992,28.52165097299319,116.57284613573115,104.02157276141996,9.71794142969884e-05,0.0956302732229232,0,0,0
9735,336833.85850403894,2010-11-20 09:19:25,4802.454529996028,2,30,0.5499359965324402,4.106083393096924,29.221116286801426,28.52165097299319,116.59167324233428,104.02157276141996,6.47544875391759e-05,0.0956302732229232,0,0,0
9736,336863.873892752,2010-11-20 09:19:55,4832.469918598733,2,30,0.5501165986061096,4.109321117401123,29.22570313197725,28.52165097299319,116.61051465596614,104.02157276141996,0.0001295089750783,0.0956302732229232,0,0,0
9737,336893.89098189946,2010-11-20 09:20:25,4862.487007741246,2,30,0.5499359965324402,4.112235069274902,29.230290197837057,28.52165097299319,116.62937124788944,104.02157276141996,9.71794142969884e-05,0.0956302732229232,0,0,0
9738,336923.9044573015,2010-11-20 09:20:55,4892.500483143307,2,30,0.550297200679779,4.115634441375732,29.234876756109287,28.52165097299319,116.64824001521512,104.02157276141996,9.71794142969884e-05,0.0956302732229232,0,0,0
9739,336953.9199895478,2010-11-20 09:21:25,4922.516015389569,2,30,0.5499359965324402,4.118710041046143,29.23946361353534,28.52165097299319,116.6671244881574,104.02157276141996,9.70840483205393e-05,0.0956302732229232,0,0,0
9740,336983.9351349735,2010-11-20 09:21:55,4952.531160815266,2,30,0.5501165986061096,4.121786117553711,29.24405048044833,28.52165097299319,116.68602358463806,104.02157276141996,9.71794142969884e-05,0.0956302732229232,0,0,0
9741,337013.9505641625,2010-11-20 09:22:25,4982.54659000428,2,30,0.550297200679779,4.125185489654541,29.248637381902512,28.52165097299319,116.70493752325751,104.02157276141996,0.0001295089750783,0.0956302732229232,0,0,0
9742,337043.9658162344,2010-11-20 09:22:55,5012.561842076182,2,30,0.5501165986061096,4.12842321395874,29.25322418145083,28.52165097299319,116.72386595274304,104.02157276141996,9.70840483205393e-05,0.0956302732229232,0,0,0
9743,337073.9811572182,2010-11-20 09:23:25,5042.577183060023,2,30,0.5499359965324402,4.131499290466309,29.2578110281866,28.52165097299319,116.7428095319106,104.02157276141996,6.47544875391759e-05,0.0956302732229232,0,0,0
9744,337103.99663751986,2010-11-20 09:23:55,5072.592663361622,2,30,0.5501165986061096,4.134898662567139,29.26239789400301,28.52165097299319,116.76176815083971,104.02157276141996,9.70840483205393e-05,0.0956302732229232,0,0,0
9745,337134.01185735123,2010-11-20 09:24:25,5102.607883193048,2,30,0.5501165986061096,4.138136386871338,29.266984715444163,28.52165097299319,116.78074173823096,104.02157276141996,6.47544875391759e-05,0.0956302732229232,0,0,0
9746,337164.0274447201,2010-11-20 09:24:55,5132.623470566916,2,30,0.550297200679779,4.141536235809326,29.271571588112888,28.52165097299319,116.79973082769162,104.02157276141996,6.47544875391759e-05,0.0956302732229232,0,0,0
9747,337194.04267123825,2010-11-20 09:25:25,5162.638697090044,2,30,0.5501165986061096,4.144935607910156,29.276158465992896,28.52165097299319,116.81873534491385,104.02157276141996,9.70840483205393e-05,0.0956302732229232,0,0,0
9748,337224.05786630785,2010-11-20 09:25:55,5192.653892149635,2,30,0.5501165986061096,4.1483354568481445,29.280745291534217,28.52165097299319,116.83775558501078,104.02157276141996,6.47544875391759e-05,0.0956302732229232,0,0,0
9749,337254.0732289858,2010-11-20 09:26:25,5222.669254807577,2,30,0.5499359965324402,4.151896953582764,29.28533205190849,28.52165097299319,116.85679125748312,104.02157276141996,9.71794142969884e-05,0.0956302732229232,0,0,0
9750,337284.088568496,2010-11-20 09:26:55,5252.684594337789,2,30,0.5501165986061096,4.155296325683594,29.28991886293966,28.52165097299319,116.8758429521195,104.02157276141996,9.70840483205393e-05,0.0956302732229232,0,0,0
9751,337314.103893926,2010-11-20 09:27:25,5282.699919767805,2,30,0.5499359965324402,4.158696174621582,29.29450569906884,28.52165097299319,116.89491055593936,104.02157276141996,9.71794142969884e-05,0.0956302732229232,0,0,0
9752,337344.1192287846,2010-11-20 09:27:55,5312.715254626356,2,30,0.5501165986061096,4.162257671356201,29.299092541938457,28.52165097299319,116.9139941238312,104.02157276141996,9.71794142969884e-05,0.0956302732229232,0,0,0
9753,337374.13766954094,2010-11-20 09:28:25,5342.733695492981,2,30,0.5501165986061096,4.165657043457031,29.30367986929641,28.52165097299319,116.93309578055984,104.02157276141996,6.47544875391759e-05,0.0956302732229232,0,0,0
9754,337404.1499257196,2010-11-20 09:28:55,5372.745951561398,2,30,0.550297200679779,4.16938066482544,29.30826621483378,28.52165097299319,116.95220955023096,104.02157276141996,9.71794142969884e-05,0.0956302732229232,0,0,0
9755,337434.1654256703,2010-11-20 09:29:25,5402.761451607282,2,30,0.5501165986061096,4.1727800369262695,29.31285309498937,28.52165097299319,116.97134178538532,104.02157276141996,6.47544875391759e-05,0.0956302732229232,0,0,0
9756,337464.180621602,2010-11-20 09:29:55,5432.776647443811,2,30,0.550297200679779,4.176503658294678,29.31743988683043,28.52165097299319,116.9904901092184,104.02157276141996,0.0001295089750783,0.0956302732229232,0,0,0
9757,337494.19779159635,2010-11-20 09:30:25,5462.7938174431565,2,30,0.5501165986061096,4.179903030395508,29.32202699960728,28.52165097299319,117.00965624005735,104.02157276141996,9.70840483205393e-05,0.0956302732229232,0,0,0
9758,337524.2112940359,2010-11-20 09:30:55,5492.807319877695,2,30,0.5501165986061096,4.183788299560547,29.32661353497029,28.52165097299319,117.02883651642505,104.02157276141996,0.0001295089750783,0.0956302732229232,0,0,0
9759,337554.22662560124,2010-11-20 09:31:25,5522.822651443025,2,30,0.5501165986061096,4.187349796295166,29.331200432646447,28.52165097299319,117.04803497678444,104.02157276141996,9.70840483205393e-05,0.0956302732229232,0,0,0
9760,337584.2420364595,2010-11-20 09:31:55,5552.838062301283,2,30,0.5501165986061096,4.191073417663574,29.335787278733505,28.52165097299319,117.0672499773168,104.02157276141996,9.71794142969884e-05,0.0956302732229232,0,0,0
9761,337614.257325619,2010-11-20 09:32:25,5582.853351460762,2,30,0.5501165986061096,4.194958209991455,29.34037411922321,28.52165097299319,117.08648189932067,104.02157276141996,0.0001294136018259,0.0956302732229232,0,0,0
9762,337644.272646648,2010-11-20 09:32:55,5612.8686724897925,2,30,0.5501165986061096,4.198195934295654,29.34496096439043,28.52165097299319,117.10573079816632,104.02157276141996,3.23295607813634e-05,0.0956302732229232,0,0,0
9763,337656.41330493893,2010-11-20 09:33:07,5625.009330780679,2,30,0.5501165986061096,4.200138568878174,29.346816275139773,28.52165097299319,117.11352158096216,104.02157276141996,0.0001618385285837,0.0956302732229232,0,0,0
9764,337686.4392172984,2010-11-20 09:33:38,30.015355344687315,3,30,0.0,4.116767406463623,29.346816275139773,28.52165097299319,117.11352158096216,104.02157276141996,-0.0003561973571777,0.0956302732229232,0,0,0
9765,337716.4545632948,2010-11-20 09:34:08,60.03070134103975,3,30,0.0,4.106730937957764,29.346816275139773,28.52165097299319,117.11352158096216,104.02157276141996,-0.0002265930233988,0.0956302732229232,0,0,0
9766,337746.4699213512,2010-11-20 09:34:38,90.04605941754612,3,30,0.0,4.100740909576416,29.346816275139773,28.52165097299319,117.11352158096216,104.02157276141996,-0.0001295089750783,0.0956302732229232,0,0,0
9767,337776.43835874647,2010-11-20 09:35:08,120.01449679276348,3,30,0.0,4.097017765045166,29.346816275139773,28.52165097299319,117.11352158096216,104.02157276141996,-9.70840483205393e-05,0.0956302732229232,0,0,0
9768,337776.450182227,2010-11-20 09:35:08,2.786956673e-06,4,30,0.9814115762710572,4.199653148651123,29.34681627589953,28.52165097299319,117.11352158415292,104.02157276141996,0.0,0.0956302732229232,0,0,0
9769,337777.448286554,2010-11-20 09:35:09,0.998107128948799,4,30,0.930660367012024,4.199814796447754,29.347079740200623,28.52165097299319,117.11462805644432,104.02157276141996,3.23295607813634e-05,0.0956302732229232,0,0,0
9770,337779.6513798588,2010-11-20 09:35:11,3.201200428762565,4,30,0.8799091577529907,4.199653148651123,29.347632516635663,28.52165097299319,117.11694955333137,104.02157276141996,0.0,0.0956302732229232,0,0,0
9771,337782.9794658033,2010-11-20 09:35:14,6.529286378305848,4,30,0.8298803567886353,4.199814796447754,29.348421527771315,28.52165097299319,117.12026315964704,104.02157276141996,3.23295607813634e-05,0.0956302732229232,0,0,0
9772,337787.557546492,2010-11-20 09:35:19,11.10736707705002,4,30,0.7793098092079163,4.199653148651123,29.349443432698028,28.52165097299319,117.12455486214095,104.02157276141996,-3.23295607813634e-05,0.0956302732229232,0,0,0
9773,337793.60437227954,2010-11-20 09:35:25,17.15419285447135,4,30,0.7292810082435608,4.199653148651123,29.35070883054381,28.52165097299319,117.12986918709788,104.02157276141996,0.0,0.0956302732229232,0,0,0
9774,337801.4499469759,2010-11-20 09:35:33,24.999767550925192,4,30,0.6792522668838501,4.199653148651123,29.35224122731093,28.52165097299319,117.13630484503344,104.02157276141996,-3.23295607813634e-05,0.0956302732229232,0,0,0
9775,337811.96369969024,2010-11-20 09:35:43,35.51352027522547,4,30,0.6292234659194946,4.199653148651123,29.35414856101513,28.52165097299319,117.1443151095193,104.02157276141996,0.0,0.0956302732229232,0,0,0
9776,337827.1353965948,2010-11-20 09:35:58,50.685217179806514,4,30,0.5791947245597839,4.199653148651123,29.356688551196537,28.52165097299319,117.1549823500965,104.02157276141996,3.24249267578125e-05,0.0956302732229232,0,0,0
9777,337850.7289277032,2010-11-20 09:36:22,74.2787483934899,4,30,0.5291659235954285,4.199653148651123,29.360307064838636,28.52165097299319,117.1701791219186,104.02157276141996,0.0,0.0956302732229232,0,0,0
9778,337892.1348368376,2010-11-20 09:37:03,115.6846574125413,4,30,0.4791371822357178,4.199653148651123,29.366078527800187,28.52165097299319,117.19441771548114,104.02157276141996,0.0,0.0956302732229232,0,0,0
9779,337964.54024652444,2010-11-20 09:38:16,188.09006710943856,4,30,0.4291084110736847,4.199653148651123,29.375176535445966,28.52165097299319,117.23262689101396,104.02157276141996,-3.23295607813634e-05,0.0956302732229232,0,0,0
9780,338067.9455626219,2010-11-20 09:39:59,291.49538320692807,4,30,0.3788990080356598,4.199491024017334,29.386758397890887,28.52165097299319,117.2812675564906,104.02157276141996,-3.24249267578125e-05,0.0956302732229232,0,0,0
9781,338194.69467836467,2010-11-20 09:42:06,418.2444989396609,4,30,0.3288702368736267,4.199653148651123,29.39920011730075,28.52165097299319,117.33351949860966,104.02157276141996,-3.23295607813634e-05,0.0956302732229232,0,0,0
9782,338344.16191888193,2010-11-20 09:44:35,567.7117394619647,4,30,0.2788414657115936,4.199653148651123,29.41179506126833,28.52165097299319,117.38641489749006,104.02157276141996,-3.23295607813634e-05,0.0956302732229232,0,0,0
9783,338525.98808596825,2010-11-20 09:47:37,749.537906583356,4,30,0.2288127094507217,4.199814796447754,29.424588984445556,28.52165097299319,117.44014596816208,104.02157276141996,0.0,0.0956302732229232,0,0,0
9784,338755.0172087239,2010-11-20 09:51:26,978.567029298904,4,30,0.1786033362150192,4.199814796447754,29.437501913715877,28.52165097299319,117.49437674266731,104.02157276141996,3.23295607813634e-05,0.0956302732229232,0,0,0
9785,339070.4675070444,2010-11-20 09:56:42,1294.0173276443893,4,30,0.1285745650529861,4.199653148651123,29.45086664676177,28.52165097299319,117.55050500836887,104.02157276141996,0.0,0.0956302732229232,0,0,0
9786,339569.4471699992,2010-11-20 10:05:01,1792.9969907145144,4,30,0.078545793890953,4.199653148651123,29.464965562081098,28.52165097299319,117.60971667746044,104.02157276141996,-3.23295607813634e-05,0.0956302732229232,0,0,0
9787,340074.3486579302,2010-11-20 10:13:26,2297.898478505192,4,30,0.0498289167881011,4.199653148651123,29.473864334862448,28.52165097299319,117.64708909974122,104.02157276141996,-3.23295607813634e-05,0.0956302732229232,0,0,0
9788,340104.350434084,2010-11-20 10:13:56,30.0153315302428,5,30,0.0,4.192044734954834,29.473864334862448,28.52165097299319,117.64708909974122,104.02157276141996,-9.70840483205393e-05,0.0956302732229232,0,0,0
9789,340134.35015738866,2010-11-20 10:14:26,60.0150548349534,5,30,0.0,4.190749645233154,29.473864334862448,28.52165097299319,117.64708909974122,104.02157276141996,-6.47544875391759e-05,0.0956302732229232,0,0,0
9790,340134.52483471425,2010-11-20 10:14:26,0.187540745553323,6,30,-1.9243103452026844e-05,4.191073417663574,29.473864334862448,28.52165097399565,117.64708909974122,104.02157276562134,0.0,0.0923885703086853,0,0,0
9791,340139.3528132364,2010-11-20 10:14:31,5.015519267710555,6,30,0.0003419754502829,4.190911293029785,29.473865112933822,28.5216509740789,117.64709236063364,104.02157276597023,0.0,0.0923885703086853,0,0,0
9792,340169.37099241297,2010-11-20 10:15:01,30.0154087580152,7,30,-1.099929690361023,4.0202836990356445,29.473865112933822,28.530820529376985,117.64709236063364,104.05862577965608,-0.0008742332574911,0.0923885703086853,0,0,0
9793,340199.3862656377,2010-11-20 10:15:31,60.03068197770589,7,30,-1.0997490882873535,3.99502944946289,29.473865112933822,28.53999006226491,117.64709236063364,104.09536534420606,-0.0005180359003134,0.0923885703086853,0,0,0
9794,340229.4016221001,2010-11-20 10:16:01,90.04603844018338,7,30,-1.099568486213684,3.977707862854004,29.473865112933822,28.54915958863149,117.64709236063364,104.131914346121,-0.0004209041653666,0.0923885703086853,0,0,0
9795,340259.4171811885,2010-11-20 10:16:31,120.06159753847103,7,30,-1.0997490882873535,3.964109420776367,29.473865112933822,28.558329047671947,117.64709236063364,104.16832289404408,-0.0003237724304199,0.0923885703086853,0,0,0
9796,340289.43230957666,2010-11-20 10:17:01,150.07672592663994,7,30,-1.0997490882873535,3.95245361328125,29.473865112933822,28.56749838103053,117.64709236063364,104.20461691621766,-0.0003237724304199,0.0923885703086853,0,0,0
9797,340319.44764491136,2010-11-20 10:17:31,180.09206125135435,7,30,-1.0997490882873535,3.942092895507813,29.473865112933822,28.576667882633267,117.64709236063364,104.24081080285762,-0.0002266406954731,0.0923885703086853,0,0,0
9798,340349.4630000756,2010-11-20 10:18:01,210.1074164155912,7,30,-1.0997490882873535,3.932055950164795,29.473865112933822,28.585837314595576,117.64709236063364,104.27691102833808,-0.0002590179501567,0.0923885703086853,0,0,0
9799,340379.4783960717,2010-11-20 10:18:31,240.12281241175089,7,30,-1.0997490882873535,3.922828435897827,29.473865112933822,28.59500680164482,117.64709236063364,104.31292327799926,-0.0002590179501567,0.0923885703086853,0,0,0
9800,340409.4936695771,2010-11-20 10:19:01,270.13808591715474,7,30,-1.099568486213684,3.913762807846069,29.473865112933822,28.60417624790916,117.64709236063364,104.34885107967057,-0.0002590179501567,0.0923885703086853,0,0,0
9801,340439.5090303353,2010-11-20 10:19:31,300.15344667535504,7,30,-1.0997490882873535,3.905021190643311,29.473865112933822,28.61334563911707,117.64709236063364,104.38469788122195,-0.0002590179501567,0.0923885703086853,0,0,0
9802,340469.5275251166,2010-11-20 10:20:01,330.1719415868842,7,30,-1.0997490882873535,3.8966031074523926,29.473865112933822,28.622515998678992,117.64709236063364,104.42046983574964,-0.0002266406954731,0.0923885703086853,0,0,0
9803,340499.5397112905,2010-11-20 10:20:31,360.1841276405335,7,30,-1.0997490882873535,3.8881850242614746,29.473865112933822,28.631684453712737,117.64709236063364,104.45615747586764,-0.0002266406954731,0.0923885703086853,0,0,0
9804,340529.55505673046,2010-11-20 10:21:01,390.1994730704721,7,30,-1.0997490882873535,3.879928827285767,29.473865112933822,28.640853864729632,117.64709236063364,104.491772076547,-0.0002266406954731,0.0923885703086853,0,0,0
9805,340559.57040065166,2010-11-20 10:21:31,420.21481699164445,7,30,-1.099929690361023,3.8715107440948486,29.473865112933822,28.650023291677005,117.64709236063364,104.52731087757068,-0.0002590179501567,0.0923885703086853,0,0,0
9806,340589.58581477305,2010-11-20 10:22:01,450.2302311230726,7,30,-1.0997490882873535,3.863416433334351,29.473865112933822,28.65919273810056,117.64709236063364,104.5627751146846,-0.0002590179501567,0.0923885703086853,0,0,0
9807,340619.60128736537,2010-11-20 10:22:31,480.2457037455032,7,30,-1.1001102924346924,3.855645895004273,29.473865112933822,28.66836225874714,117.64709236063364,104.59816578852949,-0.0001942634553415,0.0923885703086853,0,0,0
9808,340649.61641734256,2010-11-20 10:23:01,510.2608336925634,7,30,-1.0997490882873535,3.847713470458984,29.473865112933822,28.677531610685342,117.64709236063364,104.63348264662434,-0.0001942634553415,0.0923885703086853,0,0,0
9809,340679.6318099001,2010-11-20 10:23:31,540.2762262401147,7,30,-1.0997490882873535,3.839942932128906,29.473865112933822,28.686701068064345,117.64709236063364,104.66872836797626,-0.0001942634553415,0.0923885703086853,0,0,0
9810,340709.6471298815,2010-11-20 10:24:01,570.2915462315549,7,30,-1.099929690361023,3.832334518432617,29.473865112933822,28.695870633746512,117.64709236063364,104.70390389232028,-0.0001942157687153,0.0923885703086853,0,0,0
9811,340739.6626055265,2010-11-20 10:24:31,600.3070218665052,7,30,-1.0997490882873535,3.825049638748169,29.473865112933822,28.705040144446443,117.64709236063364,104.73901057763482,-0.0001942634553415,0.0923885703086853,0,0,0
9812,340769.6779323951,2010-11-20 10:25:01,630.3223487651869,7,30,-1.0997490882873535,3.8177647590637207,29.473865112933822,28.714209613633365,117.64709236063364,104.77405011803454,-0.0001942634553415,0.0923885703086853,0,0,0
9813,340799.6932333039,2010-11-20 10:25:31,660.3376497592067,7,30,-1.099929690361023,3.8103179931640634,29.473865112933822,28.723379111636604,117.64709236063364,104.80902254966104,-0.0001942634553415,0.0923885703086853,0,0,0
9814,340829.7086354704,2010-11-20 10:26:01,690.3530518205058,7,30,-1.099929690361023,3.803194999694824,29.473865112933822,28.7325486263113,117.64709236063364,104.8439289079142,-0.0001942634553415,0.0923885703086853,0,0,0
9815,340859.7238315877,2010-11-20 10:26:31,720.3682479477619,7,30,-1.0997490882873535,3.796395778656006,29.473865112933822,28.741718035660053,117.64709236063364,104.87877097439328,-0.0001942634553415,0.0923885703086853,0,0,0
9816,340889.7391707921,2010-11-20 10:27:01,750.3835871321105,7,30,-1.099929690361023,3.789596557617188,29.473865112933822,28.750887489326576,117.64709236063364,104.91355035364704,-0.0001942634553415,0.0923885703086853,0,0,0
9817,340919.7545483121,2010-11-20 10:27:31,780.3989646571636,7,30,-1.099929690361023,3.782959222793579,29.473865112933822,28.76005696367801,117.64709236063364,104.94826849947448,-0.0001942634553415,0.0923885703086853,0,0,0
9818,340949.76988781727,2010-11-20 10:28:01,810.4143041673253,7,30,-1.0997490882873535,3.776645660400391,29.473865112933822,28.76922647893815,117.64709236063364,104.98292708829764,-0.0001295089750783,0.0923885703086853,0,0,0
9819,340979.7852187711,2010-11-20 10:28:31,840.4296351111042,7,30,-1.099929690361023,3.770170211791992,29.473865112933822,28.778395998999613,117.64709236063364,105.01752744518684,-0.0001942634553415,0.0923885703086853,0,0,0
9820,341009.8007349272,2010-11-20 10:29:01,870.445151272214,7,30,-1.099929690361023,3.7640185356140137,29.473865112933822,28.787565960038023,117.64709236063364,105.0520718050621,-0.0001295089750783,0.0923885703086853,0,0,0
9821,341039.8158902927,2010-11-20 10:29:31,900.4603066377225,7,30,-1.0997490882873535,3.757866859436035,29.473865112933822,28.796736275177807,117.64709236063364,105.08656081772358,-0.0001942634553415,0.0923885703086853,0,0,0
9822,341069.8331394196,2010-11-20 10:30:01,930.477555769594,7,30,-1.099929690361023,3.751715421676636,29.473865112933822,28.805907194703565,117.64709236063364,105.12099669853048,-0.0001942634553415,0.0923885703086853,0,0,0
9823,341099.8465842704,2010-11-20 10:30:32,960.4910006153824,7,30,-1.099929690361023,3.746049404144287,29.473865112933822,28.81507692659249,117.64709236063364,105.15537316192597,-0.0001295089750783,0.0923885703086853,0,0,0
9824,341129.8619272742,2010-11-20 10:31:02,990.5063436142524,7,30,-1.0997490882873535,3.740059614181519,29.473865112933822,28.82424685368027,117.64709236063364,105.18969646062232,-0.0001618862152099,0.0923885703086853,0,0,0
9825,341159.87728300487,2010-11-20 10:31:32,1020.5216993398908,7,30,-1.0997490882873535,3.73439359664917,29.473865112933822,28.833416356569504,117.64709236063364,105.22396527469029,-0.0001618862152099,0.0923885703086853,0,0,0
9826,341189.892636515,2010-11-20 10:32:02,1050.5370528499986,7,30,-1.0997490882873535,3.729051351547241,29.473865112933822,28.842585885778508,117.64709236063364,105.2581825994174,-6.47544875391759e-05,0.0923885703086853,0,0,0
9827,341219.9080402605,2010-11-20 10:32:32,1080.5524565955018,7,30,-1.0997490882873535,3.7233853340148926,29.473865112933822,28.85175539277499,117.64709236063364,105.29234950447902,-0.0001295089750783,0.0923885703086853,0,0,0
9828,341249.92330375593,2010-11-20 10:33:02,1110.5677200959317,7,30,-1.0997490882873535,3.717881202697754,29.473865112933822,28.86092486928204,117.64709236063364,105.3264657746202,-0.0001618862152099,0.0923885703086853,0,0,0
9829,341279.9387799673,2010-11-20 10:33:32,1140.583196307321,7,30,-1.099929690361023,3.712538957595825,29.473865112933822,28.870094397604703,117.64709236063364,105.36053234576792,-0.0001295089750783,0.0923885703086853,0,0,0
9830,341309.9540000745,2010-11-20 10:34:02,1170.598416409422,7,30,-1.0997490882873535,3.7073585987091056,29.473865112933822,28.87926390066668,117.64709236063364,105.3945501273828,-9.713172767078504e-05,0.0923885703086853,0,0,0
9831,341339.96933298314,2010-11-20 10:34:32,1200.6137493181056,7,30,-1.099929690361023,3.7020163536071777,29.473865112933822,28.88843348544517,117.64709236063364,105.42852010432688,-0.0001618862152099,0.0923885703086853,0,0,0
9832,341369.98467880406,2010-11-20 10:35:02,1230.6290951540575,7,30,-1.0997490882873535,3.696997880935669,29.473865112933822,28.897603058969136,117.64709236063364,105.46244247431,-0.0001295089750783,0.0923885703086853,0,0,0
9833,341400.000025051,2010-11-20 10:35:32,1260.6444413910106,7,30,-1.0997490882873535,3.69197940826416,29.473865112933822,28.906772664812404,117.64709236063364,105.4963181681251,-9.713172767078504e-05,0.0923885703086853,0,0,0
9834,341430.0156732818,2010-11-20 10:36:02,1290.6600896217867,7,30,-1.099929690361023,3.6869609355926514,29.473865112933822,28.915942352620668,117.64709236063364,105.5301484156626,-9.713172767078504e-05,0.0923885703086853,0,0,0
9835,341460.0307455147,2010-11-20 10:36:32,1320.6751618648088,7,30,-1.0997490882873535,3.682104349136353,29.473865112933822,28.92511178828835,117.64709236063364,105.56393251023216,-9.713172767078504e-05,0.0923885703086853,0,0,0
9836,341490.046051391,2010-11-20 10:37:02,1350.69046773099,7,30,-1.099929690361023,3.677085876464844,29.473865112933822,28.934281272278252,117.64709236063364,105.59767201199088,-0.0001618862152099,0.0923885703086853,0,0,0
9837,341520.0614002094,2010-11-20 10:37:32,1380.7058165493868,7,30,-1.0997490882873535,3.672391414642334,29.473865112933822,28.94345081317391,117.64709236063364,105.63136748583231,-0.0001294612884521,0.0923885703086853,0,0,0
9838,341550.07675586484,2010-11-20 10:38:02,1410.7211721998374,7,30,-1.099568486213684,3.667858600616455,29.473865112933822,28.952620427786627,117.64709236063364,105.66501976267516,-9.713172767078504e-05,0.0923885703086853,0,0,0
9839,341580.0920952396,2010-11-20 10:38:32,1440.736511579674,7,30,-1.099929690361023,3.6628401279449454,29.473865112933822,28.961789976290447,117.64709236063364,105.6986289556438,-0.0001942634553415,0.0923885703086853,0,0,0
9840,341610.1074487247,2010-11-20 10:39:02,1470.7518650797567,7,30,-1.099929690361023,3.658469200134277,29.473865112933822,28.970959512208623,117.64709236063364,105.73219621672668,-9.713172767078504e-05,0.0923885703086853,0,0,0
9841,341640.1228278187,2010-11-20 10:39:32,1500.7672441586883,7,30,-1.099568486213684,3.6539363861083984,29.473865112933822,28.98012904611662,117.64709236063364,105.76572192614208,-0.0001618862152099,0.0923885703086853,0,0,0
9842,341670.14000051474,2010-11-20 10:40:02,1530.7844168547642,7,30,-1.0997490882873535,3.6495654582977295,29.473865112933822,28.989299103960345,117.64709236063364,105.79920894999672,-0.0001295089750783,0.0923885703086853,0,0,0
9843,341700.153575756,2010-11-20 10:40:32,1560.7979920910273,7,30,-1.0997490882873535,3.645194530487061,29.473865112933822,28.998468003003858,117.64709236063364,105.8326511263126,-9.713172767078504e-05,0.0923885703086853,0,0,0
9844,341730.16879289574,2010-11-20 10:41:02,1590.8132092357462,7,30,-1.0997490882873535,3.6409854888916016,29.473865112933822,29.00763736240339,117.64709236063364,105.8660552448447,-6.47544875391759e-05,0.0923885703086853,0,0,0
9845,341760.18414719787,2010-11-20 10:41:32,1620.8285635378309,7,30,-1.0997490882873535,3.636776447296143,29.473865112933822,29.01680678913652,117.64709236063364,105.89942098220344,-9.713172767078504e-05,0.0923885703086853,0,0,0
9846,341790.1994980162,2010-11-20 10:42:02,1650.84391435622,7,30,-1.0997490882873535,3.632567405700684,29.473865112933822,29.02597616718935,117.64709236063364,105.9327487360748,-0.0001295089750783,0.0923885703086853,0,0,0
9847,341820.21485726064,2010-11-20 10:42:32,1680.8592736006417,7,30,-1.0997490882873535,3.6285202503204346,29.473865112933822,29.03514553385013,117.64709236063364,105.96603930303075,-0.0001295089750783,0.0923885703086853,0,0,0
9848,341850.2302379135,2010-11-20 10:43:02,1710.8746542484896,7,30,-1.0997490882873535,3.6247968673706055,29.473865112933822,29.044314881341915,117.64709236063364,105.99929334574328,-0.0001295089750783,0.0923885703086853,0,0,0
9849,341880.2455168374,2010-11-20 10:43:32,1740.8899331774314,7,30,-1.0997490882873535,3.6209115982055664,29.473865112933822,29.05348422838153,117.64709236063364,106.03251205301436,-9.713172767078504e-05,0.0923885703086853,0,0,0
9850,341910.2608807234,2010-11-20 10:44:02,1770.905297063439,7,30,-1.0997490882873535,3.617188215255737,29.473865112933822,29.06265369632634,117.64709236063364,106.06569669987356,-6.47544875391759e-05,0.0923885703086853,0,0,0
9851,341940.27632938605,2010-11-20 10:44:32,1800.9207457310747,7,30,-1.0997490882873535,3.613626718521118,29.473865112933822,29.07182305155874,117.64709236063364,106.09884750277484,-6.47544875391759e-05,0.0923885703086853,0,0,0
9852,341970.29174462025,2010-11-20 10:45:02,1830.936161075531,7,30,-1.0997490882873535,3.610065221786499,29.473865112933822,29.080992539670728,117.64709236063364,106.13196612310712,-9.713172767078504e-05,0.0923885703086853,0,0,0
9853,342000.3069042063,2010-11-20 10:45:32,1860.9513205512992,7,30,-1.0997490882873535,3.6068274974823,29.473865112933822,29.090161927854258,117.64709236063364,106.1650525927594,-3.237724376958795e-05,0.0923885703086853,0,0,0
9854,342030.32228699944,2010-11-20 10:46:02,1890.9667033344767,7,30,-1.0997490882873535,3.603104114532471,29.473865112933822,29.09933137626452,117.64709236063364,106.19810845406278,-0.0001295089750783,0.0923885703086853,0,0,0
9855,342060.3376814468,2010-11-20 10:46:32,1920.9820977867832,7,30,-1.099568486213684,3.6001901626586914,29.473865112933822,29.108500831114945,117.64709236063364,106.23113444438368,-9.713172767078504e-05,0.0923885703086853,0,0,0
9856,342090.3529333482,2010-11-20 10:47:02,1950.9973496982848,7,30,-1.099929690361023,3.596952438354492,29.473865112933822,29.11767022799057,117.64709236063364,106.26413105795498,-9.713172767078504e-05,0.0923885703086853,0,0,0
9857,342120.3682796604,2010-11-20 10:47:32,1981.0126960004009,7,30,-1.0997490882873535,3.593714714050293,29.473865112933822,29.12683968314079,117.64709236063364,106.29709927871716,-9.713172767078504e-05,0.0923885703086853,0,0,0
9858,342150.38363514043,2010-11-20 10:48:02,2011.0280514804265,7,30,-1.0997490882873535,3.5909628868103027,29.473865112933822,29.13600920151579,117.64709236063364,106.33003965373264,0.0,0.0923885703086853,0,0,0
9859,342180.3993804435,2010-11-20 10:48:32,2041.043796788522,7,30,-1.099568486213684,3.5880489349365234,29.473865112933822,29.14517875479639,117.64709236063364,106.36295285829756,-6.47544875391759e-05,0.0923885703086853,0,0,0
9860,342210.41435973445,2010-11-20 10:49:02,2071.0587760694966,7,30,-1.0997490882873535,3.585134983062744,29.473865112933822,29.154348128729232,117.64709236063364,106.39583866708776,-6.47544875391759e-05,0.0923885703086853,0,0,0
9861,342240.4297975551,2010-11-20 10:49:32,2101.074213895069,7,30,-1.099568486213684,3.582382917404175,29.473865112933822,29.16351764241448,117.64709236063364,106.42869832411108,-3.237724376958795e-05,0.0923885703086853,0,0,0
9862,342270.4469842661,2010-11-20 10:50:02,2131.091400601116,7,30,-1.099929690361023,3.579145193099976,29.473865112933822,29.172687639270688,117.64709236063364,106.46153333953114,-9.713172767078504e-05,0.0923885703086853,0,0,0
9863,342300.4603515834,2010-11-20 10:50:32,2161.1047679233934,7,30,-1.0997490882873535,3.5762312412261963,29.473865112933822,29.18185644180261,117.64709236063364,106.49433760983314,-9.713172767078504e-05,0.0923885703086853,0,0,0
9864,342330.47581728856,2010-11-20 10:51:02,2191.120233623545,7,30,-1.0997490882873535,3.573641061782837,29.473865112933822,29.191026020484905,117.64709236063364,106.52711824679106,0.0,0.0923885703086853,0,0,0
9865,342360.4910415711,2010-11-20 10:51:32,2221.135457916106,7,30,-1.0997490882873535,3.570565223693848,29.473865112933822,29.20019540560517,117.64709236063364,106.55987219795529,-9.713172767078504e-05,0.0923885703086853,0,0,0
9866,342390.5092046543,2010-11-20 10:52:02,2251.153621009365,7,30,-1.0997490882873535,3.5678131580352783,29.473865112933822,29.20936567480758,117.64709236063364,106.59260285835131,-6.47544875391759e-05,0.0923885703086853,0,0,0
9867,342420.5218781297,2010-11-20 10:52:32,2281.166294474669,7,30,-1.0997490882873535,3.564899206161499,29.473865112933822,29.21853434584574,117.64709236063364,106.62530096786932,-6.47544875391759e-05,0.0923885703086853,0,0,0
9868,342450.53709639714,2010-11-20 10:53:02,2311.181512732166,7,30,-1.099568486213684,3.56198525428772,29.473865112933822,29.22770376493179,117.64709236063364,106.65797494546688,-6.47544875391759e-05,0.0923885703086853,0,0,0
9869,342480.5526199317,2010-11-20 10:53:32,2341.1970362716934,7,30,-1.099929690361023,3.5587475299835205,29.473865112933822,29.236873235191677,117.64709236063364,106.6906221748628,-9.713172767078504e-05,0.0923885703086853,0,0,0
9870,342510.5677769814,2010-11-20 10:54:02,2371.2121933113813,7,30,-1.0997490882873535,3.555833578109741,29.473865112933822,29.24604255268203,117.64709236063364,106.7232409117907,-9.713172767078504e-05,0.0923885703086853,0,0,0
9871,342540.5831124765,2010-11-20 10:54:32,2401.227528816546,7,30,-1.0997490882873535,3.552595853805542,29.473865112933822,29.25521198085558,117.64709236063364,106.75583114018748,-9.713172767078504e-05,0.0923885703086853,0,0,0
9872,342570.598454117,2010-11-20 10:55:02,2431.242870457025,7,30,-1.0997490882873535,3.5493581295013428,29.473865112933822,29.26438146018031,117.64709236063364,106.78839226334026,-9.713172767078504e-05,0.0923885703086853,0,0,0
9873,342600.6138035971,2010-11-20 10:55:32,2461.258219932062,7,30,-1.0997490882873535,3.5459585189819336,29.473865112933822,29.273550929154258,117.64709236063364,106.82092294284637,-0.0001295089750783,0.0923885703086853,0,0,0
9874,342630.6291570069,2010-11-20 10:56:02,2491.2735733419186,7,30,-1.099929690361023,3.5425589084625244,29.473865112933822,29.282720375495582,117.64709236063364,106.85342201585068,-6.47544875391759e-05,0.0923885703086853,0,0,0
9875,342660.6445140158,2010-11-20 10:56:32,2521.2889303557727,7,30,-1.099568486213684,3.5389974117279053,29.473865112933822,29.29188983958716,117.64709236063364,106.88588887393443,-9.713172767078504e-05,0.0923885703086853,0,0,0
9876,342690.6600163424,2010-11-20 10:57:02,2551.304432682349,7,30,-1.0997490882873535,3.535274028778076,29.473865112933822,29.301059398942705,117.64709236063364,106.9183226638866,-6.47544875391759e-05,0.0923885703086853,0,0,0
9877,342720.6753038326,2010-11-20 10:57:32,2581.3197201776743,7,30,-1.0993878841400146,3.531550645828247,29.473865112933822,29.310228871224812,117.64709236063364,106.9507216482955,-9.713172767078504e-05,0.0923885703086853,0,0,0
9878,342750.6905323708,2010-11-20 10:58:02,2611.3349487108208,7,30,-1.099929690361023,3.527503490447998,29.473865112933822,29.319398349873683,117.64709236063364,106.98308492750108,-9.713172767078504e-05,0.0923885703086853,0,0,0
9879,342780.70587349,2010-11-20 10:58:32,2641.350289829999,7,30,-1.099929690361023,3.523456335067749,29.473865112933822,29.32856785525519,117.64709236063364,107.01541126658792,-6.47544875391759e-05,0.0923885703086853,0,0,0
9880,342810.7212202432,2010-11-20 10:59:02,2671.3656365832408,7,30,-1.0997490882873535,3.51908540725708,29.473865112933822,29.337737268052543,117.64709236063364,107.04769867429027,-0.0001295089750783,0.0923885703086853,0,0,0
9881,342840.7365669263,2010-11-20 10:59:32,2701.380983266307,7,30,-1.0997490882873535,3.514714479446411,29.473865112933822,29.34690673744084,117.64709236063364,107.07994645717083,-9.713172767078504e-05,0.0923885703086853,0,0,0
9882,342870.7538526244,2010-11-20 11:00:02,2731.3982689594413,7,30,-1.099929690361023,3.509696245193481,29.473865112933822,29.35607675802925,117.64709236063364,107.11215380356958,-0.0001618862152099,0.0923885703086853,0,0,0
9883,342900.7673260365,2010-11-20 11:00:32,2761.411742376548,7,30,-1.0997490882873535,3.5045158863067627,29.473865112933822,29.36524568290223,117.64709236063364,107.14431205908548,-0.0001618862152099,0.0923885703086853,0,0,0
9884,342930.78275094985,2010-11-20 11:01:02,2791.427167309939,7,30,-1.0997490882873535,3.499173641204834,29.473865112933822,29.3744152346286,117.64709236063364,107.17642361912492,-0.0001618862152099,0.0923885703086853,0,0,0
9885,342960.7979621798,2010-11-20 11:01:32,2821.4423785248564,7,30,-1.0997490882873535,3.493183851242065,29.473865112933822,29.383584699426287,117.64709236063364,107.20848172536884,-0.0001295089750783,0.0923885703086853,0,0,0
9886,342990.81331405585,2010-11-20 11:02:02,2851.4577303908604,7,30,-1.0997490882873535,3.486384630203247,29.473865112933822,29.39275420147747,117.64709236063364,107.24048098399211,-0.0001618862152099,0.0923885703086853,0,0,0
9887,343020.8286375761,2010-11-20 11:02:33,2881.4730539111088,7,30,-1.0997490882873535,3.478290319442749,29.473865112933822,29.401923660128865,117.64709236063364,107.27241303572924,-0.0002590179501567,0.0923885703086853,0,0,0
9888,343050.84399217897,2010-11-20 11:03:03,2911.488408518957,7,30,-1.0997490882873535,3.469548463821411,29.473865112933822,29.41109314121997,117.64709236063364,107.30426768039646,-0.0001942634553415,0.0923885703086853,0,0,0
9889,343080.8593283658,2010-11-20 11:03:33,2941.5037446957986,7,30,-1.099568486213684,3.458378314971924,29.473865112933822,29.42026261261201,117.64709236063364,107.33603089425225,-0.0003237724304199,0.0923885703086853,0,0,0
9890,343110.8747441614,2010-11-20 11:04:03,2971.5191605014056,7,30,-1.0997490882873535,3.444779872894287,29.473865112933822,29.42943213057667,117.64709236063364,107.36768274390434,-0.0003885269106831,0.0923885703086853,0,0,0
9891,343140.89009533066,2010-11-20 11:04:33,3001.5345116706703,7,30,-1.0997490882873535,3.4276201725006104,29.473865112933822,29.43860093893803,117.64709236063364,107.39919202814109,-0.0004856586456298,0.0923885703086853,0,0,0
9892,343170.90531746787,2010-11-20 11:05:03,3031.549733807851,7,30,-1.0997490882873535,3.404632329940796,29.473865112933822,29.447769642687547,117.64709236063364,107.43051818337182,-0.0006799221155233,0.0923885703086853,0,0,0
9893,343200.92053841706,2010-11-20 11:05:33,3061.564954782129,7,30,-1.0997490882873535,3.3732264041900635,29.473865112933822,29.456938495425497,117.64709236063364,107.46159870879777,-0.0009389400365762,0.0923885703086853,0,0,0
9894,343230.93589906493,2010-11-20 11:06:03,3091.5803154300543,7,30,-1.0997490882873535,3.330164909362793,29.473865112933822,29.46610728179593,117.64709236063364,107.49234154261477,-0.0013598442310467,0.0923885703086853,0,0,0
9895,343260.951212074,2010-11-20 11:06:33,3121.595628439065,7,30,-1.099568486213684,3.2696197032928467,29.473865112933822,29.475275904183675,117.64709236063364,107.52261351256412,-0.0018778324592858,0.0923885703086853,0,0,0
9896,343290.966545113,2010-11-20 11:07:03,3151.6109614830866,7,30,-1.0997490882873535,3.1826870441436768,29.473865112933822,29.48444449835725,117.64709236063364,107.55221898608508,-0.0027520179282873,0.0923885703086853,0,0,0
9897,343320.98200042226,2010-11-20 11:07:33,3181.626416787288,7,30,-1.0993878841400146,3.0479979515075684,29.473865112933822,29.49361325217004,117.64709236063364,107.58083436296296,-0.0044356822036206,0.0923885703086853,0,0,0
9898,343344.40361731633,2010-11-20 11:07:56,3205.0480336813816,7,30,-1.0997490882873535,2.847745418548584,29.473865112933822,29.500767815520877,117.64709236063364,107.6020169004309,-0.0091950893402099,0.0923885703086853,0,0,0
9899,343355.4505241804,2010-11-20 11:08:07,3216.094940530401,7,30,-1.0997490882873535,2.699943780899048,29.473865112933822,29.5041422812,117.64709236063364,107.61138319022707,-0.0111053464934229,0.0923885703086853,0,0,0
9900,343415.45168130915,2010-11-20 11:09:07,60.01516908012693,8,30,0.0,3.30183482170105,29.473865112933822,29.5041422812,117.64709236063364,107.61138319022707,0.0012627125252038,0.0923885703086853,0,0,0
9901,343415.6251724459,2010-11-20 11:09:08,0.186910803120096,9,30,-1.9243103452026844e-05,3.30199670791626,29.473865112933822,29.50414228120001,117.64709236063364,107.61138319022712,0.0,0.0923885703086853,0,0,0
9902,343420.4538104091,2010-11-20 11:09:12,5.015548796418753,9,30,0.0008838032954372,3.309605360031128,29.47386589864656,29.504142282285823,117.64709495855767,107.61138319381249,0.0010684489971026,0.0923885703086853,0,0,0
