Data_Point,Test_Time(s),Date_Time,Step_Time(s),Step_Index,Cycle_Index,Current(A),Voltage(V),Charge_Capacity(Ah),Discharge_Capacity(Ah),Charge_Energy(Wh),Discharge_Energy(Wh),dV/dt(V/s),Internal_Resistance(Ohm),Is_FC_Data,AC_Impedance(Ohm),ACI_Phase_Angle(Deg)
4681,161779.42835927906,2010-11-18 08:41:33,30.01529099907076,1,15,0.0,3.367236614227295,13.90486723658943,13.93511188580854,55.46767935381769,50.92742589701975,0.0007122993702068,0.0948198437690734,0,0,0
4682,161809.44370613756,2010-11-18 08:42:03,60.030637882637805,1,15,0.0,3.3892531394958496,13.90486723658943,13.93511188580854,55.46767935381769,50.92742589701975,0.0004532813909463,0.0948198437690734,0,0,0
4683,161839.45894853031,2010-11-18 08:42:33,90.04588026034216,1,15,0.0,3.4057655334472656,13.90486723658943,13.93511188580854,55.46767935381769,50.92742589701975,0.0003885269106831,0.0948198437690734,0,0,0
4684,161869.4274895392,2010-11-18 08:43:03,120.01442126423264,1,15,0.0,3.4190402030944824,13.90486723658943,13.93511188580854,55.46767935381769,50.92742589701975,0.0003237724304199,0.0948198437690734,0,0,0
4685,161899.44858166733,2010-11-18 08:43:33,30.015269219706116,2,15,0.550297200679779,3.583030462265014,13.909454077620138,13.93511188580854,55.48394441306438,50.92742589701975,0.0016836166614666,0.0948198437690734,0,0,0
4686,161929.4640654476,2010-11-18 08:44:03,60.030753010013456,2,15,0.5499359965324402,3.6330530643463135,13.914040993701342,13.93511188580854,55.50050178330608,50.92742589701975,0.0011008263099938,0.0948198437690734,0,0,0
4687,161959.47919089845,2010-11-18 08:44:33,90.04587845082533,2,15,0.550297200679779,3.669801235198975,13.918627830567408,13.93511188580854,55.51725427184084,50.92742589701975,0.0009065627818927,0.0948198437690734,0,0,0
4688,161989.49447546646,2010-11-18 08:45:03,120.06116301383068,2,15,0.550297200679779,3.698454856872559,13.923214690706816,13.93511188580854,55.53415467079648,50.92742589701975,0.0007446765666827,0.0948198437690734,0,0,0
4689,162019.50975471118,2010-11-18 08:45:33,150.0764422585608,2,15,0.5501165986061096,3.721766471862793,13.927801486612935,13.93511188580854,55.55117361048141,50.92742589701975,0.0005827903514727,0.0948198437690734,0,0,0
4690,162049.52506188062,2010-11-18 08:46:03,180.09174943300778,2,15,0.5501165986061096,3.7413547039031982,13.93238832131143,13.93511188580854,55.56829089563992,50.92742589701975,0.0004856586456298,0.0948198437690734,0,0,0
4691,162079.54034519554,2010-11-18 08:46:33,210.1070327428851,2,15,0.5501165986061096,3.757057428359986,13.936975070019244,13.93511188580854,55.58548907878377,50.92742589701975,0.0003561496851034,0.0948198437690734,0,0,0
4692,162109.55565733236,2010-11-18 08:47:03,240.12234487971892,2,15,0.5501165986061096,3.7682275772094727,13.941561830886734,13.93511188580854,55.60274948284215,50.92742589701975,0.0002590179501567,0.0948198437690734,0,0,0
4693,162139.5710630578,2010-11-18 08:47:33,270.1377506151894,2,15,0.5499359965324402,3.775026798248291,13.946148637632175,13.93511188580854,55.62005042297522,50.92742589701975,0.0001618862152099,0.0948198437690734,0,0,0
4694,162169.58638170589,2010-11-18 08:48:03,300.1530692532514,2,15,0.550297200679779,3.77972149848938,13.950735418311528,13.93511188580854,55.6373766158653,50.92742589701975,0.0001295089750783,0.0948198437690734,0,0,0
4695,162199.60165685037,2010-11-18 08:48:33,330.1683444177967,2,15,0.5499359965324402,3.783444881439209,13.955322206968177,13.93511188580854,55.65472196455489,50.92742589701975,6.47544875391759e-05,0.0948198437690734,0,0,0
4696,162229.61685014053,2010-11-18 08:49:03,360.183537697946,2,15,0.5501165986061096,3.787168264389038,13.959908925114602,13.93511188580854,55.672084214682044,50.92742589701975,6.47544875391759e-05,0.0948198437690734,0,0,0
4697,162259.6321250595,2010-11-18 08:49:33,390.19881260685327,2,15,0.5501165986061096,3.790729761123657,13.964495700144608,13.93511188580854,55.68946308607802,50.92742589701975,9.713172767078504e-05,0.0948198437690734,0,0,0
4698,162289.6473985348,2010-11-18 08:50:03,420.2140860871946,2,15,0.5501165986061096,3.793967485427856,13.969082523708892,13.93511188580854,55.70685778581996,50.92742589701975,6.47544875391759e-05,0.0948198437690734,0,0,0
4699,162319.6629044253,2010-11-18 08:50:33,450.2295920979676,2,15,0.5501165986061096,3.7973670959472656,13.973669387874995,13.93511188580854,55.72426791269955,50.92742589701975,9.713172767078504e-05,0.0948198437690734,0,0,0
4700,162349.6781005275,2010-11-18 08:51:03,480.2447881049234,2,15,0.550297200679779,3.800604820251465,13.978256106270972,13.93511188580854,55.74169232467422,50.92742589701975,0.0001295089750783,0.0948198437690734,0,0,0
4701,162379.69334760192,2010-11-18 08:51:33,510.2600351693265,2,15,0.550297200679779,3.803680658340454,13.982842956802289,13.93511188580854,55.75913182162758,50.92742589701975,6.47544875391759e-05,0.0948198437690734,0,0,0
4702,162409.70858365385,2010-11-18 08:52:03,540.2752712112157,2,15,0.550297200679779,3.8067564964294434,13.987429787749008,13.93511188580854,55.77658543633061,50.92742589701975,0.0001295089750783,0.0948198437690734,0,0,0
4703,162439.7239093495,2010-11-18 08:52:33,570.2905968968695,2,15,0.5501165986061096,3.809670448303223,13.992016666208468,13.93511188580854,55.79405320692145,50.92742589701975,6.47544875391759e-05,0.0948198437690734,0,0,0
4704,162469.7393384433,2010-11-18 08:53:03,600.306026010696,2,15,0.550297200679779,3.812746286392212,13.996603550578024,13.93511188580854,55.81153475006791,50.92742589701975,0.0001295089750783,0.0948198437690734,0,0,0
4705,162499.75445733272,2010-11-18 08:53:33,630.3211448851171,2,15,0.5501165986061096,3.815822124481201,14.00119034382913,13.93511188580854,55.82902984906673,50.92742589701975,9.713172767078504e-05,0.0948198437690734,0,0,0
4706,162529.7700253834,2010-11-18 08:54:03,660.3367129407637,2,15,0.5501165986061096,3.818736076354981,14.005777195425344,13.93511188580854,55.84653869094719,50.92742589701975,9.713172767078504e-05,0.0948198437690734,0,0,0
4707,162559.7850467945,2010-11-18 08:54:33,690.351734346889,2,15,0.5501165986061096,3.82165002822876,14.010363981517893,13.93511188580854,55.86406093726938,50.92742589701975,6.47544875391759e-05,0.0948198437690734,0,0,0
4708,162589.80049306617,2010-11-18 08:55:03,720.367180618544,2,15,0.5501165986061096,3.824725866317749,14.014950736405694,13.93511188580854,55.881596825468016,50.92742589701975,9.713172767078504e-05,0.0948198437690734,0,0,0
4709,162619.81563091796,2010-11-18 08:55:33,750.382318475348,2,15,0.5501165986061096,3.827963590621948,14.019537506417397,13.93511188580854,55.89914686777448,50.92742589701975,0.0001295089750783,0.0948198437690734,0,0,0
4710,162649.83092352105,2010-11-18 08:56:03,780.3976110784228,2,15,0.5501165986061096,3.8310394287109375,14.024124271039572,13.93511188580854,55.91671138198292,50.92742589701975,6.47544875391759e-05,0.0948198437690734,0,0,0
4711,162679.8462168309,2010-11-18 08:56:33,810.4129043782364,2,15,0.5501165986061096,3.8342769145965576,14.028711047343831,13.93511188580854,55.93429071091092,50.92742589701975,6.47544875391759e-05,0.0948198437690734,0,0,0
4712,162709.8645052369,2010-11-18 08:57:03,840.4311928243964,2,15,0.5501165986061096,3.837514638900757,14.033298309434889,13.93511188580854,55.95188709233226,50.92742589701975,9.713172767078504e-05,0.0948198437690734,0,0,0
4713,162739.87683518475,2010-11-18 08:57:33,870.44352273714,2,15,0.5499359965324402,3.840914249420166,14.037884648275371,13.93511188580854,55.96949519449424,50.92742589701975,9.713172767078504e-05,0.0948198437690734,0,0,0
4714,162769.89212723146,2010-11-18 08:58:03,900.4588147788132,2,15,0.5501165986061096,3.844313859939575,14.0424714637849,13.93511188580854,55.98712046689003,50.92742589701975,9.713172767078504e-05,0.0948198437690734,0,0,0
4715,162799.90742785454,2010-11-18 08:58:33,930.4741154269695,2,15,0.5501165986061096,3.8475515842437744,14.047058289493892,13.93511188580854,56.004761068459125,50.92742589701975,6.47544875391759e-05,0.0948198437690734,0,0,0
4716,162829.92272932976,2010-11-18 08:59:03,960.4894168821404,2,15,0.5501165986061096,3.8507893085479736,14.05164508754639,13.93511188580854,56.02241664561891,50.92742589701975,9.713172767078504e-05,0.0948198437690734,0,0,0
4717,162859.93799022867,2010-11-18 08:59:33,990.504677776064,2,15,0.5501165986061096,3.854027032852173,14.05623194285767,13.93511188580854,56.0400873726311,50.92742589701975,6.47544875391759e-05,0.0948198437690734,0,0,0
4718,162889.95328547337,2010-11-18 09:00:03,1020.519973025745,2,15,0.5499359965324402,3.857102870941162,14.060818723552224,13.93511188580854,56.05777258501124,50.92742589701975,3.237724376958795e-05,0.0948198437690734,0,0,0
4719,162919.96857226692,2010-11-18 09:00:33,1050.5352598193183,2,15,0.5499359965324402,3.860340595245361,14.065405582841064,13.93511188580854,56.075472609392826,50.92742589701975,6.47544875391759e-05,0.0948198437690734,0,0,0
4720,162949.98389065938,2010-11-18 09:01:03,1080.5505782067546,2,15,0.5501165986061096,3.863416433334351,14.069992427307742,13.93511188580854,56.09318673826855,50.92742589701975,6.47544875391759e-05,0.0948198437690734,0,0,0
4721,162979.99921577863,2010-11-18 09:01:33,1110.5659033310071,2,15,0.5501165986061096,3.86616849899292,14.07457920542052,13.93511188580854,56.11091427835914,50.92742589701975,6.47544875391759e-05,0.0948198437690734,0,0,0
4722,163010.0144721663,2010-11-18 09:02:03,1140.5811597287077,2,15,0.550297200679779,3.869244337081909,14.079166365891084,13.93511188580854,56.12865670030501,50.92742589701975,6.47544875391759e-05,0.0948198437690734,0,0,0
4723,163040.02988470375,2010-11-18 09:02:33,1170.5965722611445,2,15,0.550297200679779,3.872158288955689,14.083753900294896,13.93511188580854,56.14641340216987,50.92742589701975,6.47544875391759e-05,0.0948198437690734,0,0,0
4724,163070.04506136742,2010-11-18 09:03:03,1200.6117489248163,2,15,0.550297200679779,3.874586582183838,14.088341385815022,13.93511188580854,56.164182192383066,50.92742589701975,6.47544875391759e-05,0.0948198437690734,0,0,0
4725,163100.0603470432,2010-11-18 09:03:33,1230.6270346005992,2,15,0.5501165986061096,3.8770148754119873,14.092928869098497,13.93511188580854,56.18196272335673,50.92742589701975,3.237724376958795e-05,0.0948198437690734,0,0,0
4726,163130.0756425786,2010-11-18 09:04:03,1260.6423301560435,2,15,0.5499359965324402,3.8794431686401367,14.09751602325473,13.93511188580854,56.19975312747603,50.92742589701975,3.237724376958795e-05,0.0948198437690734,0,0,0
4727,163160.09096785827,2010-11-18 09:04:33,1290.6576554156336,2,15,0.550297200679779,3.881871461868286,14.102102767948674,13.93511188580854,56.21755237493191,50.92742589701975,9.713172767078504e-05,0.0948198437690734,0,0,0
4728,163190.1062566067,2010-11-18 09:05:03,1320.6729441540613,2,15,0.5501165986061096,3.8838140964508057,14.106689532115473,13.93511188580854,56.23536157603627,50.92742589701975,3.237724376958795e-05,0.0948198437690734,0,0,0
4729,163220.12158198658,2010-11-18 09:05:33,1350.6882695590143,2,15,0.5501165986061096,3.885756731033325,14.11127628200771,13.93511188580854,56.25317977773799,50.92742589701975,6.47544875391759e-05,0.0948198437690734,0,0,0
4730,163250.1368164345,2010-11-18 09:06:03,1380.7035039718376,2,15,0.5501165986061096,3.8875374794006343,14.115863046571604,13.93511188580854,56.27100653739003,50.92742589701975,9.713172767078504e-05,0.0948198437690734,0,0,0
4731,163280.15235913685,2010-11-18 09:06:33,1410.7190466942484,2,15,0.5501165986061096,3.888994455337525,14.120449885352906,13.93511188580854,56.28884156352364,50.92742589701975,3.237724376958795e-05,0.0948198437690734,0,0,0
4732,163310.16742226714,2010-11-18 09:07:03,1440.7341098144989,2,15,0.5501165986061096,3.890613317489624,14.12503666710345,13.93511188580854,56.306683720651385,50.92742589701975,0.0,0.0948198437690734,0,0,0
4733,163340.182703567,2010-11-18 09:07:33,1470.749391139421,2,15,0.5501165986061096,3.892232179641724,14.129623441292836,13.93511188580854,56.32453283256954,50.92742589701975,6.47544875391759e-05,0.0948198437690734,0,0,0
4734,163370.19812277108,2010-11-18 09:08:04,1500.764810328474,2,15,0.5501165986061096,3.8935272693634033,14.134210248231652,13.93511188580854,56.342388643739056,50.92742589701975,3.237724376958795e-05,0.0948198437690734,0,0,0
4735,163400.213415715,2010-11-18 09:08:34,1530.7801032924492,2,15,0.5501165986061096,3.894822359085083,14.138797094094844,13.93511188580854,56.360250931300605,50.92742589701975,3.237724376958795e-05,0.0948198437690734,0,0,0
4736,163430.22861400768,2010-11-18 09:09:04,1560.795301580098,2,15,0.5499359965324402,3.8961174488067623,14.143383155711645,13.93511188580854,56.37811553858634,50.92742589701975,3.237724376958795e-05,0.0948198437690734,0,0,0
4737,163460.24388057576,2010-11-18 09:09:34,1590.8105681281354,2,15,0.5499359965324402,3.897250652313232,14.147969058223566,13.93511188580854,56.395985652842256,50.92742589701975,0.0,0.0948198437690734,0,0,0
4738,163490.25919269255,2010-11-18 09:10:04,1620.825880274994,2,15,0.5501165986061096,3.898707628250122,14.152555595521823,13.93511188580854,56.41386412467124,50.92742589701975,6.47544875391759e-05,0.0948198437690734,0,0,0
4739,163520.27448891464,2010-11-18 09:10:34,1650.84117647204,2,15,0.5501165986061096,3.899840831756592,14.157142373210569,13.93511188580854,56.43174938674762,50.92742589701975,0.0,0.0948198437690734,0,0,0
4740,163550.2897976129,2010-11-18 09:11:04,1680.856485195353,2,15,0.5501165986061096,3.901135921478272,14.161729122657766,13.93511188580854,56.449640099033886,50.92742589701975,3.237724376958795e-05,0.0948198437690734,0,0,0
4741,163580.3050780105,2010-11-18 09:11:34,1710.8717655678984,2,15,0.550297200679779,3.902431011199951,14.166315884082248,13.93511188580854,56.46753655577221,50.92742589701975,3.237724376958795e-05,0.0948198437690734,0,0,0
4742,163610.32050353035,2010-11-18 09:12:04,1740.8871910877538,2,15,0.5501165986061096,3.903564214706421,14.170902672877956,13.93511188580854,56.485438747583,50.92742589701975,0.0,0.0948198437690734,0,0,0
4743,163640.33571220897,2010-11-18 09:12:34,1770.90239978639,2,15,0.5501165986061096,3.9048593044281006,14.175489459757967,13.93511188580854,56.50334670369323,50.92742589701975,0.0,0.0948198437690734,0,0,0
4744,163670.35119010956,2010-11-18 09:13:04,1800.9178776669455,2,15,0.5501165986061096,3.90615439414978,14.180076269839912,13.93511188580854,56.521260332108575,50.92742589701975,3.237724376958795e-05,0.0948198437690734,0,0,0
4745,163700.36626940017,2010-11-18 09:13:34,1830.932956957559,2,15,0.5499359965324402,3.90728759765625,14.18466298463397,13.93511188580854,56.53917937350346,50.92742589701975,3.237724376958795e-05,0.0948198437690734,0,0,0
4746,163730.38154334167,2010-11-18 09:14:04,1860.9482309241143,2,15,0.5501165986061096,3.9085826873779297,14.189249752823622,13.93511188580854,56.55710440456789,50.92742589701975,3.237724376958795e-05,0.0948198437690734,0,0,0
4747,163760.3968463507,2010-11-18 09:14:34,1890.9635339381764,2,15,0.550297200679779,3.9100396633148193,14.19383650094084,13.93511188580854,56.57503522049387,50.92742589701975,6.47544875391759e-05,0.0948198437690734,0,0,0
4748,163790.4121429738,2010-11-18 09:15:04,1920.9788305612856,2,15,0.5501165986061096,3.911172866821289,14.198423345914328,13.93511188580854,56.592972227994174,50.92742589701975,0.0,0.0948198437690734,0,0,0
4749,163820.42744227362,2010-11-18 09:15:34,1950.994129856064,2,15,0.5501165986061096,3.912306070327759,14.203010187724155,13.93511188580854,56.61091511994441,50.92742589701975,0.0,0.0948198437690734,0,0,0
4750,163850.44286298647,2010-11-18 09:16:04,1981.0095505438576,2,15,0.550297200679779,3.9139246940612793,14.207596990544914,13.93511188580854,56.62886380813413,50.92742589701975,6.470680091297254e-05,0.0948198437690734,0,0,0
4751,163880.45801178057,2010-11-18 09:16:34,2011.0246993530004,2,15,0.550297200679779,3.915219783782959,14.212183710382453,13.93511188580854,56.64681821305322,50.92742589701975,6.47544875391759e-05,0.0948198437690734,0,0,0
4752,163910.47331847882,2010-11-18 09:17:04,2041.0400060612835,2,15,0.5501165986061096,3.9163529872894287,14.216770496538556,13.93511188580854,56.664778781338114,50.92742589701975,3.237724376958795e-05,0.0948198437690734,0,0,0
4753,163940.4885987762,2010-11-18 09:17:34,2071.0552863586413,2,15,0.5501165986061096,3.917648077011109,14.22135717103044,13.93511188580854,56.68274509663525,50.92742589701975,3.237724376958795e-05,0.0948198437690734,0,0,0
4754,163970.50388909856,2010-11-18 09:18:04,2101.070576660973,2,15,0.5501165986061096,3.919105052947998,14.225943885407942,13.93511188580854,56.70071772265252,50.92742589701975,3.237724376958795e-05,0.0948198437690734,0,0,0
4755,164000.51918659886,2010-11-18 09:18:34,2131.0858741562597,2,15,0.5501165986061096,3.9204001426696777,14.230530603935945,13.93511188580854,56.71869657434967,50.92742589701975,3.237724376958795e-05,0.0948198437690734,0,0,0
4756,164030.5344982094,2010-11-18 09:19:04,2161.1011857667795,2,15,0.5501165986061096,3.921857118606568,14.235117399695202,13.93511188580854,56.73668194198165,50.92742589701975,3.237724376958795e-05,0.0948198437690734,0,0,0
4757,164060.5497861007,2010-11-18 09:19:34,2191.116473683155,2,15,0.5499359965324402,3.923152208328247,14.239704159009218,13.93511188580854,56.754673500438415,50.92742589701975,0.0,0.0948198437690734,0,0,0
4758,164090.56506042313,2010-11-18 09:20:04,2221.131748005598,2,15,0.5501165986061096,3.9246091842651367,14.24429085556916,13.93511188580854,56.7726711587272,50.92742589701975,0.0,0.0948198437690734,0,0,0
4759,164120.58035953747,2010-11-18 09:20:34,2251.147047094864,2,15,0.5501165986061096,3.925904273986816,14.248877655859804,13.93511188580854,56.79067571755087,50.92742589701975,0.0,0.0948198437690734,0,0,0
4760,164150.5956638949,2010-11-18 09:21:04,2281.162351482354,2,15,0.5501165986061096,3.927523136138916,14.253464403278633,13.93511188580854,56.808686393665184,50.92742589701975,6.47544875391759e-05,0.0948198437690734,0,0,0
4761,164180.61096153554,2010-11-18 09:21:34,2311.1776491179908,2,15,0.5501165986061096,3.928818225860596,14.258051165162072,13.93511188580854,56.82670374411384,50.92742589701975,6.47544875391759e-05,0.0948198437690734,0,0,0
4762,164210.6262564945,2010-11-18 09:22:04,2341.192944076946,2,15,0.550297200679779,3.930275201797485,14.262637910977896,13.93511188580854,56.8447276505652,50.92742589701975,3.237724376958795e-05,0.0948198437690734,0,0,0
4763,164240.64177540745,2010-11-18 09:22:34,2371.208462964862,2,15,0.550297200679779,3.931732177734375,14.2672247510173,13.93511188580854,56.86275856546512,50.92742589701975,3.237724376958795e-05,0.0948198437690734,0,0,0
4764,164270.6568424976,2010-11-18 09:23:04,2401.223530080085,2,15,0.5501165986061096,3.9333510398864746,14.271811494565322,13.93511188580854,56.880795842530034,50.92742589701975,6.47544875391759e-05,0.0948198437690734,0,0,0
4765,164300.6721096672,2010-11-18 09:23:34,2431.238797254686,2,15,0.5501165986061096,3.9346461296081534,14.276398272167391,13.93511188580854,56.898840013436,50.92742589701975,3.237724376958795e-05,0.0948198437690734,0,0,0
4766,164330.68752985875,2010-11-18 09:24:04,2461.2542174412283,2,15,0.5501165986061096,3.936103105545044,14.28098509191272,13.93511188580854,56.91689122822915,50.92742589701975,0.0,0.0948198437690734,0,0,0
4767,164360.70261000653,2010-11-18 09:24:34,2491.2692975889818,2,15,0.5501165986061096,3.937721967697144,14.28557179542493,13.93511188580854,56.9349486914886,50.92742589701975,6.47544875391759e-05,0.0948198437690734,0,0,0
4768,164390.71800666433,2010-11-18 09:25:04,2521.28469422173,2,15,0.5501165986061096,3.939340829849243,14.29015856531019,13.93511188580854,56.95301354487566,50.92742589701975,6.47544875391759e-05,0.0948198437690734,0,0,0
4769,164420.7332639242,2010-11-18 09:25:34,2551.299951481583,2,15,0.5501165986061096,3.940635919570923,14.294745292786995,13.93511188580854,56.9710852427646,50.92742589701975,0.0,0.0948198437690734,0,0,0
4770,164450.74887376916,2010-11-18 09:26:04,2581.3155613315544,2,15,0.550297200679779,3.942416667938232,14.299332009595988,13.93511188580854,56.98916391170093,50.92742589701975,3.237724376958795e-05,0.0948198437690734,0,0,0
4771,164480.7639129396,2010-11-18 09:26:34,2611.3306005220725,2,15,0.5501165986061096,3.943711757659912,14.303918651179048,13.93511188580854,57.00724947697135,50.92742589701975,0.0,0.0948198437690734,0,0,0
4772,164510.77921065546,2010-11-18 09:27:04,2641.345898217859,2,15,0.5501165986061096,3.945330619812012,14.308505299734833,13.93511188580854,57.02534218761035,50.92742589701975,0.0,0.0948198437690734,0,0,0
4773,164540.79447822605,2010-11-18 09:27:34,2671.3611657834367,2,15,0.5499359965324402,3.9469494819641113,14.313091993148332,13.93511188580854,57.04344230445405,50.92742589701975,6.47544875391759e-05,0.0948198437690734,0,0,0
4774,164570.8098963725,2010-11-18 09:28:04,2701.376583939911,2,15,0.5499359965324402,3.948730230331421,14.317678630514818,13.93511188580854,57.06154939290228,50.92742589701975,6.47544875391759e-05,0.0948198437690734,0,0,0
4775,164600.82506388833,2010-11-18 09:28:34,2731.3917514507366,2,15,0.5501165986061096,3.950187206268311,14.322265190831663,13.93511188580854,57.07966347345364,50.92742589701975,6.47544875391759e-05,0.0948198437690734,0,0,0
4776,164630.8433803795,2010-11-18 09:29:04,2761.410067966964,2,15,0.5501165986061096,3.95180606842041,14.326852257740066,13.93511188580854,57.09778697760324,50.92742589701975,6.47544875391759e-05,0.0948198437690734,0,0,0
4777,164660.85567143024,2010-11-18 09:29:34,2791.4223590126894,2,15,0.5501165986061096,3.9534249305725098,14.331438501282532,13.93511188580854,57.11591466112756,50.92742589701975,3.237724376958795e-05,0.0948198437690734,0,0,0
4778,164690.87096346688,2010-11-18 09:30:04,2821.43765104935,2,15,0.550297200679779,3.95504379272461,14.336025202822654,13.93511188580854,57.13405166348338,50.92742589701975,3.237724376958795e-05,0.0948198437690734,0,0,0
4779,164720.88622938836,2010-11-18 09:30:34,2851.4529169708235,2,15,0.5501165986061096,3.956662654876709,14.340611830329085,13.93511188580854,57.152195967707,50.92742589701975,3.237724376958795e-05,0.0948198437690734,0,0,0
4780,164750.90154111417,2010-11-18 09:31:04,2881.4682286966317,2,15,0.5501165986061096,3.9584434032440186,14.345198517017996,13.93511188580854,57.170348050585645,50.92742589701975,6.47544875391759e-05,0.0948198437690734,0,0,0
4781,164780.91681844412,2010-11-18 09:31:34,2911.483506001519,2,15,0.5501165986061096,3.960224151611328,14.34978521180822,13.93511188580854,57.18850787443762,50.92742589701975,6.47544875391759e-05,0.0948198437690734,0,0,0
4782,164810.93211920257,2010-11-18 09:32:04,2941.4988067850136,2,15,0.5501165986061096,3.961843013763428,14.354371880940542,13.93511188580854,57.2066753855428,50.92742589701975,6.47544875391759e-05,0.0948198437690734,0,0,0
4783,164840.94740181067,2010-11-18 09:32:34,2971.514089393139,2,15,0.5501165986061096,3.9634618759155273,14.358958554672014,13.93511188580854,57.22485067158117,50.92742589701975,3.237724376958795e-05,0.0948198437690734,0,0,0
4784,164870.96270791243,2010-11-18 09:33:04,3001.529395499921,2,15,0.5501165986061096,3.965242624282837,14.36354521681298,13.93511188580854,57.24303379400672,50.92742589701975,6.47544875391759e-05,0.0948198437690734,0,0,0
4785,164900.97811359278,2010-11-18 09:33:34,3031.544801175241,2,15,0.550297200679779,3.9670233726501465,14.368131967798014,13.93511188580854,57.261225225376286,50.92742589701975,6.47544875391759e-05,0.0948198437690734,0,0,0
4786,164930.99328976523,2010-11-18 09:34:04,3061.559977347687,2,15,0.5501165986061096,3.968642234802246,14.372718651830509,13.93511188580854,57.2794242463825,50.92742589701975,6.47544875391759e-05,0.0948198437690734,0,0,0
4787,164961.0086920972,2010-11-18 09:34:34,3091.575379659612,2,15,0.5501165986061096,3.9702610969543457,14.377305400420378,13.93511188580854,57.29763165465365,50.92742589701975,3.237724376958795e-05,0.0948198437690734,0,0,0
4788,164991.02400416386,2010-11-18 09:35:04,3121.5906917162456,2,15,0.5501165986061096,3.972203731536865,14.38189216443371,13.93511188580854,57.31584729868466,50.92742589701975,3.237724376958795e-05,0.0948198437690734,0,0,0
4789,165021.0392165818,2010-11-18 09:35:34,3151.605904169253,2,15,0.5501165986061096,3.973984479904175,14.38647887805756,13.93511188580854,57.33407087274371,50.92742589701975,3.237724376958795e-05,0.0948198437690734,0,0,0
4790,165051.05466553514,2010-11-18 09:36:04,3181.621353092527,2,15,0.550297200679779,3.975765228271485,14.391065649885286,13.93511188580854,57.35230292650917,50.92742589701975,3.237724376958795e-05,0.0948198437690734,0,0,0
4791,165081.06974875554,2010-11-18 09:36:34,3211.63643631295,2,15,0.5501165986061096,3.977707862854004,14.395652430598904,13.93511188580854,57.37054345092366,50.92742589701975,9.713172767078504e-05,0.0948198437690734,0,0,0
4792,165111.08506112295,2010-11-18 09:37:04,3241.65174870041,2,15,0.5501165986061096,3.9794886112213135,14.400239051889214,13.93511188580854,57.38879142435666,50.92742589701975,0.0,0.0948198437690734,0,0,0
4793,165141.10035391152,2010-11-18 09:37:34,3271.6670414688974,2,15,0.5501165986061096,3.981431245803833,14.404825706920716,13.93511188580854,57.40704857070414,50.92742589701975,6.47544875391759e-05,0.0948198437690734,0,0,0
4794,165171.11564540182,2010-11-18 09:38:04,3301.682332984257,2,15,0.5501165986061096,3.983373880386353,14.409412325751108,13.93511188580854,57.42531422724771,50.92742589701975,6.47544875391759e-05,0.0948198437690734,0,0,0
4795,165201.13107815973,2010-11-18 09:38:34,3331.697765737167,2,15,0.5501165986061096,3.985154628753662,14.413998961519772,13.93511188580854,57.44358873974287,50.92742589701975,3.237724376958795e-05,0.0948198437690734,0,0,0
4796,165231.1462259313,2010-11-18 09:39:04,3361.712913518745,2,15,0.550297200679779,3.9870972633361816,14.418585499231131,13.93511188580854,57.46187177364988,50.92742589701975,0.0,0.0948198437690734,0,0,0
4797,165261.1615022587,2010-11-18 09:39:34,3391.7281898161177,2,15,0.5501165986061096,3.989201784133911,14.423172181820416,13.93511188580854,57.48016439798472,50.92742589701975,3.237724376958795e-05,0.0948198437690734,0,0,0
4798,165291.1768027966,2010-11-18 09:40:05,3421.7434903790618,2,15,0.550297200679779,3.9914681911468506,14.427758745090705,13.93511188580854,57.49846565557685,50.92742589701975,9.713172767078504e-05,0.0948198437690734,0,0,0
4799,165321.19210871292,2010-11-18 09:40:35,3451.758796295368,2,15,0.5499359965324402,3.99308705329895,14.432345275685035,13.93511188580854,57.51677605057549,50.92742589701975,0.0,0.0948198437690734,0,0,0
4800,165351.20739620322,2010-11-18 09:41:05,3481.774083760618,2,15,0.5501165986061096,3.9951913356781006,14.436931819726013,13.93511188580854,57.53509579559572,50.92742589701975,6.47544875391759e-05,0.0948198437690734,0,0,0
4801,165381.22267563845,2010-11-18 09:41:35,3511.7893632208857,2,15,0.5495747923851013,3.99729585647583,14.441518390948698,13.93511188580854,57.5534250892808,50.92742589701975,6.47544875391759e-05,0.0948198437690734,0,0,0
4802,165411.2379801011,2010-11-18 09:42:05,3541.8046676585013,2,15,0.5501165986061096,3.99940037727356,14.44610509056226,13.93511188580854,57.57176435029598,50.92742589701975,6.47544875391759e-05,0.0948198437690734,0,0,0
4803,165441.2532687042,2010-11-18 09:42:35,3571.8199562916666,2,15,0.5501165986061096,4.001343250274658,14.450691722169106,13.93511188580854,57.59011293835224,50.92742589701975,0.0,0.0948198437690734,0,0,0
4804,165471.2685701293,2010-11-18 09:43:05,3601.83525771175,2,15,0.5501165986061096,4.003609657287598,14.455278344261034,13.93511188580854,57.60847119896466,50.92742589701975,3.24249267578125e-05,0.0948198437690734,0,0,0
4805,165501.28385175997,2010-11-18 09:43:35,3631.8505393173727,2,15,0.5501165986061096,4.005876064300537,14.459865013242066,13.93511188580854,57.62683942146166,50.92742589701975,6.47544875391759e-05,0.0948198437690734,0,0,0
4806,165531.2991646938,2010-11-18 09:44:05,3661.8658522712462,2,15,0.5501165986061096,4.007980346679688,14.464451619634632,13.93511188580854,57.64521736976876,50.92742589701975,9.70840483205393e-05,0.0948198437690734,0,0,0
4807,165561.31456750698,2010-11-18 09:44:35,3691.8812550894354,2,15,0.5501165986061096,4.010085105895996,14.469038321705668,13.93511188580854,57.66360578025149,50.92742589701975,3.24249267578125e-05,0.0948198437690734,0,0,0
4808,165591.33015032447,2010-11-18 09:45:05,3721.896837881867,2,15,0.5501165986061096,4.012351512908936,14.473625026848536,13.93511188580854,57.68200433357746,50.92742589701975,6.47544875391759e-05,0.0948198437690734,0,0,0
4809,165621.34503814214,2010-11-18 09:45:35,3751.911725699535,2,15,0.5501165986061096,4.014617919921875,14.478211601880933,13.93511188580854,57.70041259376895,50.92742589701975,6.47544875391759e-05,0.0948198437690734,0,0,0
4810,165651.36044402298,2010-11-18 09:46:05,3781.927131590393,2,15,0.550297200679779,4.017045974731445,14.48279829426065,13.93511188580854,57.718831608306985,50.92742589701975,6.47544875391759e-05,0.0948198437690734,0,0,0
4811,165681.37561745857,2010-11-18 09:46:35,3811.9423050410446,2,15,0.5499359965324402,4.018988609313965,14.487384935872315,13.93511188580854,57.73726089334088,50.92742589701975,6.47544875391759e-05,0.0948198437690734,0,0,0
4812,165711.39092318944,2010-11-18 09:47:05,3841.957610771889,2,15,0.5501165986061096,4.021578788757324,14.491971609132753,13.93511188580854,57.75570073845544,50.92742589701975,6.47544875391759e-05,0.0948198437690734,0,0,0
4813,165741.40621773235,2010-11-18 09:47:35,3871.9729052897424,2,15,0.5499359965324402,4.023845195770264,14.496558211790632,13.93511188580854,57.7741509196868,50.92742589701975,6.47544875391759e-05,0.0948198437690734,0,0,0
4814,165771.4216961342,2010-11-18 09:48:05,3901.9883836916,2,15,0.550297200679779,4.026273727416992,14.501144898644506,13.93511188580854,57.7926121276009,50.92742589701975,9.71794142969884e-05,0.0948198437690734,0,0,0
4815,165801.43680146482,2010-11-18 09:48:35,3932.003489047276,2,15,0.550297200679779,4.028540134429932,14.505731526527082,13.93511188580854,57.81108387367957,50.92742589701975,6.47544875391759e-05,0.0948198437690734,0,0,0
4816,165831.4520960779,2010-11-18 09:49:05,3962.018783660368,2,15,0.5499359965324402,4.030806541442871,14.5103181855409,13.93511188580854,57.82956659030377,50.92742589701975,6.47544875391759e-05,0.0948198437690734,0,0,0
4817,165861.46739506192,2010-11-18 09:49:35,3992.034082649383,2,15,0.550297200679779,4.033234596252441,14.514904834490986,13.93511188580854,57.84806017524989,50.92742589701975,6.47544875391759e-05,0.0948198437690734,0,0,0
4818,165891.48267145953,2010-11-18 09:50:05,4022.0493590419937,2,15,0.5501165986061096,4.035662651062012,14.519491530785205,13.93511188580854,57.86656500784928,50.92742589701975,6.47544875391759e-05,0.0948198437690734,0,0,0
4819,165921.49796747114,2010-11-18 09:50:35,4052.0646550285137,2,15,0.5501165986061096,4.038252830505371,14.524078187719104,13.93511188580854,57.885080845996754,50.92742589701975,9.70840483205393e-05,0.0948198437690734,0,0,0
4820,165951.51328465555,2010-11-18 09:51:05,4082.0799722329966,2,15,0.5501165986061096,4.040519237518311,14.528664838106508,13.93511188580854,57.90360796605078,50.92742589701975,6.47544875391759e-05,0.0948198437690734,0,0,0
4821,165981.52855819103,2010-11-18 09:51:35,4112.095245778501,2,15,0.5501165986061096,4.04310941696167,14.533251433682628,13.93511188580854,57.922146208781925,50.92742589701975,9.70840483205393e-05,0.0948198437690734,0,0,0
4822,166011.5438550347,2010-11-18 09:52:05,4142.110542592085,2,15,0.5501165986061096,4.045699596405029,14.537838112352077,13.93511188580854,57.94069632436034,50.92742589701975,9.70840483205393e-05,0.0948198437690734,0,0,0
4823,166041.55914445483,2010-11-18 09:52:35,4172.125832037277,2,15,0.5501165986061096,4.048128128051758,14.54242469803718,13.93511188580854,57.9592576478444,50.92742589701975,6.47544875391759e-05,0.0948198437690734,0,0,0
4824,166071.57444739368,2010-11-18 09:53:05,4202.141134976152,2,15,0.5501165986061096,4.050556182861328,14.547011325059415,13.93511188580854,57.97783083551468,50.92742589701975,6.47544875391759e-05,0.0948198437690734,0,0,0
4825,166101.58973525494,2010-11-18 09:53:35,4232.156422842403,2,15,0.550297200679779,4.053470134735107,14.551597988576283,13.93511188580854,57.99641589212752,50.92742589701975,9.70840483205393e-05,0.0948198437690734,0,0,0
4826,166131.60501856983,2010-11-18 09:54:05,4262.17170615228,2,15,0.5501165986061096,4.055736541748047,14.556184675533109,13.93511188580854,58.015013013482815,50.92742589701975,3.23295607813634e-05,0.0948198437690734,0,0,0
4827,166161.6204741347,2010-11-18 09:54:35,4292.187161702094,2,15,0.550297200679779,4.058650493621826,14.560771398831232,13.93511188580854,58.03362229181223,50.92742589701975,9.70840483205393e-05,0.0948198437690734,0,0,0
4828,166191.6356428435,2010-11-18 09:55:05,4322.202330420935,2,15,0.5499359965324402,4.060916900634766,14.565358020383316,13.93511188580854,58.05224317144744,50.92742589701975,6.47544875391759e-05,0.0948198437690734,0,0,0
4829,166221.6508990407,2010-11-18 09:55:35,4352.2175866030975,2,15,0.550297200679779,4.063830852508545,14.569944511997198,13.93511188580854,58.07087548524808,50.92742589701975,9.70840483205393e-05,0.0948198437690734,0,0,0
4830,166251.66620100712,2010-11-18 09:56:05,4382.23288857957,2,15,0.5501165986061096,4.066583156585693,14.5745310278417,13.93511188580854,58.08952033097419,50.92742589701975,6.47544875391759e-05,0.0948198437690734,0,0,0
4831,166281.68149133952,2010-11-18 09:56:35,4412.248178916989,2,15,0.5501165986061096,4.069173336029053,14.579117544974991,13.93511188580854,58.10817771288356,50.92742589701975,3.24249267578125e-05,0.0948198437690734,0,0,0
4832,166311.69680577714,2010-11-18 09:57:05,4442.263493354565,2,15,0.5501165986061096,4.071925163269043,14.58370414651396,13.93511188580854,58.12684799990047,50.92742589701975,6.47544875391759e-05,0.0948198437690734,0,0,0
4833,166341.71210568846,2010-11-18 09:57:35,4472.278793260871,2,15,0.550297200679779,4.074839115142822,14.588290763243426,13.93511188580854,58.14553100946,50.92742589701975,6.47544875391759e-05,0.0948198437690734,0,0,0
4834,166371.72767913755,2010-11-18 09:58:05,4502.2943666999545,2,15,0.5499359965324402,4.077591419219971,14.592877410252171,13.93511188580854,58.16422696748235,50.92742589701975,9.71794142969884e-05,0.0948198437690734,0,0,0
4835,166401.7426727593,2010-11-18 09:58:35,4532.309360331751,2,15,0.5499359965324402,4.080343246459961,14.597463979578889,13.93511188580854,58.18293563653023,50.92742589701975,3.23295607813634e-05,0.0948198437690734,0,0,0
4836,166431.75805602872,2010-11-18 09:59:05,4562.32474361618,2,15,0.5501165986061096,4.08325719833374,14.602050678885035,13.93511188580854,58.20165782536279,50.92742589701975,6.47544875391759e-05,0.0948198437690734,0,0,0
4837,166461.77325927874,2010-11-18 09:59:35,4592.339946836141,2,15,0.5501165986061096,4.08617115020752,14.60663805721145,13.93511188580854,58.22039597513624,50.92742589701975,9.70840483205393e-05,0.0948198437690734,0,0,0
4838,166491.78852162627,2010-11-18 10:00:05,4622.355209208756,2,15,0.5501165986061096,4.089085102081299,14.611225455341255,13.93511188580854,58.23914760670552,50.92742589701975,6.47544875391759e-05,0.0948198437690734,0,0,0
4839,166521.80387712637,2010-11-18 10:00:35,4652.370564678756,2,15,0.5501165986061096,4.091999053955078,14.615812100697209,13.93511188580854,58.257909662770665,50.92742589701975,6.47544875391759e-05,0.0948198437690734,0,0,0
4840,166551.8221800988,2010-11-18 10:01:05,4682.388867671225,2,15,0.550297200679779,4.095236778259277,14.620399182017035,13.93511188580854,58.27668703235478,50.92742589701975,0.0001618385285837,0.0948198437690734,0,0,0
4841,166581.83452423202,2010-11-18 10:01:35,4712.401211834541,2,15,0.5501165986061096,4.098150730133057,14.624985336249672,13.93511188580854,58.29547432551047,50.92742589701975,9.70840483205393e-05,0.0948198437690734,0,0,0
4842,166611.84995266917,2010-11-18 10:02:05,4742.416640256641,2,15,0.5501165986061096,4.101064682006836,14.629571978110308,13.93511188580854,58.31427738470351,50.92742589701975,9.70840483205393e-05,0.0948198437690734,0,0,0
4843,166641.86506459123,2010-11-18 10:02:35,4772.43175214362,2,15,0.5501165986061096,4.103978633880615,14.634158599655104,13.93511188580854,58.33309420571307,50.92742589701975,6.47544875391759e-05,0.0948198437690734,0,0,0
4844,166671.8803714449,2010-11-18 10:03:05,4802.447058997266,2,15,0.5501165986061096,4.107216358184815,14.638745175188024,13.93511188580854,58.35192490437637,50.92742589701975,9.70840483205393e-05,0.0948198437690734,0,0,0
4845,166701.8956477172,2010-11-18 10:03:35,4832.462335274589,2,15,0.5501165986061096,4.110292434692383,14.643331753262553,13.93511188580854,58.37076972792052,50.92742589701975,9.71794142969884e-05,0.0948198437690734,0,0,0
4846,166731.91107116686,2010-11-18 10:04:05,4862.477758719265,2,15,0.550297200679779,4.113530158996582,14.647918386453314,13.93511188580854,58.38962907034536,50.92742589701975,0.0001295089750783,0.0948198437690734,0,0,0
4847,166761.92624419648,2010-11-18 10:04:35,4892.492931748865,2,15,0.5501165986061096,4.116443634033203,14.652505003914438,13.93511188580854,58.40850268743254,50.92742589701975,6.47544875391759e-05,0.0948198437690734,0,0,0
4848,166791.9415731102,2010-11-18 10:05:05,4922.508260657565,2,15,0.550297200679779,4.119519710540772,14.657091584121671,13.93511188580854,58.42739055202955,50.92742589701975,6.47544875391759e-05,0.0948198437690734,0,0,0
4849,166821.95695427933,2010-11-18 10:05:35,4952.523641851776,2,15,0.5501165986061096,4.122757434844971,14.661678205348474,13.93511188580854,58.446293151728185,50.92742589701975,6.47544875391759e-05,0.0948198437690734,0,0,0
4850,166851.97212338416,2010-11-18 10:06:05,4982.53881093653,2,15,0.550297200679779,4.126156806945801,14.666264739983498,13.93511188580854,58.46521007498756,50.92742589701975,9.70840483205393e-05,0.0948198437690734,0,0,0
4851,166881.98754679874,2010-11-18 10:06:35,5012.554234351131,2,15,0.5501165986061096,4.12939453125,14.670851384292758,13.93511188580854,58.48414232977714,50.92742589701975,9.70840483205393e-05,0.0948198437690734,0,0,0
4852,166912.00286019372,2010-11-18 10:07:05,5042.569547746105,2,15,0.5501165986061096,4.132470607757568,14.675437974717228,13.93511188580854,58.503089245778064,50.92742589701975,6.47544875391759e-05,0.0948198437690734,0,0,0
4853,166942.0180205968,2010-11-18 10:07:35,5072.584708154201,2,15,0.5499359965324402,4.135869979858398,14.680024599873622,13.93511188580854,58.52205132213651,50.92742589701975,9.70840483205393e-05,0.0948198437690734,0,0,0
4854,166972.0333366484,2010-11-18 10:08:05,5102.600024306056,2,15,0.5501165986061096,4.139269828796387,14.684611245472636,13.93511188580854,58.5410287938736,50.92742589701975,0.0001295089750783,0.0948198437690734,0,0,0
4855,167002.04861369767,2010-11-18 10:08:35,5132.615301280119,2,15,0.5501165986061096,4.142669200897217,14.689197827268789,13.93511188580854,58.56002129170672,50.92742589701975,0.0001295089750783,0.0948198437690734,0,0,0
4856,167032.06389946368,2010-11-18 10:09:05,5162.630587046127,2,15,0.5501165986061096,4.146069049835205,14.693784357242684,13.93511188580854,58.57902912433608,50.92742589701975,9.71794142969884e-05,0.0948198437690734,0,0,0
4857,167062.0792063073,2010-11-18 10:09:35,5192.645893879723,2,15,0.5501165986061096,4.149630546569824,14.69837084062141,13.93511188580854,58.59805253212521,50.92742589701975,0.0001295089750783,0.0948198437690734,0,0,0
4858,167092.09447912598,2010-11-18 10:10:05,5222.66116667335,2,15,0.5501165986061096,4.152706146240234,14.702957395441915,13.93511188580854,58.6170920017407,50.92742589701975,3.23295607813634e-05,0.0948198437690734,0,0,0
4859,167122.1099200894,2010-11-18 10:10:35,5252.676607656805,2,15,0.550297200679779,4.1562676429748535,14.707544020488546,13.93511188580854,58.63614751221035,50.92742589701975,6.47544875391759e-05,0.0948198437690734,0,0,0
4860,167152.12510588588,2010-11-18 10:11:05,5282.691793433224,2,15,0.5501165986061096,4.159829139709473,14.712130578198504,13.93511188580854,58.65521860774504,50.92742589701975,6.47544875391759e-05,0.0948198437690734,0,0,0
4861,167182.1404039175,2010-11-18 10:11:35,5312.707091469862,2,15,0.5501165986061096,4.163228988647461,14.716717164679276,13.93511188580854,58.67430593874892,50.92742589701975,6.47544875391759e-05,0.0948198437690734,0,0,0
4862,167212.1556991371,2010-11-18 10:12:06,5342.722386689467,2,15,0.5501165986061096,4.16679048538208,14.721303866366636,13.93511188580854,58.69340974325198,50.92742589701975,9.71794142969884e-05,0.0948198437690734,0,0,0
4863,167242.1710947172,2010-11-18 10:12:36,5372.737782274601,2,15,0.5501165986061096,4.17018985748291,14.725890432661147,13.93511188580854,58.71252914951214,50.92742589701975,6.47544875391759e-05,0.0948198437690734,0,0,0
4864,167272.18628587708,2010-11-18 10:13:06,5402.752973424433,2,15,0.5501165986061096,4.173913478851318,14.730477016812012,13.93511188580854,58.73166513492224,50.92742589701975,9.71794142969884e-05,0.0948198437690734,0,0,0
4865,167302.2015759839,2010-11-18 10:13:36,5432.768263531276,2,15,0.5501165986061096,4.1774749755859375,14.735063656573567,13.93511188580854,58.75081774316463,50.92742589701975,9.71794142969884e-05,0.0948198437690734,0,0,0
4866,167332.2168732937,2010-11-18 10:14:06,5462.783560866163,2,15,0.550297200679779,4.181198120117188,14.739650265227755,13.93511188580854,58.76998670861844,50.92742589701975,0.0001295089750783,0.0948198437690734,0,0,0
4867,167362.2323124426,2010-11-18 10:14:36,5492.798999989976,2,15,0.5499359965324402,4.184597969055176,14.744236936176364,13.93511188580854,58.78917251755212,50.92742589701975,6.47544875391759e-05,0.0948198437690734,0,0,0
4868,167392.24763924105,2010-11-18 10:15:06,5522.814326828507,2,15,0.550297200679779,4.188483238220215,14.748823511310956,13.93511188580854,58.80837468027581,50.92742589701975,9.71794142969884e-05,0.0948198437690734,0,0,0
4869,167422.2627936241,2010-11-18 10:15:36,5552.829481196525,2,15,0.5501165986061096,4.192206382751465,14.7534101371166,13.93511188580854,58.82759413500528,50.92742589701975,0.0001295089750783,0.0948198437690734,0,0,0
4870,167452.27808867325,2010-11-18 10:16:06,5582.844776225656,2,15,0.5499359965324402,4.195605754852295,14.757996795818356,13.93511188580854,58.846830638217625,50.92742589701975,3.23295607813634e-05,0.0948198437690734,0,0,0
4871,167482.2933396825,2010-11-18 10:16:36,5612.860027254956,2,15,0.5501165986061096,4.199653148651123,14.762583437972188,13.93511188580854,58.86608407379898,50.92742589701975,0.0001295089750783,0.0948198437690734,0,0,0
4872,167484.4651928672,2010-11-18 10:16:38,5615.031880444649,2,15,0.550297200679779,4.200138568878174,14.762915318926236,13.93511188580854,58.86747788746806,50.92742589701975,0.0001618385285837,0.0948198437690734,0,0,0
4873,167514.48590005946,2010-11-18 10:17:08,30.015416783046916,3,15,0.0,4.115148544311523,14.762915318926236,13.93511188580854,58.86747788746806,50.92742589701975,-0.0003885269106831,0.0948198437690734,0,0,0
4874,167544.50121080282,2010-11-18 10:17:38,60.03072751637742,3,15,0.0,4.104949951171875,14.762915318926236,13.93511188580854,58.86747788746806,50.92742589701975,-0.0002266883820993,0.0948198437690734,0,0,0
4875,167574.51639856418,2010-11-18 10:18:08,90.04591528276352,3,15,0.0,4.0987982749938965,14.762915318926236,13.93511188580854,58.86747788746806,50.92742589701975,-0.0001295089750783,0.0948198437690734,0,0,0
4876,167604.48481852093,2010-11-18 10:18:38,120.01433521443911,3,15,0.0,4.094913005828857,14.762915318926236,13.93511188580854,58.86747788746806,50.92742589701975,-6.47544875391759e-05,0.0948198437690734,0,0,0
4877,167604.49140133595,2010-11-18 10:18:38,2.756881601e-06,4,15,0.9908032417297364,4.199814796447754,14.762915319684994,13.93511188580854,58.86747789065471,50.92742589701975,0.0,0.0948198437690734,0,0,0
4878,167605.24137559708,2010-11-18 10:18:39,0.749977028043077,4,15,0.9398714303970336,4.199814796447754,14.76311456933565,13.93511188580854,58.86831467955318,50.92742589701975,0.0,0.0948198437690734,0,0,0
4879,167607.31947413075,2010-11-18 10:18:41,2.828075561690528,4,15,0.8894814252853394,4.199976921081543,14.76364128501775,13.93511188580854,58.87052675162656,50.92742589701975,3.24249267578125e-05,0.0948198437690734,0,0,0
4880,167610.49133443204,2010-11-18 10:18:44,5.999935873006081,4,15,0.8394526839256287,4.199653148651123,14.764401651154367,13.93511188580854,58.87372009417451,50.92742589701975,-3.23295607813634e-05,0.0948198437690734,0,0,0
4881,167614.9131331018,2010-11-18 10:18:49,10.421734532737489,4,15,0.7894238829612732,4.199814796447754,14.765400505191788,13.93511188580854,58.877915023882366,50.92742589701975,0.0,0.0948198437690734,0,0,0
4882,167620.6318686806,2010-11-18 10:18:54,16.140470131597716,4,15,0.7393951416015625,4.199653148651123,14.766613316250352,13.93511188580854,58.88300853944707,50.92742589701975,-3.23295607813634e-05,0.0948198437690734,0,0,0
4883,167628.17864965193,2010-11-18 10:19:02,23.687251112970458,4,15,0.689366340637207,4.199653148651123,14.768109108989272,13.93511188580854,58.889290508286365,50.92742589701975,-3.23295607813634e-05,0.0948198437690734,0,0,0
4884,167638.19415224728,2010-11-18 10:19:12,33.702753678219864,4,15,0.6393375992774963,4.199814796447754,14.769954481335988,13.93511188580854,58.89704063612847,50.92742589701975,0.0,0.0948198437690734,0,0,0
4885,167652.31897610065,2010-11-18 10:19:26,47.82757752659524,4,15,0.5893087983131409,4.199653148651123,14.772359243483285,13.93511188580854,58.90714007055282,50.92742589701975,-6.47544875391759e-05,0.0948198437690734,0,0,0
4886,167673.94374388794,2010-11-18 10:19:48,69.45234531889216,4,15,0.5392800569534302,4.199814796447754,14.775737837613462,13.93511188580854,58.921329376659614,50.92742589701975,0.0,0.0948198437690734,0,0,0
4887,167710.88084985205,2010-11-18 10:20:24,106.38945128301027,4,15,0.4892512857913971,4.199814796447754,14.780990964537786,13.93511188580854,58.9433912712546,50.92742589701975,0.0,0.0948198437690734,0,0,0
4888,167778.17700768527,2010-11-18 10:21:32,173.6856091112045,4,15,0.4390419125556946,4.199653148651123,14.789633397810332,13.93511188580854,58.97968747431814,50.92742589701975,0.0,0.0948198437690734,0,0,0
4889,167878.84801379938,2010-11-18 10:23:12,274.35661524035,4,15,0.388832539319992,4.199491024017334,14.801195296138676,13.93511188580854,59.028244672910525,50.92742589701975,-3.24249267578125e-05,0.0948198437690734,0,0,0
4890,168005.26827144672,2010-11-18 10:25:19,400.77687287267065,4,15,0.338803768157959,4.199814796447754,14.813958236122712,13.93511188580854,59.081846110186966,50.92742589701975,3.23295607813634e-05,0.0948198437690734,0,0,0
4891,168154.14175428852,2010-11-18 10:27:48,549.6503557244815,4,15,0.2887749969959259,4.199814796447754,14.826919546274707,13.93511188580854,59.13628071779488,50.92742589701975,0.0,0.0948198437690734,0,0,0
4892,168334.3897044175,2010-11-18 10:30:48,729.8983058484448,4,15,0.2387462258338928,4.199653148651123,14.840105389301876,13.93511188580854,59.19165825561755,50.92742589701975,-3.23295607813634e-05,0.0948198437690734,0,0,0
4893,168559.293533706,2010-11-18 10:34:33,954.802135136938,4,15,0.1887174546718597,4.199653148651123,14.853425698098835,13.93511188580854,59.24760040012198,50.92742589701975,-3.23295607813634e-05,0.0948198437690734,0,0,0
4894,168858.25904400938,2010-11-18 10:39:32,1253.7676454654118,4,15,0.1386886835098266,4.199814796447754,14.86694010078706,13.93511188580854,59.30435773370788,50.92742589701975,3.23295607813634e-05,0.0948198437690734,0,0,0
4895,169307.3324695628,2010-11-18 10:47:01,1702.8410709987622,4,15,0.0886599123477935,4.199653148651123,14.880899249417126,13.93511188580854,59.362982865375066,50.92742589701975,-3.23295607813634e-05,0.0948198437690734,0,0,0
4896,169928.27870809435,2010-11-18 10:57:22,2323.7873095303275,4,15,0.0498289167881011,4.199653148651123,14.892559997053995,13.93511188580854,59.411955188370136,50.92742589701975,0.0,0.0948198437690734,0,0,0
4897,169958.2946139849,2010-11-18 10:57:52,30.015395139020093,5,15,0.0,4.191882610321045,14.892559997053995,13.93511188580854,59.411955188370136,50.92742589701975,-3.24249267578125e-05,0.0948198437690734,0,0,0
4898,169988.294258939,2010-11-18 10:58:22,60.01504007310555,5,15,0.0,4.190911293029785,14.892559997053995,13.93511188580854,59.411955188370136,50.92742589701975,0.0,0.0948198437690734,0,0,0
4899,169988.47974851003,2010-11-18 10:58:22,0.184393835381394,6,15,-1.9243103452026844e-05,4.190749645233154,14.892559997053995,13.93511188679418,59.411955188370136,50.92742590115032,0.0,0.0940094217658042,0,0,0
4900,169993.30784704676,2010-11-18 10:58:27,5.012492372113468,6,15,0.0007031940040178,4.190911293029785,14.892560530394178,13.935111887044783,59.41195742349591,50.927425902200525,0.0,0.0940094217658042,0,0,0
4901,170023.32419913716,2010-11-18 10:58:57,30.015258808718684,7,15,-1.0997490882873535,4.017208099365234,14.892560530394178,13.94428157942176,59.41195742349591,50.96445327594412,-0.0008741378551349,0.0940094217658042,0,0,0
4902,170053.3396463311,2010-11-18 10:59:27,60.03070600768842,7,15,-1.099568486213684,3.991630077362061,14.892560530394178,13.953451055680718,59.41195742349591,51.001162749895485,-0.0005827426793985,0.0940094217658042,0,0,0
4903,170083.35479221292,2010-11-18 10:59:57,90.04585188952423,7,15,-1.099568486213684,3.9741463661193848,14.892560530394178,13.962619782729323,59.41195742349591,51.03767651405043,-0.0004209041653666,0.0940094217658042,0,0,0
4904,170113.37010334223,2010-11-18 11:00:27,120.06116300881816,7,15,-1.0997490882873535,3.960547924041748,14.892560530394178,13.971788512529493,59.41195742349591,51.07404961528698,-0.0003237724304199,0.0940094217658042,0,0,0
4905,170143.38552223053,2010-11-18 11:00:57,150.07658189712012,7,15,-1.099568486213684,3.949215888977051,14.892560530394178,13.980957248567895,59.41195742349591,51.110308921768926,-0.0002590179501567,0.0940094217658042,0,0,0
4906,170173.40071629264,2010-11-18 11:01:27,180.0917759592213,7,15,-1.0997490882873535,3.9386932849884033,14.892560530394178,13.990125925681486,59.41195742349591,51.14646838507587,-0.0002590179501567,0.0940094217658042,0,0,0
4907,170203.4160011614,2010-11-18 11:01:57,210.10706082798987,7,15,-1.0997490882873535,3.928818225860596,14.892560530394178,13.999294700679446,59.41195742349591,51.18253611175574,-0.0002913951757363,0.0940094217658042,0,0,0
4908,170233.43130266672,2010-11-18 11:02:27,240.12236233328576,7,15,-1.0997490882873535,3.919590711593628,14.892560530394178,14.00846347263964,59.41195742349591,51.218517072461104,-0.0002590179501567,0.0940094217658042,0,0,0
4909,170263.44662657793,2010-11-18 11:02:57,270.1376862645604,7,15,-1.0997490882873535,3.910849094390869,14.892560530394178,14.017632263006403,59.41195742349591,51.25441513271508,-0.0002266406954731,0.0940094217658042,0,0,0
4910,170293.46192464465,2010-11-18 11:03:27,300.152984311223,7,15,-1.099929690361023,3.901945352554321,14.892560530394178,14.026801019029277,59.41195742349591,51.29023214617434,-0.0002590179501567,0.0940094217658042,0,0,0
4911,170323.47721370388,2010-11-18 11:03:57,330.16827337546414,7,15,-1.0997490882873535,3.8935272693634033,14.892560530394178,14.035969794192528,59.41195742349591,51.32596901811159,-0.0001618862152099,0.0940094217658042,0,0,0
4912,170353.49251076308,2010-11-18 11:04:27,360.18357042964936,7,15,-1.0997490882873535,3.885109186172485,14.892560530394178,14.04513854851289,59.41195742349591,51.3616279626807,-0.0001618862152099,0.0940094217658042,0,0,0
4913,170383.5079377967,2010-11-18 11:04:57,390.19899746829583,7,15,-1.0997490882873535,3.876691102981568,14.892560530394178,14.054307371414996,59.41195742349591,51.39721056965256,-0.0002266406954731,0.0940094217658042,0,0,0
4914,170413.52358780694,2010-11-18 11:05:27,420.21464758377647,7,15,-1.0997490882873535,3.868596792221069,14.892560530394178,14.063476282501007,59.41195742349591,51.43271847897211,-0.0001942634553415,0.0940094217658042,0,0,0
4915,170443.5384257902,2010-11-18 11:05:57,450.2294854567748,7,15,-1.0997490882873535,3.8605024814605713,14.892560530394178,14.072644944062874,59.41195742349591,51.46815134936039,-0.0001942634553415,0.0940094217658042,0,0,0
4916,170473.55373990696,2010-11-18 11:06:28,480.2447995835759,7,15,-1.0997490882873535,3.852570056915283,14.892560530394178,14.08181380026408,59.41195742349591,51.50351129912498,-0.0001618862152099,0.0940094217658042,0,0,0
4917,170503.56902612912,2010-11-18 11:06:58,510.2600857956977,7,15,-1.0997490882873535,3.844637632369995,14.892560530394178,14.09098267667108,59.41195742349591,51.53879851599757,-0.0002266406954731,0.0940094217658042,0,0,0
4918,170533.58433240134,2010-11-18 11:07:28,540.2753920678925,7,15,-1.099568486213684,3.837028980255127,14.892560530394178,14.100151541688724,59.41195742349591,51.57401456977984,-0.0001942634553415,0.0940094217658042,0,0,0
4919,170563.59962558586,2010-11-18 11:07:58,570.2906852524185,7,15,-1.0997490882873535,3.829420566558838,14.892560530394178,14.10932040710762,59.41195742349591,51.60916048875169,-0.0001942634553415,0.0940094217658042,0,0,0
4920,170593.61495024394,2010-11-18 11:08:28,600.3060099205323,7,15,-1.0997490882873535,3.8221356868743896,14.892560530394178,14.118489321768898,59.41195742349591,51.64423750320961,-0.0001618862152099,0.0940094217658042,0,0,0
4921,170623.63023461646,2010-11-18 11:08:58,630.3212942880498,7,15,-1.0997490882873535,3.8145270347595215,14.892560530394178,14.127658170562428,59.41195742349591,51.67924658184972,-0.0001942634553415,0.0940094217658042,0,0,0
4922,170653.6455670289,2010-11-18 11:09:28,660.3366266954822,7,15,-1.099568486213684,3.807242155075073,14.892560530394178,14.136826992384457,59.41195742349591,51.71418818917756,-0.0001618862152099,0.0940094217658042,0,0,0
4923,170683.66100294975,2010-11-18 11:09:58,690.3520626213125,7,15,-1.099929690361023,3.799957275390625,14.892560530394178,14.145995791361813,59.41195742349591,51.74906374901353,-0.0002590179501567,0.0940094217658042,0,0,0
4924,170713.67613522257,2010-11-18 11:10:28,720.3671948941782,7,15,-1.099568486213684,3.793158054351807,14.892560530394178,14.155164617655592,59.41195742349591,51.78387416754356,-0.0001942634553415,0.0940094217658042,0,0,0
4925,170743.69156678754,2010-11-18 11:10:58,750.3826264541104,7,15,-1.0997490882873535,3.7861969470977774,14.892560530394178,14.164333507067028,59.41195742349591,51.818621446811214,-0.0001942634553415,0.0940094217658042,0,0,0
4926,170773.7067571454,2010-11-18 11:11:28,780.3978168119651,7,15,-1.099929690361023,3.77939772605896,14.892560530394178,14.17350231803961,59.41195742349591,51.85330612934698,-0.0002266406954731,0.0940094217658042,0,0,0
4927,170803.7220621394,2010-11-18 11:11:58,810.4131218059695,7,15,-1.0997490882873535,3.773084163665772,14.892560530394178,14.182671160577309,59.41195742349591,51.887930303992434,-0.0001618862152099,0.0940094217658042,0,0,0
4928,170833.73735429134,2010-11-18 11:12:28,840.4284139629306,7,15,-1.099568486213684,3.766608715057373,14.892560530394178,14.191840007130358,59.41195742349591,51.9224951453661,-0.0001942634553415,0.0940094217658042,0,0,0
4929,170863.75265539566,2010-11-18 11:12:58,870.4437150471754,7,15,-1.099568486213684,3.760295152664185,14.892560530394178,14.201008906457565,59.41195742349591,51.95700188794693,-0.0001942634553415,0.0940094217658042,0,0,0
4930,170893.76798809378,2010-11-18 11:13:28,900.4590477603712,7,15,-1.0993878841400146,3.754305362701416,14.892560530394178,14.210177773180607,59.41195742349591,51.99145217306623,-0.0001618862152099,0.0940094217658042,0,0,0
4931,170923.78326382977,2010-11-18 11:13:58,930.4743234963428,7,15,-1.0997490882873535,3.747992038726807,14.892560530394178,14.219346583272673,59.41195742349591,52.02584615671699,-0.0001942634553415,0.0940094217658042,0,0,0
4932,170953.79873145474,2010-11-18 11:14:28,960.489791141349,7,15,-1.099568486213684,3.742326021194458,14.892560530394178,14.228515538335508,59.41195742349591,52.06018569102466,-0.0001618862152099,0.0940094217658042,0,0,0
4933,170983.81386672004,2010-11-18 11:14:58,990.5049263866345,7,15,-1.0997490882873535,3.7364981174468994,14.892560530394178,14.237684357300404,59.41195742349591,52.09447129061691,-0.0001942634553415,0.0940094217658042,0,0,0
4934,171013.82930349302,2010-11-18 11:15:28,1020.5203631595792,7,15,-1.0997490882873535,3.730832099914551,14.892560530394178,14.24685326932364,59.41195742349591,52.12870430922933,-0.0001295089750783,0.0940094217658042,0,0,0
4935,171043.84446921438,2010-11-18 11:15:58,1050.5355288909625,7,15,-1.0997490882873535,3.725166082382202,14.892560530394178,14.256022081705703,59.41195742349591,52.16288516494675,-0.0001295089750783,0.0940094217658042,0,0,0
4936,171073.8599132705,2010-11-18 11:16:28,1080.5509729370622,7,15,-1.0997490882873535,3.7195000648498535,14.892560530394178,14.265191031041068,59.41195742349591,52.19701504582095,-0.0001618862152099,0.0940094217658042,0,0,0
4937,171103.8750948364,2010-11-18 11:16:58,1110.5661545380583,7,15,-1.0997490882873535,3.714157819747925,14.892560530394178,14.274359925014071,59.41195742349591,52.23109436552622,-0.0001295089750783,0.0940094217658042,0,0,0
4938,171133.89040071762,2010-11-18 11:17:28,1140.5814603841898,7,15,-1.0997490882873535,3.708653688430786,14.892560530394178,14.283528856928074,59.41195742349591,52.26512379821206,-0.0001295089750783,0.0940094217658042,0,0,0
4939,171163.90568823298,2010-11-18 11:17:58,1170.5967479045771,7,15,-1.099568486213684,3.703635215759277,14.892560530394178,14.292697779114578,59.41195742349591,52.299104271646925,-9.713172767078504e-05,0.0940094217658042,0,0,0
4940,171193.9209897032,2010-11-18 11:18:28,1200.6120493697729,7,15,-1.0997490882873535,3.6981310844421382,14.892560530394178,14.301866697725462,59.41195742349591,52.33303628705466,-0.0001295089750783,0.0940094217658042,0,0,0
4941,171223.9362989027,2010-11-18 11:18:58,1230.6273585742872,7,15,-1.0997490882873535,3.69295072555542,14.892560530394178,14.311035598810124,59.41195742349591,52.36692032610011,-0.0001295089750783,0.0940094217658042,0,0,0
4942,171253.9516263728,2010-11-18 11:19:28,1260.6426860393829,7,15,-1.0997490882873535,3.687608480453491,14.892560530394178,14.320204511100604,59.41195742349591,52.40075654465336,-0.0001618862152099,0.0940094217658042,0,0,0
4943,171283.96691146714,2010-11-18 11:19:58,1290.6579711337145,7,15,-1.0997490882873535,3.682751893997192,14.892560530394178,14.329373355300069,59.41195742349591,52.434545617770524,-0.0001295089750783,0.0940094217658042,0,0,0
4944,171313.98222114285,2010-11-18 11:20:28,1320.6732808344675,7,15,-1.0997490882873535,3.677733421325684,14.892560530394178,14.33854234437614,59.41195742349591,52.46828916774303,-0.0001295089750783,0.0940094217658042,0,0,0
4945,171343.99763650732,2010-11-18 11:20:58,1350.688696173911,7,15,-1.099568486213684,3.6728768348693848,14.892560530394178,14.347711317971848,59.41195742349591,52.50198758729808,-9.713172767078504e-05,0.0940094217658042,0,0,0
4946,171374.01295121058,2010-11-18 11:21:28,1380.7040108771507,7,15,-1.0997490882873535,3.667858600616455,14.892560530394178,14.3568802354566,59.41195742349591,52.53564078141132,-0.0001618862152099,0.0940094217658042,0,0,0
4947,171404.02811414498,2010-11-18 11:21:58,1410.7191738115523,7,15,-1.0997490882873535,3.663163900375366,14.892560530394178,14.366049064950827,59.41195742349591,52.56924927530385,-0.0001295089750783,0.0940094217658042,0,0,0
4948,171434.0434256001,2010-11-18 11:22:28,1440.7344852666847,7,15,-1.0997490882873535,3.658469200134277,14.892560530394178,14.37521798267864,59.41195742349591,52.60281488400915,-0.0001295089750783,0.0940094217658042,0,0,0
4949,171464.05872555156,2010-11-18 11:22:58,1470.7497852181025,7,15,-1.0997490882873535,3.653774499893189,14.892560530394178,14.384386914152746,59.41195742349591,52.636338180421305,-0.0001295089750783,0.0940094217658042,0,0,0
4950,171494.07405577853,2010-11-18 11:23:28,1500.765115445092,7,15,-1.099568486213684,3.64940357208252,14.892560530394178,14.393555839833478,59.41195742349591,52.66981915977317,-6.47544875391759e-05,0.0940094217658042,0,0,0
4951,171524.08935140917,2010-11-18 11:23:58,1530.7804110957736,7,15,-1.0997490882873535,3.644708871841431,14.892560530394178,14.402724692172674,59.41195742349591,52.70325835272997,-0.0001618862152099,0.0940094217658042,0,0,0
4952,171554.1050436548,2010-11-18 11:24:28,1560.7961033313927,7,15,-1.099568486213684,3.6406617164611816,14.892560530394178,14.41189369348496,59.41195742349591,52.73665746351244,-6.47544875391759e-05,0.0940094217658042,0,0,0
4953,171584.12013668971,2010-11-18 11:24:58,1590.8111963763392,7,15,-1.099568486213684,3.6359670162200928,14.892560530394178,14.421062459631932,59.41195742349591,52.77001561782191,-0.0001618862152099,0.0940094217658042,0,0,0
4954,171614.13526621574,2010-11-18 11:25:28,1620.8263259023486,7,15,-1.0997490882873535,3.631757974624634,14.892560530394178,14.43023127998493,59.41195742349591,52.80333422888283,-0.0001618862152099,0.0940094217658042,0,0,0
4955,171644.1505832097,2010-11-18 11:25:58,1650.8416428762564,7,15,-1.0997490882873535,3.627548933029175,14.892560530394178,14.439400170698434,59.41195742349591,52.836613691669406,-9.713172767078504e-05,0.0940094217658042,0,0,0
4956,171674.16590456953,2010-11-18 11:26:28,1680.8569642461375,7,15,-1.0997490882873535,3.623339891433716,14.892560530394178,14.448569044178152,59.41195742349591,52.86985509238233,-0.0001295089750783,0.0940094217658042,0,0,0
4957,171704.18118817516,2010-11-18 11:26:58,1710.8722478667903,7,15,-1.0997490882873535,3.6194546222686768,14.892560530394178,14.457737941719564,59.41195742349591,52.90305939262315,-6.47544875391759e-05,0.0940094217658042,0,0,0
4958,171734.19947156872,2010-11-18 11:27:28,1740.8905313455507,7,15,-1.0997490882873535,3.615407466888428,14.892560530394178,14.4669077890503,59.41195742349591,52.936231226063775,-0.0001618862152099,0.0940094217658042,0,0,0
4959,171764.21187079448,2010-11-18 11:27:58,1770.902930461035,7,15,-1.099568486213684,3.6118459701538086,14.892560530394178,14.476075828863769,59.41195742349591,52.969361586423965,-9.713172767078504e-05,0.0940094217658042,0,0,0
4960,171794.22709838024,2010-11-18 11:28:28,1800.9181580468169,7,15,-1.0997490882873535,3.60812258720398,14.892560530394178,14.485244653894314,59.41195742349591,53.0024608432954,-0.0001295089750783,0.0940094217658042,0,0,0
4961,171824.24239496829,2010-11-18 11:28:58,1830.9334546348384,7,15,-1.0997490882873535,3.60456109046936,14.892560530394178,14.49441357560187,59.41195742349591,53.03552740269408,-9.713172767078504e-05,0.0940094217658042,0,0,0
4962,171854.2577172304,2010-11-18 11:29:28,1860.9487769069715,7,15,-1.0997490882873535,3.601161479949951,14.892560530394178,14.5035824650719,59.41195742349591,53.06856190429826,-9.713172767078504e-05,0.0940094217658042,0,0,0
4963,171884.27316823383,2010-11-18 11:29:58,1890.964227910438,7,15,-1.0997490882873535,3.597599983215332,14.892560530394178,14.51275149531757,59.41195742349591,53.10156522708282,-0.0001618862152099,0.0940094217658042,0,0,0
4964,171914.28839262665,2010-11-18 11:30:28,1920.979452293224,7,15,-1.099568486213684,3.594362258911133,14.892560530394178,14.521920410057769,59.41195742349591,53.13453729466752,-9.713172767078504e-05,0.0940094217658042,0,0,0
4965,171944.3036071448,2010-11-18 11:30:58,1950.994666841462,7,15,-1.0997490882873535,3.5911247730255127,14.892560530394178,14.53108928851156,59.41195742349591,53.167479350196935,-9.713172767078504e-05,0.0940094217658042,0,0,0
4966,171974.3189066802,2010-11-18 11:31:28,1981.009966371828,7,15,-1.0997490882873535,3.5880489349365234,14.892560530394178,14.5402580812468,59.41195742349591,53.20039204399573,-9.713172767078504e-05,0.0940094217658042,0,0,0
4967,172004.3342255739,2010-11-18 11:31:58,2011.0252852404656,7,15,-1.099568486213684,3.585134983062744,14.892560530394178,14.549426956150898,59.41195742349591,53.23327631388193,-6.47544875391759e-05,0.0940094217658042,0,0,0
4968,172034.34962272795,2010-11-18 11:32:28,2041.0406824245904,7,15,-1.0997490882873535,3.582059144973755,14.892560530394178,14.558595789669674,59.41195742349591,53.26613335651563,-9.713172767078504e-05,0.0940094217658042,0,0,0
4969,172064.36493415298,2010-11-18 11:32:58,2071.055993819573,7,15,-1.0997490882873535,3.579145193099976,14.892560530394178,14.56776465888697,59.41195742349591,53.29896386923416,-6.47544875391759e-05,0.0940094217658042,0,0,0
4970,172094.38012940306,2010-11-18 11:33:28,2101.07118906964,7,15,-1.0997490882873535,3.5762312412261963,14.892560530394178,14.576933506872413,59.41195742349591,53.33176751226191,-6.47544875391759e-05,0.0940094217658042,0,0,0
4971,172124.3954286778,2010-11-18 11:33:58,2131.086488344368,7,15,-1.0997490882873535,3.573317289352417,14.892560530394178,14.586102499860226,59.41195742349591,53.36454496984116,-6.47544875391759e-05,0.0940094217658042,0,0,0
4972,172154.41079312022,2010-11-18 11:34:28,2161.101852871977,7,15,-1.0997490882873535,3.570565223693848,14.892560530394178,14.595271431044369,59.41195742349591,53.397295965986565,-6.47544875391759e-05,0.0940094217658042,0,0,0
4973,172184.42604256555,2010-11-18 11:34:58,2191.11710223211,7,15,-1.0997490882873535,3.5676512718200684,14.892560530394178,14.60444030993298,59.41195742349591,53.43002018390563,-9.713172767078504e-05,0.0940094217658042,0,0,0
4974,172214.44149310785,2010-11-18 11:35:28,2221.1325527744257,7,15,-1.0997490882873535,3.564737319946289,14.892560530394178,14.61360940847905,59.41195742349591,53.46271888305313,-9.713172767078504e-05,0.0940094217658042,0,0,0
4975,172244.45669482907,2010-11-18 11:35:58,2251.147754500658,7,15,-1.0997490882873535,3.56198525428772,14.892560530394178,14.622778301810271,59.41195742349591,53.495390688524665,-6.47544875391759e-05,0.0940094217658042,0,0,0
4976,172274.47210982768,2010-11-18 11:36:28,2281.163169494237,7,15,-1.099568486213684,3.5587475299835205,14.892560530394178,14.631947278236362,59.41195742349591,53.52803627776442,-9.713172767078504e-05,0.0940094217658042,0,0,0
4977,172304.4874119796,2010-11-18 11:36:58,2311.1784716561724,7,15,-1.099568486213684,3.555995464324951,14.892560530394178,14.641116157080653,59.41195742349591,53.560654261354806,-9.713172767078504e-05,0.0940094217658042,0,0,0
4978,172334.50261802657,2010-11-18 11:37:28,2341.193677693165,7,15,-1.0997490882873535,3.552919626235962,14.892560530394178,14.650285084863452,59.41195742349591,53.59324486693233,-6.47544875391759e-05,0.0940094217658042,0,0,0
4979,172364.51792219354,2010-11-18 11:37:58,2371.2089818701297,7,15,-1.099929690361023,3.5496819019317627,14.892560530394178,14.659454007355246,59.41195742349591,53.62580763554985,-0.0001295089750783,0.0940094217658042,0,0,0
4980,172394.5332169971,2010-11-18 11:38:29,2401.2242766636723,7,15,-1.0997490882873535,3.5467679500579834,14.892560530394178,14.668622976903547,59.41195742349591,53.65834218794373,-9.713172767078504e-05,0.0940094217658042,0,0,0
4981,172424.54852397606,2010-11-18 11:38:59,2431.239583642631,7,15,-1.099568486213684,3.543692111968994,14.892560530394178,14.677791898403262,59.41195742349591,53.690847368615565,-9.713172767078504e-05,0.0940094217658042,0,0,0
4982,172454.56385496998,2010-11-18 11:39:29,2461.254914636535,7,15,-1.0997490882873535,3.540292501449585,14.892560530394178,14.686960847089892,59.41195742349591,53.7233230101127,-9.713172767078504e-05,0.0940094217658042,0,0,0
4983,172484.5791684752,2010-11-18 11:39:59,2491.2702281417846,7,15,-1.0997490882873535,3.536731004714966,14.892560530394178,14.69612983361862,59.41195742349591,53.755767779198536,-9.713172767078504e-05,0.0940094217658042,0,0,0
4984,172514.59446056702,2010-11-18 11:40:29,2521.285520233583,7,15,-1.0997490882873535,3.5331695079803467,14.892560530394178,14.705298850275764,59.41195742349591,53.7881809035393,-9.713172767078504e-05,0.0940094217658042,0,0,0
4985,172544.60977543565,2010-11-18 11:40:59,2551.300835102236,7,15,-1.099568486213684,3.529769897460937,14.892560530394178,14.71446779530534,59.41195742349591,53.82056131051488,-9.713172767078504e-05,0.0940094217658042,0,0,0
4986,172574.62510650477,2010-11-18 11:41:29,2581.3161661713275,7,15,-1.0997490882873535,3.5260465145111084,14.892560530394178,14.723636772945389,59.41195742349591,53.85290836668138,-9.713172767078504e-05,0.0940094217658042,0,0,0
4987,172604.64039996496,2010-11-18 11:41:59,2611.33145964658,7,15,-1.099568486213684,3.52199935913086,14.892560530394178,14.732805820778196,59.41195742349591,53.88522119464621,-0.0001618862152099,0.0940094217658042,0,0,0
4988,172634.6557188336,2010-11-18 11:42:29,2641.3467784951667,7,15,-1.0997490882873535,3.5181140899658203,14.892560530394178,14.741974756026345,59.41195742349591,53.9174976912664,-0.0001295089750783,0.0940094217658042,0,0,0
4989,172664.67104315586,2010-11-18 11:42:59,2671.362102847492,7,15,-1.099568486213684,3.5140669345855717,14.892560530394178,14.751143726543193,59.41195742349591,53.949737240043774,-9.713172767078504e-05,0.0940094217658042,0,0,0
4990,172694.68653624435,2010-11-18 11:43:29,2701.377595910946,7,15,-1.0997490882873535,3.509696245193481,14.892560530394178,14.760312753062571,59.41195742349591,53.981938257162525,-0.0001618862152099,0.0940094217658042,0,0,0
4991,172724.70168743446,2010-11-18 11:43:59,2731.392747121083,7,15,-1.0997490882873535,3.5050015449523926,14.892560530394178,14.769481787066251,59.41195742349591,54.01409811290412,-0.0001295089750783,0.0940094217658042,0,0,0
4992,172754.71693437354,2010-11-18 11:44:29,2761.407994065186,7,15,-1.0997490882873535,3.500306844711304,14.892560530394178,14.778650848646954,59.41195742349591,54.046214603473935,-0.0001295089750783,0.0940094217658042,0,0,0
4993,172784.73226684614,2010-11-18 11:44:59,2791.4233265227435,7,15,-1.0997490882873535,3.494964599609375,14.892560530394178,14.78781979700663,59.41195742349591,54.07828418241738,-0.0001295089750783,0.0940094217658042,0,0,0
4994,172814.7476118851,2010-11-18 11:45:29,2821.438671551681,7,15,-1.0993878841400146,3.4891366958618164,14.892560530394178,14.796988853419348,59.41195742349591,54.11030329321284,-0.0001618862152099,0.0940094217658042,0,0,0
4995,172844.76299573094,2010-11-18 11:45:59,2851.4540554225737,7,15,-1.0997490882873535,3.482823133468628,14.892560530394178,14.806157853533298,59.41195742349591,54.14226662825523,-0.0001942634553415,0.0940094217658042,0,0,0
4996,172874.77821548216,2010-11-18 11:46:29,2881.469275148737,7,15,-1.0997490882873535,3.47553825378418,14.892560530394178,14.815326806174326,59.41195742349591,54.17416777660351,-0.0001942634553415,0.0940094217658042,0,0,0
4997,172904.79350583965,2010-11-18 11:46:59,2911.484565486156,7,15,-1.099568486213684,3.4674439430236816,14.892560530394178,14.824495783360316,59.41195742349591,54.205998675058886,-0.0002266406954731,0.0940094217658042,0,0,0
4998,172934.80889287844,2010-11-18 11:47:29,2941.499952539994,7,15,-1.0997490882873535,3.457730770111084,14.892560530394178,14.833664850411802,59.41195742349591,54.237748409506445,-0.0002590179501567,0.0940094217658042,0,0,0
4999,172964.82412750678,2010-11-18 11:47:59,2971.5151871733674,7,15,-1.0997490882873535,3.446074962615967,14.892560530394178,14.842833818812608,59.41195742349591,54.269400105779965,-0.0003237724304199,0.0940094217658042,0,0,0
5000,172994.8395881443,2010-11-18 11:48:29,3001.530647820907,7,15,-1.0997490882873535,3.431181669235229,14.892560530394178,14.852002836991662,59.41195742349591,54.300931137446334,-0.000453233718872,0.0940094217658042,0,0,0
5001,173024.85473437703,2010-11-18 11:48:59,3031.545794038581,7,15,-1.099929690361023,3.411917209625244,14.892560530394178,14.861171755327062,59.41195742349591,54.33230722874424,-0.0005827903514727,0.0940094217658042,0,0,0
5002,173054.87016210236,2010-11-18 11:49:29,3061.5612217940165,7,15,-1.099568486213684,3.3866629600524902,14.892560530394178,14.87034011052802,59.41195742349591,54.36347839476714,-0.0007446765666827,0.0940094217658042,0,0,0
5003,173084.88531697667,2010-11-18 11:49:59,3091.5763766432365,7,15,-1.099568486213684,3.352181196212769,14.892560530394178,14.879508364862748,59.41195742349591,54.39437778370215,-0.0010036944877356,0.0940094217658042,0,0,0
5004,173114.90064833147,2010-11-18 11:50:29,3121.591707998041,7,15,-1.099568486213684,3.304748773574829,14.892560530394178,14.888676758713151,59.41195742349591,54.42490659874749,-0.0014245987404137,0.0940094217658042,0,0,0
5005,173144.9161229138,2010-11-18 11:50:59,3151.607182580364,7,15,-1.099568486213684,3.2382137775421143,14.892560530394178,14.897845063063262,59.41195742349591,54.4549180803281,-0.0020397664047777,0.0940094217658042,0,0,0
5006,173174.93143217347,2010-11-18 11:51:29,3181.622491840016,7,15,-1.0993878841400146,3.141082286834717,14.892560530394178,14.907013302917347,59.41195742349591,54.48419187385287,-0.0031082152854651,0.0940094217658042,0,0,0
5007,173204.94661653636,2010-11-18 11:51:59,3211.6376761828565,7,15,-1.0993878841400146,2.982758045196533,14.892560530394178,14.916181476037377,59.41195742349591,54.51233769832977,-0.0055365087464451,0.0940094217658042,0,0,0
5008,173224.57140669177,2010-11-18 11:52:19,3231.262466363345,7,15,-1.099568486213684,2.782667398452759,14.892560530394178,14.922176149441098,59.41195742349591,54.5296745785233,-0.0099721429869532,0.0940094217658042,0,0,0
5009,173230.7432246138,2010-11-18 11:52:25,3237.434284280377,7,15,-1.0997490882873535,2.699620008468628,14.892560530394178,14.924061472942334,59.41195742349591,54.53484359604233,-0.010846328921616,0.0940094217658042,0,0,0
5010,173290.7625638729,2010-11-18 11:53:25,60.015021511773625,8,15,0.0,3.317052125930786,14.892560530394178,14.924061472942334,59.41195742349591,54.53484359604233,0.0012303352123126,0.0940094217658042,0,0,0
5011,173290.95511735554,2010-11-18 11:53:25,0.187616895635644,9,15,-1.9243103452026844e-05,3.317052125930786,14.892560530394178,14.924061473945205,59.41195742349591,54.5348435993689,0.0,0.0946486890316009,0,0,0
5012,173295.78310357188,2010-11-18 11:53:30,5.015603227286573,9,15,0.0007031940040178,3.3248226642608643,14.89256140968037,14.924061474028106,59.41196034420846,54.534843599643885,0.0010684489971026,0.0946486890316009,0,0,0
