Data_Point,Test_Time(s),Date_Time,Step_Time(s),Step_Index,Cycle_Index,Current(A),Voltage(V),Charge_Capacity(Ah),Discharge_Capacity(Ah),Charge_Energy(Wh),Discharge_Energy(Wh),dV/dt(V/s),Internal_Resistance(Ohm),Is_FC_Data,AC_Impedance(Ohm),ACI_Phase_Angle(Deg)
1,30.00098747026231,2010-11-16 11:45:27,30.000988061738724,1,1,0.0,3.69521713256836,0.0,0.0,0.0,0.0,0.0,0.0,0,0,0
2,60.0161423244946,2010-11-16 11:45:57,60.01614293602107,1,1,0.0,3.69521713256836,0.0,0.0,0.0,0.0,0.0,0.0,0,0,0
3,90.03141910306881,2010-11-16 11:46:27,90.03141971960778,1,1,0.0,3.69521713256836,0.0,0.0,0.0,0.0,-3.237724376958795e-05,0.0,0,0,0
4,120.01533420306843,2010-11-16 11:46:57,120.01533480456986,1,1,0.0,3.69521713256836,0.0,0.0,0.0,0.0,3.237724376958795e-05,0.0,0,0,0
5,150.031300482577,2010-11-16 11:47:27,30.015546381544706,2,1,0.5501165986061096,3.7850637435913086,0.004586873833149,0.0,0.017326994040568,0.0,0.0002913951757363,0.0,0,0,0
6,180.0464827402124,2010-11-16 11:47:57,60.0307286341676,2,1,0.5501165986061096,3.7929961681365967,0.009173609295638,0.0,0.034707949977573,0.0,0.0001942634553415,0.0,0,0,0
7,210.06180122789897,2010-11-16 11:48:27,90.0460471368917,2,1,0.5501165986061096,3.7976908683776855,0.013760375903269,0.0,0.052117090656524,0.0,6.47544875391759e-05,0.0,0,0,0
8,240.0770768385579,2010-11-16 11:48:57,120.06132272750057,2,1,0.550297200679779,3.8015761375427246,0.018347207554723,0.0,0.06954560223437,0.0,0.0001295089750783,0.0,0,0,0
9,270.0925104435951,2010-11-16 11:49:27,150.07675633755028,2,1,0.5501165986061096,3.804490089416504,0.022934056891862,0.0,0.086989588074373,0.0,6.47544875391759e-05,0.0,0,0,0
10,300.1076989067203,2010-11-16 11:49:57,180.09194480067552,2,1,0.550297200679779,3.807565927505493,0.0275208468778,0.0,0.104447378611442,0.0,9.713172767078504e-05,0.0,0,0,0
11,330.1230006676544,2010-11-16 11:50:27,210.10724655659703,2,1,0.5501165986061096,3.810479879379273,0.032107658654671,0.0,0.121918529095895,0.0,6.47544875391759e-05,0.0,0,0,0
12,360.13828924568185,2010-11-16 11:50:57,240.12253514464956,2,1,0.5501165986061096,3.813231945037842,0.036694461361645,0.0,0.139402463297784,0.0,9.713172767078504e-05,0.0,0,0,0
13,390.1536007058265,2010-11-16 11:51:27,270.13784659476926,2,1,0.5497553944587708,3.815822124481201,0.041281248909807,0.0,0.156899153492578,0.0,3.237724376958795e-05,0.0,0,0,0
14,420.1689352034765,2010-11-16 11:51:57,300.15318112249423,2,1,0.5501165986061096,3.818412303924561,0.04586806937239,0.0,0.174408214314959,0.0,0.0,0.0,0,0,0
15,450.1842091249189,2010-11-16 11:52:27,330.16845500884904,2,1,0.5501165986061096,3.82116436958313,0.050454806671838,0.0,0.191929010210174,0.0,6.47544875391759e-05,0.0,0,0,0
16,480.199802659164,2010-11-16 11:52:57,360.1840485481066,2,1,0.5501165986061096,3.823754549026489,0.055041644255051,0.0,0.209462023063495,0.0,9.713172767078504e-05,0.0,0,0,0
17,510.21482709785903,2010-11-16 11:53:27,390.1990729868017,2,1,0.5501165986061096,3.8263447284698486,0.05962836510501,0.0,0.227006367778017,0.0,9.713172767078504e-05,0.0,0,0,0
18,540.2301577559248,2010-11-16 11:53:57,420.2144036498799,2,1,0.5501165986061096,3.828773021697998,0.064215171748687,0.0,0.244562853150996,0.0,3.237724376958795e-05,0.0,0,0,0
19,570.2454302137136,2010-11-16 11:54:27,450.2296761026562,2,1,0.5501165986061096,3.831363201141357,0.068801913616553,0.0,0.2621309417617,0.0,6.47544875391759e-05,0.0,0,0,0
20,600.2607434683375,2010-11-16 11:54:57,480.24498936730527,2,1,0.550297200679779,3.8342769145965576,0.073388723575781,0.0,0.279711281604178,0.0,0.0001295089750783,0.0,0,0,0
21,630.2760710186459,2010-11-16 11:55:27,510.2603169276386,2,1,0.5501165986061096,3.836705207824707,0.077975537765612,0.0,0.297303991212358,0.0,6.47544875391759e-05,0.0,0,0,0
22,660.2921187115409,2010-11-16 11:55:57,540.2763646305586,2,1,0.5501165986061096,3.8396191596984863,0.082562437444599,0.0,0.314909644985363,0.0,6.47544875391759e-05,0.0,0,0,0
23,690.2938961988071,2010-11-16 11:56:27,570.2781420877498,2,1,0.5501165986061096,3.8425331115722656,0.087147104741195,0.0,0.332519779838608,0.0,6.47544875391759e-05,0.0,0,0,0
24,720.3065548120378,2010-11-16 11:56:57,600.2908007110055,2,1,0.5499359965324402,3.845447063446045,0.091733437409548,0.0,0.350149668512974,0.0,6.47544875391759e-05,0.0,0,0,0
25,750.3216875059545,2010-11-16 11:57:27,630.3059333999098,2,1,0.5501165986061096,3.848522901535034,0.096320171417821,0.0,0.367794874529485,0.0,3.237724376958795e-05,0.0,0,0,0
26,780.3370239233966,2010-11-16 11:57:57,660.3212698123392,2,1,0.550297200679779,3.8517606258392334,0.100906879643088,0.0,0.385454039798411,0.0,9.713172767078504e-05,0.0,0,0,0
27,810.3524845408609,2010-11-16 11:58:27,690.3367304348161,2,1,0.5499359965324402,3.8546745777130127,0.105493590663827,0.0,0.403127299329927,0.0,6.47544875391759e-05,0.0,0,0,0
28,840.367608182181,2010-11-16 11:58:57,720.3518540961862,2,1,0.5501165986061096,3.857750415802002,0.110080287646253,0.0,0.420814706552333,0.0,6.47544875391759e-05,0.0,0,0,0
29,870.3830598172239,2010-11-16 11:59:27,750.3673057161915,2,1,0.550297200679779,3.860988140106201,0.114667051343534,0.0,0.438516401851712,0.0,0.0001295089750783,0.0,0,0,0
30,900.3982376237486,2010-11-16 11:59:57,780.382483537754,2,1,0.5501165986061096,3.8637402057647705,0.119253756023928,0.0,0.456231709598629,0.0,3.237724376958795e-05,0.0,0,0,0
31,930.4135286178068,2010-11-16 12:00:27,810.3977745067496,2,1,0.550297200679779,3.86665415763855,0.12384051309917,0.0,0.47396073538202,0.0,3.237724376958795e-05,0.0,0,0,0
32,960.4288247547024,2010-11-16 12:00:57,840.4130706436451,2,1,0.550297200679779,3.869729995727539,0.128427304086462,0.0,0.491703156310745,0.0,0.0001295089750783,0.0,0,0,0
33,990.4441589315516,2010-11-16 12:01:27,870.4284048204943,2,1,0.5501165986061096,3.872158288955689,0.133014072089875,0.0,0.509458275978995,0.0,3.237724376958795e-05,0.0,0,0,0
34,1020.4595482761076,2010-11-16 12:01:57,900.4437941650503,2,1,0.5501165986061096,3.874910354614258,0.137600851396605,0.0,0.52722587746849,0.0,6.47544875391759e-05,0.0,0,0,0
35,1050.4747564434176,2010-11-16 12:02:27,930.4590023323605,2,1,0.550297200679779,3.877662420272827,0.142187561157097,0.0,0.545005216185437,0.0,9.713172767078504e-05,0.0,0,0,0
36,1080.4900373673393,2010-11-16 12:02:57,960.474283256282,2,1,0.5501165986061096,3.879928827285767,0.146774342472342,0.0,0.562796481515873,0.0,6.47544875391759e-05,0.0,0,0,0
37,1110.505457243106,2010-11-16 12:03:27,990.4897031370612,2,1,0.5501165986061096,3.882519006729126,0.151361108161145,0.0,0.580598800505242,0.0,6.47544875391759e-05,0.0,0,0,0
38,1140.520753069226,2010-11-16 12:03:57,1020.5049989581688,2,1,0.5501165986061096,3.8847854137420654,0.155947861087138,0.0,0.598411829516865,0.0,9.713172767078504e-05,0.0,0,0,0
39,1170.5359996875154,2010-11-16 12:04:27,1050.520245576458,2,1,0.5501165986061096,3.886889934539795,0.160534617972631,0.0,0.616235143680395,0.0,3.237724376958795e-05,0.0,0,0,0
40,1200.551276977366,2010-11-16 12:04:57,1080.535522891371,2,1,0.5501165986061096,3.888994455337525,0.165121350596974,0.0,0.634068194594692,0.0,3.237724376958795e-05,0.0,0,0,0
41,1230.5665427133763,2010-11-16 12:05:27,1110.550788632394,2,1,0.5499359965324402,3.890937089920044,0.169708123331672,0.0,0.651910759662367,0.0,6.47544875391759e-05,0.0,0,0,0
42,1260.5819948596952,2010-11-16 12:05:57,1140.5662407536504,2,1,0.5501165986061096,3.892879724502564,0.174294884162719,0.0,0.669762208292161,0.0,3.237724376958795e-05,0.0,0,0,0
43,1290.5973160391009,2010-11-16 12:06:27,1170.581561933056,2,1,0.5501165986061096,3.894660472869873,0.178881630724203,0.0,0.687622102895205,0.0,3.237724376958795e-05,0.0,0,0,0
44,1320.6124260614258,2010-11-16 12:06:57,1200.5966719503683,2,1,0.550297200679779,3.896441221237183,0.183468380032658,0.0,0.705489570486491,0.0,6.47544875391759e-05,0.0,0,0,0
45,1350.6277639174589,2010-11-16 12:07:28,1230.6120098064014,2,1,0.5499359965324402,3.897898197174072,0.188055128370204,0.0,0.723364800336981,0.0,6.47544875391759e-05,0.0,0,0,0
46,1380.643077152033,2010-11-16 12:07:58,1260.6273230409752,2,1,0.550297200679779,3.899517059326172,0.19264190247619,0.0,0.74124740343505,0.0,3.237724376958795e-05,0.0,0,0,0
47,1410.6584143113264,2010-11-16 12:08:28,1290.6426602253318,2,1,0.5501165986061096,3.9009740352630615,0.197228708493451,0.0,0.759136968872057,0.0,6.47544875391759e-05,0.0,0,0,0
48,1440.6736841375464,2010-11-16 12:08:58,1320.657930026489,2,1,0.5499359965324402,3.902431011199951,0.201815497156726,0.0,0.777033066882715,0.0,6.47544875391759e-05,0.0,0,0,0
49,1470.6889887255372,2010-11-16 12:09:28,1350.67323461448,2,1,0.5499359965324402,3.903564214706421,0.206402297659251,0.0,0.794935476591416,0.0,3.237724376958795e-05,0.0,0,0,0
50,1500.704306135534,2010-11-16 12:09:58,1380.6885520244764,2,1,0.5501165986061096,3.905021190643311,0.2109890775174,0.0,0.812843920433018,0.0,3.237724376958795e-05,0.0,0,0,0
51,1530.7196186132185,2010-11-16 12:10:28,1410.7038645021612,2,1,0.5501165986061096,3.9063162803649902,0.21557583212514,0.0,0.830757962399446,0.0,3.237724376958795e-05,0.0,0,0,0
52,1560.7350259125926,2010-11-16 12:10:58,1440.7192718015351,2,1,0.5501165986061096,3.90744948387146,0.220162579303445,0.0,0.848677729572203,0.0,6.47544875391759e-05,0.0,0,0,0
53,1590.7502018494504,2010-11-16 12:11:28,1470.734447753431,2,1,0.5501165986061096,3.9085826873779297,0.224749270694766,0.0,0.866602860264749,0.0,0.0,0.0,0,0,0
54,1620.7655343019956,2010-11-16 12:11:58,1500.749780210988,2,1,0.5501165986061096,3.90987777709961,0.22933600023668,0.0,0.884533717134738,0.0,3.237724376958795e-05,0.0,0,0,0
55,1650.7810296912558,2010-11-16 12:12:28,1530.765275605261,2,1,0.5501165986061096,3.911172866821289,0.233922488959479,0.0,0.902468954671517,0.0,6.47544875391759e-05,0.0,0,0,0
56,1680.7962543547426,2010-11-16 12:12:58,1560.7805002637351,2,1,0.5499359965324402,3.912306070327759,0.23850827318595,0.0,0.920406766679491,0.0,3.237724376958795e-05,0.0,0,0,0
57,1710.8114443366587,2010-11-16 12:13:28,1590.795690220589,2,1,0.5501165986061096,3.913439273834229,0.24309434560893,0.0,0.938351120243197,0.0,6.47544875391759e-05,0.0,0,0,0
58,1740.8267497817892,2010-11-16 12:13:58,1620.8109956807568,2,1,0.5501165986061096,3.914572238922119,0.247681104819354,0.0,0.956303610802043,0.0,3.237724376958795e-05,0.0,0,0,0
59,1770.842104329487,2010-11-16 12:14:28,1650.82635021843,2,1,0.550297200679779,3.915705442428589,0.25226786263985,0.0,0.974261408573897,0.0,3.237724376958795e-05,0.0,0,0,0
60,1800.8573628725428,2010-11-16 12:14:58,1680.8416087614855,2,1,0.5501165986061096,3.917000532150269,0.256854553124468,0.0,0.992224229385215,0.0,3.237724376958795e-05,0.0,0,0,0
61,1830.8726496460656,2010-11-16 12:15:28,1710.856895540021,2,1,0.550297200679779,3.9181337356567374,0.261441731281643,0.0,1.010194660107683,0.0,3.237724376958795e-05,0.0,0,0,0
62,1860.8879292065844,2010-11-16 12:15:58,1740.8721750955267,2,1,0.5501165986061096,3.919266939163208,0.266029270681465,0.0,1.028172004533222,0.0,3.237724376958795e-05,0.0,0,0,0
63,1890.9032778946555,2010-11-16 12:16:28,1770.8875237835982,2,1,0.5501165986061096,3.920562028884888,0.270616662122508,0.0,1.046154242163347,0.0,3.237724376958795e-05,0.0,0,0,0
64,1920.9185470441869,2010-11-16 12:16:58,1800.9027929331291,2,1,0.550297200679779,3.921695232391357,0.275204184892587,0.0,1.064142346999539,0.0,6.47544875391759e-05,0.0,0,0,0
65,1950.9338577825297,2010-11-16 12:17:28,1830.9181036664595,2,1,0.550297200679779,3.922990322113037,0.279791673962133,0.0,1.082135849378117,0.0,3.237724376958795e-05,0.0,0,0,0
66,1980.9491606111287,2010-11-16 12:17:58,1860.9334065000712,2,1,0.5504778623580933,3.924123525619507,0.284379217461979,0.0,1.100135029946293,0.0,3.237724376958795e-05,0.0,0,0,0
67,2010.964614100801,2010-11-16 12:18:28,1890.948859994756,2,1,0.5501165986061096,3.925256729125977,0.288966505804453,0.0,1.118138814199972,0.0,6.47544875391759e-05,0.0,0,0,0
68,2040.9797879524533,2010-11-16 12:18:58,1920.9640338413965,2,1,0.5501165986061096,3.926551818847656,0.293553388634642,0.0,1.136146541699381,0.0,3.237724376958795e-05,0.0,0,0,0
69,2070.995200555066,2010-11-16 12:19:28,1950.9794464490208,2,1,0.5501165986061096,3.927846908569336,0.298140248772142,0.0,1.15415997536174,0.0,6.47544875391759e-05,0.0,0,0,0
70,2101.01051488738,2010-11-16 12:19:58,1980.994760781335,2,1,0.550297200679779,3.929141998291016,0.302727164947257,0.0,1.172179393647052,0.0,3.237724376958795e-05,0.0,0,0,0
71,2131.025712132426,2010-11-16 12:20:28,2011.009958026381,2,1,0.5499359965324402,3.930275201797485,0.307314026141529,0.0,1.190204372979016,0.0,3.237724376958795e-05,0.0,0,0,0
72,2161.040967778249,2010-11-16 12:20:58,2041.025213692255,2,1,0.5499359965324402,3.931570291519165,0.311900916827634,0.0,1.208235346204076,0.0,3.237724376958795e-05,0.0,0,0,0
73,2191.0562780905293,2010-11-16 12:21:28,2071.0405240045343,2,1,0.5501165986061096,3.9328653812408447,0.316487769307493,0.0,1.226272156393969,0.0,3.237724376958795e-05,0.0,0,0,0
74,2221.071727279466,2010-11-16 12:21:58,2101.0559731784338,2,1,0.550297200679779,3.9343223571777344,0.321074716222375,0.0,1.244315386978987,0.0,6.47544875391759e-05,0.0,0,0,0
75,2251.0869773614018,2010-11-16 12:22:28,2131.0712232703945,2,1,0.5501165986061096,3.935617446899414,0.325661601706247,0.0,1.262364456927515,0.0,3.237724376958795e-05,0.0,0,0,0
76,2281.102226927048,2010-11-16 12:22:58,2161.086472815991,2,1,0.550297200679779,3.9369125366210938,0.330248520521437,0.0,1.280419558724621,0.0,3.237724376958795e-05,0.0,0,0,0
77,2311.1175993894635,2010-11-16 12:23:28,2191.101845423769,2,1,0.5501165986061096,3.938369512557984,0.334835491105,0.0,1.298481128881939,0.0,6.47544875391759e-05,0.0,0,0,0
78,2341.1329505086032,2010-11-16 12:23:58,2221.1171964025584,2,1,0.5501165986061096,3.939664602279663,0.339422401100022,0.0,1.316548615530207,0.0,6.47544875391759e-05,0.0,0,0,0
79,2371.148134731144,2010-11-16 12:24:28,2251.132380620086,2,1,0.550297200679779,3.9411215782165527,0.344009295416162,0.0,1.334622330369081,0.0,9.713172767078504e-05,0.0,0,0,0
80,2401.1634065022185,2010-11-16 12:24:58,2281.147652391161,2,1,0.5499359965324402,3.942416667938232,0.34859628585204,0.0,1.352702744906363,0.0,6.47544875391759e-05,0.0,0,0,0
81,2431.1791601160467,2010-11-16 12:25:28,2311.163406015014,2,1,0.5501165986061096,3.943549871444702,0.353183189579696,0.0,1.370789239320438,0.0,0.0,0.0,0,0,0
82,2461.194059673018,2010-11-16 12:25:58,2341.178305566973,2,1,0.5501165986061096,3.9451687335968018,0.357770024174593,0.0,1.388881974526855,0.0,3.237724376958795e-05,0.0,0,0,0
83,2491.209356827453,2010-11-16 12:26:28,2371.193602716396,2,1,0.5501165986061096,3.9466257095336914,0.362356948187855,0.0,1.406981549799666,0.0,3.237724376958795e-05,0.0,0,0,0
84,2521.224625656183,2010-11-16 12:26:58,2401.2088715451264,2,1,0.5501165986061096,3.948082685470581,0.366943818178587,0.0,1.425087299700315,0.0,6.47544875391759e-05,0.0,0,0,0
85,2551.239933316844,2010-11-16 12:27:28,2431.224179205787,2,1,0.5501165986061096,3.9493777751922607,0.371530711207329,0.0,1.443199843961772,0.0,3.237724376958795e-05,0.0,0,0,0
86,2581.255375773977,2010-11-16 12:27:58,2461.2396216679326,2,1,0.5501165986061096,3.95099663734436,0.376117616032332,0.0,1.461319185141646,0.0,3.237724376958795e-05,0.0,0,0,0
87,2611.273555468677,2010-11-16 12:28:28,2491.257801462882,2,1,0.5501165986061096,3.95245361328125,0.380704978847875,0.0,1.479447161285211,0.0,3.237724376958795e-05,0.0,0,0,0
88,2641.285993887268,2010-11-16 12:28:58,2521.270239786236,2,1,0.5501165986061096,3.95391058921814,0.385291409925694,0.0,1.497578297668086,0.0,3.237724376958795e-05,0.0,0,0,0
89,2671.3011764757293,2010-11-16 12:29:28,2551.2854223897343,2,1,0.550297200679779,3.9555294513702393,0.389878281392178,0.0,1.515718028517956,0.0,3.237724376958795e-05,0.0,0,0,0
90,2701.316452392151,2010-11-16 12:29:58,2581.300698281094,2,1,0.550297200679779,3.956986427307129,0.394465168359417,0.0,1.533864793081834,0.0,6.47544875391759e-05,0.0,0,0,0
91,2731.3317813409503,2010-11-16 12:30:28,2611.316027229893,2,1,0.550297200679779,3.958605289459229,0.399052077364597,0.0,1.552018537475252,0.0,6.47544875391759e-05,0.0,0,0,0
92,2761.3470781294727,2010-11-16 12:30:58,2641.331324018415,2,1,0.5499359965324402,3.959900379180908,0.403638984635624,0.0,1.570179507933141,0.0,3.237724376958795e-05,0.0,0,0,0
93,2791.362357740116,2010-11-16 12:31:28,2671.346603629059,2,1,0.5501165986061096,3.9616811275482178,0.408225923161147,0.0,1.588347829881994,0.0,6.47544875391759e-05,0.0,0,0,0
94,2821.377663927098,2010-11-16 12:31:58,2701.3619098160407,2,1,0.5499359965324402,3.963299989700317,0.412812885028376,0.0,1.606523508029809,0.0,6.47544875391759e-05,0.0,0,0,0
95,2851.392987763136,2010-11-16 12:32:28,2731.3772336520774,2,1,0.5501165986061096,3.964918851852417,0.417399760643712,0.0,1.624706264476423,0.0,3.237724376958795e-05,0.0,0,0,0
96,2881.4082986017283,2010-11-16 12:32:58,2761.392544515734,2,1,0.550297200679779,3.966699600219727,0.421986699401856,0.0,1.642896791673354,0.0,9.713172767078504e-05,0.0,0,0,0
97,2911.423584387787,2010-11-16 12:33:28,2791.407830301792,2,1,0.5501165986061096,3.968156576156616,0.426573653449957,0.0,1.661094992423592,0.0,3.237724376958795e-05,0.0,0,0,0
98,2941.439000423969,2010-11-16 12:33:58,2821.4232463179246,2,1,0.550297200679779,3.969775438308716,0.431160554013056,0.0,1.679300669542057,0.0,3.237724376958795e-05,0.0,0,0,0
99,2971.4541955938357,2010-11-16 12:34:28,2851.438441482778,2,1,0.5504778623580933,3.971879959106445,0.435747476915612,0.0,1.697514154739425,0.0,0.0001295089750783,0.0,0,0,0
100,3001.46948183102,2010-11-16 12:34:58,2881.4537277199624,2,1,0.550297200679779,3.973498821258545,0.440334485997745,0.0,1.715735895059917,0.0,9.713172767078504e-05,0.0,0,0,0
101,3031.4848001532937,2010-11-16 12:35:28,2911.469046047249,2,1,0.550297200679779,3.975117683410645,0.444921443380288,0.0,1.733965378341955,0.0,3.237724376958795e-05,0.0,0,0,0
102,3061.5001035683563,2010-11-16 12:35:58,2941.4843494572992,2,1,0.550297200679779,3.976898431777954,0.449508500712399,0.0,1.752203315529759,0.0,3.237724376958795e-05,0.0,0,0,0
103,3091.5154370685163,2010-11-16 12:36:28,2971.499682982522,2,1,0.5499359965324402,3.978679180145264,0.454095464934349,0.0,1.770448584010981,0.0,0.0001295089750783,0.0,0,0,0
104,3121.5308554405296,2010-11-16 12:36:58,3001.515101334485,2,1,0.550297200679779,3.980459928512573,0.458682350476592,0.0,1.788702210377277,0.0,3.237724376958795e-05,0.0,0,0,0
105,3151.5460043348853,2010-11-16 12:37:28,3031.530250223828,2,1,0.5501165986061096,3.982240676879883,0.463269181444392,0.0,1.806963923186763,0.0,3.237724376958795e-05,0.0,0,0,0
106,3181.561440977505,2010-11-16 12:37:58,3061.545686886497,2,1,0.550297200679779,3.9841833114624015,0.467856080269443,0.0,1.825234230028259,0.0,6.47544875391759e-05,0.0,0,0,0
107,3211.576912993421,2010-11-16 12:38:28,3091.5611589074265,2,1,0.5501165986061096,3.985802173614502,0.472442951197869,0.0,1.84351280868856,0.0,3.237724376958795e-05,0.0,0,0,0
108,3241.5919231965822,2010-11-16 12:38:58,3121.576169085525,2,1,0.5499359965324402,3.9877448081970215,0.477029830628365,0.0,1.861799982328446,0.0,3.237724376958795e-05,0.0,0,0,0
109,3271.607372891783,2010-11-16 12:39:29,3151.591618790751,2,1,0.550297200679779,3.989687442779541,0.481616672160589,0.0,1.88009537954292,0.0,9.713172767078504e-05,0.0,0,0,0
110,3301.622677309348,2010-11-16 12:39:59,3181.606923223353,2,1,0.550297200679779,3.9914681911468506,0.486203546514679,0.0,1.898399622748539,0.0,6.47544875391759e-05,0.0,0,0,0
111,3331.6378348352496,2010-11-16 12:40:29,3211.6220807241925,2,1,0.550297200679779,3.99357271194458,0.490790382577719,0.0,1.916712507658255,0.0,9.713172767078504e-05,0.0,0,0,0
112,3361.653126661385,2010-11-16 12:40:59,3241.637372550327,2,1,0.5501165986061096,3.995353221893311,0.49537727390898,0.0,1.935034529806992,0.0,0.0,0.0,0,0,0
113,3391.668425906038,2010-11-16 12:41:29,3271.652671784956,2,1,0.550297200679779,3.99761962890625,0.499964088799338,0.0,1.953365223795062,0.0,9.713172767078504e-05,0.0,0,0,0
114,3421.683757145555,2010-11-16 12:41:59,3301.6680030595603,2,1,0.5501165986061096,3.99940037727356,0.504550997392531,0.0,1.971705328455018,0.0,9.713172767078504e-05,0.0,0,0,0
115,3451.699059222278,2010-11-16 12:42:29,3331.6833051112203,2,1,0.5501165986061096,4.001343250274658,0.509137748202126,0.0,1.990053882643067,0.0,6.47544875391759e-05,0.0,0,0,0
116,3481.7144413788915,2010-11-16 12:42:59,3361.698687277859,2,1,0.5499359965324402,4.003123760223389,0.513724612743336,0.0,2.00841216605583,0.0,0.0,0.0,0,0,0
117,3511.7296731751826,2010-11-16 12:43:29,3391.713919064125,2,1,0.5501165986061096,4.005390167236328,0.518311496922313,0.0,2.026779811223185,0.0,3.23295607813634e-05,0.0,0,0,0
118,3541.744948575316,2010-11-16 12:43:59,3421.729194464259,2,1,0.5501165986061096,4.007656574249268,0.522898319956653,0.0,2.045156670923447,0.0,9.70840483205393e-05,0.0,0,0,0
119,3571.7604729068203,2010-11-16 12:44:29,3451.744718795763,2,1,0.5501165986061096,4.009599208831787,0.527485256834231,0.0,2.063543453211357,0.0,6.47544875391759e-05,0.0,0,0,0
120,3601.775561425469,2010-11-16 12:44:59,3481.759807314412,2,1,0.5501165986061096,4.011703968048096,0.532072055428566,0.0,2.081939306471392,0.0,3.24249267578125e-05,0.0,0,0,0
121,3631.79085431927,2010-11-16 12:45:29,3511.7751002082123,2,1,0.550297200679779,4.013808250427246,0.536658926204472,0.0,2.100345242728496,0.0,6.47544875391759e-05,0.0,0,0,0
122,3661.806160315776,2010-11-16 12:45:59,3541.7904062047187,2,1,0.5501165986061096,4.0160746574401855,0.541245788953706,0.0,2.118760967851941,0.0,6.47544875391759e-05,0.0,0,0,0
123,3691.821489605426,2010-11-16 12:46:29,3571.805735499381,2,1,0.550297200679779,4.018179416656494,0.545832655839121,0.0,2.13718671657233,0.0,6.47544875391759e-05,0.0,0,0,0
124,3721.8367885142407,2010-11-16 12:46:59,3601.8210344282456,2,1,0.5501165986061096,4.0202836990356445,0.550419558653878,0.0,2.155622593459457,0.0,3.23295607813634e-05,0.0,0,0,0
125,3751.852073653685,2010-11-16 12:47:29,3631.836319542628,2,1,0.5501165986061096,4.022550106048584,0.555006419714864,0.0,2.174068604055713,0.0,3.23295607813634e-05,0.0,0,0,0
126,3781.867381033645,2010-11-16 12:47:59,3661.851626922587,2,1,0.5501165986061096,4.024816513061523,0.559593283590787,0.0,2.192525024043228,0.0,6.47544875391759e-05,0.0,0,0,0
127,3811.882708368415,2010-11-16 12:48:29,3691.86695426237,2,1,0.5501165986061096,4.027082920074463,0.564180106729352,0.0,2.210991666878465,0.0,9.70840483205393e-05,0.0,0,0,0
128,3841.897988390084,2010-11-16 12:48:59,3721.882234279027,2,1,0.5501165986061096,4.029511451721191,0.568766972747598,0.0,2.229468932201237,0.0,9.71794142969884e-05,0.0,0,0,0
129,3871.913293178576,2010-11-16 12:49:29,3751.8975390725313,2,1,0.5501165986061096,4.031777858734131,0.573353865298498,0.0,2.247956724913853,0.0,6.47544875391759e-05,0.0,0,0,0
130,3901.9285939921447,2010-11-16 12:49:59,3781.912839881088,2,1,0.550297200679779,4.034205913543701,0.577940704945296,0.0,2.266454988310289,0.0,9.70840483205393e-05,0.0,0,0,0
131,3931.943928534907,2010-11-16 12:50:29,3811.9281744489126,2,1,0.5501165986061096,4.036472320556641,0.582527510780495,0.0,2.284963901895889,0.0,3.24249267578125e-05,0.0,0,0,0
132,3961.959245669216,2010-11-16 12:50:59,3841.9434915581583,2,1,0.550297200679779,4.038900375366211,0.58711434757505,0.0,2.303483889512093,0.0,9.70840483205393e-05,0.0,0,0,0
133,3991.974503926559,2010-11-16 12:51:29,3871.9587498155006,2,1,0.5501165986061096,4.04116678237915,0.591701251793246,0.0,2.32201510052769,0.0,6.47544875391759e-05,0.0,0,0,0
134,4021.9898073817217,2010-11-16 12:51:59,3901.974053270664,2,1,0.5499359965324402,4.043595314025879,0.596288132487089,0.0,2.340557330472845,0.0,6.47544875391759e-05,0.0,0,0,0
135,4052.005124977181,2010-11-16 12:52:29,3931.989370871136,2,1,0.5501165986061096,4.046023368835449,0.600874914113516,0.0,2.359110371147357,0.0,0.0,0.0,0,0,0
136,4082.020420878488,2010-11-16 12:52:59,3962.004666772443,2,1,0.5501165986061096,4.048613548278809,0.605461730014076,0.0,2.377674829219595,0.0,6.47544875391759e-05,0.0,0,0,0
137,4112.035723526637,2010-11-16 12:53:29,3992.019969415579,2,1,0.5501165986061096,4.051042079925537,0.610048555840291,0.0,2.396250766073662,0.0,3.24249267578125e-05,0.0,0,0,0
138,4142.051192830785,2010-11-16 12:53:59,4022.035438719727,2,1,0.5499359965324402,4.0536322593688965,0.614635471625569,0.0,2.41483863479897,0.0,6.47544875391759e-05,0.0,0,0,0
139,4172.066478301055,2010-11-16 12:54:29,4052.0507241899977,2,1,0.5501165986061096,4.056222438812256,0.619222369039292,0.0,2.433438001074891,0.0,9.71794142969884e-05,0.0,0,0,0
140,4202.0816336014,2010-11-16 12:54:59,4082.065879490344,2,1,0.5501165986061096,4.058812618255615,0.623809220423734,0.0,2.452048895493674,0.0,9.71794142969884e-05,0.0,0,0,0
141,4232.097066985887,2010-11-16 12:55:29,4112.08131287483,2,1,0.5501165986061096,4.061079025268555,0.628396127978211,0.0,2.470671669971554,0.0,6.47544875391759e-05,0.0,0,0,0
142,4262.112276441413,2010-11-16 12:55:59,4142.096522345393,2,1,0.5501165986061096,4.063830852508545,0.632982910986364,0.0,2.489305643793693,0.0,6.47544875391759e-05,0.0,0,0,0
143,4292.127561761307,2010-11-16 12:56:29,4172.11180765025,2,1,0.550297200679779,4.066583156585693,0.637569732665521,0.0,2.50795186250418,0.0,0.0001295089750783,0.0,0,0,0
144,4322.142852224039,2010-11-16 12:56:59,4202.127098133033,2,1,0.5499359965324402,4.069011211395264,0.64215653122764,0.0,2.526610053442858,0.0,3.23295607813634e-05,0.0,0,0,0
145,4352.158593096063,2010-11-16 12:57:29,4232.14283899503,2,1,0.5501165986061096,4.071763515472412,0.646743402784694,0.0,2.545280729664903,0.0,3.24249267578125e-05,0.0,0,0,0
146,4382.173463184475,2010-11-16 12:57:59,4262.157709088455,2,1,0.5501165986061096,4.074515342712402,0.651330176918085,0.0,2.563963340491137,0.0,6.47544875391759e-05,0.0,0,0,0
147,4412.188785426533,2010-11-16 12:58:29,4292.173031315476,2,1,0.550297200679779,4.077267646789551,0.655916983286611,0.0,2.582658470400078,0.0,9.71794142969884e-05,0.0,0,0,0
148,4442.204067112357,2010-11-16 12:58:59,4322.188313001299,2,1,0.5501165986061096,4.080019474029541,0.660503857941844,0.0,2.601366374531461,0.0,9.70840483205393e-05,0.0,0,0,0
149,4472.219328778208,2010-11-16 12:59:29,4352.203574692212,2,1,0.5499359965324402,4.0826096534729,0.665090731093149,0.0,2.620086798355712,0.0,6.47544875391759e-05,0.0,0,0,0
150,4502.234651822268,2010-11-16 12:59:59,4382.21889771121,2,1,0.5501165986061096,4.085361957550049,0.66967754354737,0.0,2.638819600789253,0.0,6.47544875391759e-05,0.0,0,0,0
151,4532.254100339142,2010-11-16 13:00:29,4412.238346338359,2,1,0.5501165986061096,4.088113784790039,0.674264999586955,0.0,2.657567851722404,0.0,3.23295607813634e-05,0.0,0,0,0
152,4562.265336737305,2010-11-16 13:00:59,4442.249582706448,2,1,0.5499359965324402,4.091189861297607,0.678851205159196,0.0,2.676323989094091,0.0,6.47544875391759e-05,0.0,0,0,0
153,4592.280519561354,2010-11-16 13:01:29,4472.264765480372,2,1,0.5501165986061096,4.093941688537598,0.683438021658768,0.0,2.695095531601631,0.0,6.47544875391759e-05,0.0,0,0,0
154,4622.295849873557,2010-11-16 13:01:59,4502.2800957625,2,1,0.550297200679779,4.097017765045166,0.688024865025259,0.0,2.713880349965531,0.0,0.0001295089750783,0.0,0,0,0
155,4652.311205819746,2010-11-16 13:02:29,4532.295451708688,2,1,0.550297200679779,4.099769592285156,0.692611702492332,0.0,2.732678444180882,0.0,9.70840483205393e-05,0.0,0,0,0
156,4682.326539054242,2010-11-16 13:02:59,4562.310784938172,2,1,0.5501165986061096,4.102683544158936,0.697198626619682,0.0,2.751490195447688,0.0,9.70840483205393e-05,0.0,0,0,0
157,4712.341831637267,2010-11-16 13:03:29,4592.326077531222,2,1,0.550297200679779,4.105597496032715,0.701785462096867,0.0,2.770315014630921,0.0,9.70840483205393e-05,0.0,0,0,0
158,4742.357114496018,2010-11-16 13:03:59,4622.34136038496,2,1,0.5499359965324402,4.108511447906494,0.706372334943208,0.0,2.789153574563517,0.0,6.47544875391759e-05,0.0,0,0,0
159,4772.372440447335,2010-11-16 13:04:29,4652.356686331265,2,1,0.5501165986061096,4.111425399780273,0.710959236854367,0.0,2.808005892371626,0.0,6.47544875391759e-05,0.0,0,0,0
160,4802.387713120662,2010-11-16 13:04:59,4682.371959004592,2,1,0.5501165986061096,4.114339351654053,0.715546082954484,0.0,2.826871555360826,0.0,3.23295607813634e-05,0.0,0,0,0
161,4832.403016380337,2010-11-16 13:05:29,4712.387262264268,2,1,0.5501165986061096,4.117414951324463,0.720132930624859,0.0,2.84575098148909,0.0,6.47544875391759e-05,0.0,0,0,0
162,4862.418444271111,2010-11-16 13:05:59,4742.402690155041,2,1,0.550297200679779,4.120491027832031,0.724719833090793,0.0,2.864644525843276,0.0,6.47544875391759e-05,0.0,0,0,0
163,4892.433639551252,2010-11-16 13:06:29,4772.417885440195,2,1,0.5501165986061096,4.123566627502441,0.729306724013192,0.0,2.883551972669904,0.0,9.70840483205393e-05,0.0,0,0,0
164,4922.448925277161,2010-11-16 13:06:59,4802.433171166103,2,1,0.5501165986061096,4.12664270401001,0.73389355783991,0.0,2.902473316821534,0.0,6.47544875391759e-05,0.0,0,0,0
165,4952.464234596962,2010-11-16 13:07:29,4832.448480485905,2,1,0.550297200679779,4.129880428314209,0.738480394123737,0.0,2.921408964324271,0.0,9.71794142969884e-05,0.0,0,0,0
166,4982.479566733719,2010-11-16 13:07:59,4862.463812642713,2,1,0.5499359965324402,4.132956027984619,0.743067325658639,0.0,2.940359446503679,0.0,6.47544875391759e-05,0.0,0,0,0
167,5012.494857156351,2010-11-16 13:08:29,4892.479103045294,2,1,0.5501165986061096,4.136193752288818,0.747654206203771,0.0,2.959324102369737,0.0,9.70840483205393e-05,0.0,0,0,0
168,5042.510167062617,2010-11-16 13:08:59,4922.49441295156,2,1,0.5501165986061096,4.139269828796387,0.752241089035173,0.0,2.978303409901923,0.0,9.71794142969884e-05,0.0,0,0,0
169,5072.525448297314,2010-11-16 13:09:29,4952.509694181244,2,1,0.5501165986061096,4.142345428466797,0.756827967492416,0.0,2.997297425966876,0.0,3.23295607813634e-05,0.0,0,0,0
170,5102.540861391152,2010-11-16 13:09:59,4982.525107290121,2,1,0.5501165986061096,4.145745277404785,0.761414904070341,0.0,3.016306585997718,0.0,3.24249267578125e-05,0.0,0,0,0
171,5132.556473090741,2010-11-16 13:10:29,5012.540719024797,2,1,0.550297200679779,4.149144649505615,0.766001801213612,0.0,3.035330616362117,0.0,9.70840483205393e-05,0.0,0,0,0
172,5162.571379289291,2010-11-16 13:10:59,5042.555625198283,2,1,0.5501165986061096,4.152382373809815,0.770588550525269,0.0,3.054369078095744,0.0,9.70840483205393e-05,0.0,0,0,0
173,5192.5866971153255,2010-11-16 13:11:30,5072.5709430193065,2,1,0.5501165986061096,4.155620098114014,0.775175339341857,0.0,3.073422743061568,0.0,9.70840483205393e-05,0.0,0,0,0
174,5222.601991984056,2010-11-16 13:12:00,5102.586237893049,2,1,0.5499359965324402,4.158857822418213,0.779762107469035,0.0,3.092491615810297,0.0,6.47544875391759e-05,0.0,0,0,0
175,5252.617334140824,2010-11-16 13:12:30,5132.601580024753,2,1,0.550297200679779,4.162419319152832,0.784348903231086,0.0,3.111575848035677,0.0,0.0001295089750783,0.0,0,0,0
176,5282.632678397835,2010-11-16 13:13:00,5162.616924402066,2,1,0.5501165986061096,4.16581916809082,0.788935786861732,0.0,3.130675850235454,0.0,9.71794142969884e-05,0.0,0,0,0
177,5312.6479243745225,2010-11-16 13:13:30,5192.632170263466,2,1,0.5499359965324402,4.16905689239502,0.793522570108061,0.0,3.149790937099086,0.0,6.47544875391759e-05,0.0,0,0,0
178,5342.663203769628,2010-11-16 13:14:00,5222.647449658571,2,1,0.5501165986061096,4.172618389129639,0.798109314982481,0.0,3.168921421345435,0.0,0.0001295089750783,0.0,0,0,0
179,5372.678539094343,2010-11-16 13:14:30,5252.662784978273,2,1,0.5501165986061096,4.176017761230469,0.802696145882845,0.0,3.188068133808159,0.0,9.70840483205393e-05,0.0,0,0,0
180,5402.693963140519,2010-11-16 13:15:00,5282.678209034475,2,1,0.5499359965324402,4.179579257965088,0.807282992473057,0.0,3.207230754313615,0.0,9.70840483205393e-05,0.0,0,0,0
181,5432.709110851922,2010-11-16 13:15:30,5312.693356740865,2,1,0.5504778623580933,4.183140754699707,0.811869790508784,0.0,3.22640913532885,0.0,9.70840483205393e-05,0.0,0,0,0
182,5462.724555469447,2010-11-16 13:16:00,5342.708801358391,2,1,0.5501165986061096,4.186378479003906,0.816456624818617,0.0,3.245603686495789,0.0,9.70840483205393e-05,0.0,0,0,0
183,5492.739738704523,2010-11-16 13:16:30,5372.7239845934655,2,1,0.5499359965324402,4.189939975738525,0.821043479883808,0.0,3.264814559031417,0.0,9.70840483205393e-05,0.0,0,0,0
184,5522.75505204436,2010-11-16 13:17:00,5402.73929792829,2,1,0.550297200679779,4.193663597106934,0.825630299093325,0.0,3.284041504405789,0.0,9.71794142969884e-05,0.0,0,0,0
185,5552.77034888802,2010-11-16 13:17:30,5432.75459477195,2,1,0.5501165986061096,4.197062969207764,0.830217115061318,0.0,3.303284816568326,0.0,9.71794142969884e-05,0.0,0,0,0
186,5576.004468219351,2010-11-16 13:17:53,5455.9887141032805,2,1,0.5504778623580933,4.200138568878174,0.833767665640791,0.0,3.318191960576344,0.0,0.0001295089750783,0.0,0,0,0
187,5606.020199243486,2010-11-16 13:18:23,30.0154323970218,3,1,0.0,4.1190338134765625,0.833767665640791,0.0,3.318191960576344,0.0,-0.0003561973571777,0.0,0,0,0
188,5636.03536301999,2010-11-16 13:18:53,60.03059616851294,3,1,0.0,4.109644889831543,0.833767665640791,0.0,3.318191960576344,0.0,-0.0001942634553415,0.0,0,0,0
189,5666.0510871401975,2010-11-16 13:19:23,90.0463202887207,3,1,0.0,4.104464530944824,0.833767665640791,0.0,3.318191960576344,0.0,-9.70840483205393e-05,0.0,0,0,0
190,5696.019261243248,2010-11-16 13:19:53,120.01449439177024,3,1,0.0,4.100903034210205,0.833767665640791,0.0,3.318191960576344,0.0,-9.70840483205393e-05,0.0,0,0,0
191,5696.019716055279,2010-11-16 13:19:53,2.491218465e-06,4,1,0.9526947140693665,4.199814796447754,0.83376766630006,0.0,3.318191963345154,0.0,0.0,0.0,0,0,0
192,5697.175946765012,2010-11-16 13:19:54,1.156233221001654,4,1,0.902665913105011,4.199814796447754,0.834063814393701,0.0,3.319435706458103,0.0,0.0,0.0,0,0,0
193,5699.738423436011,2010-11-16 13:19:57,3.718709891999645,4,1,0.8524565696716309,4.199814796447754,0.83468705852829,0.0,3.322053186230608,0.0,0.0,0.0,0,0,0
194,5703.550877928956,2010-11-16 13:20:01,7.531164384945499,4,1,0.802247166633606,4.199814796447754,0.835561748092599,0.0,3.325726682019506,0.0,3.23295607813634e-05,0.0,0,0,0
195,5708.738389074854,2010-11-16 13:20:06,12.71867555590686,4,1,0.7522183656692505,4.199814796447754,0.836679915513591,0.0,3.33042275000682,0.0,0.0,0.0,0,0,0
196,5715.51950759493,2010-11-16 13:20:13,19.49979405091941,4,1,0.7021896243095398,4.199814796447754,0.838047428661341,0.0,3.336166026757875,0.0,0.0,0.0,0,0,0
197,5724.566402952572,2010-11-16 13:20:22,28.54668940856214,4,1,0.6521608829498291,4.199814796447754,0.839746543905356,0.0,3.343301973396731,0.0,0.0,0.0,0,0,0
198,5737.206791722618,2010-11-16 13:20:34,41.18707817860738,4,1,0.6021320819854736,4.199976921081543,0.841943927427185,0.0,3.352530534859199,0.0,3.24249267578125e-05,0.0,0,0,0
199,5756.066383074107,2010-11-16 13:20:53,60.046669580221405,4,1,0.5521033406257629,4.199653148651123,0.844957801096432,0.0,3.36518820780503,0.0,0.0,0.0,0,0,0
200,5787.612489348615,2010-11-16 13:21:25,91.59277580460456,4,1,0.5020745396614075,4.199814796447754,0.849556474179309,0.0,3.384501682886773,0.0,-3.24249267578125e-05,0.0,0,0,0
201,5844.893130075275,2010-11-16 13:22:22,148.87341653126458,4,1,0.4518651664257049,4.199814796447754,0.857112698267637,0.0,3.416236295966546,0.0,0.0,0.0,0,0,0
202,5934.973306654505,2010-11-16 13:23:52,238.95359319570773,4,1,0.401475191116333,4.199814796447754,0.867767862783433,0.0,3.460985811307277,0.0,3.23295607813634e-05,0.0,0,0,0
203,6050.531730383352,2010-11-16 13:25:48,354.51201683934124,4,1,0.3514464199542999,4.199653148651123,0.879842253256439,0.0,3.511695916070758,0.0,-3.23295607813634e-05,0.0,0,0,0
204,6188.608246033957,2010-11-16 13:28:06,492.588532489946,4,1,0.3014176487922668,4.199814796447754,0.892344075210254,0.0,3.564201104308064,0.0,3.23295607813634e-05,0.0,0,0,0
205,6354.903336423428,2010-11-16 13:30:52,658.8836228794182,4,1,0.2513888776302337,4.199814796447754,0.905092063663561,0.0,3.617740137059993,0.0,0.0,0.0,0,0,0
206,6563.870136274596,2010-11-16 13:34:21,867.8504227506352,4,1,0.2013601064682006,4.199814796447754,0.918201479291486,0.0,3.672797121691754,0.0,0.0,0.0,0,0,0
207,6840.007664242099,2010-11-16 13:38:57,1143.9879506980883,4,1,0.1513313353061676,4.199814796447754,0.93165667293771,0.0,3.72930635522028,0.0,-3.24249267578125e-05,0.0,0,0,0
208,7246.659459670303,2010-11-16 13:45:44,1550.6397461262925,4,1,0.1013025641441345,4.199814796447754,0.945748750250111,0.0,3.788490352438406,0.0,-3.24249267578125e-05,0.0,0,0,0
209,7997.260845711999,2010-11-16 13:58:14,2301.2411321679883,4,1,0.0512737929821014,4.199814796447754,0.961064429618962,0.0,3.852813374549531,0.0,-3.24249267578125e-05,0.0,0,0,0
210,8031.307321693969,2010-11-16 13:58:49,2335.287608180034,4,1,0.0496483072638511,4.199814796447754,0.961547116269486,0.0,3.8548405633763,0.0,0.0,0.0,0,0,0
211,8061.323184649973,2010-11-16 13:59:19,30.015289665742568,5,1,0.0,4.192206382751465,0.961547116269486,0.0,3.8548405633763,0.0,-6.47544875391759e-05,0.0,0,0,0
212,8091.322861213008,2010-11-16 13:59:49,60.0149662037162,5,1,0.0,4.191235065460205,0.961547116269486,0.0,3.8548405633763,0.0,0.0,0.0,0,0,0
213,8091.526284922427,2010-11-16 13:59:49,0.203194304244055,6,1,-1.9243103452026844e-05,4.191235065460205,0.961547116269486,1.086136e-09,3.8548405633763,4.55225e-09,0.0,0.0930307656526565,0,0,0
214,8096.338585424835,2010-11-16 13:59:54,5.015494811664501,6,1,0.0007031940040178,4.191073417663574,0.961547972194565,1.086136e-09,3.854844150804439,4.55225e-09,-3.23295607813634e-05,0.0930307656526565,0,0,0
215,8126.354190161752,2010-11-16 14:00:24,30.01531224710913,7,1,-1.099568486213684,4.024331092834473,0.961547972194565,0.009168877033938,3.854844150804439,0.037074278201758,-0.0007770538213662,0.0930307656526565,0,0,0
216,8156.369506499072,2010-11-16 14:00:54,60.0306286044781,7,1,-1.0997490882873535,4.000857353210449,0.961547972194565,0.018337732764113,3.854844150804439,0.07385492760215,-0.0004532813909463,0.0930307656526565,0,0,0
217,8186.38471843579,2010-11-16 14:01:24,90.04584054119707,7,1,-1.0997490882873535,3.984668970108032,0.961547972194565,0.027507210933461,3.854844150804439,0.110461240229719,-0.0003237724304199,0.0930307656526565,0,0,0
218,8216.400028582657,2010-11-16 14:01:54,120.06115068305115,7,1,-1.099568486213684,3.972203731536865,0.961547972194565,0.036676645969807,3.854844150804439,0.146938191476171,-0.0002913951757363,0.0930307656526565,0,0,0
219,8246.415349030236,2010-11-16 14:02:24,150.07647113564244,7,1,-1.0997490882873535,3.961357355117798,0.961547972194565,0.045845910542561,3.854844150804439,0.183308894115418,-0.0002266406954731,0.0930307656526565,0,0,0
220,8276.430795577578,2010-11-16 14:02:54,180.0919176829856,7,1,-1.0997490882873535,3.9516441822052,0.961547972194565,0.055015324830684,3.854844150804439,0.219586537993885,-0.0002266406954731,0.0930307656526565,0,0,0
221,8306.44596509341,2010-11-16 14:03:24,210.107087183778,7,1,-1.099929690361023,3.9422547817230233,0.961547972194565,0.064184689063418,3.854844150804439,0.255776933055691,-0.0002590179501567,0.0930307656526565,0,0,0
222,8336.461278668834,2010-11-16 14:03:54,240.1224007792528,7,1,-1.099568486213684,3.933512926101685,0.961547972194565,0.073354135901154,3.854844150804439,0.291884065817461,-0.0001618862152099,0.0930307656526565,0,0,0
223,8366.47660067029,2010-11-16 14:04:24,270.13772277569785,7,1,-1.099568486213684,3.924447298049927,0.961547972194565,0.082523023392054,3.854844150804439,0.32790766184433,-0.0002266406954731,0.0930307656526565,0,0,0
224,8396.49200672155,2010-11-16 14:04:54,300.1531288269565,7,1,-1.0997490882873535,3.915867328643799,0.961547972194565,0.091691629180652,3.854844150804439,0.363850164754919,-0.0002266406954731,0.0930307656526565,0,0,0
225,8426.507193530546,2010-11-16 14:05:24,330.1683156159028,7,1,-1.0997490882873535,3.90744948387146,0.961547972194565,0.100860215996902,3.854844150804439,0.399715211256664,-0.0002590179501567,0.0930307656526565,0,0,0
226,8456.52248880529,2010-11-16 14:05:54,360.1836109207213,7,1,-1.099568486213684,3.899193286895752,0.961547972194565,0.110028848182217,3.854844150804439,0.435503850455079,-0.0002266406954731,0.0930307656526565,0,0,0
227,8486.538069061391,2010-11-16 14:06:24,390.1991911517596,7,1,-1.0997490882873535,3.891098976135254,0.961547972194565,0.119197548580927,3.854844150804439,0.471217006203046,-0.0002266406954731,0.0930307656526565,0,0,0
228,8516.553235815325,2010-11-16 14:06:54,420.214357960833,7,1,-1.099568486213684,3.883004665374756,0.961547972194565,0.128366160543459,3.854844150804439,0.506855416381106,-0.0001942634553415,0.0930307656526565,0,0,0
229,8546.568414869966,2010-11-16 14:07:24,450.2295369553231,7,1,-1.099568486213684,3.875072240829468,0.961547972194565,0.137534812583647,3.854844150804439,0.542421537878514,-0.0001942634553415,0.0930307656526565,0,0,0
230,8576.583723628368,2010-11-16 14:07:54,480.2448457337739,7,1,-1.099568486213684,3.8673017024993896,0.961547972194565,0.14670355549194,3.854844150804439,0.577915735460263,-0.0002266406954731,0.0930307656526565,0,0,0
231,8606.599010968304,2010-11-16 14:08:24,510.26013305366087,7,1,-1.099568486213684,3.8596930503845215,0.961547972194565,0.155872261256122,3.854844150804439,0.613338345256151,-0.0001942634553415,0.0930307656526565,0,0,0
232,8636.614317696638,2010-11-16 14:08:54,540.2754397819944,7,1,-1.0993878841400146,3.8519225120544434,0.961547972194565,0.165041021254702,3.854844150804439,0.64869030087448,-0.0001942634553415,0.0930307656526565,0,0,0
233,8666.63263007253,2010-11-16 14:09:24,570.2937521879614,7,1,-1.0997490882873535,3.844313859939575,0.961547972194565,0.174210598421296,3.854844150804439,0.683975470753802,-0.0001942634553415,0.0930307656526565,0,0,0
234,8696.64495342891,2010-11-16 14:09:54,600.306075519277,7,1,-1.0997490882873535,3.836705207824707,0.961547972194565,0.183378382037656,3.854844150804439,0.719183643929701,-0.0001942634553415,0.0930307656526565,0,0,0
235,8726.66024574627,2010-11-16 14:10:24,630.321367861701,7,1,-1.099568486213684,3.829258680343628,0.961547972194565,0.192547138552059,3.854844150804439,0.754327222305097,-0.0001942634553415,0.0930307656526565,0,0,0
236,8756.675602499472,2010-11-16 14:10:54,660.3367245848291,7,1,-1.099568486213684,3.82197380065918,0.961547972194565,0.201715909601657,3.854844150804439,0.789403675601721,-0.0001942634553415,0.0930307656526565,0,0,0
237,8786.69101729255,2010-11-16 14:11:24,690.3521393879338,7,1,-1.0997490882873535,3.815012693405152,0.961547972194565,0.21088467002976,3.854844150804439,0.82441460800556,-0.0001942634553415,0.0930307656526565,0,0,0
238,8816.706125430172,2010-11-16 14:11:54,720.3672475405917,7,1,-1.099568486213684,3.807889699935913,0.961547972194565,0.22005333889712,3.854844150804439,0.859360063694821,-0.0001942634553415,0.0930307656526565,0,0,0
239,8846.721429316412,2010-11-16 14:12:24,750.3825514067807,7,1,-1.0993878841400146,3.801090478897095,0.961547972194565,0.229222049338535,3.854844150804439,0.894241626826952,-0.0001618862152099,0.0930307656526565,0,0,0
240,8876.736710004745,2010-11-16 14:12:54,780.3978320901018,7,1,-1.099568486213684,3.7941293716430655,0.961547972194565,0.238390759178488,3.854844150804439,0.929060138141418,-0.0001618862152099,0.0930307656526565,0,0,0
241,8906.752077098761,2010-11-16 14:13:24,810.4131992141923,7,1,-1.0997490882873535,3.787653923034668,0.961547972194565,0.247559464063782,3.854844150804439,0.963817183341146,-0.0001295089750783,0.0930307656526565,0,0,0
242,8936.767437746686,2010-11-16 14:13:54,840.4285599423174,7,1,-1.099568486213684,3.7811784744262695,0.961547972194565,0.256728169808454,3.854844150804439,0.998514511597037,-0.0001942634553415,0.0930307656526565,0,0,0
243,8966.782655096918,2010-11-16 14:14:24,870.4437772123492,7,1,-1.0997490882873535,3.774541139602661,0.961547972194565,0.265896772134647,3.854844150804439,1.033151800230004,-0.0001942634553415,0.0930307656526565,0,0,0
244,8996.798097158064,2010-11-16 14:14:54,900.4592192684815,7,1,-1.0997490882873535,3.7682275772094727,0.961547972194565,0.275065502905223,3.854844150804439,1.067731134706486,-0.0001942634553415,0.0930307656526565,0,0,0
245,9026.813394292449,2010-11-16 14:15:24,930.4745164028672,7,1,-1.099568486213684,3.762075901031494,0.961547972194565,0.284234189661179,3.854844150804439,1.102252577504799,-0.0001618862152099,0.0930307656526565,0,0,0
246,9056.828565883456,2010-11-16 14:15:54,960.4896879988894,7,1,-1.0997490882873535,3.755924224853516,0.961547972194565,0.293402886220969,3.854844150804439,1.136717870545287,-0.0001942634553415,0.0930307656526565,0,0,0
247,9086.843993403309,2010-11-16 14:16:24,990.5051155087122,7,1,-1.099568486213684,3.750096559524536,0.961547972194565,0.302571689021107,3.854844150804439,1.171128883974416,-0.0001618862152099,0.0930307656526565,0,0,0
248,9116.859160297592,2010-11-16 14:16:54,1020.5202823829482,7,1,-1.0993878841400146,3.7442686557769775,0.961547972194565,0.311740326148566,3.854844150804439,1.205485532564282,-0.0001942634553415,0.0930307656526565,0,0,0
249,9146.87459095026,2010-11-16 14:17:24,1050.5357130606783,7,1,-1.099929690361023,3.738440752029419,0.961547972194565,0.320909057507203,3.854844150804439,1.239789661838415,-0.0001942634553415,0.0930307656526565,0,0,0
250,9176.889837924438,2010-11-16 14:17:54,1080.5509600097937,7,1,-1.099568486213684,3.73293662071228,0.961547972194565,0.330077798611393,3.854844150804439,1.274041079211915,-0.0001295089750783,0.0930307656526565,0,0,0
251,9206.905130271874,2010-11-16 14:18:24,1110.5662523622427,7,1,-1.099568486213684,3.727594375610352,0.961547972194565,0.339246508176924,3.854844150804439,1.308241549827067,-9.713172767078504e-05,0.0930307656526565,0,0,0
252,9236.920547039885,2010-11-16 14:18:54,1140.5816691252396,7,1,-1.099568486213684,3.722090244293213,0.961547972194565,0.34841525939901,3.854844150804439,1.342392576917879,-0.0001618862152099,0.0930307656526565,0,0,0
253,9266.935980038406,2010-11-16 14:19:24,1170.5971021337878,7,1,-1.0997490882873535,3.716586112976074,0.961547972194565,0.357584033722633,3.854844150804439,1.376494115804577,-0.0001295089750783,0.0930307656526565,0,0,0
254,9296.951039945636,2010-11-16 14:19:54,1200.6121620610677,7,1,-1.099929690361023,3.7112438678741455,0.961547972194565,0.366752768620458,3.854844150804439,1.410546712891801,-0.0001618862152099,0.0930307656526565,0,0,0
255,9326.966329385816,2010-11-16 14:20:25,1230.6274515012472,7,1,-1.099929690361023,3.7060635089874263,0.961547972194565,0.37592153367736,3.854844150804439,1.444551069011734,-0.0001618862152099,0.0930307656526565,0,0,0
256,9356.981671141584,2010-11-16 14:20:55,1260.6427932269396,7,1,-1.0997490882873535,3.700883150100708,0.961547972194565,0.385090316205765,3.854844150804439,1.478507477332428,-9.713172767078504e-05,0.0930307656526565,0,0,0
257,9386.997083799331,2010-11-16 14:21:25,1290.6582059097516,7,1,-1.0997490882873535,3.695702791213989,0.961547972194565,0.394259121954798,3.854844150804439,1.512417080524288,-0.0001618862152099,0.0930307656526565,0,0,0
258,9417.012273655935,2010-11-16 14:21:55,1320.6733957613428,7,1,-1.0997490882873535,3.690684318542481,0.961547972194565,0.403427910539328,3.854844150804439,1.546280267825936,-0.0001618862152099,0.0930307656526565,0,0,0
259,9447.027678108205,2010-11-16 14:22:25,1350.6888002035853,7,1,-1.099568486213684,3.685989618301392,0.961547972194565,0.412596738227063,3.854844150804439,1.580097730775811,-9.713172767078504e-05,0.0930307656526565,0,0,0
260,9477.042861689142,2010-11-16 14:22:55,1380.7039837995612,7,1,-1.0997490882873535,3.680971145629883,0.961547972194565,0.421765482848778,3.854844150804439,1.61387000163852,-0.0001295089750783,0.0930307656526565,0,0,0
261,9507.058174888629,2010-11-16 14:23:25,1410.71929700406,7,1,-1.0997490882873535,3.676276445388794,0.961547972194565,0.43093428871209,3.854844150804439,1.647598019003112,-9.713172767078504e-05,0.0930307656526565,0,0,0
262,9537.079970609486,2010-11-16 14:23:55,1440.7410928402053,7,1,-1.0997490882873535,3.671420097351074,0.961547972194565,0.440105018288388,3.854844150804439,1.681289339486809,-0.0001295089750783,0.0930307656526565,0,0,0
263,9567.088763433112,2010-11-16 14:24:25,1470.74988554353,7,1,-1.0997490882873535,3.666725397109986,0.961547972194565,0.449271888786448,3.854844150804439,1.714923025171728,-0.0001295089750783,0.0930307656526565,0,0,0
264,9597.104201509308,2010-11-16 14:24:55,1500.7653236197275,7,1,-1.0997490882873535,3.662030696868897,0.961547972194565,0.458440729255056,3.854844150804439,1.748521016609732,-0.0001295089750783,0.0930307656526565,0,0,0
265,9627.119395155372,2010-11-16 14:25:25,1530.7805172657904,7,1,-1.0997490882873535,3.6574978828430176,0.961547972194565,0.467609557679555,3.854844150804439,1.782076634413406,-9.713172767078504e-05,0.0930307656526565,0,0,0
266,9657.134827557406,2010-11-16 14:25:55,1560.7959496477747,7,1,-1.0997490882873535,3.6529650688171382,0.961547972194565,0.476778404741994,3.854844150804439,1.815591231476763,-0.0001295089750783,0.0930307656526565,0,0,0
267,9687.149985429169,2010-11-16 14:26:25,1590.8111075145266,7,1,-1.0997490882873535,3.6485941410064697,0.961547972194565,0.485947201706448,3.854844150804439,1.84906475824807,-0.0001295089750783,0.0930307656526565,0,0,0
268,9717.165300498324,2010-11-16 14:26:55,1620.8264226087424,7,1,-1.0997490882873535,3.644223213195801,0.961547972194565,0.495115950873508,3.854844150804439,1.882497571472672,-0.0001295089750783,0.0930307656526565,0,0,0
269,9747.180605913378,2010-11-16 14:27:25,1650.841728023798,7,1,-1.0997490882873535,3.639690399169922,0.961547972194565,0.504284645891355,3.854844150804439,1.915890348143688,-0.0001618862152099,0.0930307656526565,0,0,0
270,9777.195900651785,2010-11-16 14:27:55,1680.8570227421524,7,1,-1.0997490882873535,3.635805130004883,0.961547972194565,0.513453425347631,3.854844150804439,1.949244053392721,-9.713172767078504e-05,0.0930307656526565,0,0,0
271,9807.211229319882,2010-11-16 14:28:25,1710.872351430301,7,1,-1.099568486213684,3.631757974624634,0.961547972194565,0.522622175196751,3.854844150804439,1.982559786735732,-6.47544875391759e-05,0.0930307656526565,0,0,0
272,9837.226534694835,2010-11-16 14:28:55,1740.8876568052565,7,1,-1.0997490882873535,3.627387046813965,0.961547972194565,0.531790982734383,3.854844150804439,2.015838191935665,-9.713172767078504e-05,0.0930307656526565,0,0,0
273,9867.241836701383,2010-11-16 14:29:25,1770.9029588118033,7,1,-1.0997490882873535,3.623501777648926,0.961547972194565,0.540959775648954,3.854844150804439,2.049080044545339,-9.713172767078504e-05,0.0930307656526565,0,0,0
274,9897.257140306923,2010-11-16 14:29:55,1800.918262412329,7,1,-1.099929690361023,3.619616508483887,0.961547972194565,0.550128552266757,3.854844150804439,2.082286188421659,-0.0001295089750783,0.0930307656526565,0,0,0
275,9927.272434604229,2010-11-16 14:30:25,1830.933556719658,7,1,-1.0997490882873535,3.6158931255340576,0.961547972194565,0.559297387554744,3.854844150804439,2.11545719744605,-9.713172767078504e-05,0.0930307656526565,0,0,0
276,9957.28772712209,2010-11-16 14:30:55,1860.9488492325072,7,1,-1.0997490882873535,3.612169742584229,0.961547972194565,0.568466150536848,3.854844150804439,2.148593581960552,-9.713172767078504e-05,0.0930307656526565,0,0,0
277,9987.303042476957,2010-11-16 14:31:25,1890.9641645623112,7,1,-1.099929690361023,3.60860824584961,0.961547972194565,0.577634944886483,3.854844150804439,2.181697183770164,-9.713172767078504e-05,0.0930307656526565,0,0,0
278,10017.31834156622,2010-11-16 14:31:55,1920.979463681652,7,1,-1.099929690361023,3.6050467491149902,0.961547972194565,0.586803833992459,3.854844150804439,2.214768267830816,-9.713172767078504e-05,0.0930307656526565,0,0,0
279,10047.333661081471,2010-11-16 14:32:25,1950.9947831918903,7,1,-1.0997490882873535,3.601647138595581,0.961547972194565,0.595972666018354,3.854844150804439,2.247807059969754,-9.713172767078504e-05,0.0930307656526565,0,0,0
280,10077.348945609388,2010-11-16 14:32:55,1981.0100676947457,7,1,-1.099568486213684,3.598409414291382,0.961547972194565,0.605141432835777,3.854844150804439,2.280814604561373,-6.47544875391759e-05,0.0930307656526565,0,0,0
281,10107.364267846437,2010-11-16 14:33:25,2011.025389936804,7,1,-1.099929690361023,3.5950098037719727,0.961547972194565,0.614310329387915,3.854844150804439,2.313792146087846,-9.713172767078504e-05,0.0930307656526565,0,0,0
282,10137.37955290568,2010-11-16 14:33:55,2041.0406750010604,7,1,-1.099568486213684,3.5917723178863525,0.961547972194565,0.623479108722297,3.854844150804439,2.346739480175596,-0.0001294612884521,0.0930307656526565,0,0,0
283,10167.39485300246,2010-11-16 14:34:25,2071.055975112878,7,1,-1.099568486213684,3.5885345935821533,0.961547972194565,0.632647936741939,3.854844150804439,2.37965713759494,-9.713172767078504e-05,0.0930307656526565,0,0,0
284,10197.41028621652,2010-11-16 14:34:55,2101.071408306889,7,1,-1.099568486213684,3.585458755493164,0.961547972194565,0.641816792038825,3.854844150804439,2.412545653179665,-9.713172767078504e-05,0.0930307656526565,0,0,0
285,10227.425479591908,2010-11-16 14:35:25,2131.0866017123512,7,1,-1.0997490882873535,3.582382917404175,0.961547972194565,0.650985556858642,3.854844150804439,2.445404867975014,-6.47544875391759e-05,0.0930307656526565,0,0,0
286,10257.440906209502,2010-11-16 14:35:55,2161.102028314909,7,1,-1.0997490882873535,3.579145193099976,0.961547972194565,0.660154362839082,3.854844150804439,2.478235795079877,-9.713172767078504e-05,0.0930307656526565,0,0,0
287,10287.456048532456,2010-11-16 14:36:25,2191.117170617812,7,1,-1.0997490882873535,3.5760693550109863,0.961547972194565,0.66932318317804,3.854844150804439,2.511038003545151,-3.237724376958795e-05,0.0930307656526565,0,0,0
288,10317.471477480867,2010-11-16 14:36:55,2221.132599566225,7,1,-1.099568486213684,3.572993516921997,0.961547972194565,0.678492055398461,3.854844150804439,2.543811578242876,-3.237724376958795e-05,0.0930307656526565,0,0,0
289,10347.486708710749,2010-11-16 14:37:25,2251.147830821166,7,1,-1.0997490882873535,3.569755792617798,0.961547972194565,0.687660824760342,3.854844150804439,2.576556212550483,-6.47544875391759e-05,0.0930307656526565,0,0,0
290,10377.501999028114,2010-11-16 14:37:55,2281.1631211234967,7,1,-1.099568486213684,3.5666799545288086,0.961547972194565,0.696829684693379,3.854844150804439,2.609272303953542,-6.47544875391759e-05,0.0930307656526565,0,0,0
291,10407.517709128328,2010-11-16 14:38:25,2311.178831213683,7,1,-1.0997490882873535,3.5632803440093994,0.961547972194565,0.705998557702818,3.854844150804439,2.64195929526634,-9.713172767078504e-05,0.0930307656526565,0,0,0
292,10437.532622785491,2010-11-16 14:38:55,2341.193744875863,7,1,-1.0997490882873535,3.56020450592041,0.961547972194565,0.715167191775469,3.854844150804439,2.674617067550687,-9.713172767078504e-05,0.0930307656526565,0,0,0
293,10467.547939298252,2010-11-16 14:39:25,2371.20906140867,7,1,-1.0997490882873535,3.556966781616211,0.961547972194565,0.72433596475527,3.854844150804439,2.70724599211088,-9.713172767078504e-05,0.0930307656526565,0,0,0
294,10497.563225134434,2010-11-16 14:39:55,2401.224347239841,7,1,-1.0997490882873535,3.553729057312012,0.961547972194565,0.733504742931542,3.854844150804439,2.739844905355878,-0.0001295089750783,0.0930307656526565,0,0,0
295,10527.578525506902,2010-11-16 14:40:25,2431.2396476223344,7,1,-1.0997490882873535,3.5506532192230225,0.961547972194565,0.742673465264928,3.854844150804439,2.772413442184869,-6.47544875391759e-05,0.0930307656526565,0,0,0
296,10557.593831874336,2010-11-16 14:40:55,2461.254953969717,7,1,-1.099568486213684,3.5472536087036133,0.961547972194565,0.75184230077309,3.854844150804439,2.804951924440855,-6.47544875391759e-05,0.0930307656526565,0,0,0
297,10587.612152205083,2010-11-16 14:41:25,2491.273274400716,7,1,-1.0997490882873535,3.543692111968994,0.961547972194565,0.761012085103664,3.854844150804439,2.837462778954707,-9.713172767078504e-05,0.0930307656526565,0,0,0
298,10617.624465310875,2010-11-16 14:41:55,2521.285587406256,7,1,-1.0997490882873535,3.540292501449585,0.961547972194565,0.770179924887932,3.854844150804439,2.869935389703318,-0.0001295089750783,0.0930307656526565,0,0,0
299,10647.639752630765,2010-11-16 14:42:25,2551.30087472113,7,1,-1.099568486213684,3.536892890930176,0.961547972194565,0.779348754029234,3.854844150804439,2.902379317758977,-3.237724376958795e-05,0.0930307656526565,0,0,0
300,10677.655078531954,2010-11-16 14:42:55,2581.3162006223224,7,1,-1.0997490882873535,3.5330076217651367,0.961547972194565,0.788517592116857,3.854844150804439,2.934790077148247,-9.713172767078504e-05,0.0930307656526565,0,0,0
301,10707.670376638767,2010-11-16 14:43:25,2611.331498724123,7,1,-1.099568486213684,3.5294461250305176,0.961547972194565,0.797686367621796,3.854844150804439,2.967167154716541,-6.47544875391759e-05,0.0930307656526565,0,0,0
302,10737.685662309535,2010-11-16 14:43:55,2641.3467844199563,7,1,-1.099568486213684,3.525398969650269,0.961547972194565,0.806855274505251,3.854844150804439,2.999510033993109,-0.0001618862152099,0.0930307656526565,0,0,0
303,10767.700965955177,2010-11-16 14:44:25,2671.3620880706067,7,1,-1.0997490882873535,3.5216755867004395,0.961547972194565,0.816024040009432,3.854844150804439,3.031816363170137,-6.47544875391759e-05,0.0930307656526565,0,0,0
304,10797.716289776174,2010-11-16 14:44:55,2701.3774118615315,7,1,-1.0997490882873535,3.5171427726745605,0.961547972194565,0.825192677361802,3.854844150804439,3.064084446697062,-0.0001295089750783,0.0930307656526565,0,0,0
305,10827.73172002784,2010-11-16 14:45:25,2731.3928421131977,7,1,-1.099568486213684,3.5129337310791016,0.961547972194565,0.834360788060088,3.854844150804439,3.096310598203595,-6.47544875391759e-05,0.0930307656526565,0,0,0
306,10857.746920415731,2010-11-16 14:45:55,2761.4080425010893,7,1,-1.0997490882873535,3.507753610610962,0.961547972194565,0.843528974990101,3.854844150804439,3.128493868864164,-0.0001618862152099,0.0930307656526565,0,0,0
307,10887.762250156507,2010-11-16 14:46:25,2791.4233722418653,7,1,-1.099929690361023,3.5022494792938232,0.961547972194565,0.852697857554417,3.854844150804439,3.160632321029794,-0.0001618862152099,0.0930307656526565,0,0,0
308,10917.777638734153,2010-11-16 14:46:55,2821.4387608195075,7,1,-1.0997490882873535,3.4962596893310547,0.961547972194565,0.861866711694118,3.854844150804439,3.192718080943291,-0.0002266406954731,0.0930307656526565,0,0,0
309,10947.792827427853,2010-11-16 14:47:25,2851.453949513208,7,1,-1.0997490882873535,3.4894604682922363,0.961547972194565,0.871035532963349,3.854844150804439,3.224744206005532,-0.0001942634553415,0.0930307656526565,0,0,0
310,10977.808121434427,2010-11-16 14:47:55,2881.469243519786,7,1,-1.099568486213684,3.481528043746948,0.961547972194565,0.880204421900787,3.854844150804439,3.25670237593795,-0.0002266406954731,0.0930307656526565,0,0,0
311,11007.823427526177,2010-11-16 14:48:25,2911.4845496165426,7,1,-1.0997490882873535,3.4723005294799805,0.961547972194565,0.889373213200238,3.854844150804439,3.288581411107517,-0.0002266406954731,0.0930307656526565,0,0,0
312,11037.838736485077,2010-11-16 14:48:55,2941.499858570432,7,1,-1.0997490882873535,3.461454153060913,0.961547972194565,0.898542058131961,3.854844150804439,3.320369538028354,-0.0003237724304199,0.0930307656526565,0,0,0
313,11067.854177202868,2010-11-16 14:49:25,2971.515299288224,7,1,-1.1001102924346924,3.448665142059326,0.961547972194565,0.907710975281085,3.854844150804439,3.3520502490081032,-0.0003561496851034,0.0930307656526565,0,0,0
314,11097.869376553168,2010-11-16 14:49:55,3001.5304986585747,7,1,-1.0997490882873535,3.43328595161438,0.961547972194565,0.916879772590566,3.854844150804439,3.38360196518983,-0.0004209041653666,0.0930307656526565,0,0,0
315,11127.88464895582,2010-11-16 14:50:25,3031.5457710712512,7,1,-1.099568486213684,3.4145073890686035,0.961547972194565,0.926048624427144,3.854844150804439,3.414998315550673,-0.0005827903514727,0.0930307656526565,0,0,0
316,11157.900097302654,2010-11-16 14:50:55,3061.5612193930237,7,1,-1.099568486213684,3.391195774078369,0.961547972194565,0.935217598773188,3.854844150804439,3.446202558001794,-0.0006799221155233,0.0930307656526565,0,0,0
317,11187.91530602134,2010-11-16 14:51:25,3091.576428116722,7,1,-1.099568486213684,3.3609230518341064,0.961547972194565,0.944386480885524,3.854844150804439,3.477162465209259,-0.0008741855854168,0.0930307656526565,0,0,0
318,11217.930679055182,2010-11-16 14:51:55,3121.591801145552,7,1,-1.099568486213684,3.321908712387085,0.961547972194565,0.953555419194269,3.854844150804439,3.507806574768424,-0.0011008263099938,0.0930307656526565,0,0,0
319,11247.945840561018,2010-11-16 14:52:26,3151.6069626764506,7,1,-1.0997490882873535,3.269134044647217,0.961547972194565,0.962724242608986,3.854844150804439,3.538033716056642,-0.0016188144218176,0.0930307656526565,0,0,0
320,11277.961151133948,2010-11-16 14:52:56,3181.622273239355,7,1,-1.099568486213684,3.197256565093994,0.961547972194565,0.971893114458339,3.854844150804439,3.567697753804164,-0.0022340298164635,0.0930307656526565,0,0,0
321,11307.976518989866,2010-11-16 14:53:26,3211.637641095272,7,1,-1.0997490882873535,3.091545343399048,0.961547972194565,0.981062021889467,3.854844150804439,3.596562173696518,-0.0033672333229333,0.0930307656526565,0,0,0
322,11337.991773723412,2010-11-16 14:53:56,3241.6528958187937,7,1,-1.0997490882873535,2.8946921825408936,0.961547972194565,0.99023091906932,3.854844150804439,3.624126637215101,-0.0072201252914965,0.0930307656526565,0,0,0
323,11355.960327873963,2010-11-16 14:54:14,3259.6214499593216,7,1,-1.099929690361023,2.699620008468628,0.961547972194565,0.99571987385065,3.854844150804439,3.639495221610371,-0.009097957983613,0.0930307656526565,0,0,0
324,11415.97522941164,2010-11-16 14:55:14,60.01496914606074,8,1,0.0,3.319156646728516,0.961547972194565,0.99571987385065,3.854844150804439,3.639495221610371,0.0013922214275225,0.0930307656526565,0,0,0
325,11416.163318569066,2010-11-16 14:55:14,0.187509532641093,9,1,-1.9243103452026844e-05,3.319156646728516,0.961547972194565,0.995719874852946,3.854844150804439,3.639495224937148,0.0,0.0923051163554191,0,0,0
326,11420.991397431688,2010-11-16 14:55:19,5.015588400276074,9,1,0.0001613661734154,3.3275747299194336,0.961548770767597,0.995719875020912,3.854846805238234,3.639495225495316,0.0011655807029455,0.0923051163554191,0,0,0
