Data_Point,Test_Time(s),Date_Time,Step_Time(s),Step_Index,Cycle_Index,Current(A),Voltage(V),Charge_Capacity(Ah),Discharge_Capacity(Ah),Charge_Energy(Wh),Discharge_Energy(Wh),dV/dt(V/s),Internal_Resistance(Ohm),Is_FC_Data,AC_Impedance(Ohm),ACI_Phase_Angle(Deg)
6996,242563.1111717699,2010-11-19 07:08:05,30.015291314859013,1,22,0.0,3.379054307937622,20.808415222954068,20.834327176318087,83.02910841879768,76.07670601346854,0.0006799221155233,0.0940094217658042,0,0,0
6997,242593.12641334065,2010-11-19 07:08:35,60.03053289056144,1,22,0.0,3.4010708332061768,20.808415222954068,20.834327176318087,83.02910841879768,76.07670601346854,0.0004856586456298,0.0940094217658042,0,0,0
6998,242623.14168051523,2010-11-19 07:09:05,90.04580006516265,1,22,0.0,3.4177451133728027,20.808415222954068,20.834327176318087,83.02910841879768,76.07670601346854,0.0003885269106831,0.0940094217658042,0,0,0
6999,242653.1100973492,2010-11-19 07:09:35,120.01421689910585,1,22,0.0,3.4310197830200195,20.808415222954068,20.834327176318087,83.02910841879768,76.07670601346854,0.0002913951757363,0.0940094217658042,0,0,0
7000,242683.13264182763,2010-11-19 07:10:05,30.01536544991151,2,22,0.5501165986061096,3.5948479175567627,20.813000812025443,20.834327176318087,83.04542672033352,76.07670601346854,0.0016511917347088,0.0940094217658042,0,0,0
7001,242713.14777767443,2010-11-19 07:10:35,60.03050128166076,2,22,0.5501165986061096,3.643737554550171,20.817586417075717,20.834327176318087,83.06203004684818,76.07670601346854,0.0011332035064697,0.0940094217658042,0,0,0
7002,242743.16305936527,2010-11-19 07:11:05,90.04578298252176,2,22,0.5499359965324402,3.6790285110473633,20.822172026509783,20.834327176318087,83.07882350572768,76.07670601346854,0.0008094310760498,0.0940094217658042,0,0,0
7003,242773.17842287032,2010-11-19 07:11:35,120.06114649259112,2,22,0.5499359965324402,3.7070348262786874,20.82675764359442,20.834327176318087,83.09576074808642,76.07670601346854,0.0006799221155233,0.0940094217658042,0,0,0
7004,242803.19355625092,2010-11-19 07:12:05,150.07627989327207,2,22,0.5499359965324402,3.729860782623291,20.831343245790308,20.834327176318087,83.11281376302999,76.07670601346854,0.0005504131549969,0.0940094217658042,0,0,0
7005,242833.208950608,2010-11-19 07:12:35,180.09167423530272,2,22,0.5499359965324402,3.748801469802856,20.83592876571137,20.834327176318087,83.12996187117201,76.07670601346854,0.0004856586456298,0.0940094217658042,0,0,0
7006,242863.22411424416,2010-11-19 07:13:05,210.10683785140603,2,22,0.5499359965324402,3.763532876968384,20.840514278736112,20.834327176318087,83.14718765593555,76.07670601346854,0.0003237724304199,0.0940094217658042,0,0,0
7007,242893.23947967408,2010-11-19 07:13:35,240.122203296305,2,22,0.5499359965324402,3.773246049880981,20.845099889700062,20.834327176318087,83.16447034685125,76.07670601346854,0.0001942634553415,0.0940094217658042,0,0,0
7008,242923.25475628217,2010-11-19 07:14:05,270.1374799094663,2,22,0.5499359965324402,3.77955961227417,20.849685584757715,20.834327176318087,83.18178928349064,76.07670601346854,0.0001295089750783,0.0940094217658042,0,0,0
7009,242953.2699180286,2010-11-19 07:14:35,300.1526416609151,2,22,0.5497553944587708,3.784092426300049,20.85427119307284,20.834327176318087,83.19913176697001,76.07670601346854,0.0001295089750783,0.0940094217658042,0,0,0
7010,242983.2853043406,2010-11-19 07:15:05,330.1680279829266,2,22,0.5499359965324402,3.788139581680298,20.85885683466533,20.834327176318087,83.2164937569434,76.07670601346854,6.47544875391759e-05,0.0940094217658042,0,0,0
7011,243013.30054512937,2010-11-19 07:15:35,360.1832687365771,2,22,0.5501165986061096,3.792024850845337,20.863442453632647,20.834327176318087,83.23387366220481,76.07670601346854,9.713172767078504e-05,0.0940094217658042,0,0,0
7012,243043.31568880065,2010-11-19 07:16:05,390.1984124229326,2,22,0.5501165986061096,3.795586347579956,20.86802800867513,20.834327176318087,83.25127062214071,76.07670601346854,6.47544875391759e-05,0.0940094217658042,0,0,0
7013,243073.33093942897,2010-11-19 07:16:35,420.2136630462192,2,22,0.5499359965324402,3.799309730529785,20.872613567253573,20.834327176318087,83.26868440824671,76.07670601346854,9.713172767078504e-05,0.0940094217658042,0,0,0
7014,243103.34620295948,2010-11-19 07:17:05,450.2289265767242,2,22,0.5497553944587708,3.802871227264404,20.877199152440284,20.834327176318087,83.2861146923635,76.07670601346854,9.713172767078504e-05,0.0940094217658042,0,0,0
7015,243133.36150561264,2010-11-19 07:17:35,480.2442292248728,2,22,0.5501165986061096,3.806108951568604,20.881784751979296,20.834327176318087,83.30356090776857,76.07670601346854,6.47544875391759e-05,0.0940094217658042,0,0,0
7016,243163.3767716444,2010-11-19 07:18:05,510.2594952616338,2,22,0.5499359965324402,3.8095085620880127,20.886370338475743,20.834327176318087,83.32102250639934,76.07670601346854,9.713172767078504e-05,0.0940094217658042,0,0,0
7017,243193.3921597208,2010-11-19 07:18:35,540.2748833380244,2,22,0.5497553944587708,3.812908172607422,20.89095606784868,20.834327176318087,83.33849979962949,76.07670601346854,6.47544875391759e-05,0.0940094217658042,0,0,0
7018,243223.4074870355,2010-11-19 07:19:05,570.2902106577573,2,22,0.5499359965324402,3.816145896911621,20.895541675238487,20.834327176318087,83.35599188392511,76.07670601346854,6.47544875391759e-05,0.0940094217658042,0,0,0
7019,243253.42257021583,2010-11-19 07:19:35,600.3052938481055,2,22,0.5499359965324402,3.8192217350006095,20.9001272736828,20.834327176318087,83.37349870560918,76.07670601346854,3.237724376958795e-05,0.0940094217658042,0,0,0
7020,243283.4378472801,2010-11-19 07:20:05,630.3205708973553,2,22,0.5497553944587708,3.8224594593048096,20.9047128818241,20.834327176318087,83.39102013133156,76.07670601346854,6.47544875391759e-05,0.0940094217658042,0,0,0
7021,243313.45321567732,2010-11-19 07:20:35,660.335939304649,2,22,0.5501165986061096,3.825697183609009,20.90929845335333,20.834327176318087,83.40855588073865,76.07670601346854,9.713172767078504e-05,0.0940094217658042,0,0,0
7022,243343.46838089245,2010-11-19 07:21:05,690.3511045247561,2,22,0.5501165986061096,3.828934907913208,20.913883996104342,20.834327176318087,83.42610623904886,76.07670601346854,9.713172767078504e-05,0.0940094217658042,0,0,0
7023,243373.48362009224,2010-11-19 07:21:35,720.3663437094903,2,22,0.5499359965324402,3.832334518432617,20.918469581408143,20.834327176318087,83.443671554026,76.07670601346854,0.0001295089750783,0.0940094217658042,0,0,0
7024,243403.4992886488,2010-11-19 07:22:05,750.3820122910649,2,22,0.5499359965324402,3.8354101181030273,20.92305526538573,20.834327176318087,83.4612521808841,76.07670601346854,6.47544875391759e-05,0.0940094217658042,0,0,0
7025,243433.5141528224,2010-11-19 07:22:35,780.3968764496764,2,22,0.5499359965324402,3.838809728622437,20.92764075330029,20.834327176318087,83.47884745480272,76.07670601346854,9.713172767078504e-05,0.0940094217658042,0,0,0
7026,243463.52942812227,2010-11-19 07:23:05,810.4121517395344,2,22,0.5499359965324402,3.842371225357056,20.93222628942871,20.834327176318087,83.4964585958634,76.07670601346854,0.0001295089750783,0.0940094217658042,0,0,0
7027,243493.54469432947,2010-11-19 07:23:35,840.4274179717835,2,22,0.5501165986061096,3.845932722091675,20.93681187918444,20.834327176318087,83.5140857068453,76.07670601346854,0.0001618862152099,0.0940094217658042,0,0,0
7028,243523.5599409628,2010-11-19 07:24:05,870.4426645750353,2,22,0.5501165986061096,3.849170446395874,20.941397504426007,20.834327176318087,83.53172878217529,76.07670601346854,6.47544875391759e-05,0.0940094217658042,0,0,0
7029,243553.57520924017,2010-11-19 07:24:35,900.4579328624143,2,22,0.5501165986061096,3.852731943130493,20.945983134849595,20.834327176318087,83.54938762490409,76.07670601346854,9.713172767078504e-05,0.0940094217658042,0,0,0
7030,243583.5934711551,2010-11-19 07:25:05,930.4761947673232,2,22,0.5499359965324402,3.855969667434693,20.950569180681416,20.834327176318087,83.56706366205947,76.07670601346854,3.237724376958795e-05,0.0940094217658042,0,0,0
7031,243613.60575026105,2010-11-19 07:25:35,960.4884738782577,2,22,0.5499359965324402,3.859207391738892,20.955154338434912,20.834327176318087,83.58475181645997,76.07670601346854,9.713172767078504e-05,0.0940094217658042,0,0,0
7032,243643.62100254343,2010-11-19 07:26:05,990.5037261556732,2,22,0.5501165986061096,3.862768888473511,20.959739923041813,20.834327176318087,83.60245688856861,76.07670601346854,9.713172767078504e-05,0.0940094217658042,0,0,0
7033,243673.6362622344,2010-11-19 07:26:35,1020.518985856619,2,22,0.5499359965324402,3.86600661277771,20.96432550596178,20.834327176318087,83.6201769436576,76.07670601346854,0.0001295089750783,0.0940094217658042,0,0,0
7034,243703.6515569076,2010-11-19 07:27:05,1050.534280519836,2,22,0.550297200679779,3.869082450866699,20.96891102563893,20.834327176318087,83.63791144145956,76.07670601346854,6.47544875391759e-05,0.0940094217658042,0,0,0
7035,243733.66697225705,2010-11-19 07:27:35,1080.5496958743172,2,22,0.5499359965324402,3.872158288955689,20.97349668650509,20.834327176318087,83.65566085311316,76.07670601346854,9.713172767078504e-05,0.0940094217658042,0,0,0
7036,243763.68203623444,2010-11-19 07:28:05,1110.5647598517066,2,22,0.5501165986061096,3.8752341270446777,20.97808217953943,20.834327176318087,83.6734235711569,76.07670601346854,9.713172767078504e-05,0.0940094217658042,0,0,0
7037,243793.69729452688,2010-11-19 07:28:35,1140.580018139124,2,22,0.5497553944587708,3.877986192703247,20.982667662782596,20.834327176318087,83.69119968530627,76.07670601346854,9.713172767078504e-05,0.0940094217658042,0,0,0
7038,243823.712611596,2010-11-19 07:29:05,1170.5953352132824,2,22,0.5501165986061096,3.880738258361816,20.98725320070476,20.834327176318087,83.70898874703104,76.07670601346854,9.713172767078504e-05,0.0940094217658042,0,0,0
7039,243853.72798998823,2010-11-19 07:29:35,1200.6107136054998,2,22,0.5499359965324402,3.883166551589966,20.99183877467333,20.834327176318087,83.72679018882873,76.07670601346854,3.237724376958795e-05,0.0940094217658042,0,0,0
7040,243883.7432559949,2010-11-19 07:30:05,1230.6259796121858,2,22,0.5499359965324402,3.885756731033325,20.996424337079556,20.834327176318087,83.74460316340577,76.07670601346854,6.47544875391759e-05,0.0940094217658042,0,0,0
7041,243913.75858181596,2010-11-19 07:30:35,1260.6413054331774,2,22,0.5501165986061096,3.8881850242614746,21.0010099548706,20.834327176318087,83.76242727958075,76.07670601346854,6.47544875391759e-05,0.0940094217658042,0,0,0
7042,243943.77369762267,2010-11-19 07:31:05,1290.6564212449537,2,22,0.5499359965324402,3.890127658843994,21.00559553404397,20.834327176318087,83.78026150113503,76.07670601346854,3.237724376958795e-05,0.0940094217658042,0,0,0
7043,243973.7889197348,2010-11-19 07:31:35,1320.6716433520596,2,22,0.5499359965324402,3.892232179641724,21.01018109983318,20.834327176318087,83.79810527111442,76.07670601346854,0.0,0.0940094217658042,0,0,0
7044,244003.8042147389,2010-11-19 07:32:05,1350.68693836114,2,22,0.550297200679779,3.894174814224243,21.01476705586688,20.834327176318087,83.81595947645891,76.07670601346854,3.237724376958795e-05,0.0940094217658042,0,0,0
7045,244033.8194978833,2010-11-19 07:32:35,1380.7022215005918,2,22,0.550297200679779,3.8959555625915527,21.019353622762686,20.834327176318087,83.83382402045254,76.07670601346854,6.47544875391759e-05,0.0940094217658042,0,0,0
7046,244063.8347539452,2010-11-19 07:33:05,1410.717477562454,2,22,0.5504778623580933,3.8977363109588623,21.023939717436782,20.834327176318087,83.85169442478413,76.07670601346854,9.713172767078504e-05,0.0940094217658042,0,0,0
7047,244093.85002096443,2010-11-19 07:33:35,1440.7327445816672,2,22,0.5501165986061096,3.898869514465332,21.028525239576982,20.834327176318087,83.86956984245882,76.07670601346854,3.237724376958795e-05,0.0940094217658042,0,0,0
7048,244123.865294545,2010-11-19 07:34:05,1470.748018172284,2,22,0.5501165986061096,3.9003264904022217,21.03311081489756,20.834327176318087,83.88745238319902,76.07670601346854,3.237724376958795e-05,0.0940094217658042,0,0,0
7049,244153.88066157888,2010-11-19 07:34:35,1500.763385196124,2,22,0.5501165986061096,3.901945352554321,21.03769633467187,20.834327176318087,83.90534134725968,76.07670601346854,6.47544875391759e-05,0.0940094217658042,0,0,0
7050,244183.89582517493,2010-11-19 07:35:05,1530.77854879719,2,22,0.5499359965324402,3.903240442276001,21.04228183004773,20.834327176318087,83.92323665672548,76.07670601346854,3.237724376958795e-05,0.0940094217658042,0,0,0
7051,244213.91131756167,2010-11-19 07:35:35,1560.7940411689178,2,22,0.5501165986061096,3.90469741821289,21.046867422104057,20.834327176318087,83.94113867112394,76.07670601346854,6.47544875391759e-05,0.0940094217658042,0,0,0
7052,244243.926314206,2010-11-19 07:36:06,1590.809037823259,2,22,0.5501165986061096,3.9059925079345694,21.05145299137149,20.834327176318087,83.95904669706967,76.07670601346854,6.47544875391759e-05,0.0940094217658042,0,0,0
7053,244273.9415924783,2010-11-19 07:36:36,1620.8243160955617,2,22,0.5501165986061096,3.90728759765625,21.056038574806006,20.834327176318087,83.9769609584722,76.07670601346854,0.0,0.0940094217658042,0,0,0
7054,244303.95685919173,2010-11-19 07:37:06,1650.8395828140242,2,22,0.5499359965324402,3.9085826873779297,21.060624162875413,20.834327176318087,83.99488121017167,76.07670601346854,3.237724376958795e-05,0.0940094217658042,0,0,0
7055,244333.9721222611,2010-11-19 07:37:36,1680.8548458783655,2,22,0.5499359965324402,3.90987777709961,21.06520968940965,20.834327176318087,84.01280724228104,76.07670601346854,0.0,0.0940094217658042,0,0,0
7056,244363.9873596113,2010-11-19 07:38:06,1710.870083233533,2,22,0.5501165986061096,3.911172866821289,21.069795254163008,20.834327176318087,84.03073941831633,76.07670601346854,3.237724376958795e-05,0.0940094217658042,0,0,0
7057,244394.0026263197,2010-11-19 07:38:36,1740.885349936958,2,22,0.5499359965324402,3.9126298427581783,21.0743807718031,20.834327176318087,84.04867748845588,76.07670601346854,6.47544875391759e-05,0.0940094217658042,0,0,0
7058,244424.01790084768,2010-11-19 07:39:06,1770.9006244649145,2,22,0.5499359965324402,3.9139246940612793,21.0789662667256,20.834327176318087,84.06662148839104,76.07670601346854,6.470680091297254e-05,0.0940094217658042,0,0,0
7059,244454.03315769648,2010-11-19 07:39:36,1800.9158813137408,2,22,0.5501165986061096,3.915381669998169,21.08355181873919,20.834327176318087,84.08457185569884,76.07670601346854,3.237724376958795e-05,0.0940094217658042,0,0,0
7060,244484.04840668067,2010-11-19 07:40:06,1830.9311303229983,2,22,0.5499359965324402,3.916514873504639,21.088137353509044,20.834327176318087,84.10252810095933,76.07670601346854,3.237724376958795e-05,0.0940094217658042,0,0,0
7061,244514.0636742162,2010-11-19 07:40:36,1860.946397833438,2,22,0.5501165986061096,3.9178099632263184,21.09272283517241,20.834327176318087,84.1204903530637,76.07670601346854,0.0,0.0940094217658042,0,0,0
7062,244544.07962183427,2010-11-19 07:41:06,1890.962345491631,2,22,0.5497553944587708,3.919266939163208,21.097308412206605,20.834327176318087,84.13845918844575,76.07670601346854,0.0,0.0940094217658042,0,0,0
7063,244574.09422654528,2010-11-19 07:41:36,1920.9769501875835,2,22,0.5501165986061096,3.9207239151000977,21.101893784595905,20.834327176318087,84.15643348720964,76.07670601346854,6.47544875391759e-05,0.0940094217658042,0,0,0
7064,244604.109460918,2010-11-19 07:42:06,1950.9921845452689,2,22,0.5499359965324402,3.922019004821777,21.10647929502246,20.834327176318087,84.17441451024753,76.07670601346854,3.237724376958795e-05,0.0940094217658042,0,0,0
7065,244634.12472645348,2010-11-19 07:42:36,1981.0074500707533,2,22,0.5497553944587708,3.923314094543457,21.11106483508548,20.834327176318087,84.19240207834514,76.07670601346854,0.0,0.0940094217658042,0,0,0
7066,244664.14001013432,2010-11-19 07:43:06,2011.0227337515569,2,22,0.5499359965324402,3.924447298049927,21.11565032351005,20.834327176318087,84.210395798252,76.07670601346854,-3.237724376958795e-05,0.0940094217658042,0,0,0
7067,244694.15522448203,2010-11-19 07:43:36,2041.037948099294,2,22,0.5501165986061096,3.9260661602020255,21.12023575127179,20.834327176318087,84.2283956630891,76.07670601346854,3.237724376958795e-05,0.0940094217658042,0,0,0
7068,244724.1704820928,2010-11-19 07:44:06,2071.053205710022,2,22,0.5499359965324402,3.927523136138916,21.124821231479952,20.834327176318087,84.24640213061151,76.07670601346854,0.0,0.0940094217658042,0,0,0
7069,244754.185897758,2010-11-19 07:44:36,2101.0686213752792,2,22,0.5501165986061096,3.9289801120758057,21.12940674461993,20.834327176318087,84.26441521445636,76.07670601346854,3.237724376958795e-05,0.0940094217658042,0,0,0
7070,244784.20103318372,2010-11-19 07:45:06,2131.08375681104,2,22,0.5499359965324402,3.9304370880126953,21.13399219186384,20.834327176318087,84.28243460217108,76.07670601346854,3.237724376958795e-05,0.0940094217658042,0,0,0
7071,244814.2162758622,2010-11-19 07:45:36,2161.09899947947,2,22,0.5499359965324402,3.931894063949585,21.138577689211765,20.834327176318087,84.30046076406632,76.07670601346854,0.0,0.0940094217658042,0,0,0
7072,244844.2315489666,2010-11-19 07:46:06,2191.114272603923,2,22,0.5499359965324402,3.9331891536712646,21.143163167394235,20.834327176318087,84.31849350381349,76.07670601346854,3.237724376958795e-05,0.0940094217658042,0,0,0
7073,244874.246802036,2010-11-19 07:46:36,2221.1295256532653,2,22,0.5501165986061096,3.934808015823364,21.147748697853853,20.834327176318087,84.33653310587316,76.07670601346854,3.237724376958795e-05,0.0940094217658042,0,0,0
7074,244904.262088599,2010-11-19 07:47:06,2251.144812216263,2,22,0.5499359965324402,3.936264991760254,21.152334266316284,20.834327176318087,84.35457965121826,76.07670601346854,3.237724376958795e-05,0.0940094217658042,0,0,0
7075,244934.27734949795,2010-11-19 07:47:36,2281.160073115199,2,22,0.5499359965324402,3.9375600814819336,21.15691982340797,20.834327176318087,84.37263274318317,76.07670601346854,0.0,0.0940094217658042,0,0,0
7076,244964.2926157553,2010-11-19 07:48:06,2311.175339367498,2,22,0.5499359965324402,3.939178943634033,21.1615053949379,20.834327176318087,84.39069282758453,76.07670601346854,6.47544875391759e-05,0.0940094217658042,0,0,0
7077,244994.30797221276,2010-11-19 07:48:36,2341.1906958299755,2,22,0.5501165986061096,3.940797805786133,21.16609091249825,20.834327176318087,84.40875955615795,76.07670601346854,6.47544875391759e-05,0.0940094217658042,0,0,0
7078,245024.32312114217,2010-11-19 07:49:06,2371.205844769444,2,22,0.5499359965324402,3.942092895507813,21.17067647774327,20.834327176318087,84.42683332600367,76.07670601346854,3.237724376958795e-05,0.0940094217658042,0,0,0
7079,245054.33839204608,2010-11-19 07:49:36,2401.2211156683416,2,22,0.5501165986061096,3.943711757659912,21.17526197387673,20.834327176318087,84.44491380551544,76.07670601346854,3.237724376958795e-05,0.0940094217658042,0,0,0
7080,245084.353766303,2010-11-19 07:50:06,2431.236489930249,2,22,0.5499359965324402,3.945330619812012,21.179847518720106,20.834327176318087,84.46300146520663,76.07670601346854,6.47544875391759e-05,0.0940094217658042,0,0,0
7081,245114.3690244952,2010-11-19 07:50:36,2461.2517481224286,2,22,0.5499359965324402,3.9466257095336914,21.184433054625632,20.834327176318087,84.48109615910306,76.07670601346854,0.0,0.0940094217658042,0,0,0
7082,245144.38430878747,2010-11-19 07:51:06,2491.2670324147584,2,22,0.5499359965324402,3.948244571685791,21.189018570550058,20.834327176318087,84.499197773565,76.07670601346854,3.237724376958795e-05,0.0940094217658042,0,0,0
7083,245174.39945327083,2010-11-19 07:51:36,2521.2821768880785,2,22,0.5501165986061096,3.9500253200531006,21.193604078495557,20.834327176318087,84.51730655436647,76.07670601346854,6.47544875391759e-05,0.0940094217658042,0,0,0
7084,245204.41470718232,2010-11-19 07:52:06,2551.2974308095986,2,22,0.5499359965324402,3.9514822959899902,21.198189566723222,20.834327176318087,84.5354224055122,76.07670601346854,3.237724376958795e-05,0.0940094217658042,0,0,0
7085,245234.4299495299,2010-11-19 07:52:36,2581.3126731522143,2,22,0.5501165986061096,3.95293927192688,21.20277509573196,20.834327176318087,84.55354552690852,76.07670601346854,3.237724376958795e-05,0.0940094217658042,0,0,0
7086,245264.4452162985,2010-11-19 07:53:06,2611.3279399208022,2,22,0.5499359965324402,3.95455813407898,21.20736067914749,20.834327176318087,84.5716761111773,76.07670601346854,3.237724376958795e-05,0.0940094217658042,0,0,0
7087,245294.46046454587,2010-11-19 07:53:36,2641.343188163146,2,22,0.5499359965324402,3.956176996231079,21.21194625571131,20.834327176318087,84.58981396238919,76.07670601346854,0.0,0.0940094217658042,0,0,0
7088,245324.4761361901,2010-11-19 07:54:06,2671.358859822403,2,22,0.5499359965324402,3.9577958583831783,21.216531925749543,20.834327176318087,84.60795948432614,76.07670601346854,3.237724376958795e-05,0.0940094217658042,0,0,0
7089,245354.49099615827,2010-11-19 07:54:36,2701.3737197755167,2,22,0.5499359965324402,3.9594147205352783,21.221117433754408,20.834327176318087,84.62611182292217,76.07670601346854,3.237724376958795e-05,0.0940094217658042,0,0,0
7090,245384.5062820997,2010-11-19 07:55:06,2731.389005721975,2,22,0.5499359965324402,3.961033582687378,21.22570301486316,20.834327176318087,84.64427188257862,76.07670601346854,0.0,0.0940094217658042,0,0,0
7091,245414.52151424187,2010-11-19 07:55:36,2761.404237859118,2,22,0.5499359965324402,3.9626524448394775,21.23028856947941,20.834327176318087,84.66243930715756,76.07670601346854,6.47544875391759e-05,0.0940094217658042,0,0,0
7092,245444.53677468968,2010-11-19 07:56:06,2791.41949831194,2,22,0.5499359965324402,3.964433193206787,21.234874050862256,20.834327176318087,84.6806139910475,76.07670601346854,6.47544875391759e-05,0.0940094217658042,0,0,0
7093,245474.55204082167,2010-11-19 07:56:36,2821.434764448952,2,22,0.5501165986061096,3.966052055358887,21.23945958820794,20.834327176318087,84.69879649418435,76.07670601346854,6.47544875391759e-05,0.0940094217658042,0,0,0
7094,245504.56804953227,2010-11-19 07:57:06,2851.4507731795907,2,22,0.5499359965324402,3.9676709175109854,21.244045320031603,20.834327176318087,84.71698748888346,76.07670601346854,6.47544875391759e-05,0.0940094217658042,0,0,0
7095,245534.57010165503,2010-11-19 07:57:36,2881.4528252723144,2,22,0.5501165986061096,3.969613552093506,21.24862883573197,20.834327176318087,84.73517738118731,76.07670601346854,9.713172767078504e-05,0.0940094217658042,0,0,0
7096,245564.58222283176,2010-11-19 07:58:06,2911.4649464590457,2,22,0.5499359965324402,3.971070528030396,21.25321391732659,20.834327176318087,84.75338129493124,76.07670601346854,6.47544875391759e-05,0.0940094217658042,0,0,0
7097,245594.59746278345,2010-11-19 07:58:36,2941.480186400669,2,22,0.5499359965324402,3.972851276397705,21.25779949689533,20.834327176318087,84.77159500049223,76.07670601346854,0.0,0.0940094217658042,0,0,0
7098,245624.61272125627,2010-11-19 07:59:06,2971.49544487355,2,22,0.5499359965324402,3.9744701385498047,21.26238509833298,20.834327176318087,84.78981662524741,76.07670601346854,3.237724376958795e-05,0.0940094217658042,0,0,0
7099,245654.62801584436,2010-11-19 07:59:36,3001.510739461579,2,22,0.5497553944587708,3.976089000701904,21.26697069592276,20.834327176318087,84.80804618536717,76.07670601346854,3.237724376958795e-05,0.0940094217658042,0,0,0
7100,245684.6432453198,2010-11-19 08:00:06,3031.525968937078,2,22,0.5501165986061096,3.977707862854004,21.2715562595406,20.834327176318087,84.82628360235763,76.07670601346854,-3.237724376958795e-05,0.0940094217658042,0,0,0
7101,245714.65851569743,2010-11-19 08:00:36,3061.541239314674,2,22,0.5499359965324402,3.979974269866944,21.27614176566845,20.834327176318087,84.84452870535371,76.07670601346854,9.713172767078504e-05,0.0940094217658042,0,0,0
7102,245744.67378920785,2010-11-19 08:01:06,3091.5565128301027,2,22,0.5499359965324402,3.981755018234253,21.28072720739659,20.834327176318087,84.86278216222254,76.07670601346854,6.47544875391759e-05,0.0940094217658042,0,0,0
7103,245774.68904052785,2010-11-19 08:01:36,3121.571764145116,2,22,0.5501165986061096,3.9835357666015625,21.28531268863278,20.834327176318087,84.88104406581792,76.07670601346854,6.47544875391759e-05,0.0940094217658042,0,0,0
7104,245804.7042963391,2010-11-19 08:02:06,3151.587019956353,2,22,0.5501165986061096,3.985316514968872,21.28989812781387,20.834327176318087,84.89931416024304,76.07670601346854,6.47544875391759e-05,0.0940094217658042,0,0,0
7105,245834.7195514185,2010-11-19 08:02:36,3181.602275040775,2,22,0.550297200679779,3.987259149551392,21.29448361825984,20.834327176318087,84.91759290343654,76.07670601346854,6.47544875391759e-05,0.0940094217658042,0,0,0
7106,245864.7350545922,2010-11-19 08:03:06,3211.6177782094533,2,22,0.5501165986061096,3.989201784133911,21.29906921207652,20.834327176318087,84.93588060364615,76.07670601346854,9.713172767078504e-05,0.0940094217658042,0,0,0
7107,245894.75008213863,2010-11-19 08:03:36,3241.6328057559062,2,22,0.5501165986061096,3.9908206462860103,21.303654594706032,20.834327176318087,84.95417613650055,76.07670601346854,3.237724376958795e-05,0.0940094217658042,0,0,0
7108,245924.76545785417,2010-11-19 08:04:06,3271.6481814714425,2,22,0.5499359965324402,3.9927632808685294,21.308240058918567,20.834327176318087,84.97248078259615,76.07670601346854,3.237724376958795e-05,0.0940094217658042,0,0,0
7109,245954.7806206683,2010-11-19 08:04:36,3301.6633443106057,2,22,0.5499359965324402,3.9948675632476807,21.31282547063627,20.834327176318087,84.99079401062939,76.07670601346854,6.47544875391759e-05,0.0940094217658042,0,0,0
7110,245984.79585318136,2010-11-19 08:05:06,3331.678576823687,2,22,0.5501165986061096,3.9966483116149902,21.31741100374863,20.834327176318087,85.00911667536246,76.07670601346854,3.237724376958795e-05,0.0940094217658042,0,0,0
7111,246014.81113176944,2010-11-19 08:05:36,3361.693855411778,2,22,0.5501165986061096,3.9985909461975098,21.32199647250392,20.834327176318087,85.02744802137791,76.07670601346854,3.237724376958795e-05,0.0940094217658042,0,0,0
7112,246044.8264076458,2010-11-19 08:06:06,3391.7091312630373,2,22,0.5499359965324402,4.000533580780029,21.32658189794053,20.834327176318087,85.04578835306758,76.07670601346854,0.0,0.0940094217658042,0,0,0
7113,246074.84166082545,2010-11-19 08:06:36,3421.7243844427053,2,22,0.5501165986061096,4.002962112426758,21.33116735300846,20.834327176318087,85.06413813271223,76.07670601346854,9.71794142969884e-05,0.0940094217658042,0,0,0
7114,246104.85704092192,2010-11-19 08:07:06,3451.739764549202,2,22,0.5501165986061096,4.004904747009277,21.335752883611285,20.834327176318087,85.08249767717977,76.07670601346854,6.47544875391759e-05,0.0940094217658042,0,0,0
7115,246134.87217956065,2010-11-19 08:07:36,3481.7549031829453,2,22,0.5499359965324402,4.007009029388428,21.340338361488147,20.834327176318087,85.10086658318141,76.07670601346854,6.47544875391759e-05,0.0940094217658042,0,0,0
7116,246164.8874428155,2010-11-19 08:08:06,3511.7701664327496,2,22,0.5501165986061096,4.008951663970947,21.34492386489427,20.834327176318087,85.1192452821062,76.07670601346854,3.23295607813634e-05,0.0940094217658042,0,0,0
7117,246194.90268184483,2010-11-19 08:08:37,3541.785405462096,2,22,0.5501165986061096,4.011218070983887,21.349509333039965,20.834327176318087,85.13763351317951,76.07670601346854,6.47544875391759e-05,0.0940094217658042,0,0,0
7118,246224.9179441824,2010-11-19 08:09:07,3571.8006677996227,2,22,0.5499359965324402,4.013484477996826,21.354094880380337,20.834327176318087,85.15603200366893,76.07670601346854,9.70840483205393e-05,0.0940094217658042,0,0,0
7119,246254.9332243544,2010-11-19 08:09:37,3601.8159479816927,2,22,0.5499359965324402,4.015589237213135,21.358680390260112,20.834327176318087,85.17444034398449,76.07670601346854,6.47544875391759e-05,0.0940094217658042,0,0,0
7120,246284.94849139868,2010-11-19 08:10:07,3631.831215025969,2,22,0.5499359965324402,4.017855644226074,21.36326589283208,20.834327176318087,85.19285879479973,76.07670601346854,9.71794142969884e-05,0.0940094217658042,0,0,0
7121,246314.96373668365,2010-11-19 08:10:37,3661.8464603109305,2,22,0.5497553944587708,4.019798278808594,21.367851479751423,20.834327176318087,85.21128758745085,76.07670601346854,3.24249267578125e-05,0.0940094217658042,0,0,0
7122,246344.97898023427,2010-11-19 08:11:07,3691.861703871587,2,22,0.5499359965324402,4.022226333618164,21.372436933248107,20.834327176318087,85.2297260611002,76.07670601346854,6.47544875391759e-05,0.0940094217658042,0,0,0
7123,246374.99425404545,2010-11-19 08:11:37,3721.8769776627046,2,22,0.5501165986061096,4.024492740631104,21.377022341202068,20.834327176318087,85.2481747337616,76.07670601346854,3.23295607813634e-05,0.0940094217658042,0,0,0
7124,246405.00961216705,2010-11-19 08:12:07,3751.8923358143984,2,22,0.5499359965324402,4.026759147644043,21.38160779827808,20.834327176318087,85.26663399927054,76.07670601346854,6.47544875391759e-05,0.0940094217658042,0,0,0
7125,246435.0247477532,2010-11-19 08:12:37,3781.907471370459,2,22,0.5501165986061096,4.029187679290772,21.386193308687123,20.834327176318087,85.28510405911402,76.07670601346854,6.47544875391759e-05,0.0940094217658042,0,0,0
7126,246465.0400248376,2010-11-19 08:13:07,3811.9227484598096,2,22,0.5499359965324402,4.031454086303711,21.390778751122756,20.834327176318087,85.3035843184507,76.07670601346854,9.71794142969884e-05,0.0940094217658042,0,0,0
7127,246495.05566983024,2010-11-19 08:13:37,3841.93839346754,2,22,0.5499359965324402,4.03372049331665,21.395364261982305,20.834327176318087,85.32207560129281,76.07670601346854,6.47544875391759e-05,0.0940094217658042,0,0,0
7128,246525.07055563285,2010-11-19 08:14:07,3871.953279255141,2,22,0.5497553944587708,4.035986423492432,21.39994968254776,20.834327176318087,85.3405774063732,76.07670601346854,3.23295607813634e-05,0.0940094217658042,0,0,0
7129,246555.08594116796,2010-11-19 08:14:37,3901.968664785175,2,22,0.5499359965324402,4.03841495513916,21.40453528046452,20.834327176318087,85.3590909821232,76.07670601346854,3.24249267578125e-05,0.0940094217658042,0,0,0
7130,246585.10108892943,2010-11-19 08:15:07,3931.983812546703,2,22,0.5499359965324402,4.04100513458252,21.40912079647638,20.834327176318087,85.37761526763376,76.07670601346854,6.47544875391759e-05,0.0940094217658042,0,0,0
7131,246615.1163345152,2010-11-19 08:15:37,3961.9990581274033,2,22,0.5499359965324402,4.04343318939209,21.41370617917835,20.834327176318087,85.39615013384025,76.07670601346854,6.47544875391759e-05,0.0940094217658042,0,0,0
7132,246645.13170111293,2010-11-19 08:16:07,3992.014424730192,2,22,0.5499359965324402,4.045861721038818,21.418291639960152,20.834327176318087,85.414696571288,76.07670601346854,3.24249267578125e-05,0.0940094217658042,0,0,0
7133,246675.146836258,2010-11-19 08:16:37,4022.0295598752273,2,22,0.5499359965324402,4.048289775848389,21.42287707629687,20.834327176318087,85.43325423882655,76.07670601346854,6.47544875391759e-05,0.0940094217658042,0,0,0
7134,246705.16215166292,2010-11-19 08:17:07,4052.0448752802185,2,22,0.5499359965324402,4.050879955291748,21.427462534098986,20.834327176318087,85.45182350752441,76.07670601346854,9.70840483205393e-05,0.0940094217658042,0,0,0
7135,246735.17742648165,2010-11-19 08:17:37,4082.060150184114,2,22,0.5499359965324402,4.053470134735107,21.43204803551688,20.834327176318087,85.47040453384294,76.07670601346854,9.70840483205393e-05,0.0940094217658042,0,0,0
7136,246765.19276091413,2010-11-19 08:18:07,4112.075484531388,2,22,0.5495747923851013,4.055736541748047,21.436633533339904,20.834327176318087,85.48899727524048,76.07670601346854,3.23295607813634e-05,0.0940094217658042,0,0,0
7137,246795.20790819943,2010-11-19 08:18:37,4142.090631816727,2,22,0.5499359965324402,4.058488845825195,21.44121898516147,20.834327176318087,85.50760167930024,76.07670601346854,6.47544875391759e-05,0.0940094217658042,0,0,0
7138,246825.2231269131,2010-11-19 08:19:07,4172.105850530363,2,22,0.5501165986061096,4.060916900634766,21.44580454195875,20.834327176318087,85.52621842346953,76.07670601346854,6.47544875391759e-05,0.0940094217658042,0,0,0
7139,246855.2384022581,2010-11-19 08:19:37,4202.121125875358,2,22,0.5501165986061096,4.063830852508545,21.450389995254252,20.834327176318087,85.54484654114164,76.07670601346854,6.47544875391759e-05,0.0940094217658042,0,0,0
7140,246885.2536510418,2010-11-19 08:20:07,4232.136374659053,2,22,0.5499359965324402,4.066421031951904,21.454975479482,20.834327176318087,85.5634868819864,76.07670601346854,6.47544875391759e-05,0.0940094217658042,0,0,0
7141,246915.2689099157,2010-11-19 08:20:37,4262.151633532934,2,22,0.5499359965324402,4.069011211395264,21.45956091155517,20.834327176318087,85.58213919150064,76.07670601346854,6.47544875391759e-05,0.0940094217658042,0,0,0
7142,246945.28417576692,2010-11-19 08:21:07,4292.166899384232,2,22,0.5501165986061096,4.071763515472412,21.46414647517881,20.834327176318087,85.60080423445271,76.07670601346854,3.24249267578125e-05,0.0940094217658042,0,0,0
7143,246975.29975003816,2010-11-19 08:21:37,4322.182473685469,2,22,0.5499359965324402,4.074353694915772,21.46873205351102,20.834327176318087,85.61948170477156,76.07670601346854,9.71794142969884e-05,0.0940094217658042,0,0,0
7144,247005.31471837172,2010-11-19 08:22:07,4352.197441989042,2,22,0.5499359965324402,4.077105522155762,21.473317572170533,20.834327176318087,85.63817146719077,76.07670601346854,3.23295607813634e-05,0.0940094217658042,0,0,0
7145,247035.3299961128,2010-11-19 08:22:37,4382.212719730019,2,22,0.5499359965324402,4.080019474029541,21.477903113244416,20.834327176318087,85.65687405845222,76.07670601346854,6.47544875391759e-05,0.0940094217658042,0,0,0
7146,247065.3453639837,2010-11-19 08:23:07,4412.228087610998,2,22,0.5501165986061096,4.08293342590332,21.48248873734236,20.834327176318087,85.67558983856951,76.07670601346854,9.70840483205393e-05,0.0940094217658042,0,0,0
7147,247095.36076297736,2010-11-19 08:23:37,4442.2434866246895,2,22,0.5501165986061096,4.085685729980469,21.487074308198657,20.834327176318087,85.69431842841725,76.07670601346854,9.71794142969884e-05,0.0940094217658042,0,0,0
7148,247125.37575180217,2010-11-19 08:24:07,4472.258475419412,2,22,0.5499359965324402,4.088437557220459,21.491659831601904,20.834327176318087,85.71305984170476,76.07670601346854,6.47544875391759e-05,0.0940094217658042,0,0,0
7149,247155.3910125808,2010-11-19 08:24:37,4502.273736198048,2,22,0.5499359965324402,4.091351509094238,21.49624546973155,20.834327176318087,85.73181486641863,76.07670601346854,6.47544875391759e-05,0.0940094217658042,0,0,0
7150,247185.40640008572,2010-11-19 08:25:07,4532.289123703013,2,22,0.5501165986061096,4.094265460968018,21.50083107266878,20.834327176318087,85.75058299646604,76.07670601346854,9.70840483205393e-05,0.0940094217658042,0,0,0
7151,247215.421693942,2010-11-19 08:25:37,4562.304417564227,2,22,0.5501165986061096,4.097341537475586,21.50541670006316,20.834327176318087,85.76936470401256,76.07670601346854,0.0001295089750783,0.0940094217658042,0,0,0
7152,247245.43692542744,2010-11-19 08:26:07,4592.319649044731,2,22,0.5499359965324402,4.100093364715576,21.510002314924357,20.834327176318087,85.78815990663803,76.07670601346854,3.23295607813634e-05,0.0940094217658042,0,0,0
7153,247275.45229089243,2010-11-19 08:26:37,4622.335014599906,2,22,0.5501165986061096,4.1031694412231445,21.514587916660325,20.834327176318087,85.80696867098975,76.07670601346854,6.47544875391759e-05,0.0940094217658042,0,0,0
7154,247305.4673239376,2010-11-19 08:27:07,4652.350047554858,2,22,0.5501165986061096,4.106407165527344,21.519173484143312,20.834327176318087,85.82579122752081,76.07670601346854,0.0001295089750783,0.0940094217658042,0,0,0
7155,247335.48260059583,2010-11-19 08:27:37,4682.365324213132,2,22,0.5501165986061096,4.109321117401123,21.52375907567012,20.834327176318087,85.84462793174464,76.07670601346854,6.47544875391759e-05,0.0940094217658042,0,0,0
7156,247365.4978411741,2010-11-19 08:28:07,4712.380564791344,2,22,0.5501165986061096,4.112396717071533,21.528344665189028,20.834327176318087,85.86347865243803,76.07670601346854,9.70840483205393e-05,0.0940094217658042,0,0,0
7157,247395.5131195216,2010-11-19 08:28:37,4742.395843138836,2,22,0.5501165986061096,4.115634441375732,21.53293026506389,20.834327176318087,85.88234345346906,76.07670601346854,0.0001295089750783,0.0940094217658042,0,0,0
7158,247425.52852724705,2010-11-19 08:29:07,4772.4112509795605,2,22,0.5499359965324402,4.118548393249512,21.537515919055977,20.834327176318087,85.90122278066667,76.07670601346854,9.71794142969884e-05,0.0940094217658042,0,0,0
7159,247455.5466257741,2010-11-19 08:29:37,4802.429349501641,2,22,0.5499359965324402,4.121623992919922,21.542101907802746,20.834327176318087,85.9201178705522,76.07670601346854,6.47544875391759e-05,0.0940094217658042,0,0,0
7160,247485.55894868937,2010-11-19 08:30:07,4832.4416723066415,2,22,0.5501165986061096,4.12502384185791,21.546687067266003,20.834327176318087,85.93902400435023,76.07670601346854,6.47544875391759e-05,0.0940094217658042,0,0,0
7161,247515.57415655092,2010-11-19 08:30:37,4862.456880168189,2,22,0.5499359965324402,4.12809944152832,21.551272602550743,20.834327176318087,85.95794644113505,76.07670601346854,9.70840483205393e-05,0.0940094217658042,0,0,0
7162,247545.58941011652,2010-11-19 08:31:07,4892.472133733821,2,22,0.5501165986061096,4.13133716583252,21.55585822677956,20.834327176318087,85.97688409234331,76.07670601346854,9.70840483205393e-05,0.0940094217658042,0,0,0
7163,247575.60468889013,2010-11-19 08:31:37,4922.487412507374,2,22,0.5501165986061096,4.134737014770508,21.56044384040141,20.834327176318087,85.9958366802441,76.07670601346854,0.0001295089750783,0.0940094217658042,0,0,0
7164,247605.6199358092,2010-11-19 08:32:07,4952.502659426415,2,22,0.5499359965324402,4.137812614440918,21.565029451532627,20.834327176318087,86.01480428985798,76.07670601346854,6.47544875391759e-05,0.0940094217658042,0,0,0
7165,247635.63522023684,2010-11-19 08:32:37,4982.517943854083,2,22,0.5497553944587708,4.141212463378906,21.5696150649566,20.834327176318087,86.03378702508074,76.07670601346854,6.47544875391759e-05,0.0940094217658042,0,0,0
7166,247665.6504569504,2010-11-19 08:33:07,5012.533180567647,2,22,0.5501165986061096,4.144935607910156,21.574200733159373,20.834327176318087,86.05278538443407,76.07670601346854,0.0001618385285837,0.0940094217658042,0,0,0
7167,247695.66575632035,2010-11-19 08:33:37,5042.548479962676,2,22,0.5499359965324402,4.148173332214356,21.57878634182056,20.834327176318087,86.07179922545738,76.07670601346854,9.70840483205393e-05,0.0940094217658042,0,0,0
7168,247725.6809815753,2010-11-19 08:34:07,5072.563705192577,2,22,0.5499359965324402,4.151411056518555,21.583371931831227,20.834327176318087,86.09082840516288,76.07670601346854,9.70840483205393e-05,0.0940094217658042,0,0,0
7169,247755.69636113045,2010-11-19 08:34:37,5102.57908477276,2,22,0.5499359965324402,4.154810905456543,21.58795748484216,20.834327176318087,86.10987308400006,76.07670601346854,3.24249267578125e-05,0.0940094217658042,0,0,0
7170,247785.71163224487,2010-11-19 08:35:07,5132.594355882183,2,22,0.5501165986061096,4.158534049987793,21.59254288556836,20.834327176318087,86.12893293502351,76.07670601346854,0.0001295089750783,0.0940094217658042,0,0,0
7171,247815.72676985103,2010-11-19 08:35:37,5162.609493468312,2,22,0.5501165986061096,4.161933898925781,21.5971283593396,20.834327176318087,86.1480090179299,76.07670601346854,0.0001295089750783,0.0940094217658042,0,0,0
7172,247845.74203328133,2010-11-19 08:36:07,5192.624756893554,2,22,0.5497553944587708,4.165333271026611,21.601713932182943,20.834327176318087,86.1671015120761,76.07670601346854,9.70840483205393e-05,0.0940094217658042,0,0,0
7173,247875.7572763257,2010-11-19 08:36:37,5222.63999993291,2,22,0.5499359965324402,4.168894767761231,21.606299399546057,20.834327176318087,86.18620962063368,76.07670601346854,6.47544875391759e-05,0.0940094217658042,0,0,0
7174,247905.7726712592,2010-11-19 08:37:07,5252.655394871429,2,22,0.5501165986061096,4.17245626449585,21.6108850191571,20.834327176318087,86.20533457912633,76.07670601346854,0.0001295089750783,0.0940094217658042,0,0,0
7175,247935.78781885028,2010-11-19 08:37:37,5282.670542457519,2,22,0.5499359965324402,4.175856113433838,21.61547057548688,20.834327176318087,86.22447542487667,76.07670601346854,6.47544875391759e-05,0.0940094217658042,0,0,0
7176,247965.80320866103,2010-11-19 08:38:07,5312.685932268239,2,22,0.5499359965324402,4.179579257965088,21.620056209917987,20.834327176318087,86.24363284714563,76.07670601346854,9.70840483205393e-05,0.0940094217658042,0,0,0
7177,247995.81832667827,2010-11-19 08:38:37,5342.701050295545,2,22,0.5499359965324402,4.183140754699707,21.624641847157164,20.834327176318087,86.26280683865882,76.07670601346854,6.47544875391759e-05,0.0940094217658042,0,0,0
7178,248025.8337280228,2010-11-19 08:39:07,5372.716451650081,2,22,0.5501165986061096,4.186864376068115,21.629227478717088,20.834327176318087,86.28199748013066,76.07670601346854,9.71794142969884e-05,0.0940094217658042,0,0,0
7179,248055.8488786565,2010-11-19 08:39:37,5402.731602273753,2,22,0.5501165986061096,4.190425872802734,21.63381308448105,20.834327176318087,86.30120483029022,76.07670601346854,9.71794142969884e-05,0.0940094217658042,0,0,0
7180,248085.8641171495,2010-11-19 08:40:07,5432.74684076676,2,22,0.5499359965324402,4.194149017333984,21.638398610117964,20.834327176318087,86.32042864883456,76.07670601346854,9.70840483205393e-05,0.0940094217658042,0,0,0
7181,248115.8793726249,2010-11-19 08:40:38,5462.762096242159,2,22,0.5499359965324402,4.198034286499023,21.642984179959,20.834327176318087,86.33966963621835,76.07670601346854,0.0001295089750783,0.0940094217658042,0,0,0
7182,248132.80119212973,2010-11-19 08:40:54,5479.683915746999,2,22,0.5501165986061096,4.200138568878174,21.645569434213808,20.834327176318087,86.35052488756342,76.07670601346854,9.70840483205393e-05,0.0940094217658042,0,0,0
7183,248162.81174070883,2010-11-19 08:41:25,30.015414948467523,3,22,0.0,4.110939979553223,21.645569434213808,20.834327176318087,86.35052488756342,76.07670601346854,-0.0003561019839253,0.0940094217658042,0,0,0
7184,248192.82695180844,2010-11-19 08:41:55,60.030626058122,3,22,0.0,4.099769592285156,21.645569434213808,20.834327176318087,86.35052488756342,76.07670601346854,-0.0002266883820993,0.0940094217658042,0,0,0
7185,248222.842059495,2010-11-19 08:42:25,90.04573373459134,3,22,0.0,4.093132495880127,21.645569434213808,20.834327176318087,86.35052488756342,76.07670601346854,-0.0001295089750783,0.0940094217658042,0,0,0
7186,248252.81044643428,2010-11-19 08:42:55,120.01412067892548,3,22,0.0,4.088761329650879,21.645569434213808,20.834327176318087,86.35052488756342,76.07670601346854,-9.71794142969884e-05,0.0940094217658042,0,0,0
7187,248252.8229260594,2010-11-19 08:42:55,0.015745152322528,4,22,0.9873716831207277,4.199653148651123,21.64557379095317,20.834327176318087,86.3505431854152,76.07670601346854,-9.70840483205393e-05,0.0940094217658042,0,0,0
7188,248253.8071597882,2010-11-19 08:42:56,0.999978871105182,4,22,0.937342882156372,4.199814796447754,21.645835224511178,20.834327176318087,86.35164113603186,76.07670601346854,-6.47544875391759e-05,0.0940094217658042,0,0,0
7189,248256.08838313265,2010-11-19 08:42:58,3.281202215530304,4,22,0.8869529366493225,4.199814796447754,21.64641198781135,20.834327176318087,86.35406337520557,76.07670601346854,-6.47544875391759e-05,0.0940094217658042,0,0,0
7190,248259.47910837448,2010-11-19 08:43:01,6.671927472421545,4,22,0.8363823294639587,4.199653148651123,21.647222378134067,20.834327176318087,86.35746680305148,76.07670601346854,0.0,0.0940094217658042,0,0,0
7191,248264.11955191547,2010-11-19 08:43:06,11.312371003389227,4,22,0.7861729264259338,4.199814796447754,21.648267024355864,20.834327176318087,86.36185404553626,76.07670601346854,3.23295607813634e-05,0.0940094217658042,0,0,0
7192,248270.1977159831,2010-11-19 08:43:12,17.39053507100416,4,22,0.7361441850662231,4.199814796447754,21.649550460931493,20.834327176318087,86.36724416544253,76.07670601346854,0.0,0.0940094217658042,0,0,0
7193,248278.0725269578,2010-11-19 08:43:20,25.26534687778339,4,22,0.6859347820281982,4.199653148651123,21.65110351459361,20.834327176318087,86.37376662986323,76.07670601346854,3.24249267578125e-05,0.0940094217658042,0,0,0
7194,248288.66628567936,2010-11-19 08:43:31,35.859104772297,4,22,0.6359060406684875,4.199653148651123,21.65304481184747,20.834327176318087,86.3819196077102,76.07670601346854,0.0,0.0940094217658042,0,0,0
7195,248303.57230552312,2010-11-19 08:43:46,50.76512461606086,4,22,0.5858772397041321,4.199653148651123,21.655568014679808,20.834327176318087,86.39251647245379,76.07670601346854,0.0,0.0940094217658042,0,0,0
7196,248326.60317554293,2010-11-19 08:44:09,73.79599463082847,4,22,0.5358484983444214,4.199814796447754,21.659144278461365,20.834327176318087,86.40753592757127,76.07670601346854,0.0,0.0940094217658042,0,0,0
7197,248367.66519889544,2010-11-19 08:44:50,114.85801798335076,4,22,0.4858196973800659,4.199814796447754,21.66494387219065,20.834327176318087,86.4318928255943,76.07670601346854,0.0,0.0940094217658042,0,0,0
7198,248443.6642692873,2010-11-19 08:46:06,190.857088370201,4,22,0.4357909560203552,4.199653148651123,21.674628384358325,20.834327176318087,86.4725655113363,76.07670601346854,0.0,0.0940094217658042,0,0,0
7199,248554.52239206183,2010-11-19 08:47:56,301.7152111647921,4,22,0.3857621848583221,4.199814796447754,21.687250611796,20.834327176318087,86.52557585734925,76.07670601346854,3.23295607813634e-05,0.0940094217658042,0,0,0
7200,248689.9112587472,2010-11-19 08:50:12,437.1040778350575,4,22,0.3355527818202972,4.199491024017334,21.70080353887707,20.834327176318087,86.58249487973143,76.07670601346854,-3.24249267578125e-05,0.0940094217658042,0,0,0
7201,248854.7061137333,2010-11-19 08:52:57,601.8989328512324,4,22,0.2855240106582641,4.199653148651123,21.71500843173354,20.834327176318087,86.64215203441809,76.07670601346854,0.0,0.0940094217658042,0,0,0
7202,249053.17244720488,2010-11-19 08:56:15,800.3652662977972,4,22,0.2354952543973922,4.199653148651123,21.72934119708392,20.834327176318087,86.70234619078732,76.07670601346854,0.0,0.0940094217658042,0,0,0
7203,249303.2475275084,2010-11-19 09:00:25,1050.4403466063366,4,22,0.1854664832353592,4.199653148651123,21.743907812917136,20.834327176318087,86.76352250298251,76.07670601346854,0.0,0.0940094217658042,0,0,0
7204,249633.1028851781,2010-11-19 09:05:55,1380.295704291096,4,22,0.1354377120733261,4.199653148651123,21.75852264751914,20.834327176318087,86.82490128212774,76.07670601346854,-3.23295607813634e-05,0.0940094217658042,0,0,0
7205,250139.58107672396,2010-11-19 09:14:22,1886.773895816866,4,22,0.0854089483618736,4.199653148651123,21.77381480563821,20.834327176318087,86.88912463482674,76.07670601346854,0.0,0.0940094217658042,0,0,0
7206,250773.13587513572,2010-11-19 09:24:55,2520.328694228671,4,22,0.0498289167881011,4.199653148651123,21.78548309651397,20.834327176318087,86.9381286776784,76.07670601346854,-3.23295607813634e-05,0.0940094217658042,0,0,0
7207,250803.1474873407,2010-11-19 09:25:25,30.01544214635764,5,22,0.0,4.191235065460205,21.78548309651397,20.834327176318087,86.9381286776784,76.07670601346854,-6.47544875391759e-05,0.0940094217658042,0,0,0
7208,250833.14697782925,2010-11-19 09:25:55,60.01493264996086,5,22,0.0,4.1901021003723145,21.78548309651397,20.834327176318087,86.9381286776784,76.07670601346854,-3.23295607813634e-05,0.0940094217658042,0,0,0
7209,250833.33121976943,2010-11-19 09:25:56,0.187375753708295,6,22,-1.9243103452026844e-05,4.190263748168945,21.78548309651397,20.83432717731967,86.9381286776784,76.07670601766544,0.0,0.098061554133892,0,0,0
7210,250838.1594113434,2010-11-19 09:26:00,5.015567327675621,6,22,0.0005225847125984,4.1901021003723145,21.78548382711613,20.83432717740361,86.9381317390376,76.07670601801719,-3.23295607813634e-05,0.098061554133892,0,0,0
7211,250868.17163430693,2010-11-19 09:26:30,30.01538364031756,7,22,-1.099568486213684,4.0042572021484375,21.78548382711613,20.84349551160106,86.9381317390376,76.11362428413534,-0.0009388923645019,0.098061554133892,0,0,0
7212,250898.1869069301,2010-11-19 09:27:00,60.03065626853184,7,22,-1.099568486213684,3.9759271144866943,21.78548382711613,20.852663854999637,86.9381317390376,76.15019755106546,-0.0006151676061563,0.098061554133892,0,0,0
7213,250928.20215954332,2010-11-19 09:27:30,90.04590887677317,7,22,-1.099568486213684,3.956500768661499,21.78548382711613,20.861832028496828,86.9381317390376,76.18655535882165,-0.0004532813909463,0.098061554133892,0,0,0
7214,250958.2172771296,2010-11-19 09:28:00,120.06102646297876,7,22,-1.0993878841400146,3.9414453506469727,21.78548382711613,20.871000171858164,86.9381317390376,76.22275619543788,-0.0003561496851034,0.098061554133892,0,0,0
7215,250988.23266398293,2010-11-19 09:28:31,150.07641331130398,7,22,-1.099568486213684,3.9286563396453857,21.78548382711613,20.880168413872788,86.9381317390376,76.25883218057908,-0.0003561496851034,0.098061554133892,0,0,0
7216,251018.2477888373,2010-11-19 09:29:01,180.09153817066445,7,22,-1.099568486213684,3.917971849441528,21.78548382711613,20.88933663678065,86.9381317390376,76.2948003580111,-0.0002590179501567,0.098061554133892,0,0,0
7217,251048.26306417224,2010-11-19 09:29:31,210.1068135056352,7,22,-1.099568486213684,3.90761137008667,21.78548382711613,20.89850485397547,86.9381317390376,76.33067202576517,-0.0002913951757363,0.098061554133892,0,0,0
7218,251078.2784359429,2010-11-19 09:30:01,240.1221852763244,7,22,-1.0997490882873535,3.897898197174072,21.78548382711613,20.907673126876137,86.9381317390376,76.36645389009888,-0.0002913951757363,0.098061554133892,0,0,0
7219,251108.293580702,2010-11-19 09:30:31,270.1373300353575,7,22,-1.0997490882873535,3.8888325691223145,21.78548382711613,20.91684133034999,86.9381317390376,76.40215010605591,-0.0002590179501567,0.098061554133892,0,0,0
7220,251138.3090076203,2010-11-19 09:31:01,300.1527569737537,7,22,-1.099568486213684,3.880090713500977,21.78548382711613,20.926009566712818,86.9381317390376,76.43776373493506,-0.0002590179501567,0.098061554133892,0,0,0
7221,251168.32424572736,2010-11-19 09:31:31,330.1679950557353,7,22,-1.099568486213684,3.871348857879639,21.78548382711613,20.935177784617384,86.9381317390376,76.4732965098907,-0.0002266406954731,0.098061554133892,0,0,0
7222,251198.33933876228,2010-11-19 09:32:01,360.18308810569465,7,22,-1.0993878841400146,3.8629307746887207,21.78548382711613,20.94434594177836,86.9381317390376,76.50874995700613,-0.0001942634553415,0.098061554133892,0,0,0
7223,251228.35472255296,2010-11-19 09:32:31,390.1984718863625,7,22,-1.099568486213684,3.8545126914978023,21.78548382711613,20.953514259818004,86.9381317390376,76.54412679827618,-0.0002266406954731,0.098061554133892,0,0,0
7224,251258.36986170305,2010-11-19 09:33:01,420.2136110363946,7,22,-1.099568486213684,3.8464183807373047,21.78548382711613,20.96268253932121,86.9381317390376,76.57942798401253,-0.0001942634553415,0.098061554133892,0,0,0
7225,251288.38533347836,2010-11-19 09:33:31,450.2290828117108,7,22,-1.099568486213684,3.8381621837615967,21.78548382711613,20.971850854133383,86.9381317390376,76.61465574889581,-0.0002266406954731,0.098061554133892,0,0,0
7226,251318.40035309497,2010-11-19 09:34:01,480.2441024283693,7,22,-1.099568486213684,3.8303918838500977,21.78548382711613,20.981018987755384,86.9381317390376,76.64980957467849,-0.0001942634553415,0.098061554133892,0,0,0
7227,251348.41561894628,2010-11-19 09:34:31,510.2593682896923,7,22,-1.099568486213684,3.8224594593048096,21.78548382711613,20.990187217993096,86.9381317390376,76.68489092482906,-0.0002266406954731,0.098061554133892,0,0,0
7228,251378.43085622124,2010-11-19 09:35:01,540.274605559647,7,22,-1.0997490882873535,3.814688920974731,21.78548382711613,20.999355549374272,86.9381317390376,76.71990133568602,-0.0002266406954731,0.098061554133892,0,0,0
7229,251408.4461801475,2010-11-19 09:35:31,570.2899294808966,7,22,-1.099568486213684,3.807242155075073,21.78548382711613,21.00852376520705,86.9381317390376,76.75484128129888,-0.0001942634553415,0.098061554133892,0,0,0
7230,251438.4614211869,2010-11-19 09:36:01,600.3051705202603,7,22,-1.099568486213684,3.799795389175415,21.78548382711613,21.01769204126076,86.9381317390376,76.78971288234378,-0.0001942634553415,0.098061554133892,0,0,0
7231,251468.4766889379,2010-11-19 09:36:31,630.3204382713003,7,22,-1.099568486213684,3.792510509490967,21.78548382711613,21.026860313906305,86.9381317390376,76.82451700351751,-0.0001942634553415,0.098061554133892,0,0,0
7232,251498.49206397173,2010-11-19 09:37:01,660.3358133101473,7,22,-1.099568486213684,3.7855494022369385,21.78548382711613,21.036028600681693,86.9381317390376,76.85925586220101,-0.0001942634553415,0.098061554133892,0,0,0
7233,251528.5073100938,2010-11-19 09:37:31,690.3510602943502,7,22,-1.0997490882873535,3.77826452255249,21.78548382711613,21.04519684438904,86.9381317390376,76.89392953396569,-0.0002266406954731,0.098061554133892,0,0,0
7234,251558.5224720307,2010-11-19 09:38:01,720.3662213640973,7,22,-1.099568486213684,3.771627187728882,21.78548382711613,21.054365166435087,86.9381317390376,76.92853966240281,-0.0001618862152099,0.098061554133892,0,0,0
7235,251588.5377268445,2010-11-19 09:38:31,750.3814761828564,7,22,-1.0997490882873535,3.764827966690064,21.78548382711613,21.06353342445445,86.9381317390376,76.96308763247609,-0.0001942634553415,0.098061554133892,0,0,0
7236,251618.55297931732,2010-11-19 09:39:01,780.39672865576,7,22,-1.0997490882873535,3.758190631866455,21.78548382711613,21.07270169008068,86.9381317390376,76.99757477634375,-0.0001618862152099,0.098061554133892,0,0,0
7237,251648.5682607225,2010-11-19 09:39:31,810.4120100558703,7,22,-1.099568486213684,3.7518773078918457,21.78548382711613,21.081870050808806,86.9381317390376,77.03200197396842,-0.0001618862152099,0.098061554133892,0,0,0
7238,251678.58348642857,2010-11-19 09:40:01,840.4272357619597,7,22,-1.099568486213684,3.745563745498657,21.78548382711613,21.09103833381076,86.9381317390376,77.06637063882576,-0.0001618862152099,0.098061554133892,0,0,0
7239,251708.5990682185,2010-11-19 09:40:31,870.4428175769517,7,22,-1.0997490882873535,3.739088296890259,21.78548382711613,21.10020673815277,86.9381317390376,77.10068221301457,-0.0001942634553415,0.098061554133892,0,0,0
7240,251738.6141665717,2010-11-19 09:41:01,900.4579159050862,7,22,-1.099568486213684,3.73309850692749,21.78548382711613,21.109374962708877,86.9381317390376,77.13493698656993,-0.0001942634553415,0.098061554133892,0,0,0
7241,251768.62926262413,2010-11-19 09:41:31,930.4730119575402,7,22,-1.099568486213684,3.7274324893951416,21.78548382711613,21.118543219206405,86.9381317390376,77.16913668298739,-0.0001295089750783,0.098061554133892,0,0,0
7242,251798.6445104956,2010-11-19 09:42:01,960.4882598339702,7,22,-1.099568486213684,3.721604585647583,21.78548382711613,21.12771154388789,86.9381317390376,77.20328348558047,-0.0001618862152099,0.098061554133892,0,0,0
7243,251828.65976824664,2010-11-19 09:42:31,990.5035175800364,7,22,-1.0997490882873535,3.715776681900024,21.78548382711613,21.136879782051512,86.9381317390376,77.23737699029812,-0.0001295089750783,0.098061554133892,0,0,0
7244,251858.6751454509,2010-11-19 09:43:01,1020.5188947893008,7,22,-1.099568486213684,3.710110664367676,21.78548382711613,21.146048206487738,86.9381317390376,77.27141851637509,-0.0001618862152099,0.098061554133892,0,0,0
7245,251888.6903231672,2010-11-19 09:43:31,1050.534072500588,7,22,-1.099568486213684,3.704444646835327,21.78548382711613,21.155216609511708,86.9381317390376,77.30540793659812,-0.0001295089750783,0.098061554133892,0,0,0
7246,251918.70553972543,2010-11-19 09:44:01,1080.549289058843,7,22,-1.0997490882873535,3.6987786293029785,21.78548382711613,21.16438501616184,86.9381317390376,77.3393462314532,-0.0001618862152099,0.098061554133892,0,0,0
7247,251948.72080777225,2010-11-19 09:44:31,1110.5645571056214,7,22,-1.0997490882873535,3.69343638420105,21.78548382711613,21.173553446288324,86.9381317390376,77.37323400114796,-0.0001295089750783,0.098061554133892,0,0,0
7248,251978.7360494582,2010-11-19 09:45:01,1140.5797987966116,7,22,-1.099568486213684,3.687770366668701,21.78548382711613,21.182721822518044,86.9381317390376,77.40707122090154,-0.0001942634553415,0.098061554133892,0,0,0
7249,252008.75136495344,2010-11-19 09:45:31,1170.595114286816,7,22,-1.0997490882873535,3.6825900077819824,21.78548382711613,21.191890209709516,86.9381317390376,77.44085994809977,-0.0001618862152099,0.098061554133892,0,0,0
7250,252038.7666870802,2010-11-19 09:46:01,1200.610436413586,7,22,-1.0997490882873535,3.677409648895264,21.78548382711613,21.201058539011555,86.9381317390376,77.47460043320926,-0.0001295089750783,0.098061554133892,0,0,0
7251,252068.78209425925,2010-11-19 09:46:31,1230.62584359266,7,22,-1.0997490882873535,3.672229528427124,21.78548382711613,21.210226912347597,86.9381317390376,77.50829388736071,-0.0001618385285837,0.098061554133892,0,0,0
7252,252098.79708634212,2010-11-19 09:47:01,1260.64083567559,7,22,-1.099929690361023,3.667372941970825,21.78548382711613,21.219395196809863,86.9381317390376,77.54194021558892,-0.0001295089750783,0.098061554133892,0,0,0
7253,252128.8123570456,2010-11-19 09:47:31,1290.656106379,7,22,-1.099568486213684,3.6625163555145264,21.78548382711613,21.228563484088905,86.9381317390376,77.57554067620724,-0.0001295089750783,0.098061554133892,0,0,0
7254,252158.82761414003,2010-11-19 09:48:01,1320.6713634734394,7,22,-1.099568486213684,3.6574978828430176,21.78548382711613,21.237731830500472,86.9381317390376,77.60909574669995,-9.713172767078504e-05,0.098061554133892,0,0,0
7255,252188.8428521919,2010-11-19 09:48:31,1350.686601525346,7,22,-1.0997490882873535,3.652479410171509,21.78548382711613,21.246900212262656,86.9381317390376,77.64260521428842,-9.713172767078504e-05,0.098061554133892,0,0,0
7256,252218.85811354703,2010-11-19 09:49:01,1380.7018628804203,7,22,-1.0997490882873535,3.64762282371521,21.78548382711613,21.256068578471744,86.9381317390376,77.67606980351191,-0.0001295089750783,0.098061554133892,0,0,0
7257,252248.873583989,2010-11-19 09:49:31,1410.7173333224086,7,22,-1.0997490882873535,3.642766237258911,21.78548382711613,21.26523691836029,86.9381317390376,77.70948988474636,-0.0001295089750783,0.098061554133892,0,0,0
7258,252278.8737777029,2010-11-19 09:50:01,1440.717527036333,7,22,-1.099568486213684,3.6380715370178223,21.78548382711613,21.274400629479107,86.9381317390376,77.7428497024094,-0.0001295089750783,0.098061554133892,0,0,0
7259,252308.87544524577,2010-11-19 09:50:31,1470.7191945741486,7,22,-1.0997490882873535,3.633538722991944,21.78548382711613,21.2835647968582,86.9381317390376,77.7761682035949,-9.713172767078504e-05,0.098061554133892,0,0,0
7260,252338.88795127813,2010-11-19 09:51:01,1500.7317007218016,7,22,-1.0993878841400146,3.629005908966065,21.78548382711613,21.292732343567057,86.9381317390376,77.80945735221525,-0.0001295089750783,0.098061554133892,0,0,0
7261,252368.9031609141,2010-11-19 09:51:31,1530.7469102475025,7,22,-1.099568486213684,3.6244730949401855,21.78548382711613,21.301900647867768,86.9381317390376,77.84270844217502,-0.0001295089750783,0.098061554133892,0,0,0
7262,252398.91841796844,2010-11-19 09:52:01,1560.7621673068545,7,22,-1.099568486213684,3.620264053344727,21.78548382711613,21.311068977602247,86.9381317390376,77.87591959821619,-9.713172767078504e-05,0.098061554133892,0,0,0
7263,252428.93368561924,2010-11-19 09:52:31,1590.777434952632,7,22,-1.099568486213684,3.616055011749268,21.78548382711613,21.320237341343923,86.9381317390376,77.90909129405667,-9.713172767078504e-05,0.098061554133892,0,0,0
7264,252458.94896248804,2010-11-19 09:53:01,1620.792711816419,7,22,-1.099568486213684,3.6118459701538086,21.78548382711613,21.32940572973933,86.9381317390376,77.94222383387216,-9.713172767078504e-05,0.098061554133892,0,0,0
7265,252488.96418387332,2010-11-19 09:53:31,1650.80793319671,7,22,-1.0997490882873535,3.6076369285583496,21.78548382711613,21.338574045045245,86.9381317390376,77.975318495015,-9.713172767078504e-05,0.098061554133892,0,0,0
7266,252518.9798747556,2010-11-19 09:54:01,1680.8236241842137,7,22,-1.099568486213684,3.603751659393311,21.78548382711613,21.347742541694068,86.9381317390376,78.00837687256592,-9.713172767078504e-05,0.098061554133892,0,0,0
7267,252548.99471557591,2010-11-19 09:54:31,1710.8384649093314,7,22,-1.0997490882873535,3.599704504013061,21.78548382711613,21.356910721558897,86.9381317390376,78.04139802034419,-0.0001295089750783,0.098061554133892,0,0,0
7268,252579.0099570063,2010-11-19 09:55:01,1740.8537063396711,7,22,-1.099568486213684,3.5959811210632324,21.78548382711613,21.36607911803861,86.9381317390376,78.07438375165866,-6.47544875391759e-05,0.098061554133892,0,0,0
7269,252609.02522306808,2010-11-19 09:55:31,1770.8689724065073,7,22,-1.099568486213684,3.5922577381134038,21.78548382711613,21.375247526281772,86.9381317390376,78.10733473242506,-6.47544875391759e-05,0.098061554133892,0,0,0
7270,252639.040723926,2010-11-19 09:56:01,1800.88447326943,7,22,-1.099568486213684,3.5885345935821533,21.78548382711613,21.38441596481099,86.9381317390376,78.14025252575657,-9.713172767078504e-05,0.098061554133892,0,0,0
7271,252669.05576758267,2010-11-19 09:56:31,1830.8995169260963,7,22,-1.0997490882873535,3.584973096847534,21.78548382711613,21.393584307961483,86.9381317390376,78.17313756784155,-9.713172767078504e-05,0.098061554133892,0,0,0
7272,252699.07100709825,2010-11-19 09:57:01,1860.9147564316315,7,22,-1.099568486213684,3.581573486328125,21.78548382711613,21.40275264431182,86.9381317390376,78.20599067262616,-9.713172767078504e-05,0.098061554133892,0,0,0
7273,252729.0862543431,2010-11-19 09:57:31,1890.9300036764848,7,22,-1.099568486213684,3.578335762023926,21.78548382711613,21.411921075095435,86.9381317390376,78.23881337231137,-9.713172767078504e-05,0.098061554133892,0,0,0
7274,252759.10151675585,2010-11-19 09:58:01,1920.9452660891995,7,22,-1.0997490882873535,3.5750980377197266,21.78548382711613,21.42108948526837,86.9381317390376,78.27160556992611,-3.237724376958795e-05,0.098061554133892,0,0,0
7275,252789.11680930373,2010-11-19 09:58:31,1950.9605586371365,7,22,-1.0997490882873535,3.571860313415528,21.78548382711613,21.430257936812907,86.9381317390376,78.30436828905387,-6.47544875391759e-05,0.098061554133892,0,0,0
7276,252819.1320330249,2010-11-19 09:59:01,1980.975782363284,7,22,-1.099568486213684,3.568946361541748,21.78548382711613,21.439426347096298,86.9381317390376,78.33710234847021,-6.47544875391759e-05,0.098061554133892,0,0,0
7277,252849.14728844515,2010-11-19 09:59:31,2010.991037778532,7,22,-1.0997490882873535,3.565870523452759,21.78548382711613,21.44859479263137,86.9381317390376,78.36980869881657,-6.47544875391759e-05,0.098061554133892,0,0,0
7278,252879.1626876493,2010-11-19 10:00:01,2041.006436987712,7,22,-1.0997490882873535,3.5629565715789795,21.78548382711613,21.457763258815195,86.9381317390376,78.4024876050419,-6.47544875391759e-05,0.098061554133892,0,0,0
7279,252909.17780941093,2010-11-19 10:00:31,2071.021558744327,7,22,-1.099568486213684,3.5598807334899902,21.78548382711613,21.466931702073506,86.9381317390376,78.43513950939395,-6.47544875391759e-05,0.098061554133892,0,0,0
7280,252939.19318602871,2010-11-19 10:01:01,2101.0369353621154,7,22,-1.099568486213684,3.556804895401001,21.78548382711613,21.47610011951244,86.9381317390376,78.46776361373955,-9.713172767078504e-05,0.098061554133892,0,0,0
7281,252969.20843842145,2010-11-19 10:01:32,2131.0521877548185,7,22,-1.0993878841400146,3.5538909435272217,21.78548382711613,21.48526852085305,86.9381317390376,78.50035990086877,-6.47544875391759e-05,0.098061554133892,0,0,0
7282,252999.22357882457,2010-11-19 10:02:02,2161.067328157979,7,22,-1.0997490882873535,3.5506532192230225,21.78548382711613,21.494436929348403,86.9381317390376,78.53292839467447,-0.0001295089750783,0.098061554133892,0,0,0
7283,253029.23896917165,2010-11-19 10:02:32,2191.082718505037,7,22,-1.0997490882873535,3.547577381134033,21.78548382711613,21.503605404957,86.9381317390376,78.56546967200784,-0.0001295089750783,0.098061554133892,0,0,0
7284,253059.25409309365,2010-11-19 10:03:02,2221.0978424270584,7,22,-1.0997490882873535,3.544663429260254,21.78548382711613,21.51277376702433,86.9381317390376,78.5979831600361,-6.47544875391759e-05,0.098061554133892,0,0,0
7285,253089.26938702507,2010-11-19 10:03:32,2251.1131363584486,7,22,-1.099568486213684,3.5415875911712646,21.78548382711613,21.521942184206825,86.9381317390376,78.63046878556266,-9.713172767078504e-05,0.098061554133892,0,0,0
7286,253119.2846037387,2010-11-19 10:04:02,2281.128353077104,7,22,-1.099568486213684,3.5388355255126958,21.78548382711613,21.531110567909742,86.9381317390376,78.66292614521622,-6.47544875391759e-05,0.098061554133892,0,0,0
7287,253149.3000073589,2010-11-19 10:04:32,2311.1437566972945,7,22,-1.0997490882873535,3.535597801208496,21.78548382711613,21.540279018680547,86.9381317390376,78.69535602853877,-9.713172767078504e-05,0.098061554133892,0,0,0
7288,253179.3152512604,2010-11-19 10:05:02,2341.1590005887774,7,22,-1.0997490882873535,3.532198190689087,21.78548382711613,21.54944746672093,86.9381317390376,78.72775734080437,-0.0001295089750783,0.098061554133892,0,0,0
7289,253209.33038922749,2010-11-19 10:05:32,2371.1741385608693,7,22,-1.0997490882873535,3.529284238815308,21.78548382711613,21.55861584149312,86.9381317390376,78.76012947151463,-6.47544875391759e-05,0.098061554133892,0,0,0
7290,253239.34566616645,2010-11-19 10:06:02,2401.189415494832,7,22,-1.0997490882873535,3.5260465145111084,21.78548382711613,21.567784278230835,86.9381317390376,78.7924723985498,-9.713172767078504e-05,0.098061554133892,0,0,0
7291,253269.36128654267,2010-11-19 10:06:32,2431.2050358660654,7,22,-1.099568486213684,3.5224850177764893,21.78548382711613,21.57695276994864,86.9381317390376,78.8247846899156,-9.713172767078504e-05,0.098061554133892,0,0,0
7292,253299.3761997387,2010-11-19 10:07:02,2461.219949072107,7,22,-1.0997490882873535,3.51908540725708,21.78548382711613,21.586121054322945,86.9381317390376,78.85706423524984,-6.47544875391759e-05,0.098061554133892,0,0,0
7293,253329.3915492939,2010-11-19 10:07:32,2491.235298627343,7,22,-1.099568486213684,3.515523910522461,21.78548382711613,21.595289521745745,86.9381317390376,78.88931233593138,-0.0001295089750783,0.098061554133892,0,0,0
7294,253359.40678433835,2010-11-19 10:08:02,2521.2505336667296,7,22,-1.0997490882873535,3.511800527572632,21.78548382711613,21.60445795260747,86.9381317390376,78.92152761724255,-0.0001295089750783,0.098061554133892,0,0,0
7295,253389.4219336889,2010-11-19 10:08:32,2551.2656830222363,7,22,-1.0993878841400146,3.508239269256592,21.78548382711613,21.61362628840796,86.9381317390376,78.95370879001031,-6.47544875391759e-05,0.098061554133892,0,0,0
7296,253419.43717705904,2010-11-19 10:09:02,2581.2809263924178,7,22,-1.0997490882873535,3.5041921138763428,21.78548382711613,21.622794707535228,86.9381317390376,78.98585473046904,-0.0001295089750783,0.098061554133892,0,0,0
7297,253449.45243289537,2010-11-19 10:09:32,2611.296182228717,7,22,-1.0997490882873535,3.499983072280884,21.78548382711613,21.631963086870027,86.9381317390376,79.01796346325514,-0.0001295089750783,0.098061554133892,0,0,0
7298,253479.46770709747,2010-11-19 10:10:02,2641.3114564308603,7,22,-1.0993878841400146,3.495774030685425,21.78548382711613,21.641131469266465,86.9381317390376,79.05003278144683,-6.47544875391759e-05,0.098061554133892,0,0,0
7299,253509.48298464296,2010-11-19 10:10:32,2671.326733976349,7,22,-1.0993878841400146,3.490755558013916,21.78548382711613,21.650299936418637,86.9381317390376,79.08206058474828,-0.0001295089750783,0.098061554133892,0,0,0
7300,253539.4982156974,2010-11-19 10:11:02,2701.3419650307883,7,22,-1.099568486213684,3.4857370853424072,21.78548382711613,21.659468395018603,86.9381317390376,79.11404308375063,-0.0001295089750783,0.098061554133892,0,0,0
7301,253569.51348321783,2010-11-19 10:11:32,2731.3572325512528,7,22,-1.099568486213684,3.4803948402404785,21.78548382711613,21.668636792514057,86.9381317390376,79.1459770272619,-0.0001295089750783,0.098061554133892,0,0,0
7302,253599.52877450263,2010-11-19 10:12:02,2761.3725238410493,7,22,-1.0997490882873535,3.47408127784729,21.78548382711613,21.67780512935712,86.9381317390376,79.17785776817927,-0.0001942634553415,0.098061554133892,0,0,0
7303,253629.5440198277,2010-11-19 10:12:32,2791.3877691610983,7,22,-1.0997490882873535,3.4674439430236816,21.78548382711613,21.686973547399457,86.9381317390376,79.20968034458633,-0.0002266406954731,0.098061554133892,0,0,0
7304,253659.55940313212,2010-11-19 10:13:02,2821.403152465577,7,22,-1.0997490882873535,3.459835290908813,21.78548382711613,21.696142018400742,86.9381317390376,79.24143759233736,-0.0002266406954731,0.098061554133892,0,0,0
7305,253689.5745573097,2010-11-19 10:13:32,2851.418306648133,7,22,-1.099568486213684,3.451093435287476,21.78548382711613,21.70531034161361,86.9381317390376,79.27311923575581,-0.0002266406954731,0.098061554133892,0,0,0
7306,253719.5897967752,2010-11-19 10:14:02,2881.433546108556,7,22,-1.0997490882873535,3.440732717514038,21.78548382711613,21.714478744844904,86.9381317390376,79.3047140758812,-0.0002913951757363,0.098061554133892,0,0,0
7307,253749.6050420852,2010-11-19 10:14:32,2911.4487914185797,7,22,-1.099568486213684,3.42859148979187,21.78548382711613,21.723647071340395,86.9381317390376,79.3362064146537,-0.0003885269106831,0.098061554133892,0,0,0
7308,253779.62029330496,2010-11-19 10:15:02,2941.464042638355,7,22,-1.0997490882873535,3.413536071777344,21.78548382711613,21.732815472312016,86.9381317390376,79.3675752731591,-0.0004532813909463,0.098061554133892,0,0,0
7309,253809.6355791612,2010-11-19 10:15:32,2971.479328494589,7,22,-1.0997490882873535,3.3947572708129883,21.78548382711613,21.741983897343083,86.9381317390376,79.39878906514278,-0.0005180359003134,0.098061554133892,0,0,0
7310,253839.65096270628,2010-11-19 10:16:02,3001.494712044681,7,22,-1.099568486213684,3.370474338531494,21.78548382711613,21.751152404321743,86.9381317390376,79.42980629503687,-0.0006475448608398,0.098061554133892,0,0,0
7311,253869.666334893,2010-11-19 10:16:32,3031.510084246446,7,22,-1.0997490882873535,3.337935447692871,21.78548382711613,21.760320878390612,86.9381317390376,79.46056526553406,-0.0009713172912597,0.098061554133892,0,0,0
7312,253899.68135644952,2010-11-19 10:17:02,3061.525105782897,7,22,-1.0997490882873535,3.294388055801392,21.78548382711613,21.769489197594847,86.9381317390376,79.49097941477876,-0.0013598442310467,0.098061554133892,0,0,0
7313,253929.6966302156,2010-11-19 10:17:32,3091.540379548951,7,22,-1.0997490882873535,3.234328508377075,21.78548382711613,21.77865760679839,86.9381317390376,79.52092335211097,-0.0018131255637854,0.098061554133892,0,0,0
7314,253959.7118793401,2010-11-19 10:18:02,3121.555628673497,7,22,-1.099568486213684,3.147881507873535,21.78548382711613,21.78782599977601,86.9381317390376,79.55020850083865,-0.0027520656585693,0.098061554133892,0,0,0
7315,253989.7271504596,2010-11-19 10:18:32,3151.5708997929446,7,22,-1.0997490882873535,3.014325857162476,21.78548382711613,21.79699441830788,86.9381317390376,79.5785086320004,-0.0044356347061693,0.098061554133892,0,0,0
7316,254014.5080809144,2010-11-19 10:18:57,3176.351830247811,7,22,-1.099929690361023,2.813749313354492,21.78548382711613,21.804563965414363,86.9381317390376,79.60064525983239,-0.008256196975708,0.098061554133892,0,0,0
7317,254024.3360972953,2010-11-19 10:19:07,3186.1798466287,7,22,-1.099568486213684,2.699781894683838,21.78548382711613,21.80756597365597,86.9381317390376,79.60892590820619,-0.0097131254151463,0.098061554133892,0,0,0
7318,254084.3555948768,2010-11-19 10:20:07,60.01487682060219,8,22,0.0,3.358009099960327,21.78548382711613,21.80756597365597,86.9381317390376,79.60892590820619,0.0011655807029455,0.098061554133892,0,0,0
7319,254084.54840209792,2010-11-19 10:20:07,0.187434395086196,9,22,-1.9243103452026844e-05,3.358170986175537,21.78548382711613,21.807565974657862,86.9381317390376,79.60892591157072,0.0,0.0931989923119545,0,0,0
7320,254089.37660408788,2010-11-19 10:20:12,5.015636385053461,9,22,0.0005225847125984,3.3656177520751958,21.78548451077216,21.80756597490904,86.93813403795335,79.60892591241448,0.0010036944877356,0.0931989923119545,0,0,0
