Data_Point,Test_Time(s),Date_Time,Step_Time(s),Step_Index,Cycle_Index,Current(A),Voltage(V),Charge_Capacity(Ah),Discharge_Capacity(Ah),Charge_Energy(Wh),Discharge_Energy(Wh),dV/dt(V/s),Internal_Resistance(Ohm),Is_FC_Data,AC_Impedance(Ohm),ACI_Phase_Angle(Deg)
14523,503441.26675991336,2010-11-22 07:36:30,30.01524654310182,1,45,0.0,3.412402868270874,43.20725663853481,43.21799474809436,172.42571306820008,157.7197030470835,0.0006799221155233,0.0962666198611259,0,0,0
14524,503471.2821465913,2010-11-22 07:37:00,60.03063323603919,1,45,0.0,3.43458104133606,43.20725663853481,43.21799474809436,172.42571306820008,157.7197030470835,0.0005180359003134,0.0962666198611259,0,0,0
14525,503501.2972998115,2010-11-22 07:37:30,90.04578644616755,1,45,0.0,3.4514172077178955,43.20725663853481,43.21799474809436,172.42571306820008,157.7197030470835,0.0004209041653666,0.0962666198611259,0,0,0
14526,503531.2656975025,2010-11-22 07:38:00,120.0141841373274,1,45,0.0,3.4645299911499023,43.20725663853481,43.21799474809436,172.42571306820008,157.7197030470835,0.0002913951757363,0.0962666198611259,0,0,0
14527,503561.2855318923,2010-11-22 07:38:30,30.01525737514025,2,45,0.550297200679779,3.625444412231445,43.211843714837904,43.21799474809436,172.4421886199081,157.7197030470835,0.0015217304462566,0.0962666198611259,0,0,0
14528,503591.3008478737,2010-11-22 07:39:00,60.03057337160836,2,45,0.5501165986061096,3.670286893844605,43.21643078614224,43.21799474809436,172.45892810300512,157.7197030470835,0.0010036944877356,0.0962666198611259,0,0,0
14529,503621.3160711738,2010-11-22 07:39:30,90.04579665164198,2,45,0.550297200679779,3.7023401260375977,43.2210178353556,43.21799474809436,172.4758407765201,157.7197030470835,0.0007446765666827,0.0962666198611259,0,0,0
14530,503651.3332423161,2010-11-22 07:40:00,120.06296778882674,2,45,0.550297200679779,3.727594375610352,43.22560519871136,43.21799474809436,172.49288501293037,157.7197030470835,0.0006151676061563,0.0962666198611259,0,0,0
14531,503681.3466119491,2010-11-22 07:40:30,150.07633744693484,2,45,0.550297200679779,3.7481539249420166,43.23019191270497,43.21799474809436,172.51003079892598,157.7197030470835,0.0004856586456298,0.0962666198611259,0,0,0
14532,503711.3620582959,2010-11-22 07:41:00,180.09178377372749,2,45,0.5501165986061096,3.7640185356140137,43.23477896787357,43.21799474809436,172.52726173518468,157.7197030470835,0.0003561496851034,0.0962666198611259,0,0,0
14533,503741.37715485465,2010-11-22 07:41:30,210.10688033244523,2,45,0.550297200679779,3.775350570678711,43.23936598214512,43.21799474809436,172.5445553118271,157.7197030470835,0.0001942634553415,0.0962666198611259,0,0,0
14534,503771.3924372974,2010-11-22 07:42:00,240.122162775158,2,45,0.5501165986061096,3.782473564147949,43.24395294910389,43.21799474809436,172.56188995069965,157.7197030470835,0.0001618862152099,0.0962666198611259,0,0,0
14535,503801.407798226,2010-11-22 07:42:30,270.1375238391215,2,45,0.5501165986061096,3.787492036819458,43.24853995955278,43.21799474809436,172.57925204476808,157.7197030470835,9.713172767078504e-05,0.0962666198611259,0,0,0
14536,503831.4230813855,2010-11-22 07:43:00,300.1528068783232,2,45,0.5499359965324402,3.791862964630127,43.2531269924788,43.21799474809436,172.59663562533217,157.7197030470835,0.0001295089750783,0.0962666198611259,0,0,0
14537,503861.43822614953,2010-11-22 07:43:30,330.16795164236885,2,45,0.5501165986061096,3.795910120010376,43.25771399605246,43.21799474809436,172.61403830542764,157.7197030470835,9.713172767078504e-05,0.0962666198611259,0,0,0
14538,503891.4536335993,2010-11-22 07:44:00,360.1833590921184,2,45,0.5501165986061096,3.799633502960205,43.26230108015174,43.21799474809436,172.63145969525465,157.7197030470835,6.47544875391759e-05,0.0962666198611259,0,0,0
14539,503921.4690565627,2010-11-22 07:44:30,390.1987821558429,2,45,0.550297200679779,3.803680658340454,43.26688809470474,43.21799474809436,172.64889855757053,157.7197030470835,9.713172767078504e-05,0.0962666198611259,0,0,0
14540,503951.4840482146,2010-11-22 07:45:00,420.2137736924091,2,45,0.550297200679779,3.807404041290283,43.27147511671535,43.21799474809436,172.66635463564765,157.7197030470835,9.713172767078504e-05,0.0962666198611259,0,0,0
14541,503981.49933059217,2010-11-22 07:45:30,450.2290560849968,2,45,0.5501165986061096,3.8109655380249023,43.27606217957473,43.21799474809436,172.6838276557599,157.7197030470835,6.47544875391759e-05,0.0962666198611259,0,0,0
14542,504011.5145884936,2010-11-22 07:46:00,480.2443139714133,2,45,0.550297200679779,3.814688920974731,43.280649249918646,43.21799474809436,172.70131710714472,157.7197030470835,0.0001295089750783,0.0962666198611259,0,0,0
14543,504041.529847162,2010-11-22 07:46:30,510.25957263978165,2,45,0.5501165986061096,3.81792664527893,43.285236252940805,43.21799474809436,172.71882233034913,157.7197030470835,6.47544875391759e-05,0.0962666198611259,0,0,0
14544,504071.5451422262,2010-11-22 07:47:00,540.2748677039996,2,45,0.550297200679779,3.82148814201355,43.289823192422766,43.21799474809436,172.73634278246104,157.7197030470835,0.0001295089750783,0.0962666198611259,0,0,0
14545,504101.5603613359,2010-11-22 07:47:30,570.2900868136232,2,45,0.5504778623580933,3.824725866317749,43.29441012020827,43.21799474809436,172.75387833739666,157.7197030470835,9.713172767078504e-05,0.0962666198611259,0,0,0
14546,504131.5771728102,2010-11-22 07:48:00,600.3068984233722,2,45,0.5499359965324402,3.827639818191528,43.29899715866788,43.21799474809436,172.7714293237553,157.7197030470835,3.237724376958795e-05,0.0962666198611259,0,0,0
14547,504161.59095270233,2010-11-22 07:48:30,630.3206782803999,2,45,0.5501165986061096,3.8310394287109375,43.30358319848946,43.21799474809436,172.78899129233173,157.7197030470835,9.713172767078504e-05,0.0962666198611259,0,0,0
14548,504191.6061461679,2010-11-22 07:49:00,660.3358716607995,2,45,0.5501165986061096,3.834438800811768,43.30816957139008,43.21799474809436,172.8065695160705,157.7197030470835,9.713172767078504e-05,0.0962666198611259,0,0,0
14549,504221.62144914194,2010-11-22 07:49:30,690.3511746096988,2,45,0.5499359965324402,3.837514638900757,43.31275576562462,43.21799474809436,172.82416218069315,157.7197030470835,6.47544875391759e-05,0.0962666198611259,0,0,0
14550,504251.6389611399,2010-11-22 07:50:00,720.3686866077246,2,45,0.550297200679779,3.841076135635376,43.31734232364895,43.21799474809436,172.84177150581417,157.7197030470835,9.713172767078504e-05,0.0962666198611259,0,0,0
14551,504281.6519927492,2010-11-22 07:50:30,750.381718217011,2,45,0.5501165986061096,3.844313859939575,43.32192821539526,43.21799474809436,172.8593937011328,157.7197030470835,6.47544875391759e-05,0.0962666198611259,0,0,0
14552,504311.66721598414,2010-11-22 07:51:00,780.396941461957,2,45,0.5499359965324402,3.8478753566741934,43.32651452230065,43.21799474809436,172.87703311515665,157.7197030470835,0.0001295089750783,0.0962666198611259,0,0,0
14553,504341.6825751685,2010-11-22 07:51:30,810.4123006612659,2,45,0.5501165986061096,3.8511130809783936,43.33110149402473,43.21799474809436,172.8946908932648,157.7197030470835,6.47544875391759e-05,0.0962666198611259,0,0,0
14554,504371.69781332056,2010-11-22 07:52:00,840.4275387883602,2,45,0.5501165986061096,3.8546745777130127,43.33568853833161,43.21799474809436,172.91236465907832,157.7197030470835,9.713172767078504e-05,0.0962666198611259,0,0,0
14555,504401.7130601444,2010-11-22 07:52:30,870.4427856171752,2,45,0.5501165986061096,3.858236074447632,43.34027553626908,43.21799474809436,172.9300538999299,157.7197030470835,0.0001618862152099,0.0962666198611259,0,0,0
14556,504431.7284427823,2010-11-22 07:53:00,900.4581682600029,2,45,0.5501165986061096,3.861311912536621,43.34486251730727,43.21799474809436,172.94775854759445,157.7197030470835,6.47544875391759e-05,0.0962666198611259,0,0,0
14557,504461.74359155627,2010-11-22 07:53:30,930.4733170490956,2,45,0.5501165986061096,3.8647115230560303,43.34944951763893,43.21799474809436,172.96547853553574,157.7197030470835,6.47544875391759e-05,0.0962666198611259,0,0,0
14558,504491.7588717033,2010-11-22 07:54:00,960.4885971760278,2,45,0.5501165986061096,3.8679492473602295,43.35403647768132,43.21799474809436,172.98321335060126,157.7197030470835,9.713172767078504e-05,0.0962666198611259,0,0,0
14559,504521.7741224368,2010-11-22 07:54:30,990.5038479346522,2,45,0.550297200679779,3.8710250854492183,43.3586235383221,43.21799474809436,173.00096329457944,157.7197030470835,3.237724376958795e-05,0.0962666198611259,0,0,0
14560,504551.7895570544,2010-11-22 07:55:00,1020.5192825321668,2,45,0.550297200679779,3.874262809753418,43.36321057613779,43.21799474809436,173.01872749952366,157.7197030470835,6.47544875391759e-05,0.0962666198611259,0,0,0
14561,504581.804697212,2010-11-22 07:55:30,1050.534422679689,2,45,0.550297200679779,3.8773386478424072,43.36779760462906,43.21799474809436,173.03650547901654,157.7197030470835,9.713172767078504e-05,0.0962666198611259,0,0,0
14562,504611.819954983,2010-11-22 07:56:00,1080.5496804608426,2,45,0.550297200679779,3.879928827285767,43.37238468714009,43.21799474809436,173.0542970451257,157.7197030470835,6.47544875391759e-05,0.0962666198611259,0,0,0
14563,504641.8353265482,2010-11-22 07:56:30,1110.5650520260187,2,45,0.5501165986061096,3.882680892944336,43.37697177852118,43.21799474809436,173.072101384709,157.7197030470835,3.237724376958795e-05,0.0962666198611259,0,0,0
14564,504671.8505931264,2010-11-22 07:57:00,1140.5803185991183,2,45,0.5501165986061096,3.885432958602905,43.38155884688928,43.21799474809436,173.08991785637338,157.7197030470835,6.47544875391759e-05,0.0962666198611259,0,0,0
14565,504701.8657366723,2010-11-22 07:57:30,1170.5954621501362,2,45,0.5501165986061096,3.887861251831055,43.3861459270656,43.21799474809436,173.1077459270433,157.7197030470835,9.713172767078504e-05,0.0962666198611259,0,0,0
14566,504731.8811368088,2010-11-22 07:58:00,1200.610862286631,2,45,0.5501165986061096,3.890127658843994,43.390733015202215,43.21799474809436,173.12558490792284,157.7197030470835,6.47544875391759e-05,0.0962666198611259,0,0,0
14567,504761.8963071517,2010-11-22 07:58:31,1230.6260326445629,2,45,0.5501165986061096,3.892232179641724,43.3953200944728,43.21799474809436,173.14343399931246,157.7197030470835,3.237724376958795e-05,0.0962666198611259,0,0,0
14568,504791.9115379355,2010-11-22 07:59:01,1260.6412634333394,2,45,0.550297200679779,3.894336700439453,43.39990716953576,43.21799474809436,173.16129262514374,157.7197030470835,9.713172767078504e-05,0.0962666198611259,0,0,0
14569,504821.9268565585,2010-11-22 07:59:31,1290.6565820563635,2,45,0.5501165986061096,3.8961174488067623,43.40449426487032,43.21799474809436,173.17915990038344,157.7197030470835,3.237724376958795e-05,0.0962666198611259,0,0,0
14570,504851.94396921975,2010-11-22 08:00:01,1320.6736946925207,2,45,0.5499359965324402,3.897574424743652,43.40908157137009,43.21799474809436,173.19703633314788,157.7197030470835,0.0,0.0962666198611259,0,0,0
14571,504881.9573308528,2010-11-22 08:00:31,1350.6870563205848,2,45,0.5501165986061096,3.899517059326172,43.4136683323395,43.21799474809436,173.21491844829262,157.7197030470835,6.47544875391759e-05,0.0962666198611259,0,0,0
14572,504911.97260173166,2010-11-22 08:01:01,1380.7023272244949,2,45,0.5501165986061096,3.901135921478272,43.41825542231912,43.21799474809436,173.23280908490585,157.7197030470835,9.713172767078504e-05,0.0962666198611259,0,0,0
14573,504941.9879287957,2010-11-22 08:01:31,1410.7176542885895,2,45,0.5501165986061096,3.902431011199951,43.42284239878271,43.21799474809436,173.25070624354106,157.7197030470835,6.47544875391759e-05,0.0962666198611259,0,0,0
14574,504972.0032273888,2010-11-22 08:02:01,1440.7329528665784,2,45,0.5501165986061096,3.903887987136841,43.427429510246384,43.21799474809436,173.26861051245186,157.7197030470835,3.237724376958795e-05,0.0962666198611259,0,0,0
14575,505002.0183977066,2010-11-22 08:02:31,1470.7481231844104,2,45,0.5501165986061096,3.905183076858521,43.43201656973834,43.21799474809436,173.28652099352038,157.7197030470835,0.0,0.0962666198611259,0,0,0
14576,505032.0337853168,2010-11-22 08:03:01,1500.7635108146874,2,45,0.5501165986061096,3.9064781665802,43.43660362387691,43.21799474809436,173.30443751402777,157.7197030470835,0.0,0.0962666198611259,0,0,0
14577,505062.0489259406,2010-11-22 08:03:31,1530.7786514333857,2,45,0.550297200679779,3.90777325630188,43.44119062952096,43.21799474809436,173.32236008249458,157.7197030470835,0.0,0.0962666198611259,0,0,0
14578,505092.064360899,2010-11-22 08:04:01,1560.7940863717513,2,45,0.5501165986061096,3.9092302322387695,43.44577769469272,43.21799474809436,173.3402889608897,157.7197030470835,3.237724376958795e-05,0.0962666198611259,0,0,0
14579,505122.079469192,2010-11-22 08:04:31,1590.8091946697718,2,45,0.5499359965324402,3.910525321960449,43.45036468941381,43.21799474809436,173.3582236438166,157.7197030470835,3.237724376958795e-05,0.0962666198611259,0,0,0
14580,505152.0947307576,2010-11-22 08:05:01,1620.8244562253467,2,45,0.550297200679779,3.911982297897339,43.454951743882994,43.21799474809436,173.37616455939508,157.7197030470835,6.47544875391759e-05,0.0962666198611259,0,0,0
14581,505182.1100592904,2010-11-22 08:05:31,1650.8397847581075,2,45,0.5501165986061096,3.9131155014038086,43.459538855974834,43.21799474809436,173.39411172473555,157.7197030470835,6.47544875391759e-05,0.0962666198611259,0,0,0
14582,505212.1252809363,2010-11-22 08:06:01,1680.8550064341375,2,45,0.550297200679779,3.914572238922119,43.46412590122112,43.21799474809436,173.41206468795454,157.7197030470835,9.713172767078504e-05,0.0962666198611259,0,0,0
14583,505242.1405318553,2010-11-22 08:06:31,1710.8702573230871,2,45,0.550297200679779,3.915705442428589,43.468713018067625,43.21799474809436,173.43002404625236,157.7197030470835,0.0,0.0962666198611259,0,0,0
14584,505272.1559226785,2010-11-22 08:07:01,1740.8856481764096,2,45,0.5501165986061096,3.917000532150269,43.47330010830446,43.21799474809436,173.44798939773972,157.7197030470835,0.0,0.0962666198611259,0,0,0
14585,505302.1710670567,2010-11-22 08:07:31,1770.900792549479,2,45,0.5501165986061096,3.918619394302368,43.47788715779724,43.21799474809436,173.46596084301652,157.7197030470835,6.47544875391759e-05,0.0962666198611259,0,0,0
14586,505332.1864760853,2010-11-22 08:08:01,1800.91620157817,2,45,0.5501165986061096,3.919914484024048,43.48247425302346,43.21799474809436,173.4839387330776,157.7197030470835,3.237724376958795e-05,0.0962666198611259,0,0,0
14587,505362.2015988495,2010-11-22 08:08:31,1830.9313243423007,2,45,0.550297200679779,3.9213714599609375,43.487061388075375,43.21799474809436,173.50192308789704,157.7197030470835,3.237724376958795e-05,0.0962666198611259,0,0,0
14588,505392.2169056129,2010-11-22 08:09:01,1860.946631090684,2,45,0.5501165986061096,3.922828435897827,43.49164843035623,43.21799474809436,173.51991344115618,157.7197030470835,3.237724376958795e-05,0.0962666198611259,0,0,0
14589,505422.2322598448,2010-11-22 08:09:31,1890.9619853376312,2,45,0.550297200679779,3.924123525619507,43.49623550384024,43.21799474809436,173.53791032825214,157.7197030470835,0.0,0.0962666198611259,0,0,0
14590,505452.24930080207,2010-11-22 08:10:01,1920.9790262698043,2,45,0.550297200679779,3.925580501556397,43.50082295216719,43.21799474809436,173.55591517931862,157.7197030470835,3.237724376958795e-05,0.0962666198611259,0,0,0
14591,505482.2626529614,2010-11-22 08:10:31,1950.992378459308,2,45,0.5501165986061096,3.927037477493286,43.50540977843284,43.21799474809436,173.57392395642648,157.7197030470835,3.237724376958795e-05,0.0962666198611259,0,0,0
14592,505512.2779510383,2010-11-22 08:11:01,1981.0076765260208,2,45,0.550297200679779,3.928494453430176,43.50999683571609,43.21799474809436,173.59194023972134,157.7197030470835,9.713172767078504e-05,0.0962666198611259,0,0,0
14593,505542.2931895112,2010-11-22 08:11:31,2011.0229150039904,2,45,0.5501165986061096,3.929789543151856,43.5145839432379,43.21799474809436,173.60996322096562,157.7197030470835,6.47544875391759e-05,0.0962666198611259,0,0,0
14594,505572.308482811,2010-11-22 08:12:01,2041.038208288767,2,45,0.5499359965324402,3.931084632873535,43.519171082088185,43.21799474809436,173.6279930315243,157.7197030470835,0.0,0.0962666198611259,0,0,0
14595,505602.3237696196,2010-11-22 08:12:31,2071.053495112415,2,45,0.5501165986061096,3.932541608810425,43.523758182568535,43.21799474809436,173.64602929093238,157.7197030470835,0.0,0.0962666198611259,0,0,0
14596,505632.33911950566,2010-11-22 08:13:01,2101.0688449734143,2,45,0.550297200679779,3.9343223571777344,43.528345348359125,43.21799474809436,173.6640725746709,157.7197030470835,9.713172767078504e-05,0.0962666198611259,0,0,0
14597,505662.3542726256,2010-11-22 08:13:31,2131.08399811838,2,45,0.550297200679779,3.935617446899414,43.53293242334598,43.21799474809436,173.68212227933364,157.7197030470835,3.237724376958795e-05,0.0962666198611259,0,0,0
14598,505692.3696738347,2010-11-22 08:14:01,2161.099399317527,2,45,0.5501165986061096,3.9369125366210938,43.53751962433213,43.21799474809436,173.70017918322236,157.7197030470835,3.237724376958795e-05,0.0962666198611259,0,0,0
14599,505722.3849214103,2010-11-22 08:14:31,2191.1146468932066,2,45,0.5501165986061096,3.938531398773194,43.54210666286057,43.21799474809436,173.71824232164414,157.7197030470835,6.47544875391759e-05,0.0962666198611259,0,0,0
14600,505752.40007315687,2010-11-22 08:15:01,2221.1297986296563,2,45,0.550297200679779,3.939988374710083,43.54669375414072,43.21799474809436,173.736312449811,157.7197030470835,0.0,0.0962666198611259,0,0,0
14601,505782.4153410282,2010-11-22 08:15:31,2251.145066500997,2,45,0.550297200679779,3.9417691230773926,43.55128084855922,43.21799474809436,173.75438940606196,157.7197030470835,9.713172767078504e-05,0.0962666198611259,0,0,0
14602,505812.4307644528,2010-11-22 08:16:01,2281.160489920609,2,45,0.5501165986061096,3.943064212799072,43.55586805171787,43.21799474809436,173.77247358790478,157.7197030470835,3.237724376958795e-05,0.0962666198611259,0,0,0
14603,505842.4460525848,2010-11-22 08:16:31,2311.1757780625485,2,45,0.550297200679779,3.944683074951172,43.5604551650483,43.21799474809436,173.7905642643182,157.7197030470835,9.713172767078504e-05,0.0962666198611259,0,0,0
14604,505872.4611532387,2010-11-22 08:17:01,2341.1908787064635,2,45,0.5501165986061096,3.945978164672852,43.5650422756452,43.21799474809436,173.8086618365075,157.7197030470835,3.237724376958795e-05,0.0962666198611259,0,0,0
14605,505902.4764222078,2010-11-22 08:17:31,2371.206147690581,2,45,0.550297200679779,3.947597026824951,43.56962937475529,43.21799474809436,173.82676621919455,157.7197030470835,6.47544875391759e-05,0.0962666198611259,0,0,0
14606,505932.4918468003,2010-11-22 08:18:01,2401.2215722781093,2,45,0.5501165986061096,3.949054002761841,43.57421649061517,43.21799474809436,173.84487766236634,157.7197030470835,0.0,0.0962666198611259,0,0,0
14607,505962.5071188972,2010-11-22 08:18:31,2431.236844395048,2,45,0.5499359965324402,3.9505109786987305,43.57880359637405,43.21799474809436,173.86299607880443,157.7197030470835,0.0,0.0962666198611259,0,0,0
14608,505992.5224206732,2010-11-22 08:19:01,2461.2521461459564,2,45,0.5499359965324402,3.95196795463562,43.58339070637377,43.21799474809436,173.88112160218125,157.7197030470835,0.0,0.0962666198611259,0,0,0
14609,506022.5233853265,2010-11-22 08:19:31,2491.253110804277,2,45,0.5501165986061096,3.9537487030029297,43.587975618574205,43.21799474809436,173.8992455958979,157.7197030470835,3.237724376958795e-05,0.0962666198611259,0,0,0
14610,506052.5377096576,2010-11-22 08:20:01,2521.267435255696,2,45,0.5501165986061096,3.9552056789398193,43.59256258570323,43.21799474809436,173.91738489521452,157.7197030470835,0.0,0.0962666198611259,0,0,0
14611,506082.55322248535,2010-11-22 08:20:31,2551.28294795316,2,45,0.550297200679779,3.956986427307129,43.59714972598325,43.21799474809436,173.9355320952729,157.7197030470835,6.47544875391759e-05,0.0962666198611259,0,0,0
14612,506112.55511715513,2010-11-22 08:21:01,2581.28484261792,2,45,0.5501165986061096,3.9582815170288086,43.60173476486624,43.21799474809436,173.95367808233115,157.7197030470835,3.237724376958795e-05,0.0962666198611259,0,0,0
14613,506142.5673999553,2010-11-22 08:21:31,2611.297125423075,2,45,0.5501165986061096,3.959900379180908,43.60632136148507,43.21799474809436,173.97183763735129,157.7197030470835,3.237724376958795e-05,0.0962666198611259,0,0,0
14614,506172.58262309496,2010-11-22 08:22:01,2641.312348572784,2,45,0.550297200679779,3.9616811275482178,43.61090848330872,43.21799474809436,173.9900068423382,157.7197030470835,6.47544875391759e-05,0.0962666198611259,0,0,0
14615,506202.5978938334,2010-11-22 08:22:31,2671.327619311281,2,45,0.5501165986061096,3.9634618759155273,43.61549561803485,43.21799474809436,174.00818371571054,157.7197030470835,3.237724376958795e-05,0.0962666198611259,0,0,0
14616,506232.61317730375,2010-11-22 08:23:01,2701.3429027715333,2,45,0.550297200679779,3.965242624282837,43.62008269010171,43.21799474809436,174.02636809555315,157.7197030470835,6.47544875391759e-05,0.0962666198611259,0,0,0
14617,506262.6284345536,2010-11-22 08:23:31,2731.358160031386,2,45,0.550297200679779,3.966861486434937,43.624669824686535,43.21799474809436,174.0445606431774,157.7197030470835,6.47544875391759e-05,0.0962666198611259,0,0,0
14618,506292.6437750162,2010-11-22 08:24:01,2761.3735005941758,2,45,0.550297200679779,3.968642234802246,43.62925697264906,43.21799474809436,174.0627611225719,157.7197030470835,3.237724376958795e-05,0.0962666198611259,0,0,0
14619,506322.65902855166,2010-11-22 08:24:31,2791.388754044519,2,45,0.5501165986061096,3.9702610969543457,43.6338440596437,43.21799474809436,174.08096934519887,157.7197030470835,3.237724376958795e-05,0.0962666198611259,0,0,0
14620,506352.6742476262,2010-11-22 08:25:01,2821.403973119055,2,45,0.5501165986061096,3.9720418453216553,43.63843123542564,43.21799474809436,174.0991860187314,157.7197030470835,3.237724376958795e-05,0.0962666198611259,0,0,0
14621,506382.68955316657,2010-11-22 08:25:31,2851.4192787195734,2,45,0.5501165986061096,3.973822593688965,43.64301831647823,43.21799474809436,174.11741036072428,157.7197030470835,0.0,0.0962666198611259,0,0,0
14622,506412.7048967268,2010-11-22 08:26:01,2881.434622204657,2,45,0.5499359965324402,3.9756033420562735,43.64760548405783,43.21799474809436,174.1356432125451,157.7197030470835,6.47544875391759e-05,0.0962666198611259,0,0,0
14623,506442.7200456863,2010-11-22 08:26:31,2911.4497711541503,2,45,0.5501165986061096,3.977384090423584,43.65219265606734,43.21799474809436,174.15388425358222,157.7197030470835,3.237724376958795e-05,0.0962666198611259,0,0,0
14624,506472.73532987846,2010-11-22 08:27:01,2941.465055376305,2,45,0.5501165986061096,3.979326725006104,43.65677975447458,43.21799474809436,174.17213275365742,157.7197030470835,6.47544875391759e-05,0.0962666198611259,0,0,0
14625,506502.75058397546,2010-11-22 08:27:31,2971.480309453212,2,45,0.5501165986061096,3.980945587158203,43.66136678804602,43.21799474809436,174.1903898666513,157.7197030470835,3.237724376958795e-05,0.0962666198611259,0,0,0
14626,506532.7660357308,2010-11-22 08:28:01,3001.4957612035428,2,45,0.5501165986061096,3.982888221740722,43.66595384873319,43.21799474809436,174.20865546665655,157.7197030470835,6.47544875391759e-05,0.0962666198611259,0,0,0
14627,506562.7812389909,2010-11-22 08:28:31,3031.510964483653,2,45,0.5501165986061096,3.984830856323242,43.67054090636779,43.21799474809436,174.22692952308947,157.7197030470835,6.47544875391759e-05,0.0962666198611259,0,0,0
14628,506592.7964087522,2010-11-22 08:29:01,3061.526134250109,2,45,0.5501165986061096,3.986611604690552,43.67512793823589,43.21799474809436,174.24521204794124,157.7197030470835,3.237724376958795e-05,0.0962666198611259,0,0,0
14629,506622.8116656262,2010-11-22 08:29:31,3091.541391103948,2,45,0.5499359965324402,3.988392353057861,43.67971498378935,43.21799474809436,174.26350328140234,157.7197030470835,3.237724376958795e-05,0.0962666198611259,0,0,0
14630,506652.82704671007,2010-11-22 08:30:01,3121.55677217786,2,45,0.550297200679779,3.990658760070801,43.68430203158642,43.21799474809436,174.28180334004904,157.7197030470835,9.713172767078504e-05,0.0962666198611259,0,0,0
14631,506682.8421904767,2010-11-22 08:30:31,3151.571915959453,2,45,0.550297200679779,3.992277622222901,43.68888906590152,43.21799474809436,174.30011223115133,157.7197030470835,3.237724376958795e-05,0.0962666198611259,0,0,0
14632,506712.8593654333,2010-11-22 08:31:01,3181.5890909963714,2,45,0.5501165986061096,3.9945437908172607,43.69347647390112,43.21799474809436,174.31843161173288,157.7197030470835,6.47544875391759e-05,0.0962666198611259,0,0,0
14633,506742.8728075072,2010-11-22 08:31:32,3211.6025330702405,2,45,0.5501165986061096,3.9963245391845694,43.69806321421581,43.21799474809436,174.33675738514358,157.7197030470835,9.713172767078504e-05,0.0962666198611259,0,0,0
14634,506772.8879872786,2010-11-22 08:32:02,3241.6177127564574,2,45,0.5499359965324402,3.9984290599823,43.70265029865907,43.21799474809436,174.35509376729368,157.7197030470835,6.47544875391759e-05,0.0962666198611259,0,0,0
14635,506802.9032521976,2010-11-22 08:32:32,3271.632977690466,2,45,0.5501165986061096,4.000371932983398,43.70723732957652,43.21799474809436,174.37343912165673,157.7197030470835,6.47544875391759e-05,0.0962666198611259,0,0,0
14636,506832.9185362343,2010-11-22 08:33:02,3301.6482617171323,2,45,0.5501165986061096,4.002476215362549,43.71182433295848,43.21799474809436,174.39179387614823,157.7197030470835,6.47544875391759e-05,0.0962666198611259,0,0,0
14637,506862.9337846271,2010-11-22 08:33:32,3331.6635100948133,2,45,0.5501165986061096,4.004742622375488,43.71641133073685,43.21799474809436,174.41015821112703,157.7197030470835,6.47544875391759e-05,0.0962666198611259,0,0,0
14638,506892.9490546337,2010-11-22 08:34:02,3361.6787801014843,2,45,0.5501165986061096,4.006685256958008,43.720998322825054,43.21799474809436,174.42853219991892,157.7197030470835,6.47544875391759e-05,0.0962666198611259,0,0,0
14639,506922.9643239035,2010-11-22 08:34:32,3391.694049371315,2,45,0.550297200679779,4.008790016174316,43.72558533147659,43.21799474809436,174.446916063746,157.7197030470835,3.24249267578125e-05,0.0962666198611259,0,0,0
14640,506952.97962790006,2010-11-22 08:35:02,3421.7093533778548,2,45,0.5501165986061096,4.010894298553467,43.730172381069046,43.21799474809436,174.46530985896555,157.7197030470835,3.23295607813634e-05,0.0962666198611259,0,0,0
14641,506982.99485943065,2010-11-22 08:35:32,3451.724584928533,2,45,0.5501165986061096,4.013160705566406,43.73475945416361,43.21799474809436,174.48371378662466,157.7197030470835,3.23295607813634e-05,0.0962666198611259,0,0,0
14642,507013.01011907647,2010-11-22 08:36:02,3481.739844569329,2,45,0.5501165986061096,4.015427112579346,43.73934655926752,43.21799474809436,174.50212794868764,157.7197030470835,6.47544875391759e-05,0.0962666198611259,0,0,0
14643,507043.025400642,2010-11-22 08:36:32,3511.755126114802,2,45,0.550297200679779,4.017693519592285,43.743933613081154,43.21799474809436,174.5205521175355,157.7197030470835,3.23295607813634e-05,0.0962666198611259,0,0,0
14644,507073.0408916604,2010-11-22 08:37:02,3541.770617128139,2,45,0.5501165986061096,4.019798278808594,43.74852071700183,43.21799474809436,174.53898666855096,157.7197030470835,9.71794142969884e-05,0.0962666198611259,0,0,0
14645,507103.0559455025,2010-11-22 08:37:32,3571.7856709802545,2,45,0.5501165986061096,4.022226333618164,43.753107721833565,43.21799474809436,174.55743123945192,157.7197030470835,6.47544875391759e-05,0.0962666198611259,0,0,0
14646,507133.0711559404,2010-11-22 08:38:02,3601.800881408208,2,45,0.5501165986061096,4.024492740631104,43.75769472278836,43.21799474809436,174.57588637848082,157.7197030470835,6.47544875391759e-05,0.0962666198611259,0,0,0
14647,507163.0867999356,2010-11-22 08:38:32,3631.816525538749,2,45,0.550297200679779,4.026921272277832,43.76228176623886,43.21799474809436,174.59435237041905,157.7197030470835,9.71794142969884e-05,0.0962666198611259,0,0,0
14648,507193.10170892114,2010-11-22 08:39:02,3661.8314344139794,2,45,0.5501165986061096,4.029187679290772,43.76686877987689,43.21799474809436,174.6128289616113,157.7197030470835,9.71794142969884e-05,0.0962666198611259,0,0,0
14649,507223.1169570833,2010-11-22 08:39:32,3691.846682561085,2,45,0.550297200679779,4.031615734100342,43.771455749113386,43.21799474809436,174.63131605772952,157.7197030470835,3.23295607813634e-05,0.0962666198611259,0,0,0
14650,507253.1323081573,2010-11-22 08:40:02,3721.8620336551626,2,45,0.550297200679779,4.03404426574707,43.776042770884885,43.21799474809436,174.64981423452315,157.7197030470835,9.71794142969884e-05,0.0962666198611259,0,0,0
14651,507283.1474979086,2010-11-22 08:40:32,3751.8772234014905,2,45,0.550297200679779,4.036310195922852,43.78062990446031,43.21799474809436,174.66832381820194,157.7197030470835,6.47544875391759e-05,0.0962666198611259,0,0,0
14652,507313.1646462188,2010-11-22 08:41:02,3781.89437178187,2,45,0.5501165986061096,4.03873872756958,43.7852172791893,43.21799474809436,174.68684546510798,157.7197030470835,9.71794142969884e-05,0.0962666198611259,0,0,0
14653,507343.1780290799,2010-11-22 08:41:32,3811.9077545577234,2,45,0.5501165986061096,4.04116678237915,43.78980416097265,43.21799474809436,174.70537622744976,157.7197030470835,6.47544875391759e-05,0.0962666198611259,0,0,0
14654,507373.19334296114,2010-11-22 08:42:02,3841.923068453949,2,45,0.5499359965324402,4.043595314025879,43.79439129898373,43.21799474809436,174.72391938555864,157.7197030470835,6.47544875391759e-05,0.0962666198611259,0,0,0
14655,507403.2086369476,2010-11-22 08:42:32,3871.938362500626,2,45,0.5499359965324402,4.046185493469238,43.79897842540797,43.21799474809436,174.74247395960234,157.7197030470835,3.24249267578125e-05,0.0962666198611259,0,0,0
14656,507433.2238402478,2010-11-22 08:43:02,3901.9535657155743,2,45,0.550297200679779,4.048775672912598,43.8035655887002,43.21799474809436,174.76104031814637,157.7197030470835,9.71794142969884e-05,0.0962666198611259,0,0,0
14657,507463.2390832972,2010-11-22 08:43:32,3931.968808774981,2,45,0.5501165986061096,4.051365852355957,43.80815279903189,43.21799474809436,174.7796185649016,157.7197030470835,6.47544875391759e-05,0.0962666198611259,0,0,0
14658,507493.2543532086,2010-11-22 08:44:02,3961.9840787014514,2,45,0.5499359965324402,4.053793907165527,43.81273998155161,43.21799474809436,174.79820845549702,157.7197030470835,6.47544875391759e-05,0.0962666198611259,0,0,0
14659,507523.2697419166,2010-11-22 08:44:32,3991.99946739438,2,45,0.550297200679779,4.056546211242676,43.81732720834771,43.21799474809436,174.8168103643909,157.7197030470835,9.71794142969884e-05,0.0962666198611259,0,0,0
14660,507553.2849087808,2010-11-22 08:45:02,4022.014634253579,2,45,0.5501165986061096,4.058974266052246,43.821914371011005,43.21799474809436,174.83542387334776,157.7197030470835,6.47544875391759e-05,0.0962666198611259,0,0,0
14661,507583.30019384006,2010-11-22 08:45:32,4052.029919322848,2,45,0.5501165986061096,4.0615644454956055,43.82650158528395,43.21799474809436,174.85404938394652,157.7197030470835,6.47544875391759e-05,0.0962666198611259,0,0,0
14662,507613.31554075866,2010-11-22 08:46:02,4082.0452662264656,2,45,0.5501165986061096,4.063992977142334,43.83108871153948,43.21799474809436,174.87268658822654,157.7197030470835,3.24249267578125e-05,0.0962666198611259,0,0,0
14663,507643.330680831,2010-11-22 08:46:32,4112.060406308825,2,45,0.5501165986061096,4.066906929016113,43.83567578238804,43.21799474809436,174.89133590159932,157.7197030470835,3.24249267578125e-05,0.0962666198611259,0,0,0
14664,507673.3459554341,2010-11-22 08:47:02,4142.075680911969,2,45,0.5501165986061096,4.069658756256104,43.8402629374647,43.21799474809436,174.9099981008909,157.7197030470835,6.47544875391759e-05,0.0962666198611259,0,0,0
14665,507703.3612145236,2010-11-22 08:47:32,4172.090940021438,2,45,0.5501165986061096,4.072248935699463,43.84485012991656,43.21799474809436,174.92867299702223,157.7197030470835,3.23295607813634e-05,0.0962666198611259,0,0,0
14666,507733.3766008005,2010-11-22 08:48:02,4202.106326293324,2,45,0.5501165986061096,4.075162887573242,43.84943726651439,43.21799474809436,174.94736031555502,157.7197030470835,3.23295607813634e-05,0.0962666198611259,0,0,0
14667,507763.39188983967,2010-11-22 08:48:32,4232.121615312453,2,45,0.5501165986061096,4.077753067016602,43.854024357722096,43.21799474809436,174.96606020178913,157.7197030470835,3.23295607813634e-05,0.0962666198611259,0,0,0
14668,507793.40708698943,2010-11-22 08:49:02,4262.1368124672745,2,45,0.550297200679779,4.08082914352417,43.858611486950174,43.21799474809436,174.9847731939386,157.7197030470835,6.47544875391759e-05,0.0962666198611259,0,0,0
14669,507823.422457888,2010-11-22 08:49:32,4292.152183360774,2,45,0.550297200679779,4.083743095397949,43.86319863410857,43.21799474809436,175.00349918072914,157.7197030470835,6.47544875391759e-05,0.0962666198611259,0,0,0
14670,507853.437536542,2010-11-22 08:50:02,4322.167262009785,2,45,0.5499359965324402,4.08649492263794,43.86778567531656,43.21799474809436,175.02223790860023,157.7197030470835,6.47544875391759e-05,0.0962666198611259,0,0,0
14671,507883.45287976647,2010-11-22 08:50:32,4352.182605359532,2,45,0.550297200679779,4.089732646942139,43.8723727711071,43.21799474809436,175.0409901236761,157.7197030470835,0.0001295089750783,0.0962666198611259,0,0,0
14672,507913.469984142,2010-11-22 08:51:02,4382.19970961477,2,45,0.5499359965324402,4.092322826385498,43.876960158552535,43.21799474809436,175.05975694717287,157.7197030470835,6.47544875391759e-05,0.0962666198611259,0,0,0
14673,507943.4834204765,2010-11-22 08:51:32,4412.213146029512,2,45,0.5501165986061096,4.095236778259277,43.88154699929103,43.21799474809436,175.0785349851785,157.7197030470835,3.23295607813634e-05,0.0962666198611259,0,0,0
14674,507973.4987619416,2010-11-22 08:52:02,4442.228487414353,2,45,0.550297200679779,4.098474502563477,43.88613418185712,43.21799474809436,175.09732800311744,157.7197030470835,9.70840483205393e-05,0.0962666198611259,0,0,0
14675,508003.5140063994,2010-11-22 08:52:32,4472.24373199255,2,45,0.5501165986061096,4.101388454437256,43.89072132840052,43.21799474809436,175.11613455817104,157.7197030470835,9.70840483205393e-05,0.0962666198611259,0,0,0
14676,508033.5319435237,2010-11-22 08:53:02,4502.261669076657,2,45,0.550297200679779,4.104302406311035,43.89530881717591,43.21799474809436,175.13495620748623,157.7197030470835,9.70840483205393e-05,0.0962666198611259,0,0,0
14677,508063.5446486429,2010-11-22 08:53:32,4532.274374195973,2,45,0.5499359965324402,4.107378482818604,43.89989549028816,43.21799474809436,175.15378837973802,157.7197030470835,9.71794142969884e-05,0.0962666198611259,0,0,0
14678,508093.5596740441,2010-11-22 08:54:02,4562.289399521884,2,45,0.5501165986061096,4.110454082489014,43.90448255246262,43.21799474809436,175.17263609561053,157.7197030470835,9.70840483205393e-05,0.0962666198611259,0,0,0
14679,508123.57499922847,2010-11-22 08:54:32,4592.304724721324,2,45,0.5499359965324402,4.113530158996582,43.909069707587896,43.21799474809436,175.1914983327821,157.7197030470835,9.71794142969884e-05,0.0962666198611259,0,0,0
14680,508153.59021106496,2010-11-22 08:55:02,4622.319936542755,2,45,0.5501165986061096,4.116443634033203,43.91365673044338,43.21799474809436,175.21037428382877,157.7197030470835,6.47544875391759e-05,0.0962666198611259,0,0,0
14681,508183.6055086154,2010-11-22 08:55:32,4652.335234093179,2,45,0.5501165986061096,4.119843482971191,43.918243884725975,43.21799474809436,175.22926517700148,157.7197030470835,9.71794142969884e-05,0.0962666198611259,0,0,0
14682,508213.6207706722,2010-11-22 08:56:02,4682.350496170056,2,45,0.5501165986061096,4.122919082641602,43.92283102276048,43.21799474809436,175.2481704919005,157.7197030470835,9.70840483205393e-05,0.0962666198611259,0,0,0
14683,508243.6360382378,2010-11-22 08:56:32,4712.365763725607,2,45,0.5499359965324402,4.126156806945801,43.92741819457188,43.21799474809436,175.26709053556246,157.7197030470835,9.70840483205393e-05,0.0962666198611259,0,0,0
14684,508273.6513502041,2010-11-22 08:57:02,4742.381075782241,2,45,0.550297200679779,4.129556655883789,43.93200536065657,43.21799474809436,175.28602522024428,157.7197030470835,0.0001619339018361,0.0962666198611259,0,0,0
14685,508303.66660752427,2010-11-22 08:57:32,4772.396333102244,2,45,0.550297200679779,4.132470607757568,43.93659254509095,43.21799474809436,175.30497476430875,157.7197030470835,3.24249267578125e-05,0.0962666198611259,0,0,0
14686,508333.6819012852,2010-11-22 08:58:02,4802.411626777996,2,45,0.5501165986061096,4.135869979858398,43.94117972571021,43.21799474809436,175.3239393191685,157.7197030470835,6.47544875391759e-05,0.0962666198611259,0,0,0
14687,508363.69711539225,2010-11-22 08:58:32,4832.42684096032,2,45,0.550297200679779,4.139269828796387,43.94576686565682,43.21799474809436,175.34291877424877,157.7197030470835,0.0001295089750783,0.0962666198611259,0,0,0
14688,508393.71231149446,2010-11-22 08:59:02,4862.442036962263,2,45,0.550297200679779,4.142507553100586,43.950354052206265,43.21799474809436,175.36191366104717,157.7197030470835,6.47544875391759e-05,0.0962666198611259,0,0,0
14689,508423.7276711098,2010-11-22 08:59:32,4892.457396702924,2,45,0.5501165986061096,4.145906925201416,43.954941332299526,43.21799474809436,175.38092436132877,157.7197030470835,9.70840483205393e-05,0.0962666198611259,0,0,0
14690,508453.74282050045,2010-11-22 09:00:02,4922.472545993268,2,45,0.5501165986061096,4.149144649505615,43.95952847131172,43.21799474809436,175.39995006847346,157.7197030470835,6.47544875391759e-05,0.0962666198611259,0,0,0
14691,508483.75809820136,2010-11-22 09:00:32,4952.487823679106,2,45,0.5501165986061096,4.152706146240234,43.96411563861779,43.21799474809436,175.41899148504663,157.7197030470835,9.70840483205393e-05,0.0962666198611259,0,0,0
14692,508513.7752797295,2010-11-22 09:01:02,4982.505005202216,2,45,0.5501165986061096,4.1562676429748535,43.96870311521026,43.21799474809436,175.43804998051175,157.7197030470835,9.70840483205393e-05,0.0962666198611259,0,0,0
14693,508543.7886238288,2010-11-22 09:01:32,5012.518349306539,2,45,0.550297200679779,4.159667491912842,43.97328999158304,43.21799474809436,175.45712186900232,157.7197030470835,9.71794142969884e-05,0.0962666198611259,0,0,0
14694,508573.8040084916,2010-11-22 09:02:02,5042.533733959383,2,45,0.550297200679779,4.163228988647461,43.97787710970398,43.21799474809436,175.47621063305746,157.7197030470835,9.71794142969884e-05,0.0962666198611259,0,0,0
14695,508603.819139762,2010-11-22 09:02:32,5072.548865234759,2,45,0.5501165986061096,4.166628360748291,43.98246423775164,43.21799474809436,175.4953155008194,157.7197030470835,9.70840483205393e-05,0.0962666198611259,0,0,0
14696,508633.8344680441,2010-11-22 09:03:02,5102.564193521906,2,45,0.5501165986061096,4.17018985748291,43.9870513958807,43.21799474809436,175.5144366313556,157.7197030470835,0.0001295089750783,0.0962666198611259,0,0,0
14697,508663.8496690135,2010-11-22 09:03:33,5132.579394506287,2,45,0.5501165986061096,4.173751354217529,43.99163849923987,43.21799474809436,175.53357377155822,157.7197030470835,9.70840483205393e-05,0.0962666198611259,0,0,0
14698,508693.86493703513,2010-11-22 09:04:03,5162.594662533015,2,45,0.550297200679779,4.1774749755859375,43.99622565320487,43.21799474809436,175.55272744896126,157.7197030470835,9.71794142969884e-05,0.0962666198611259,0,0,0
14699,508723.8802962896,2010-11-22 09:04:33,5192.610021887712,2,45,0.550297200679779,4.180874347686768,44.00081289237025,43.21799474809436,175.57189790349372,157.7197030470835,0.0001295089750783,0.0962666198611259,0,0,0
14700,508753.8954765021,2010-11-22 09:05:03,5222.62520199498,2,45,0.550297200679779,4.184597969055176,44.00540009677257,43.21799474809436,175.5910848236569,157.7197030470835,9.71794142969884e-05,0.0962666198611259,0,0,0
14701,508783.910735797,2010-11-22 09:05:33,5252.640461274875,2,45,0.550297200679779,4.188159465789795,44.00998723844052,43.21799474809436,175.61028811034373,157.7197030470835,0.0001295089750783,0.0962666198611259,0,0,0
14702,508813.92598694674,2010-11-22 09:06:03,5282.655712439513,2,45,0.550297200679779,4.191882610321045,44.01457438591525,43.21799474809436,175.62950824211669,157.7197030470835,9.70840483205393e-05,0.0962666198611259,0,0,0
14703,508843.9413195496,2010-11-22 09:06:33,5312.671045032408,2,45,0.550297200679779,4.195605754852295,44.01916150544437,43.21799474809436,175.64874507779354,157.7197030470835,9.70840483205393e-05,0.0962666198611259,0,0,0
14704,508873.95665545575,2010-11-22 09:07:03,5342.686380933561,2,45,0.5501165986061096,4.199167251586914,44.023748660259535,43.21799474809436,175.66799899146713,157.7197030470835,9.70840483205393e-05,0.0962666198611259,0,0,0
14705,508879.5219467089,2010-11-22 09:07:08,5348.25167227194,2,45,0.5504778623580933,4.200138568878174,44.02459918309468,43.21799474809436,175.6715708356308,157.7197030470835,0.0001295089750783,0.0962666198611259,0,0,0
14706,508909.54014502827,2010-11-22 09:07:38,30.01528783116317,3,45,0.0,4.109806537628174,44.02459918309468,43.21799474809436,175.6715708356308,157.7197030470835,-0.0004532813909463,0.0962666198611259,0,0,0
14707,508939.55539081455,2010-11-22 09:08:08,60.03053363241322,3,45,0.0,4.098636627197266,44.02459918309468,43.21799474809436,175.6715708356308,157.7197030470835,-0.0002590179501567,0.0962666198611259,0,0,0
14708,508969.5708271463,2010-11-22 09:08:38,90.04597005448215,3,45,0.0,4.091837406158447,44.02459918309468,43.21799474809436,175.6715708356308,157.7197030470835,-0.0001618385285837,0.0962666198611259,0,0,0
14709,508999.5390474548,2010-11-22 09:09:08,120.0141902726421,3,45,0.0,4.087628364562988,44.02459918309468,43.21799474809436,175.6715708356308,157.7197030470835,-3.23295607813634e-05,0.0962666198611259,0,0,0
14710,508999.5463921841,2010-11-22 09:09:08,2.661643873e-06,4,45,0.9951378703117372,4.199976921081543,44.02459918383043,43.21799474809436,175.67157083872092,157.7197030470835,0.0,0.0962666198611259,0,0,0
14711,509000.4838786295,2010-11-22 09:09:09,0.937489122077802,4,45,0.9449284672737122,4.199814796447754,44.0248502193081,43.21799474809436,175.67262514970545,157.7197030470835,-3.24249267578125e-05,0.0962666198611259,0,0,0
14712,509002.65584354807,2010-11-22 09:09:12,3.1094540657256,4,45,0.894719123840332,4.199814796447754,44.02540397810741,43.21799474809436,175.67495085723328,157.7197030470835,-3.24249267578125e-05,0.0962666198611259,0,0,0
14713,509005.9213316287,2010-11-22 09:09:15,6.374942151370151,4,45,0.8443291187286377,4.199814796447754,44.02619157219935,43.21799474809436,175.67825863477066,157.7197030470835,-3.24249267578125e-05,0.0962666198611259,0,0,0
14714,509010.40574170114,2010-11-22 09:09:19,10.85935220377018,4,45,0.7941197752952576,4.199814796447754,44.02721085313632,43.21799474809436,175.68253947667642,157.7197030470835,-3.24249267578125e-05,0.0962666198611259,0,0,0
14715,509016.2980569114,2010-11-22 09:09:25,16.751667409032546,4,45,0.7440909743309021,4.199814796447754,44.02846784708303,43.21799474809436,175.6878186940665,157.7197030470835,-3.24249267578125e-05,0.0962666198611259,0,0,0
14716,509023.9058471914,2010-11-22 09:09:33,24.35945771406318,4,45,0.6938815712928772,4.199814796447754,44.02998475958558,43.21799474809436,175.69418955737288,157.7197030470835,-3.24249267578125e-05,0.0962666198611259,0,0,0
14717,509034.0148458273,2010-11-22 09:09:43,34.46845631981369,4,45,0.6438528299331665,4.199976921081543,44.03185975538548,43.21799474809436,175.70206431998923,157.7197030470835,3.24249267578125e-05,0.0962666198611259,0,0,0
14718,509048.24916723336,2010-11-22 09:09:57,48.702777735964006,4,45,0.5938240885734558,4.199814796447754,44.03430126080439,43.21799474809436,175.71231838673884,157.7197030470835,0.0,0.0962666198611259,0,0,0
14719,509069.95193197805,2010-11-22 09:10:19,70.40554247564113,4,45,0.5437952876091003,4.199653148651123,44.03771986380541,43.21799474809436,175.7266761230762,157.7197030470835,-6.47544875391759e-05,0.0962666198611259,0,0,0
14720,509108.2952118685,2010-11-22 09:10:57,108.74882236621411,4,45,0.4937665164470672,4.199814796447754,44.043220956216565,43.21799474809436,175.74978009319528,157.7197030470835,0.0,0.0962666198611259,0,0,0
14721,509179.6849740179,2010-11-22 09:12:09,180.13858451056674,4,45,0.4437377452850342,4.199814796447754,44.0524752469924,43.21799474809436,175.7886470168976,157.7197030470835,-3.24249267578125e-05,0.0962666198611259,0,0,0
14722,509288.324136401,2010-11-22 09:13:57,288.7777469036171,4,45,0.3937089741230011,4.199814796447754,44.06508130261506,43.21799474809436,175.8415910453606,157.7197030470835,0.0,0.0962666198611259,0,0,0
14723,509422.8225653418,2010-11-22 09:16:12,423.2761758593566,4,45,0.3434996008872986,4.199814796447754,44.0788331285847,43.21799474809436,175.89934719218286,157.7197030470835,-3.24249267578125e-05,0.0962666198611259,0,0,0
14724,509584.508314797,2010-11-22 09:18:53,584.9619252996904,4,45,0.2934708297252655,4.199814796447754,44.0931172363857,43.21799474809436,175.95933882671153,157.7197030470835,0.0,0.0962666198611259,0,0,0
14725,509779.52133526816,2010-11-22 09:22:08,779.9749457707894,4,45,0.2434420585632324,4.199976921081543,44.10761859235291,43.21799474809436,176.02024228892083,157.7197030470835,3.24249267578125e-05,0.0962666198611259,0,0,0
14726,510020.3484264581,2010-11-22 09:26:09,1020.8020369557088,4,45,0.1934132874011993,4.199814796447754,44.12218314738404,43.21799474809436,176.0814117480872,157.7197030470835,0.0,0.0962666198611259,0,0,0
14727,510337.79585366446,2010-11-22 09:31:27,1338.2494641821315,4,45,0.1433845162391662,4.199814796447754,44.13694186549482,43.21799474809436,176.14339668995737,157.7197030470835,0.0,0.0962666198611259,0,0,0
14728,510810.0401624171,2010-11-22 09:39:19,1810.493772919711,4,45,0.0933557525277137,4.199814796447754,44.15223991441091,43.21799474809436,176.2076467322544,157.7197030470835,0.0,0.0962666198611259,0,0,0
14729,511567.3907020344,2010-11-22 09:51:56,2567.8443125420763,4,45,0.0498289167881011,4.199653148651123,44.1668184501594,43.21799474809436,176.26887489997844,157.7197030470835,-3.23295607813634e-05,0.0962666198611259,0,0,0
14730,511597.4148784222,2010-11-22 09:52:26,30.017402319250746,5,45,0.0,4.191558837890625,44.1668184501594,43.21799474809436,176.26887489997844,157.7197030470835,-3.24249267578125e-05,0.0962666198611259,0,0,0
14731,511627.41422070586,2010-11-22 09:52:56,60.01674447254879,5,45,0.0,4.190263748168945,44.1668184501594,43.21799474809436,176.26887489997844,157.7197030470835,0.0,0.0962666198611259,0,0,0
14732,511627.6076415283,2010-11-22 09:52:57,0.18762439936611,6,45,-1.9243103452026844e-05,4.1901021003723145,44.1668184501594,43.21799474909727,176.26887489997844,157.7197030512858,0.0,0.1003114357590675,0,0,0
14733,511632.43553759466,2010-11-22 09:53:02,5.015520465700923,6,45,0.0007031940040178,4.190263748168945,44.16681957745393,43.21799474918019,176.26887962366615,157.71970305163325,-6.47544875391759e-05,0.1003114357590675,0,0,0
14734,511662.45862163394,2010-11-22 09:53:32,30.01530255291092,7,45,-1.099568486213684,4.002962112426758,44.16681957745393,43.227161896745805,176.26887962366615,157.7566087186042,-0.001003646873869,0.1003114357590675,0,0,0
14735,511692.4739786479,2010-11-22 09:54:02,60.03065965197744,7,45,-1.099568486213684,3.973822593688965,44.16681957745393,43.236329043965256,176.26887962366615,157.79316209466597,-0.0006475448608398,0.1003114357590675,0,0,0
14736,511722.4890639535,2010-11-22 09:54:32,90.04574488743054,7,45,-1.099568486213684,3.9537487030029297,44.16681957745393,43.24549594580772,176.26887962366615,157.82949351185383,-0.0004532813909463,0.1003114357590675,0,0,0
14737,511752.5062531658,2010-11-22 09:55:02,120.06293417993376,7,45,-1.0992072820663452,3.938531398773194,44.16681957745393,43.25466350635884,176.26887962366615,157.8656657588928,-0.0003237724304199,0.1003114357590675,0,0,0
14738,511782.5197049338,2010-11-22 09:55:32,150.0763858728133,7,45,-1.099568486213684,3.9254186153411865,44.16681957745393,43.26382991838483,176.26887962366615,157.90170474931725,-0.0003237724304199,0.1003114357590675,0,0,0
14739,511812.5350391859,2010-11-22 09:56:02,180.09172022510035,7,45,-1.099568486213684,3.9139246940612793,44.16681957745393,43.27299695000492,176.26887962366615,157.93763600321353,-0.0003237724304199,0.1003114357590675,0,0,0
14740,511842.55011335865,2010-11-22 09:56:32,210.10679427262667,7,45,-1.099568486213684,3.903402328491211,44.16681957745393,43.28216388108678,176.26887962366615,157.9734675971618,-0.0002913951757363,0.1003114357590675,0,0,0
14741,511872.5654678362,2010-11-22 09:57:02,240.12214884037465,7,45,-1.0997490882873535,3.893689155578613,44.16681957745393,43.291330870364575,176.26887962366615,158.0092064905807,-0.0002590179501567,0.1003114357590675,0,0,0
14742,511902.5806414122,2010-11-22 09:57:32,270.13732233613905,7,45,-1.0992072820663452,3.8844616413116455,44.16681957745393,43.30049773987174,176.26887962366615,158.0448572436538,-0.0002266406954731,0.1003114357590675,0,0,0
14743,511932.59603468655,2010-11-22 09:58:02,300.1527157057424,7,45,-1.0993878841400146,3.875396013259888,44.16681957745393,43.30966478185893,176.26887962366615,158.08042355648817,-0.0002266406954731,0.1003114357590675,0,0,0
14744,511962.6111494658,2010-11-22 09:58:32,330.167830384691,7,45,-1.0993878841400146,3.86633038520813,44.16681957745393,43.31883177838735,176.26887962366615,158.11590762788154,-0.0002590179501567,0.1003114357590675,0,0,0
14745,511992.62644484575,2010-11-22 09:59:02,360.1831257797348,7,45,-1.0997490882873535,3.857750415802002,44.16681957745393,43.32799879030017,176.26887962366615,158.15131150743318,-0.0002266406954731,0.1003114357590675,0,0,0
14746,512022.6416780806,2010-11-22 09:59:32,390.1983590196298,7,45,-1.099568486213684,3.849332332611084,44.16681957745393,43.33716576195022,176.26887962366615,158.18663685940447,-0.0002266406954731,0.1003114357590675,0,0,0
14747,512052.6570715906,2010-11-22 10:00:02,420.21375252457096,7,45,-1.0993878841400146,3.841076135635376,44.16681957745393,43.346332846696605,176.26887962366615,158.22188633048648,-0.0002590179501567,0.1003114357590675,0,0,0
14748,512082.6722167506,2010-11-22 10:00:32,450.2288976896175,7,45,-1.099568486213684,3.832982063293457,44.16681957745393,43.35549992966671,176.26887962366615,158.25706064740334,-0.0001942157687153,0.1003114357590675,0,0,0
14749,512112.6874945568,2010-11-22 10:01:02,480.24417549074417,7,45,-1.0993878841400146,3.825049638748169,44.16681957745393,43.36466699668535,176.26887962366615,158.29216114471555,-0.0001618862152099,0.1003114357590675,0,0,0
14750,512142.7027762275,2010-11-22 10:01:32,510.2594571464925,7,45,-1.0993878841400146,3.817117214202881,44.16681957745393,43.37383410295621,176.26887962366615,158.32718975732527,-0.0002590179501567,0.1003114357590675,0,0,0
14751,512172.71801608393,2010-11-22 10:02:02,540.2746970029034,7,45,-1.099568486213684,3.8095085620880127,44.16681957745393,43.383001167098925,176.26887962366615,158.36214729287403,-0.0001942634553415,0.1003114357590675,0,0,0
14752,512202.7332595894,2010-11-22 10:02:32,570.2899405234605,7,45,-1.099568486213684,3.801738023757935,44.16681957745393,43.39216835596367,176.26887962366615,158.39703558717403,-0.0002590179501567,0.1003114357590675,0,0,0
14753,512232.748550318,2010-11-22 10:03:02,600.305231236818,7,45,-1.0993878841400146,3.794615030288696,44.16681957745393,43.40133547353444,176.26887962366615,158.43185494854953,-0.0001618862152099,0.1003114357590675,0,0,0
14754,512262.763998334,2010-11-22 10:03:32,630.3206792528273,7,45,-1.0993878841400146,3.787330150604248,44.16681957745393,43.41050266239957,176.26887962366615,158.4666071195285,-0.0001618862152099,0.1003114357590675,0,0,0
14755,512292.77906996536,2010-11-22 10:04:02,660.3357508993603,7,45,-1.0997490882873535,3.7800452709198,44.16681957745393,43.41966968521449,176.26887962366615,158.50129285198636,-0.0001942634553415,0.1003114357590675,0,0,0
14756,512322.79432958114,2010-11-22 10:04:32,690.3510105150934,7,45,-1.0992072820663452,3.773407936096192,44.16681957745393,43.42883674533383,176.26887962366615,158.53591496286631,-0.0001618862152099,0.1003114357590675,0,0,0
14757,512352.811455345,2010-11-22 10:05:02,720.3681362539569,7,45,-1.0993878841400146,3.766446828842163,44.16681957745393,43.43800483237964,176.26887962366615,158.57047767902213,-0.0001942634553415,0.1003114357590675,0,0,0
14758,512382.8248619704,2010-11-22 10:05:32,750.3815429044037,7,45,-1.099568486213684,3.7598094940185542,44.16681957745393,43.4471721551661,176.26887962366615,158.60497534561824,-0.0001618862152099,0.1003114357590675,0,0,0
14759,512412.8401745734,2010-11-22 10:06:02,780.3968555074011,7,45,-1.099568486213684,3.7531721591949454,44.16681957745393,43.45633962405461,176.26887962366615,158.63941316941768,-0.0001942634553415,0.1003114357590675,0,0,0
14760,512442.8554179787,2010-11-22 10:06:32,810.4120989126706,7,45,-1.099568486213684,3.747020721435547,44.16681957745393,43.46550676210989,176.26887962366615,158.67379088708395,-0.0001618862152099,0.1003114357590675,0,0,0
14761,512472.871456193,2010-11-22 10:07:02,840.4281371118677,7,45,-1.099568486213684,3.740545272827149,44.16681957745393,43.4746741800529,176.26887962366615,158.70811167908477,-0.0001942634553415,0.1003114357590675,0,0,0
14762,512502.8732032493,2010-11-22 10:07:32,870.4298842433612,7,45,-1.099568486213684,3.73439359664917,44.16681957745393,43.48383722967688,176.26887962366615,158.7423589223181,-0.0001942634553415,0.1003114357590675,0,0,0
14763,512532.8856275276,2010-11-22 10:08:02,900.4423084615057,7,45,-1.0993878841400146,3.728727579116821,44.16681957745393,43.493003518748814,176.26887962366615,158.7765624782776,-9.713172767078504e-05,0.1003114357590675,0,0,0
14764,512562.9008587174,2010-11-22 10:08:32,930.4575396512836,7,45,-1.0997490882873535,3.7225759029388423,44.16681957745393,43.50217062283058,176.26887962366615,158.81071473918112,-0.0001618862152099,0.1003114357590675,0,0,0
14765,512592.9161257917,2010-11-22 10:09:02,960.4728067105968,7,45,-1.099568486213684,3.716586112976074,44.16681957745393,43.51133777343768,176.26887962366615,158.84481278065573,-0.0001618862152099,0.1003114357590675,0,0,0
14766,512622.93140665547,2010-11-22 10:09:32,990.4880875894056,7,45,-1.099568486213684,3.710758209228516,44.16681957745393,43.52050496093688,176.26887962366615,158.87885756179577,-0.0001618862152099,0.1003114357590675,0,0,0
14767,512652.9467956842,2010-11-22 10:10:02,1020.5034766081488,7,45,-1.0993878841400146,3.705254077911377,44.16681957745393,43.529672170133,176.26887962366615,158.9128496860193,-0.0001295089750783,0.1003114357590675,0,0,0
14768,512682.96204839775,2010-11-22 10:10:32,1050.5187293166405,7,45,-1.099568486213684,3.699588060379028,44.16681957745393,43.5388392752589,176.26887962366615,158.94678954812878,-0.0001295089750783,0.1003114357590675,0,0,0
14769,512712.9772965197,2010-11-22 10:11:02,1080.5339774386837,7,45,-1.099568486213684,3.6940839290618896,44.16681957745393,43.5480064952798,176.26887962366615,158.98067857390365,-0.0001295089750783,0.1003114357590675,0,0,0
14770,512742.99247463705,2010-11-22 10:11:32,1110.5491555710216,7,45,-1.0993878841400146,3.688417911529541,44.16681957745393,43.55717364510512,176.26887962366615,159.01451687951672,-0.0001295089750783,0.1003114357590675,0,0,0
14771,512773.0077537565,2010-11-22 10:12:02,1140.5644346754011,7,45,-1.0992072820663452,3.6832375526428223,44.16681957745393,43.566340835213175,176.26887962366615,159.04830499932953,-6.47544875391759e-05,0.1003114357590675,0,0,0
14772,512803.0231422288,2010-11-22 10:12:32,1170.5798231527929,7,45,-1.099568486213684,3.6778953075408936,44.16681957745393,43.57550806946493,176.26887962366615,159.08204415931075,-0.0001295089750783,0.1003114357590675,0,0,0
14773,512833.0382908325,2010-11-22 10:13:02,1200.5949717313604,7,45,-1.099568486213684,3.672391414642334,44.16681957745393,43.584675249159886,176.26887962366615,159.11573490799225,-0.0001618385285837,0.1003114357590675,0,0,0
14774,512863.0535473654,2010-11-22 10:13:32,1230.6102282844483,7,45,-1.099568486213684,3.6672110557556152,44.16681957745393,43.593842447843286,176.26887962366615,159.14937796886437,-0.0001618862152099,0.1003114357590675,0,0,0
14775,512893.068798876,2010-11-22 10:14:02,1260.6254798099872,7,45,-1.0993878841400146,3.662354469299317,44.16681957745393,43.603009616868654,176.26887962366615,159.18297432671582,-0.0001295089750783,0.1003114357590675,0,0,0
14776,512923.0841112384,2010-11-22 10:14:32,1290.6407921773966,7,45,-1.099568486213684,3.657335996627808,44.16681957745393,43.61217690828031,176.26887962366615,159.21652524842042,-0.0001295089750783,0.1003114357590675,0,0,0
14777,512953.0994632347,2010-11-22 10:15:02,1320.656144173726,7,45,-1.0997490882873535,3.652317523956299,44.16681957745393,43.621344123647305,176.26887962366615,159.25003010188786,-0.0001618862152099,0.1003114357590675,0,0,0
14778,512983.1165137208,2010-11-22 10:15:32,1350.6731946396967,7,45,-1.0997490882873535,3.64729905128479,44.16681957745393,43.63051187743919,176.26887962366615,159.28349178874234,-0.0001618862152099,0.1003114357590675,0,0,0
14779,513013.12999816536,2010-11-22 10:16:02,1380.6866790893423,7,45,-1.099568486213684,3.642604351043701,44.16681957745393,43.63967849000744,176.26887962366615,159.31690453449204,-0.0001295089750783,0.1003114357590675,0,0,0
14780,513043.1452747434,2010-11-22 10:16:32,1410.7019556624034,7,45,-1.0997490882873535,3.637909650802612,44.16681957745393,43.64884566675736,176.26887962366615,159.3502763774546,-0.0001618862152099,0.1003114357590675,0,0,0
14781,513073.1604063798,2010-11-22 10:17:02,1440.71708729868,7,45,-1.0993878841400146,3.633376836776733,44.16681957745393,43.65801280668224,176.26887962366615,159.38360522944922,-0.0001618862152099,0.1003114357590675,0,0,0
14782,513103.1757185466,2010-11-22 10:17:32,1470.7323994605767,7,45,-1.0993878841400146,3.6288440227508554,44.16681957745393,43.66718005927282,176.26887962366615,159.41689279834773,-0.0001618862152099,0.1003114357590675,0,0,0
14783,513133.1910022725,2010-11-22 10:18:03,1500.7476832065424,7,45,-1.099568486213684,3.6244730949401855,44.16681957745393,43.6763472623224,176.26887962366615,159.45013879723774,-0.0001295089750783,0.1003114357590675,0,0,0
14784,513163.2062109161,2010-11-22 10:18:33,1530.7628918350035,7,45,-1.099568486213684,3.6201021671295166,44.16681957745393,43.68551445022312,176.26887962366615,159.48334420317778,-0.0001295089750783,0.1003114357590675,0,0,0
14785,513193.2214752736,2010-11-22 10:19:03,1560.778156207611,7,45,-1.0993878841400146,3.615731239318848,44.16681957745393,43.69468171466231,176.26887962366615,159.5165101633504,-0.0001295089750783,0.1003114357590675,0,0,0
14786,513223.236757155,2010-11-22 10:19:33,1590.7934380939344,7,45,-1.0993878841400146,3.6115221977233887,44.16681957745393,43.70384894186211,176.26887962366615,159.54963712187498,-9.713172767078504e-05,0.1003114357590675,0,0,0
14787,513253.2520141692,2010-11-22 10:20:03,1620.8086951031612,7,45,-1.0993878841400146,3.6073131561279297,44.16681957745393,43.713016188158434,176.26887962366615,159.58272584033355,-0.0001295089750783,0.1003114357590675,0,0,0
14788,513283.2672835442,2010-11-22 10:20:33,1650.8239644682303,7,45,-1.099568486213684,3.6032660007476807,44.16681957745393,43.722183362882966,176.26887962366615,159.61577647662787,-0.0001618862152099,0.1003114357590675,0,0,0
14789,513313.282676964,2010-11-22 10:21:03,1680.8393578879588,7,45,-1.0993878841400146,3.5993807315826416,44.16681957745393,43.73135054798298,176.26887962366615,159.64879051529155,-0.0001295089750783,0.1003114357590675,0,0,0
14790,513343.2978594021,2010-11-22 10:21:33,1710.854540311007,7,45,-1.0993878841400146,3.5956573486328125,44.16681957745393,43.74051768871906,176.26887962366615,159.6817687170938,-6.47544875391759e-05,0.1003114357590675,0,0,0
14791,513373.3130911834,2010-11-22 10:22:03,1740.869772102286,7,45,-1.099568486213684,3.5916104316711426,44.16681957745393,43.749684793177344,176.26887962366615,159.71471179581096,-0.0001294612884521,0.1003114357590675,0,0,0
14792,513403.3283645033,2010-11-22 10:22:33,1770.8850454372646,7,45,-1.099568486213684,3.5882108211517334,44.16681957745393,43.7588520138094,176.26887962366615,159.74762110144573,-6.47544875391759e-05,0.1003114357590675,0,0,0
14793,513433.3436355927,2010-11-22 10:23:03,1800.9003165116,7,45,-1.0993878841400146,3.5846493244171143,44.16681957745393,43.76801923994977,176.26887962366615,159.780498008505,-0.0001295089750783,0.1003114357590675,0,0,0
14794,513463.3591188967,2010-11-22 10:23:33,1830.9157998307312,7,45,-1.0997490882873535,3.580925941467285,44.16681957745393,43.77718647708477,176.26887962366615,159.81334314493654,-0.0001618862152099,0.1003114357590675,0,0,0
14795,513493.374172814,2010-11-22 10:24:03,1860.9308537480097,7,45,-1.099568486213684,3.577850103378296,44.16681957745393,43.78635359412636,176.26887962366615,159.84615657523628,-9.713172767078504e-05,0.1003114357590675,0,0,0
14796,513523.3894370563,2010-11-22 10:24:33,1890.9461179902912,7,45,-1.099568486213684,3.5744504928588867,44.16681957745393,43.79552081234811,176.26887962366615,159.87893964072055,-9.713172767078504e-05,0.1003114357590675,0,0,0
14797,513553.4047557094,2010-11-22 10:25:03,1920.961436628353,7,45,-1.099568486213684,3.5712127685546875,44.16681957745393,43.80468807040169,176.26887962366615,159.9116932782403,-9.713172767078504e-05,0.1003114357590675,0,0,0
14798,513583.4218735335,2010-11-22 10:25:33,1950.97855445246,7,45,-1.099568486213684,3.5679750442504883,44.16681957745393,43.81385590772783,176.26887962366615,159.94441951963384,-9.713172767078504e-05,0.1003114357590675,0,0,0
14799,513613.43525671534,2010-11-22 10:26:03,1980.9919376343253,7,45,-1.099568486213684,3.564899206161499,44.16681957745393,43.823022547133625,176.26887962366615,159.97711251044393,-0.0001295089750783,0.1003114357590675,0,0,0
14800,513643.4505261456,2010-11-22 10:26:33,2011.0072070795948,7,45,-1.099568486213684,3.5618233680725098,44.16681957745393,43.8321897192532,176.26887962366615,160.00977921454026,-0.0001295089750783,0.1003114357590675,0,0,0
14801,513673.4657885884,2010-11-22 10:27:03,2041.0224695073475,7,45,-1.099568486213684,3.5589094161987305,44.16681957745393,43.8413568981724,176.26887962366615,160.04241763429062,-6.47544875391759e-05,0.1003114357590675,0,0,0
14802,513703.4810753217,2010-11-22 10:27:33,2071.037756255808,7,45,-1.0997490882873535,3.5555098056793213,44.16681957745393,43.85052410674681,176.26887962366615,160.0750272822412,-9.713172767078504e-05,0.1003114357590675,0,0,0
14803,513733.49632593006,2010-11-22 10:28:03,2101.053006869069,7,45,-1.099568486213684,3.552595853805542,44.16681957745393,43.859691313560674,176.26887962366615,160.1076082442347,-3.237724376958795e-05,0.1003114357590675,0,0,0
14804,513763.5117783421,2010-11-22 10:28:33,2131.068459281052,7,45,-1.0992072820663452,3.5496819019317627,44.16681957745393,43.86885862993304,176.26887962366615,160.14016191052767,-6.47544875391759e-05,0.1003114357590675,0,0,0
14805,513793.52687782806,2010-11-22 10:29:03,2161.083558762064,7,45,-1.0993878841400146,3.546606063842773,44.16681957745393,43.87802585864288,176.26887962366615,160.17268784946842,-9.713172767078504e-05,0.1003114357590675,0,0,0
14806,513823.54227602977,2010-11-22 10:29:33,2191.098957074004,7,45,-1.099568486213684,3.543530225753784,44.16681957745393,43.88719315551712,176.26887962366615,160.20518609254313,-6.47544875391759e-05,0.1003114357590675,0,0,0
14807,513853.55747003166,2010-11-22 10:30:03,2221.1141510007674,7,45,-1.099568486213684,3.540616273880005,44.16681957745393,43.89636030949197,176.26887962366615,160.2376562544581,-3.237724376958795e-05,0.1003114357590675,0,0,0
14808,513883.5726764196,2010-11-22 10:30:33,2251.1293573385105,7,45,-1.0993878841400146,3.537540435791016,44.16681957745393,43.9055275257147,176.26887962366615,160.27009904174935,-6.47544875391759e-05,0.1003114357590675,0,0,0
14809,513913.5879420854,2010-11-22 10:31:03,2281.1446230043457,7,45,-1.0993878841400146,3.5343027114868164,44.16681957745393,43.91469486029549,176.26887962366615,160.30251417972363,-9.713172767078504e-05,0.1003114357590675,0,0,0
14810,513943.6032305381,2010-11-22 10:31:33,2311.159911472097,7,45,-1.0993878841400146,3.531226873397827,44.16681957745393,43.92386212466671,176.26887962366615,160.33490051938307,-0.0001295089750783,0.1003114357590675,0,0,0
14811,513973.6185129808,2010-11-22 10:32:03,2341.175193919823,7,45,-1.0993878841400146,3.528151035308838,44.16681957745393,43.93302939252046,176.26887962366615,160.36725790810627,-6.47544875391759e-05,0.1003114357590675,0,0,0
14812,514003.6338894182,2010-11-22 10:32:33,2371.190570337111,7,45,-1.099568486213684,3.5247514247894287,44.16681957745393,43.94219667728024,176.26887962366615,160.39958517417236,-6.47544875391759e-05,0.1003114357590675,0,0,0
14813,514033.6490644327,2010-11-22 10:33:03,2401.205745356679,7,45,-1.099568486213684,3.5213518142700195,44.16681957745393,43.951363921476215,176.26887962366615,160.43188096903015,-6.47544875391759e-05,0.1003114357590675,0,0,0
14814,514063.6643140185,2010-11-22 10:33:33,2431.2209949373632,7,45,-1.099568486213684,3.5177903175354004,44.16681957745393,43.96053112566731,176.26887962366615,160.46414527668762,-9.713172767078504e-05,0.1003114357590675,0,0,0
14815,514093.6796927615,2010-11-22 10:34:03,2461.236373680456,7,45,-1.0993878841400146,3.514228820800781,44.16681957745393,43.969698350967,176.26887962366615,160.49637710497657,-6.47544875391759e-05,0.1003114357590675,0,0,0
14816,514123.6948580568,2010-11-22 10:34:33,2491.251538975751,7,45,-1.0993878841400146,3.5103437900543213,44.16681957745393,43.97886558196702,176.26887962366615,160.52857503821687,-0.0001295089750783,0.1003114357590675,0,0,0
14817,514153.7101101487,2010-11-22 10:35:03,2521.266791087753,7,45,-1.0993878841400146,3.506620407104492,44.16681957745393,43.98803285102097,176.26887962366615,160.56073774225962,-6.47544875391759e-05,0.1003114357590675,0,0,0
14818,514183.727487997,2010-11-22 10:35:33,2551.2841689158704,7,45,-1.099568486213684,3.5022494792938232,44.16681957745393,43.99720076465376,176.26887962366615,160.59286597015094,-0.0001295089750783,0.1003114357590675,0,0,0
14819,514213.74082682806,2010-11-22 10:36:03,2581.2975077420174,7,45,-1.099568486213684,3.4980404376983643,44.16681957745393,44.00636743477799,176.26887962366615,160.62495125506854,-9.713172767078504e-05,0.1003114357590675,0,0,0
14820,514243.7559204194,2010-11-22 10:36:33,2611.3126013383408,7,45,-1.099568486213684,3.4933457374572754,44.16681957745393,44.01553467842963,176.26887962366615,160.6569972047252,-0.0001295089750783,0.1003114357590675,0,0,0
14821,514273.7713127764,2010-11-22 10:37:03,2641.3279936954164,7,45,-1.099568486213684,3.4883272647857666,44.16681957745393,44.02470194492531,176.26887962366615,160.68899937499083,-0.0001618862152099,0.1003114357590675,0,0,0
14822,514303.7864512798,2010-11-22 10:37:33,2671.343132213872,7,45,-1.0993878841400146,3.482985019683838,44.16681957745393,44.03386916480699,176.26887962366615,160.7209543965721,-0.0001618862152099,0.1003114357590675,0,0,0
14823,514333.8017128304,2010-11-22 10:38:03,2701.3583937493977,7,45,-1.099568486213684,3.4771571159362797,44.16681957745393,44.04303641797412,176.26887962366615,160.75285740156033,-0.0001618862152099,0.1003114357590675,0,0,0
14824,514363.8170489321,2010-11-22 10:38:33,2731.3737298510514,7,45,-1.099568486213684,3.470519781112671,44.16681957745393,44.05220365584992,176.26887962366615,160.78470365739656,-0.0001618862152099,0.1003114357590675,0,0,0
14825,514393.8323445526,2010-11-22 10:39:03,2761.389025471658,7,45,-1.099568486213684,3.4632349014282227,44.16681957745393,44.06137098403138,176.26887962366615,160.8164872994797,-0.0002266406954731,0.1003114357590675,0,0,0
14826,514423.8505318413,2010-11-22 10:39:33,2791.407212835501,7,45,-1.0992072820663452,3.454978704452514,44.16681957745393,44.07053913026071,176.26887962366615,160.84820237671306,-0.0002590179501567,0.1003114357590675,0,0,0
14827,514453.8628753831,2010-11-22 10:40:03,2821.41955630709,7,45,-1.099568486213684,3.445265531539917,44.16681957745393,44.07970551066076,176.26887962366615,160.87982917347767,-0.0002913951757363,0.1003114357590675,0,0,0
14828,514483.8781007935,2010-11-22 10:40:33,2851.4347817274656,7,45,-1.099568486213684,3.4336097240448,44.16681957745393,44.08887276462252,176.26887962366615,160.91136163055617,-0.0003885269106831,0.1003114357590675,0,0,0
14829,514513.8933843741,2010-11-22 10:41:03,2881.450065292981,7,45,-1.0993878841400146,3.420011520385742,44.16681957745393,44.09804001534423,176.26887962366615,160.94277774575707,-0.0003561496851034,0.1003114357590675,0,0,0
14830,514543.9086619146,2010-11-22 10:41:33,2911.46534283847,7,45,-1.0993878841400146,3.4023659229278564,44.16681957745393,44.10720731833512,176.26887962366615,160.97405123283502,-0.0005180359003134,0.1003114357590675,0,0,0
14831,514573.9239203223,2010-11-22 10:42:03,2941.4806012562126,7,45,-1.0997490882873535,3.380187511444092,44.16681957745393,44.11637458585584,176.26887962366615,161.00514490569938,-0.0006799221155233,0.1003114357590675,0,0,0
14832,514603.93937153614,2010-11-22 10:42:33,2971.4960524702046,7,45,-1.0993878841400146,3.3513717651367188,44.16681957745393,44.12554196603782,176.26887962366615,161.03600686396453,-0.0008741855854168,0.1003114357590675,0,0,0
14833,514633.95446643577,2010-11-22 10:43:03,3001.511147354743,7,45,-1.0993878841400146,3.312843084335327,44.16681957745393,44.13470926451949,176.26887962366615,161.06656144462846,-0.0011655807029455,0.1003114357590675,0,0,0
14834,514663.9698675898,2010-11-22 10:43:33,3031.526548508777,7,45,-1.0993878841400146,3.260392189025879,44.16681957745393,44.14387647344531,176.26887962366615,161.09670410999618,-0.0016188621520996,0.1003114357590675,0,0,0
14835,514693.98499800806,2010-11-22 10:44:03,3061.541678942052,7,45,-1.0993878841400146,3.187219858169556,44.16681957745393,44.153043698170194,176.26887962366615,161.1262779419246,-0.0022663592826575,0.1003114357590675,0,0,0
14836,514724.0005706302,2010-11-22 10:44:33,3091.557251579134,7,45,-1.099568486213684,3.0772993564605717,44.16681957745393,44.16221112331292,176.26887962366615,161.15502866664292,-0.0035291195381432,0.1003114357590675,0,0,0
14837,514754.0156696801,2010-11-22 10:45:03,3121.5723506140325,7,45,-1.099568486213684,2.8865978717803955,44.16681957745393,44.171378380922775,176.26887962366615,161.18246565659462,-0.0067992210388183,0.1003114357590675,0,0,0
14838,514771.6559926751,2010-11-22 10:45:21,3139.212673594087,7,45,-1.099568486213684,2.699781894683838,44.16681957745393,44.1767660952675,176.26887962366615,161.19753929308982,-0.0093569755554199,0.1003114357590675,0,0,0
14839,514831.684660322,2010-11-22 10:46:21,60.014900770384536,8,45,0.0,3.368693590164185,44.16681957745393,44.1767660952675,176.26887962366615,161.19753929308982,0.0012303352123126,0.1003114357590675,0,0,0
14840,514831.87096670544,2010-11-22 10:46:21,0.187423287359601,9,45,-1.9243103452026844e-05,3.368693590164185,44.16681957745393,44.17676609626934,176.26887962366615,161.1975392964647,0.0,0.0955438911914825,0,0,0
14841,514836.6990692321,2010-11-22 10:46:26,5.015525778963643,9,45,0.0012450218200683,3.3764641284942627,44.166820613438766,44.17676609635451,176.26888311834932,161.1975392967516,0.0010684489971026,0.0955438911914825,0,0,0
