Data_Point,Test_Time(s),Date_Time,Step_Time(s),Step_Index,Cycle_Index,Current(A),Voltage(V),Charge_Capacity(Ah),Discharge_Capacity(Ah),Charge_Energy(Wh),Discharge_Energy(Wh),dV/dt(V/s),Internal_Resistance(Ohm),Is_FC_Data,AC_Impedance(Ohm),ACI_Phase_Angle(Deg)
12218,423540.31956585584,2010-11-21 09:24:41,30.01535075322632,1,38,0.0,3.3445727825164795,36.354178185766095,36.38139161203022,145.08797836785044,132.7534975856406,0.0007770538213662,0.0931148082017898,0,0,0
12219,423570.3349411754,2010-11-21 09:25:11,60.03072606776146,1,38,0.0,3.367722272872925,36.354178185766095,36.38139161203022,145.08797836785044,132.7534975856406,0.0005504131549969,0.0931148082017898,0,0,0
12220,423600.3502982896,2010-11-21 09:25:41,90.0460831818655,1,38,0.0,3.3853678703308105,36.354178185766095,36.38139161203022,145.08797836785044,132.7534975856406,0.0004532813909463,0.0931148082017898,0,0,0
12221,423630.3187725869,2010-11-21 09:26:11,120.01455747924628,1,38,0.0,3.399290084838867,36.354178185766095,36.38139161203022,145.08797836785044,132.7534975856406,0.0003561496851034,0.0931148082017898,0,0,0
12222,423660.32291366695,2010-11-21 09:26:41,30.015373384718007,2,38,0.550297200679779,3.5618233680725098,36.35876580621902,36.38139161203022,145.10414249000152,132.7534975856406,0.0017159938579425,0.0931148082017898,0,0,0
12223,423690.33829409926,2010-11-21 09:27:11,60.030753817027886,2,38,0.550297200679779,3.613788604736328,36.36335340664972,36.38139161203022,145.12060851948416,132.7534975856406,0.0011979580158367,0.0931148082017898,0,0,0
12224,423720.3536603864,2010-11-21 09:27:41,90.0461201040289,2,38,0.550297200679779,3.651993751525879,36.36794102622176,36.38139161203022,145.1372782329715,132.7534975856406,0.0009389400365762,0.0931148082017898,0,0,0
12225,423750.3690138663,2010-11-21 09:28:11,120.06147358907424,2,38,0.5501165986061096,3.682104349136353,36.372528578256095,36.38139161203022,145.1541033622111,132.7534975856406,0.0007122993702068,0.0931148082017898,0,0,0
12226,423780.384453762,2010-11-21 09:28:41,150.07691346977649,2,38,0.550297200679779,3.7070348262786874,36.37711614856144,36.38139161203022,145.17105427894646,132.7534975856406,0.0006475448608398,0.0931148082017898,0,0,0
12227,423810.39987949247,2010-11-21 09:29:11,180.09233921519487,2,38,0.550297200679779,3.7277562618255615,36.38170379287273,36.38139161203022,145.18810998726607,132.7534975856406,0.0005180359003134,0.0931148082017898,0,0,0
12228,423840.4151396696,2010-11-21 09:29:41,210.10759937227928,2,38,0.5501165986061096,3.744754314422608,36.38629133150332,36.38139161203022,145.20525204930212,132.7534975856406,0.0004209041653666,0.0931148082017898,0,0,0
12229,423870.4167859945,2010-11-21 09:30:11,240.1092456921315,2,38,0.5504778623580933,3.757704973220825,36.3908767520854,36.38139161203022,145.2224550360068,132.7534975856406,0.0003237724304199,0.0931148082017898,0,0,0
12230,423900.4304062932,2010-11-21 09:30:41,270.1228660159398,2,38,0.5501165986061096,3.765637397766113,36.3954640106826,36.38139161203022,145.2397119480101,132.7534975856406,0.0001618862152099,0.0931148082017898,0,0,0
12231,423930.4458051114,2010-11-21 09:31:11,300.1382648291312,2,38,0.5504778623580933,3.770655870437622,36.40005159283572,36.38139161203022,145.25699952954108,132.7534975856406,9.713172767078504e-05,0.0931148082017898,0,0,0
12232,423960.460999364,2010-11-21 09:31:41,330.1534592020081,2,38,0.550297200679779,3.775026798248291,36.40463908960784,36.38139161203022,145.2743078430982,132.7534975856406,9.713172767078504e-05,0.0931148082017898,0,0,0
12233,423990.4763683578,2010-11-21 09:32:11,360.1688280754653,2,38,0.5501165986061096,3.77891206741333,36.40922661349886,36.38139161203022,145.29163459214502,132.7534975856406,0.0001295089750783,0.0931148082017898,0,0,0
12234,424020.49184542126,2010-11-21 09:32:41,390.1843051439941,2,38,0.550297200679779,3.782473564147949,36.41381420762723,36.38139161203022,145.30897873114722,132.7534975856406,9.713172767078504e-05,0.0931148082017898,0,0,0
12235,424050.5072251668,2010-11-21 09:33:11,420.19968488457727,2,38,0.5501165986061096,3.7858731746673584,36.41840174789196,36.38139161203022,145.32633899185308,132.7534975856406,9.713172767078504e-05,0.0931148082017898,0,0,0
12236,424080.5226536691,2010-11-21 09:33:41,450.21511337183966,2,38,0.5501165986061096,3.7894346714019775,36.42298937544498,36.38139161203022,145.34371519768317,132.7534975856406,9.713172767078504e-05,0.0931148082017898,0,0,0
12237,424110.5379821768,2010-11-21 09:34:11,480.23044189457534,2,38,0.550297200679779,3.792510509490967,36.42757697476036,36.38139161203022,145.36110640579625,132.7534975856406,9.713172767078504e-05,0.0931148082017898,0,0,0
12238,424140.5533953007,2010-11-21 09:34:41,510.24585502350095,2,38,0.550297200679779,3.795748233795166,36.43216453248046,36.38139161203022,145.37851213043416,132.7534975856406,0.0001295089750783,0.0931148082017898,0,0,0
12239,424170.5685656637,2010-11-21 09:35:11,540.2610253814329,2,38,0.550297200679779,3.7988240718841553,36.43675210486946,36.38139161203022,145.3959322832051,132.7534975856406,9.713172767078504e-05,0.0931148082017898,0,0,0
12240,424200.5839642613,2010-11-21 09:35:41,570.2764239790862,2,38,0.550297200679779,3.801899909973145,36.44133966733689,36.38139161203022,145.41336646472493,132.7534975856406,6.47544875391759e-05,0.0931148082017898,0,0,0
12241,424230.5993361023,2010-11-21 09:36:11,600.2917958199505,2,38,0.5501165986061096,3.804813861846924,36.44592723691719,36.38139161203022,145.43081453975142,132.7534975856406,6.47544875391759e-05,0.0931148082017898,0,0,0
12242,424260.6149280926,2010-11-21 09:36:41,630.3073877953044,2,38,0.550297200679779,3.807889699935913,36.45051492007487,36.38139161203022,145.4482769479814,132.7534975856406,9.713172767078504e-05,0.0931148082017898,0,0,0
12243,424290.6300536838,2010-11-21 09:37:11,660.3225134015291,2,38,0.550297200679779,3.811127424240112,36.45510242304895,36.38139161203022,145.46575250594893,132.7534975856406,0.0001295089750783,0.0931148082017898,0,0,0
12244,424320.64551807067,2010-11-21 09:37:41,690.3379777884026,2,38,0.550297200679779,3.814041376113892,36.45969003927106,36.38139161203022,145.48324259793512,132.7534975856406,9.713172767078504e-05,0.0931148082017898,0,0,0
12245,424350.6608378216,2010-11-21 09:38:11,720.3532975242045,2,38,0.5501165986061096,3.817117214202881,36.46427764076876,36.38139161203022,145.50074723577083,132.7534975856406,6.47544875391759e-05,0.0931148082017898,0,0,0
12246,424380.6761924294,2010-11-21 09:38:41,750.3686522673905,2,38,0.550297200679779,3.82051682472229,36.46886514359129,36.38139161203022,145.51826613536397,132.7534975856406,0.0001295089750783,0.0931148082017898,0,0,0
12247,424410.691498476,2010-11-21 09:39:11,780.383958193722,2,38,0.5501165986061096,3.823754549026489,36.47345272524962,36.38139161203022,145.5358005015444,132.7534975856406,6.47544875391759e-05,0.0931148082017898,0,0,0
12248,424440.70687889325,2010-11-21 09:39:41,810.3993386109944,2,38,0.550297200679779,3.8271541595458975,36.47804029079547,36.38139161203022,145.55335030234798,132.7534975856406,9.713172767078504e-05,0.0931148082017898,0,0,0
12249,424470.7252399406,2010-11-21 09:40:11,840.4176997435907,2,38,0.550297200679779,3.8307156562805176,36.48262835024163,36.38139161203022,145.5709176999476,132.7534975856406,9.713172767078504e-05,0.0931148082017898,0,0,0
12250,424500.73767413874,2010-11-21 09:40:41,870.4301338514215,2,38,0.5501165986061096,3.8339531421661377,36.48721556495738,36.38139161203022,145.58849772350555,132.7534975856406,9.713172767078504e-05,0.0931148082017898,0,0,0
12251,424530.7529907919,2010-11-21 09:41:11,900.4454505095412,2,38,0.550297200679779,3.837514638900757,36.4918032244284,36.38139161203022,145.60609535226808,132.7534975856406,6.47544875391759e-05,0.0931148082017898,0,0,0
12252,424560.7684469983,2010-11-21 09:41:41,930.4609067009576,2,38,0.550297200679779,3.841076135635376,36.496390848534205,36.38139161203022,145.62370867656202,132.7534975856406,9.713172767078504e-05,0.0931148082017898,0,0,0
12253,424590.7837525136,2010-11-21 09:42:11,960.4762122313005,2,38,0.5501165986061096,3.844313859939575,36.50097841837,36.38139161203022,145.64133745362696,132.7534975856406,6.47544875391759e-05,0.0931148082017898,0,0,0
12254,424620.79909374303,2010-11-21 09:42:41,990.491553460754,2,38,0.550297200679779,3.847713470458984,36.505566037075,36.38139161203022,145.6589818553916,132.7534975856406,6.47544875391759e-05,0.0931148082017898,0,0,0
12255,424650.814460867,2010-11-21 09:43:11,1020.506920569807,2,38,0.550297200679779,3.8511130809783936,36.51015376541541,36.38139161203022,145.6766418803763,132.7534975856406,9.713172767078504e-05,0.0931148082017898,0,0,0
12256,424680.82983104384,2010-11-21 09:43:41,1050.5222907615548,2,38,0.550297200679779,3.8543508052825928,36.51474145070218,36.38139161203022,145.69431658852056,132.7534975856406,0.0001295089750783,0.0931148082017898,0,0,0
12257,424710.84521985205,2010-11-21 09:44:11,1080.5376795547347,2,38,0.550297200679779,3.857264757156372,36.51932905637576,36.38139161203022,145.7120055276648,132.7534975856406,9.713172767078504e-05,0.0931148082017898,0,0,0
12258,424740.860573693,2010-11-21 09:44:41,1110.553033410706,2,38,0.550297200679779,3.860340595245361,36.523916695163045,36.38139161203022,145.72970860183386,132.7534975856406,9.713172767078504e-05,0.0931148082017898,0,0,0
12259,424770.8761371872,2010-11-21 09:45:11,1140.5685969099793,2,38,0.5501165986061096,3.86309266090393,36.52850438834424,36.38139161203022,145.74742545605395,132.7534975856406,3.237724376958795e-05,0.0931148082017898,0,0,0
12260,424800.89131104393,2010-11-21 09:45:41,1170.583770761632,2,38,0.550297200679779,3.86600661277771,36.53309193953181,36.38139161203022,145.76515471407424,132.7534975856406,6.47544875391759e-05,0.0931148082017898,0,0,0
12261,424830.9068210546,2010-11-21 09:46:11,1200.599280757352,2,38,0.550297200679779,3.868596792221069,36.53767959256509,36.38139161203022,145.78289688292523,132.7534975856406,3.237724376958795e-05,0.0931148082017898,0,0,0
12262,424860.92218801833,2010-11-21 09:46:41,1230.61464773608,2,38,0.550297200679779,3.871348857879639,36.542267150213206,36.38139161203022,145.800650526352,132.7534975856406,6.47544875391759e-05,0.0931148082017898,0,0,0
12263,424890.93742473685,2010-11-21 09:47:11,1260.629884454658,2,38,0.5504778623580933,3.873615264892578,36.54685478523504,36.38139161203022,145.8184157876472,132.7534975856406,9.713172767078504e-05,0.0931148082017898,0,0,0
12264,424920.9527968184,2010-11-21 09:47:41,1290.6452565361228,2,38,0.5501165986061096,3.8758816719055176,36.551442452125,36.38139161203022,145.83619170175783,132.7534975856406,6.47544875391759e-05,0.0931148082017898,0,0,0
12265,424950.9681952706,2010-11-21 09:48:11,1320.6606549884134,2,38,0.5499359965324402,3.877662420272827,36.55603004103046,36.38139161203022,145.85397723008293,132.7534975856406,0.0,0.0931148082017898,0,0,0
12266,424980.9835923445,2010-11-21 09:48:41,1350.6760520622631,2,38,0.5501165986061096,3.8797669410705566,36.56061768535742,36.38139161203022,145.87177224842785,132.7534975856406,3.237724376958795e-05,0.0931148082017898,0,0,0
12267,425010.9992210416,2010-11-21 09:49:11,1380.691680789355,2,38,0.5501165986061096,3.881709575653076,36.56520534645728,36.38139161203022,145.88957601515688,132.7534975856406,6.47544875391759e-05,0.0931148082017898,0,0,0
12268,425041.0142658511,2010-11-21 09:49:41,1410.706725553786,2,38,0.5501165986061096,3.8834903240203857,36.56979291820387,36.38139161203022,145.90738750350928,132.7534975856406,6.47544875391759e-05,0.0931148082017898,0,0,0
12269,425071.0315488325,2010-11-21 09:50:11,1440.7240085501887,2,38,0.550297200679779,3.8849472999572754,36.5743809123065,36.38139161203022,145.9252082934342,132.7534975856406,0.0,0.0931148082017898,0,0,0
12270,425101.0450118937,2010-11-21 09:50:42,1470.7374716114457,2,38,0.550297200679779,3.886728048324585,36.57896833044984,36.38139161203022,145.9430340894074,132.7534975856406,3.237724376958795e-05,0.0931148082017898,0,0,0
12271,425131.0603823361,2010-11-21 09:51:12,1500.752842053819,2,38,0.5501165986061096,3.887861251831055,36.58355599728747,36.38139161203022,145.9608677991349,132.7534975856406,0.0,0.0931148082017898,0,0,0
12272,425161.075747009,2010-11-21 09:51:42,1530.768206726791,2,38,0.550297200679779,3.8894801139831534,36.58814366119367,36.38139161203022,145.97870829222853,132.7534975856406,0.0,0.0931148082017898,0,0,0
12273,425191.0911948597,2010-11-21 09:52:12,1560.7836545773876,2,38,0.5501165986061096,3.890937089920044,36.59273132422645,36.38139161203022,145.9965552295255,132.7534975856406,3.237724376958795e-05,0.0931148082017898,0,0,0
12274,425221.1065031168,2010-11-21 09:52:42,1590.798962834537,2,38,0.550297200679779,3.892232179641724,36.59731899673948,36.38139161203022,146.01440863288437,132.7534975856406,6.47544875391759e-05,0.0931148082017898,0,0,0
12275,425251.1218877746,2010-11-21 09:53:12,1620.8143474773567,2,38,0.5501165986061096,3.8935272693634033,36.6019067141859,36.38139161203022,146.03226848707445,132.7534975856406,3.237724376958795e-05,0.0931148082017898,0,0,0
12276,425281.13730054273,2010-11-21 09:53:42,1650.8297603305944,2,38,0.5499359965324402,3.894822359085083,36.606494410474845,36.38139161203022,146.050134436287,132.7534975856406,0.0,0.0931148082017898,0,0,0
12277,425311.1526158424,2010-11-21 09:54:12,1680.8450755601482,2,38,0.550297200679779,3.8962793350219727,36.61108208330579,36.38139161203022,146.0680059599438,132.7534975856406,6.47544875391759e-05,0.0931148082017898,0,0,0
12278,425341.16809483577,2010-11-21 09:54:42,1710.8605545534815,2,38,0.5501165986061096,3.897574424743652,36.61566973615773,36.38139161203022,146.0858837257195,132.7534975856406,3.237724376958795e-05,0.0931148082017898,0,0,0
12279,425371.1833357046,2010-11-21 09:55:12,1740.8757954274322,2,38,0.5501165986061096,3.898869514465332,36.62025738410496,36.38139161203022,146.10376766152402,132.7534975856406,3.237724376958795e-05,0.0931148082017898,0,0,0
12280,425401.1987719914,2010-11-21 09:55:42,1770.8912317091508,2,38,0.550297200679779,3.9003264904022217,36.62484505556744,36.38139161203022,146.12165788875376,132.7534975856406,6.47544875391759e-05,0.0931148082017898,0,0,0
12281,425431.2142938668,2010-11-21 09:56:12,1800.9067535845245,2,38,0.5501165986061096,3.901621580123901,36.62943271108596,36.38139161203022,146.13955418543512,132.7534975856406,3.237724376958795e-05,0.0931148082017898,0,0,0
12282,425461.2294543952,2010-11-21 09:56:42,1830.9219141179328,2,38,0.550297200679779,3.902916669845581,36.63402035209691,36.38139161203022,146.15745667338015,132.7534975856406,3.237724376958795e-05,0.0931148082017898,0,0,0
12283,425491.2448149279,2010-11-21 09:57:12,1860.9372746455576,2,38,0.5501165986061096,3.904373645782471,36.63860798757554,36.38139161203022,146.17536535735857,132.7534975856406,0.0,0.0931148082017898,0,0,0
12284,425521.2601835808,2010-11-21 09:57:42,1890.952643298464,2,38,0.5501165986061096,3.9056687355041504,36.64319571284899,36.38139161203022,146.19328059843508,132.7534975856406,3.237724376958795e-05,0.0931148082017898,0,0,0
12285,425551.2755697323,2010-11-21 09:58:12,1920.9680294500504,2,38,0.550297200679779,3.90712571144104,36.64778335336756,36.38139161203022,146.21120179590812,132.7534975856406,3.237724376958795e-05,0.0931148082017898,0,0,0
12286,425581.2909191272,2010-11-21 09:58:42,1950.9833788298483,2,38,0.550297200679779,3.9085826873779297,36.652370999865575,36.38139161203022,146.22912937184287,132.7534975856406,3.237724376958795e-05,0.0931148082017898,0,0,0
12287,425611.3064883256,2010-11-21 09:59:12,1980.9989480283475,2,38,0.550297200679779,3.90987777709961,36.656958697176464,36.38139161203022,146.24706352716717,132.7534975856406,3.237724376958795e-05,0.0931148082017898,0,0,0
12288,425641.321612799,2010-11-21 09:59:42,2011.014072516782,2,38,0.5501165986061096,3.911172866821289,36.66154634516773,36.38139161203022,146.26500385387132,132.7534975856406,0.0,0.0931148082017898,0,0,0
12289,425671.3389307778,2010-11-21 10:00:12,2041.031390475456,2,38,0.550297200679779,3.9126298427581783,36.6661334871804,36.38139161203022,146.28294844869637,132.7534975856406,6.47544875391759e-05,0.0931148082017898,0,0,0
12290,425701.3524035182,2010-11-21 10:00:42,2071.0448632359235,2,38,0.550297200679779,3.914086580276489,36.67072002800614,36.38139161203022,146.30089712365626,132.7534975856406,3.237724376958795e-05,0.0931148082017898,0,0,0
12291,425731.3677681861,2010-11-21 10:01:12,2101.060227903883,2,38,0.5499359965324402,3.915381669998169,36.67530690475857,36.38139161203022,146.31885364476142,132.7534975856406,3.237724376958795e-05,0.0931148082017898,0,0,0
12292,425761.3831001224,2010-11-21 10:01:42,2131.0755598401392,2,38,0.5501165986061096,3.9168386459350586,36.6798938447463,36.38139161203022,146.33681678016814,132.7534975856406,3.237724376958795e-05,0.0931148082017898,0,0,0
12293,425791.39866434847,2010-11-21 10:02:12,2161.0911240511896,2,38,0.5501165986061096,3.9181337356567374,36.68448153289009,36.38139161203022,146.35478961400412,132.7534975856406,3.237724376958795e-05,0.0931148082017898,0,0,0
12294,425821.41407964285,2010-11-21 10:02:42,2191.10653934552,2,38,0.550297200679779,3.919914484024048,36.68906919187768,36.38139161203022,146.37276892430654,132.7534975856406,6.47544875391759e-05,0.0931148082017898,0,0,0
12295,425851.4292999655,2010-11-21 10:03:12,2221.121759713284,2,38,0.5501165986061096,3.9210476875305176,36.69365681170745,36.38139161203022,146.3907546873892,132.7534975856406,0.0,0.0931148082017898,0,0,0
12296,425881.444604769,2010-11-21 10:03:42,2251.137064486738,2,38,0.5501165986061096,3.922828435897827,36.69824441264178,36.38139161203022,146.4087471061463,132.7534975856406,6.47544875391759e-05,0.0931148082017898,0,0,0
12297,425911.4599909607,2010-11-21 10:04:12,2281.1524506784244,2,38,0.550297200679779,3.924285411834717,36.70283201366928,36.38139161203022,146.42674623921,132.7534975856406,6.47544875391759e-05,0.0931148082017898,0,0,0
12298,425941.4753834982,2010-11-21 10:04:42,2311.1678432209637,2,38,0.550297200679779,3.925580501556397,36.707419616843055,36.38139161203022,146.4447521837122,132.7534975856406,3.237724376958795e-05,0.0931148082017898,0,0,0
12299,425971.4908933737,2010-11-21 10:05:12,2341.1833530913705,2,38,0.550297200679779,3.927037477493286,36.71200731662087,36.38139161203022,146.46276523142996,132.7534975856406,3.237724376958795e-05,0.0931148082017898,0,0,0
12300,426001.5065376045,2010-11-21 10:05:42,2371.1989973071245,2,38,0.550297200679779,3.9286563396453857,36.71659494807779,36.38139161203022,146.48078488974306,132.7534975856406,3.237724376958795e-05,0.0931148082017898,0,0,0
12301,426031.52156635385,2010-11-21 10:06:12,2401.214026071618,2,38,0.550297200679779,3.930275201797485,36.72118253372206,36.38139161203022,146.49881130651505,132.7534975856406,9.713172767078504e-05,0.0931148082017898,0,0,0
12302,426061.5368630472,2010-11-21 10:06:42,2431.2293227649016,2,38,0.5501165986061096,3.931570291519165,36.72577018145461,36.38139161203022,146.51684495188772,132.7534975856406,3.237724376958795e-05,0.0931148082017898,0,0,0
12303,426091.5522335497,2010-11-21 10:07:12,2461.244693267425,2,38,0.550297200679779,3.9333510398864746,36.73035775498607,36.38139161203022,146.5348853012601,132.7534975856406,9.713172767078504e-05,0.0931148082017898,0,0,0
12304,426121.5677697308,2010-11-21 10:07:42,2491.2602295337206,2,38,0.550297200679779,3.9346461296081534,36.73494541666666,36.38139161203022,146.5529330524831,132.7534975856406,3.237724376958795e-05,0.0931148082017898,0,0,0
12305,426151.58299658966,2010-11-21 10:08:12,2521.275456307475,2,38,0.5501165986061096,3.936264991760254,36.73953306916513,36.38139161203022,146.57098785775673,132.7534975856406,0.0,0.0931148082017898,0,0,0
12306,426181.5985630063,2010-11-21 10:08:42,2551.29102270398,2,38,0.550297200679779,3.9378838539123535,36.74412073524359,36.38139161203022,146.58904966212128,132.7534975856406,6.47544875391759e-05,0.0931148082017898,0,0,0
12307,426211.6137172741,2010-11-21 10:09:12,2581.3061769968112,2,38,0.550297200679779,3.939340829849243,36.7487083020997,36.38139161203022,146.60711837428312,132.7534975856406,6.47544875391759e-05,0.0931148082017898,0,0,0
12308,426241.6291687838,2010-11-21 10:09:42,2611.3216285015287,2,38,0.5501165986061096,3.9411215782165527,36.75329597409737,36.38139161203022,146.6251947933918,132.7534975856406,6.47544875391759e-05,0.0931148082017898,0,0,0
12309,426271.646363114,2010-11-21 10:10:12,2641.338822901781,2,38,0.5501165986061096,3.9425785541534415,36.757883872036174,36.38139161203022,146.6432793641531,132.7534975856406,3.237724376958795e-05,0.0931148082017898,0,0,0
12310,426301.6598292028,2010-11-21 10:10:42,2671.3522889204205,2,38,0.5501165986061096,3.944197416305542,36.76247114269511,36.38139161203022,146.66136885317258,132.7534975856406,3.237724376958795e-05,0.0931148082017898,0,0,0
12311,426331.67518741445,2010-11-21 10:11:12,2701.367647132265,2,38,0.5501165986061096,3.9458162784576416,36.76705882015744,36.38139161203022,146.679467398075,132.7534975856406,0.0,0.0931148082017898,0,0,0
12312,426361.69055708,2010-11-21 10:11:42,2731.383016797699,2,38,0.550297200679779,3.947597026824951,36.77164647818656,36.38139161203022,146.69757325885456,132.7534975856406,6.47544875391759e-05,0.0931148082017898,0,0,0
12313,426391.70615092,2010-11-21 10:12:12,2761.398610637707,2,38,0.550297200679779,3.949215888977051,36.77623408748461,36.38139161203022,146.7156864671095,132.7534975856406,6.47544875391759e-05,0.0931148082017898,0,0,0
12314,426421.7085067108,2010-11-21 10:12:42,2791.400966513721,2,38,0.550297200679779,3.9508347511291504,36.78081977226564,36.38139161203022,146.7337996251983,132.7534975856406,3.237724376958795e-05,0.0931148082017898,0,0,0
12315,426451.72122327366,2010-11-21 10:13:12,2821.4136829763524,2,38,0.5501165986061096,3.95245361328125,36.78540702500579,36.38139161203022,146.75192660611862,132.7534975856406,6.47544875391759e-05,0.0931148082017898,0,0,0
12316,426481.7364141328,2010-11-21 10:13:42,2851.4288738354585,2,38,0.550297200679779,3.95423436164856,36.78999459446004,36.38139161203022,146.77006253416496,132.7534975856406,6.47544875391759e-05,0.0931148082017898,0,0,0
12317,426511.7517853672,2010-11-21 10:14:12,2881.4442450848464,2,38,0.5504778623580933,3.955853223800659,36.7945821818311,36.38139161203022,146.78820627727524,132.7534975856406,6.47544875391759e-05,0.0931148082017898,0,0,0
12318,426541.7671745212,2010-11-21 10:14:42,2911.4596342238897,2,38,0.550297200679779,3.957472085952759,36.79916986750093,36.38139161203022,146.8063581872472,132.7534975856406,3.237724376958795e-05,0.0931148082017898,0,0,0
12319,426571.7825195852,2010-11-21 10:15:12,2941.4749793029523,2,38,0.550297200679779,3.959252834320069,36.80375746850837,36.38139161203022,146.82451767130408,132.7534975856406,3.237724376958795e-05,0.0931148082017898,0,0,0
12320,426601.79796954605,2010-11-21 10:15:42,2971.4904292487786,2,38,0.550297200679779,3.961033582687378,36.80834507698611,36.38139161203022,146.8426850579208,132.7534975856406,3.237724376958795e-05,0.0931148082017898,0,0,0
12321,426631.81340046943,2010-11-21 10:16:12,3001.505860187159,2,38,0.550297200679779,3.962814331054688,36.812932732305775,36.38139161203022,146.86086066590386,132.7534975856406,3.237724376958795e-05,0.0931148082017898,0,0,0
12322,426661.8286863208,2010-11-21 10:16:42,3031.521146013318,2,38,0.550297200679779,3.964595079421997,36.81752031548877,36.38139161203022,146.87904406891013,132.7534975856406,6.47544875391759e-05,0.0931148082017898,0,0,0
12323,426691.844010673,2010-11-21 10:17:12,3061.5364703907057,2,38,0.5501165986061096,3.9662139415740967,36.822107946287645,36.38139161203022,146.8972358484001,132.7534975856406,3.237724376958795e-05,0.0931148082017898,0,0,0
12324,426721.85949717,2010-11-21 10:17:42,3091.5519568877694,2,38,0.550297200679779,3.968318462371826,36.82669564983129,36.38139161203022,146.91543619441086,132.7534975856406,9.713172767078504e-05,0.0931148082017898,0,0,0
12325,426751.87474865554,2010-11-21 10:18:12,3121.5672083732084,2,38,0.5501165986061096,3.969937324523926,36.831283258908336,36.38139161203022,146.9336444410424,132.7534975856406,3.237724376958795e-05,0.0931148082017898,0,0,0
12326,426781.890142772,2010-11-21 10:18:42,3151.5826024896764,2,38,0.550297200679779,3.9717180728912354,36.835870935235256,36.38139161203022,146.9518613575024,132.7534975856406,3.237724376958795e-05,0.0931148082017898,0,0,0
12327,426811.9055809484,2010-11-21 10:19:12,3181.598040666124,2,38,0.550297200679779,3.973498821258545,36.84045858345743,36.38139161203022,146.9700866458553,132.7534975856406,3.237724376958795e-05,0.0931148082017898,0,0,0
12328,426841.9208564938,2010-11-21 10:19:42,3211.6133162116203,2,38,0.5504778623580933,3.975765228271485,36.84504624361426,36.38139161203022,146.9883206019015,132.7534975856406,9.713172767078504e-05,0.0931148082017898,0,0,0
12329,426871.9362259187,2010-11-21 10:20:12,3241.628685636454,2,38,0.550297200679779,3.977545976638794,36.8496339041142,36.38139161203022,147.00656329103313,132.7534975856406,0.0001295089750783,0.0931148082017898,0,0,0
12330,426901.9535238073,2010-11-21 10:20:42,3271.645983509992,2,38,0.550297200679779,3.979326725006104,36.85422188901301,36.38139161203022,147.0248157532068,132.7534975856406,3.237724376958795e-05,0.0931148082017898,0,0,0
12331,426931.9669867232,2010-11-21 10:21:12,3301.659446440924,2,38,0.5501165986061096,3.981269359588623,36.858809196826286,36.38139161203022,147.0430748565904,132.7534975856406,6.47544875391759e-05,0.0931148082017898,0,0,0
12332,426961.9824721025,2010-11-21 10:21:42,3331.67493180516,2,38,0.5501165986061096,3.983373880386353,36.86339683842873,36.38139161203022,147.06134433006685,132.7534975856406,9.713172767078504e-05,0.0931148082017898,0,0,0
12333,426991.9977117684,2010-11-21 10:22:12,3361.690171486133,2,38,0.550297200679779,3.985478401184082,36.86798440883604,36.38139161203022,147.07962264588213,132.7534975856406,6.47544875391759e-05,0.0931148082017898,0,0,0
12334,427022.0131689924,2010-11-21 10:22:42,3391.7056287101263,2,38,0.5504778623580933,3.9874210357666016,36.87257201942187,36.38139161203022,147.0979103675629,132.7534975856406,6.47544875391759e-05,0.0931148082017898,0,0,0
12335,427052.02844845766,2010-11-21 10:23:13,3421.720908180419,2,38,0.5501165986061096,3.989201784133911,36.877159614213696,36.38139161203022,147.1162072736459,132.7534975856406,0.0,0.0931148082017898,0,0,0
12336,427082.04382197774,2010-11-21 10:23:43,3451.7362816704003,2,38,0.550297200679779,3.9914681911468506,36.881747186780856,36.38139161203022,147.13451348061915,132.7534975856406,6.47544875391759e-05,0.0931148082017898,0,0,0
12337,427112.0593152116,2010-11-21 10:24:13,3481.7517749143053,2,38,0.5501165986061096,3.99341082572937,36.88633473052194,36.38139161203022,147.1528290956664,132.7534975856406,6.47544875391759e-05,0.0931148082017898,0,0,0
12338,427142.0746010227,2010-11-21 10:24:43,3511.767060740464,2,38,0.5499359965324402,3.995515108108521,36.89092233458044,36.38139161203022,147.17115459256252,132.7534975856406,0.0,0.0931148082017898,0,0,0
12339,427172.0900656002,2010-11-21 10:25:13,3541.7825253027754,2,38,0.550297200679779,3.99778151512146,36.89550986683306,36.38139161203022,147.1894895296329,132.7534975856406,6.47544875391759e-05,0.0931148082017898,0,0,0
12340,427202.1053021733,2010-11-21 10:25:43,3571.797761891028,2,38,0.5501165986061096,3.9998860359191895,36.90009743016645,36.38139161203022,147.20783438342343,132.7534975856406,6.47544875391759e-05,0.0931148082017898,0,0,0
12341,427232.1055827139,2010-11-21 10:26:13,3601.7980425519854,2,38,0.5501165986061096,4.001990795135498,36.90468270628983,36.38139161203022,147.22618015965207,132.7534975856406,0.0,0.0931148082017898,0,0,0
12342,427262.1204226821,2010-11-21 10:26:43,3631.8128823999136,2,38,0.5501165986061096,4.004418849945068,36.90927025474405,36.38139161203022,147.24454516439073,132.7534975856406,6.47544875391759e-05,0.0931148082017898,0,0,0
12343,427292.1358863122,2010-11-21 10:27:13,3661.8283460349103,2,38,0.550297200679779,4.006685256958008,36.91385784246047,36.38139161203022,147.2629204916477,132.7534975856406,9.70840483205393e-05,0.0931148082017898,0,0,0
12344,427322.15116524615,2010-11-21 10:27:43,3691.843624963852,2,38,0.5501165986061096,4.008790016174316,36.91844549141002,36.38139161203022,147.2813064488754,132.7534975856406,3.24249267578125e-05,0.0931148082017898,0,0,0
12345,427352.16660917696,2010-11-21 10:28:13,3721.859068894664,2,38,0.550297200679779,4.011218070983887,36.923033123799,36.38139161203022,147.2997025868034,132.7534975856406,0.0001295089750783,0.0931148082017898,0,0,0
12346,427382.1819951281,2010-11-21 10:28:43,3751.87445484575,2,38,0.550297200679779,4.013322830200195,36.92762071052012,36.38139161203022,147.31810898685697,132.7534975856406,6.47544875391759e-05,0.0931148082017898,0,0,0
12347,427412.1973865728,2010-11-21 10:29:13,3781.889846375761,2,38,0.5499359965324402,4.015589237213135,36.932208301071896,36.38139161203022,147.33652598135973,132.7534975856406,3.24249267578125e-05,0.0931148082017898,0,0,0
12348,427442.2126585494,2010-11-21 10:29:43,3811.905118267136,2,38,0.550297200679779,4.018179416656494,36.93679586872843,36.38139161203022,147.3549535479907,132.7534975856406,6.47544875391759e-05,0.0931148082017898,0,0,0
12349,427472.2280141497,2010-11-21 10:30:13,3841.920473852424,2,38,0.5501165986061096,4.0202836990356445,36.94138348860259,36.38139161203022,147.373391987632,132.7534975856406,6.47544875391759e-05,0.0931148082017898,0,0,0
12350,427502.243464281,2010-11-21 10:30:43,3871.9359241190514,2,38,0.550297200679779,4.022712230682373,36.94597110090791,36.38139161203022,147.39184123668446,132.7534975856406,6.47544875391759e-05,0.0931148082017898,0,0,0
12351,427532.2607358188,2010-11-21 10:31:13,3901.9531955215134,2,38,0.550297200679779,4.025140285491943,36.95055899749955,36.38139161203022,147.41030253410975,132.7534975856406,9.70840483205393e-05,0.0931148082017898,0,0,0
12352,427562.2741272864,2010-11-21 10:31:43,3931.9665870040985,2,38,0.5501165986061096,4.027406692504883,36.95514626722966,36.38139161203022,147.42877227905575,132.7534975856406,0.0,0.0931148082017898,0,0,0
12353,427592.2896395277,2010-11-21 10:32:13,3961.982099225374,2,38,0.5501165986061096,4.029673099517822,36.959733870631545,36.38139161203022,147.44725450569075,132.7534975856406,6.47544875391759e-05,0.0931148082017898,0,0,0
12354,427622.3048616348,2010-11-21 10:32:43,3991.997321357542,2,38,0.550297200679779,4.032425403594971,36.96432143367145,36.38139161203022,147.46574774314345,132.7534975856406,9.71794142969884e-05,0.0931148082017898,0,0,0
12355,427652.3202658164,2010-11-21 10:33:13,4022.0127255341217,2,38,0.550297200679779,4.034853458404541,36.96890898559872,36.38139161203022,147.48425227727424,132.7534975856406,9.71794142969884e-05,0.0931148082017898,0,0,0
12356,427682.3356023441,2010-11-21 10:33:43,4052.028062061838,2,38,0.550297200679779,4.0374436378479,36.97349652544399,36.38139161203022,147.50276817290288,132.7534975856406,9.71794142969884e-05,0.0931148082017898,0,0,0
12357,427712.3510121798,2010-11-21 10:34:13,4082.043471897544,2,38,0.550297200679779,4.039871692657471,36.978084141846615,36.38139161203022,147.52129599514726,132.7534975856406,9.70840483205393e-05,0.0931148082017898,0,0,0
12358,427742.3663483416,2010-11-21 10:34:43,4112.058808059348,2,38,0.550297200679779,4.04246187210083,36.98267171946891,36.38139161203022,147.5398352990604,132.7534975856406,3.23295607813634e-05,0.0931148082017898,0,0,0
12359,427772.3819740061,2010-11-21 10:35:13,4142.07443371377,2,38,0.550297200679779,4.0450520515441895,36.98725937737655,36.38139161203022,147.5583867240552,132.7534975856406,9.70840483205393e-05,0.0931148082017898,0,0,0
12360,427802.3971512012,2010-11-21 10:35:43,4172.089610908769,2,38,0.5501165986061096,4.047642230987549,36.99184699428138,36.38139161203022,147.57694984152022,132.7534975856406,9.70840483205393e-05,0.0931148082017898,0,0,0
12361,427832.4125181196,2010-11-21 10:36:13,4202.104977842383,2,38,0.5501165986061096,4.050232410430908,36.99643456976832,36.38139161203022,147.5955248596285,132.7534975856406,6.47544875391759e-05,0.0931148082017898,0,0,0
12362,427862.4278219959,2010-11-21 10:36:43,4232.120281713585,2,38,0.5501165986061096,4.052660942077637,37.00102214054608,36.38139161203022,147.61411187533017,132.7534975856406,3.24249267578125e-05,0.0931148082017898,0,0,0
12363,427892.44328335015,2010-11-21 10:37:13,4262.135743067888,2,38,0.550297200679779,4.055574893951416,37.0056097748619,36.38139161203022,147.63271129335646,132.7534975856406,6.47544875391759e-05,0.0931148082017898,0,0,0
12364,427922.45868594776,2010-11-21 10:37:43,4292.1511456504895,2,38,0.550297200679779,4.058326721191406,37.01019743187758,36.38139161203022,147.65132309572303,132.7534975856406,6.47544875391759e-05,0.0931148082017898,0,0,0
12365,427952.4742779381,2010-11-21 10:38:13,4322.166737645894,2,38,0.550297200679779,4.060755252838135,37.01478510114602,36.38139161203022,147.66994732251732,132.7534975856406,3.24249267578125e-05,0.0931148082017898,0,0,0
12366,427982.4893382665,2010-11-21 10:38:43,4352.181797984199,2,38,0.550297200679779,4.063669204711914,37.01937264195993,36.38139161203022,147.68858316707622,132.7534975856406,9.71794142969884e-05,0.0931148082017898,0,0,0
12367,428012.5049381214,2010-11-21 10:39:13,4382.197397839223,2,38,0.5501165986061096,4.066583156585693,37.02396001831491,36.38139161203022,147.70723100900588,132.7534975856406,0.0001295089750783,0.0931148082017898,0,0,0
12368,428042.52004147216,2010-11-21 10:39:43,4412.212501189893,2,38,0.5501165986061096,4.069173336029053,37.02854675523463,36.38139161203022,147.72588893255485,132.7534975856406,3.24249267578125e-05,0.0931148082017898,0,0,0
12369,428072.5354329671,2010-11-21 10:40:13,4442.227892684818,2,38,0.550297200679779,4.072087287902832,37.033133771809474,36.38139161203022,147.74456087579694,132.7534975856406,6.47544875391759e-05,0.0931148082017898,0,0,0
12370,428102.5508087929,2010-11-21 10:40:43,4472.243268510629,2,38,0.5499359965324402,4.074839115142822,37.0377212726537,36.38139161203022,147.76324789166796,132.7534975856406,6.47544875391759e-05,0.0931148082017898,0,0,0
12371,428132.5680951828,2010-11-21 10:41:13,4502.260554885464,2,38,0.5501165986061096,4.077753067016602,37.0423090143687,36.38139161203022,147.7819489763389,132.7534975856406,9.70840483205393e-05,0.0931148082017898,0,0,0
12372,428162.58179745614,2010-11-21 10:41:43,4532.274257163843,2,38,0.550297200679779,4.080667018890381,37.04689627717325,36.38139161203022,147.80066141982002,132.7534975856406,6.47544875391759e-05,0.0931148082017898,0,0,0
12373,428192.59692559874,2010-11-21 10:42:13,4562.289385316424,2,38,0.5504778623580933,4.083743095397949,37.0514838324769,36.38139161203022,147.81938833502593,132.7534975856406,9.71794142969884e-05,0.0931148082017898,0,0,0
12374,428222.61235917365,2010-11-21 10:42:43,4592.30481887635,2,38,0.550297200679779,4.08649492263794,37.05607136283755,36.38139161203022,147.83812856902253,132.7534975856406,6.47544875391759e-05,0.0931148082017898,0,0,0
12375,428252.62780158565,2010-11-21 10:43:13,4622.32026128837,2,38,0.550297200679779,4.089247226715088,37.06065894780077,36.38139161203022,147.85688245966992,132.7534975856406,6.47544875391759e-05,0.0931148082017898,0,0,0
12376,428282.64303635946,2010-11-21 10:43:43,4652.335496082143,2,38,0.5501165986061096,4.092322826385498,37.06524654303433,36.38139161203022,147.87565003298192,132.7534975856406,6.47544875391759e-05,0.0931148082017898,0,0,0
12377,428312.65850154834,2010-11-21 10:44:13,4682.350961351219,2,38,0.5501165986061096,4.095398902893066,37.06983414786557,36.38139161203022,147.89443138034133,132.7534975856406,6.47544875391759e-05,0.0931148082017898,0,0,0
12378,428342.673779605,2010-11-21 10:44:43,4712.366239322771,2,38,0.5501165986061096,4.098474502563477,37.07442164928359,36.38139161203022,147.9132262630888,132.7534975856406,9.70840483205393e-05,0.0931148082017898,0,0,0
12379,428372.69217162975,2010-11-21 10:45:13,4742.384631467779,2,38,0.5501165986061096,4.101388454437256,37.07900972738161,36.38139161203022,147.93203751199212,132.7534975856406,6.47544875391759e-05,0.0931148082017898,0,0,0
12380,428402.7045205901,2010-11-21 10:45:43,4772.396980307768,2,38,0.550297200679779,4.104626178741455,37.0835968600658,36.38139161203022,147.95085891628818,132.7534975856406,9.70840483205393e-05,0.0931148082017898,0,0,0
12381,428432.7199512778,2010-11-21 10:46:13,4802.412410995524,2,38,0.550297200679779,4.107863903045654,37.0881843967547,36.38139161203022,147.96969628111233,132.7534975856406,9.70840483205393e-05,0.0931148082017898,0,0,0
12382,428462.7352535851,2010-11-21 10:46:43,4832.427713302821,2,38,0.5501165986061096,4.110777854919434,37.092771906076784,36.38139161203022,147.9885479283843,132.7534975856406,6.47544875391759e-05,0.0931148082017898,0,0,0
12383,428492.7506512203,2010-11-21 10:47:13,4862.443110938072,2,38,0.550297200679779,4.114015579223633,37.09735949095175,36.38139161203022,148.00741430847268,132.7534975856406,9.70840483205393e-05,0.0931148082017898,0,0,0
12384,428522.7659875977,2010-11-21 10:47:43,4892.458447315415,2,38,0.5504778623580933,4.117253303527832,37.10194700094348,36.38139161203022,148.02629492994058,132.7534975856406,9.71794142969884e-05,0.0931148082017898,0,0,0
12385,428552.78136110766,2010-11-21 10:48:13,4922.473820825446,2,38,0.550297200679779,4.120491027832031,37.10653453594004,36.38139161203022,148.04519033239032,132.7534975856406,6.47544875391759e-05,0.0931148082017898,0,0,0
12386,428582.7967417155,2010-11-21 10:48:43,4952.489201433193,2,38,0.550297200679779,4.123728752136231,37.11112218095696,36.38139161203022,148.06410111398384,132.7534975856406,9.71794142969884e-05,0.0931148082017898,0,0,0
12387,428612.8121269247,2010-11-21 10:49:13,4982.504586642426,2,38,0.5501165986061096,4.12696647644043,37.11570970988656,36.38139161203022,148.08302642029963,132.7534975856406,6.47544875391759e-05,0.0931148082017898,0,0,0
12388,428642.8275340537,2010-11-21 10:49:43,5012.519993771375,2,38,0.5501165986061096,4.13036584854126,37.12029735000272,36.38139161203022,148.1019673479992,132.7534975856406,6.47544875391759e-05,0.0931148082017898,0,0,0
12389,428672.842969403,2010-11-21 10:50:13,5042.535429120767,2,38,0.5501165986061096,4.133441925048828,37.12488498905403,36.38139161203022,148.12092337947556,132.7534975856406,6.47544875391759e-05,0.0931148082017898,0,0,0
12390,428702.8583318655,2010-11-21 10:50:43,5072.550791573196,2,38,0.5501165986061096,4.136841297149658,37.12947259591746,36.38139161203022,148.1398945473358,132.7534975856406,3.23295607813634e-05,0.0931148082017898,0,0,0
12391,428732.87550596,2010-11-21 10:51:13,5102.567965682801,2,38,0.550297200679779,4.140402793884277,37.13406046340396,36.38139161203022,148.1588821501368,132.7534975856406,9.70840483205393e-05,0.0931148082017898,0,0,0
12392,428762.8889569061,2010-11-21 10:51:43,5132.581416628816,2,38,0.550297200679779,4.143478870391846,37.13864784620642,36.38139161203022,148.17788319110198,132.7534975856406,6.47544875391759e-05,0.0931148082017898,0,0,0
12393,428792.9043254938,2010-11-21 10:52:13,5162.596785211547,2,38,0.550297200679779,4.147202014923096,37.143235474032366,36.38139161203022,148.19690100949992,132.7534975856406,9.70840483205393e-05,0.0931148082017898,0,0,0
12394,428822.9196905828,2010-11-21 10:52:43,5192.612150300558,2,38,0.5504778623580933,4.150763511657715,37.14782306026767,36.38139161203022,148.21593439577643,132.7534975856406,9.70840483205393e-05,0.0931148082017898,0,0,0
12395,428852.935152669,2010-11-21 10:53:13,5222.627612391701,2,38,0.5501165986061096,4.154001235961914,37.15241068849744,36.38139161203022,148.23498365604482,132.7534975856406,9.70840483205393e-05,0.0931148082017898,0,0,0
12396,428882.9505540335,2010-11-21 10:53:43,5252.64301373621,2,38,0.5501165986061096,4.157562732696533,37.15699825796194,36.38139161203022,148.25404848186,132.7534975856406,9.70840483205393e-05,0.0931148082017898,0,0,0
12397,428912.96604584384,2010-11-21 10:54:13,5282.6585055465375,2,38,0.550297200679779,4.161124229431152,37.16158584200581,36.38139161203022,148.27312948427968,132.7534975856406,0.0001295089750783,0.0931148082017898,0,0,0
12398,428942.9811712848,2010-11-21 10:54:43,5312.673630987349,2,38,0.5501165986061096,4.164524078369141,37.16617340321762,36.38139161203022,148.29222656978854,132.7534975856406,9.71794142969884e-05,0.0931148082017898,0,0,0
12399,428972.9965769801,2010-11-21 10:55:13,5342.689036697758,2,38,0.5501165986061096,4.16808557510376,37.170760971960426,36.38139161203022,148.31133989395636,132.7534975856406,9.71794142969884e-05,0.0931148082017898,0,0,0
12400,429003.0118887058,2010-11-21 10:55:44,5372.704348423565,2,38,0.550297200679779,4.17180871963501,37.17534849656503,36.38139161203022,148.33046943876644,132.7534975856406,9.70840483205393e-05,0.0931148082017898,0,0,0
12401,429033.0272327523,2010-11-21 10:56:14,5402.719692455013,2,38,0.5504778623580933,4.175370216369629,37.179935982812886,36.38139161203022,148.3496152159165,132.7534975856406,0.0001295089750783,0.0931148082017898,0,0,0
12402,429063.0426717658,2010-11-21 10:56:44,5432.73513146855,2,38,0.550297200679779,4.178931713104248,37.18452349433998,36.38139161203022,148.3687776137613,132.7534975856406,9.70840483205393e-05,0.0931148082017898,0,0,0
12403,429093.058039697,2010-11-21 10:57:14,5462.750499414693,2,38,0.550297200679779,4.182655334472656,37.18911098972672,36.38139161203022,148.3879565687973,132.7534975856406,0.0001295089750783,0.0931148082017898,0,0,0
12404,429123.073393598,2010-11-21 10:57:44,5492.765853315777,2,38,0.5501165986061096,4.186054706573486,37.19369854907451,36.38139161203022,148.40715237544728,132.7534975856406,6.47544875391759e-05,0.0931148082017898,0,0,0
12405,429153.0887688224,2010-11-21 10:58:14,5522.781228540086,2,38,0.550297200679779,4.189939975738525,37.19828617396933,36.38139161203022,148.4263652637511,132.7534975856406,0.0001295089750783,0.0931148082017898,0,0,0
12406,429183.10426467774,2010-11-21 10:58:44,5552.796724380472,2,38,0.5501165986061096,4.1935014724731445,37.20287371705673,36.38139161203022,148.4455946832247,132.7534975856406,9.70840483205393e-05,0.0931148082017898,0,0,0
12407,429213.1196603481,2010-11-21 10:59:14,5582.812120050819,2,38,0.5501165986061096,4.1972246170043945,37.20746121303932,36.38139161203022,148.4648407928762,132.7534975856406,9.70840483205393e-05,0.0931148082017898,0,0,0
12408,429235.15069096495,2010-11-21 10:59:36,5604.843150667628,2,38,0.550297200679779,4.200138568878174,37.210828478704045,36.38139161203022,148.4789784871767,132.7534975856406,0.0001295089750783,0.0931148082017898,0,0,0
12409,429265.15547770256,2010-11-21 11:00:06,30.015429765453,3,38,0.0,4.117577075958252,37.210828478704045,36.38139161203022,148.4789784871767,132.7534975856406,-0.0003237724304199,0.0931148082017898,0,0,0
12410,429295.1707797442,2010-11-21 11:00:36,60.030731822125226,3,38,0.0,4.107540130615234,37.210828478704045,36.38139161203022,148.4789784871767,132.7534975856406,-0.0001942634553415,0.0931148082017898,0,0,0
12411,429325.1861661264,2010-11-21 11:01:06,90.04611820428684,3,38,0.0,4.101874351501465,37.210828478704045,36.38139161203022,148.4789784871767,132.7534975856406,-6.47544875391759e-05,0.0931148082017898,0,0,0
12412,429355.1546469951,2010-11-21 11:01:36,120.01459907307084,3,38,0.0,4.097989082336426,37.210828478704045,36.38139161203022,148.4789784871767,132.7534975856406,-9.70840483205393e-05,0.0931148082017898,0,0,0
12413,429355.1608802516,2010-11-21 11:01:36,0.015724320322652,4,38,0.9828564524650574,4.199653148651123,37.21083277169008,36.38139161203022,148.47899651622902,132.7534975856406,0.0,0.0931148082017898,0,0,0
12414,429356.14520392485,2010-11-21 11:01:37,1.000047973595629,4,38,0.9317440390586852,4.199653148651123,37.211092856554295,36.38139161203022,148.4800887938558,132.7534975856406,0.0,0.0931148082017898,0,0,0
12415,429358.2860217607,2010-11-21 11:01:39,3.140865814282575,4,38,0.8817152380943298,4.199653148651123,37.21163092060018,36.38139161203022,148.48234849842143,132.7534975856406,0.0,0.0931148082017898,0,0,0
12416,429361.5517778652,2010-11-21 11:01:42,6.406621944006385,4,38,0.8311446309089661,4.199653148651123,37.21240674821938,36.38139161203022,148.4856067541295,132.7534975856406,0.0,0.0931148082017898,0,0,0
12417,429366.0981715734,2010-11-21 11:01:47,10.953015637109557,4,38,0.7807546854019165,4.199491024017334,37.21342346245813,36.38139161203022,148.48987666826642,132.7534975856406,-6.47544875391759e-05,0.0931148082017898,0,0,0
12418,429372.0512505494,2010-11-21 11:01:53,16.906094618104422,4,38,0.7305452823638916,4.199976921081543,37.21467140336128,36.38139161203022,148.49511769121364,132.7534975856406,9.71794142969884e-05,0.0931148082017898,0,0,0
12419,429379.75430200086,2010-11-21 11:02:01,24.609146064599717,4,38,0.6805165410041809,4.199814796447754,37.2161788357353,36.38139161203022,148.50144851640945,132.7534975856406,0.0,0.0931148082017898,0,0,0
12420,429390.19175955566,2010-11-21 11:02:11,35.04660360438171,4,38,0.6304877400398254,4.199814796447754,37.21807566381089,36.38139161203022,148.50941469420383,132.7534975856406,0.0,0.0931148082017898,0,0,0
12421,429404.8791578816,2010-11-21 11:02:26,49.73400195025274,4,38,0.5804589986801147,4.199814796447754,37.22053982679284,36.38139161203022,148.51976354965856,132.7534975856406,3.23295607813634e-05,0.0931148082017898,0,0,0
12422,429427.78514718486,2010-11-21 11:02:49,72.63999124853962,4,38,0.5302495956420898,4.199814796447754,37.22406173101829,36.38139161203022,148.53455464537134,132.7534975856406,0.0,0.0931148082017898,0,0,0
12423,429467.8787439205,2010-11-21 11:03:29,112.73358797421255,4,38,0.4802208244800567,4.199653148651123,37.22966353358678,36.38139161203022,148.55808074213098,132.7534975856406,-3.23295607813634e-05,0.0931148082017898,0,0,0
12424,429537.3965028268,2010-11-21 11:04:38,182.25134697572017,4,38,0.4301920533180237,4.199491024017334,37.2384196115167,36.38139161203022,148.5948540334987,132.7534975856406,-6.47544875391759e-05,0.0931148082017898,0,0,0
12425,429638.0648138937,2010-11-21 11:06:19,282.9196579423253,4,38,0.3798020780086517,4.199653148651123,37.24972846563871,36.38139161203022,148.64234825623,132.7534975856406,-3.23295607813634e-05,0.0931148082017898,0,0,0
12426,429761.9385278112,2010-11-21 11:08:23,406.7933718747952,4,38,0.3297733068466186,4.199653148651123,37.26192646310787,36.38139161203022,148.6935766498247,132.7534975856406,0.0,0.0931148082017898,0,0,0
12427,429907.9842205989,2010-11-21 11:10:49,552.8390646826116,4,38,0.2797445356845855,4.199653148651123,37.27427056213239,36.38139161203022,148.74541865497253,132.7534975856406,0.0,0.0931148082017898,0,0,0
12428,430083.37333307153,2010-11-21 11:13:44,728.2281771352338,4,38,0.2295351475477218,4.199653148651123,37.286654218597725,36.38139161203022,148.79742675506552,132.7534975856406,-3.23295607813634e-05,0.0931148082017898,0,0,0
12429,430305.2308267677,2010-11-21 11:17:26,950.0856708314216,4,38,0.1793257743120193,4.199653148651123,37.29921938856848,36.38139161203022,148.85019716908852,132.7534975856406,0.0,0.0931148082017898,0,0,0
12430,430607.7282610668,2010-11-21 11:22:29,1252.5831051304988,4,38,0.1291163861751556,4.199653148651123,37.312103911990185,36.38139161203022,148.9043087544618,132.7534975856406,0.0,0.0931148082017898,0,0,0
12431,431094.1323493024,2010-11-21 11:30:35,1738.9871933460831,4,38,0.0790876224637031,4.199653148651123,37.3259108727402,36.38139161203022,148.96229432666547,132.7534975856406,-3.23295607813634e-05,0.0931148082017898,0,0,0
12432,431593.3606354791,2010-11-21 11:38:54,2238.2154795427814,4,38,0.0498289167881011,4.199653148651123,37.334714096493954,36.38139161203022,148.99926552597205,132.7534975856406,-3.23295607813634e-05,0.0931148082017898,0,0,0
12433,431623.3696841341,2010-11-21 11:39:24,30.01528689382343,5,38,0.0,4.192044734954834,37.334714096493954,36.38139161203022,148.99926552597205,132.7534975856406,-3.23295607813634e-05,0.0931148082017898,0,0,0
12434,431653.36951209005,2010-11-21 11:39:54,60.01511486479713,5,38,0.0,4.190911293029785,37.334714096493954,36.38139161203022,148.99926552597205,132.7534975856406,-3.24249267578125e-05,0.0931148082017898,0,0,0
12435,431653.55334605975,2010-11-21 11:39:55,0.189509950993056,6,38,-1.9243103452026844e-05,4.191073417663574,37.334714096493954,36.381391613043206,148.99926552597205,132.75349758988608,0.0,0.0939245000481605,0,0,0
12436,431658.3794992958,2010-11-21 11:39:59,5.015663191967642,6,38,0.0008838032954372,4.191073417663574,37.33471508237958,36.38139161311626,148.99926965789643,132.7534975901923,3.24249267578125e-05,0.0939245000481605,0,0,0
12437,431688.3891925894,2010-11-21 11:40:30,30.01538875809231,7,38,-1.0997490882873535,4.020931243896484,37.33471508237958,36.39056075583408,148.99926965789643,132.79055560567306,-0.0008742332574911,0.0939245000481605,0,0,0
12438,431718.4045560793,2010-11-21 11:41:00,60.03075225312414,7,38,-1.0997490882873535,3.9956769943237305,37.33471508237958,36.39972986733935,148.99926965789643,132.82730048504175,-0.0005827903514727,0.0939245000481605,0,0,0
12439,431748.4199604114,2010-11-21 11:41:30,90.04615658007873,7,38,-1.099929690361023,3.978355407714844,37.33471508237958,36.4088989775091,148.99926965789643,132.86385512620737,-0.0004532813909463,0.0939245000481605,0,0,0
12440,431778.4352791697,2010-11-21 11:42:00,120.06147534345348,7,38,-1.0997490882873535,3.964756965637207,37.33471508237958,36.41806796845725,148.99926965789643,132.90026987772475,-0.0003885269106831,0.0939245000481605,0,0,0
12441,431808.4506487549,2010-11-21 11:42:30,150.07684490863733,7,38,-1.0997490882873535,3.9534249305725098,37.33471508237958,36.42723691451326,148.99926965789643,132.93657001905385,-0.0002590179501567,0.0939245000481605,0,0,0
12442,431838.4679238015,2010-11-21 11:43:00,180.09411995519585,7,38,-1.0997490882873535,3.9429023265838623,37.33471508237958,36.43640645124,148.99926965789643,132.97277206481812,-0.0002590179501567,0.0939245000481605,0,0,0
12443,431868.4814225418,2010-11-21 11:43:30,210.10761871055053,7,38,-1.0997490882873535,3.933027267456055,37.33471508237958,36.44557480125736,148.99926965789643,133.00887666756918,-0.0002590179501567,0.0939245000481605,0,0,0
12444,431898.4967592049,2010-11-21 11:44:00,240.1229553585681,7,38,-1.099929690361023,3.923475980758667,37.33471508237958,36.45474377137508,148.99926965789643,133.0448951255279,-0.0002590179501567,0.0939245000481605,0,0,0
12445,431928.51212869486,2010-11-21 11:44:30,270.1383248485643,7,38,-1.099929690361023,3.914572238922119,37.33471508237958,36.46391277513265,148.99926965789643,133.08082874318066,-0.0001942634553415,0.0939245000481605,0,0,0
12446,431958.527819928,2010-11-21 11:45:00,300.15401610173086,7,38,-1.0997490882873535,3.9056687355041504,37.33471508237958,36.47308194526186,148.99926965789643,133.1166812334332,-0.0002590179501567,0.0939245000481605,0,0,0
12447,431988.54287657706,2010-11-21 11:45:30,330.16907273077794,7,38,-1.099568486213684,3.8974125385284415,37.33471508237958,36.482250838239466,148.99926965789643,133.15245296887056,-0.0001618862152099,0.0939245000481605,0,0,0
12448,432018.55823853327,2010-11-21 11:46:00,360.18443468696864,7,38,-1.0997490882873535,3.888670682907105,37.33471508237958,36.49141982331902,148.99926965789643,133.1881472733231,-0.0002266406954731,0.0939245000481605,0,0,0
12449,432048.57360394805,2010-11-21 11:46:30,390.1998001168301,7,38,-1.099929690361023,3.8802525997161865,37.33471508237958,36.50058884914131,148.99926965789643,133.22376466862033,-0.0002590179501567,0.0939245000481605,0,0,0
12450,432078.5890027713,2010-11-21 11:47:00,420.2151989300214,7,38,-1.099568486213684,3.872158288955689,37.33471508237958,36.50975789960366,148.99926965789643,133.25930629424036,-0.0002266406954731,0.0939245000481605,0,0,0
12451,432108.60437155445,2010-11-21 11:47:30,450.23056784357874,7,38,-1.0997490882873535,3.8640639781951904,37.33471508237958,36.51892686955847,148.99926965789643,133.29477354070852,-0.0002590179501567,0.0939245000481605,0,0,0
12452,432138.61977498926,2010-11-21 11:48:00,480.2459711930935,7,38,-1.0997490882873535,3.8561315536499023,37.33471508237958,36.52809572708885,148.99926965789643,133.3301666773701,-0.0002590179501567,0.0939245000481605,0,0,0
12453,432168.63512463967,2010-11-21 11:48:30,510.26132079344205,7,38,-1.0997490882873535,3.848361015319824,37.33471508237958,36.53726457748764,148.99926965789643,133.36548692703388,-0.0001942634553415,0.0939245000481605,0,0,0
12454,432198.6504410923,2010-11-21 11:49:00,540.2766372610864,7,38,-1.099568486213684,3.840428590774536,37.33471508237958,36.54643345930428,148.99926965789643,133.40073545846442,-0.0002266406954731,0.0939245000481605,0,0,0
12455,432228.6657231141,2010-11-21 11:49:30,570.2919192827482,7,38,-1.0997490882873535,3.832658290863037,37.33471508237958,36.55560236317709,148.99926965789643,133.43591368274232,-0.0001942157687153,0.0939245000481605,0,0,0
12456,432258.68117580673,2010-11-21 11:50:00,600.307371975431,7,38,-1.0997490882873535,3.825535297393799,37.33471508237958,36.564771456282685,148.99926965789643,133.47102392961165,-0.0002266406954731,0.0939245000481605,0,0,0
12457,432288.696540209,2010-11-21 11:50:30,630.32273636269,7,38,-1.0997490882873535,3.818250417709351,37.33471508237958,36.57394053475307,148.99926965789643,133.50606641575848,-0.0001942634553415,0.0939245000481605,0,0,0
12458,432318.7119319896,2010-11-21 11:51:00,660.3381281583646,7,38,-1.0997490882873535,3.810803651809693,37.33471508237958,36.583109612183016,148.99926965789643,133.54104186107386,-0.0001618862152099,0.0939245000481605,0,0,0
12459,432348.7272807679,2010-11-21 11:51:30,690.3534769366612,7,38,-1.0997490882873535,3.803842544555664,37.33471508237958,36.59227861979345,148.99926965789643,133.5759516728342,-0.0001618862152099,0.0939245000481605,0,0,0
12460,432378.7427878262,2010-11-21 11:52:00,720.3689840301367,7,38,-1.0997490882873535,3.796881437301636,37.33471508237958,36.60144768369246,148.99926965789643,133.61079751358798,-0.0001618862152099,0.0939245000481605,0,0,0
12461,432408.7580204447,2010-11-21 11:52:30,750.3842166184052,7,38,-1.099929690361023,3.7900822162628174,37.33471508237958,36.61061666719788,148.99926965789643,133.64558005668576,-0.0001942634553415,0.0939245000481605,0,0,0
12462,432438.7754445482,2010-11-21 11:53:00,780.4016407019831,7,38,-1.099568486213684,3.783444881439209,37.33471508237958,36.61978641811498,148.99926965789643,133.68030414760747,-0.0001618862152099,0.0939245000481605,0,0,0
12463,432468.7887786677,2010-11-21 11:53:30,810.4149748364188,7,38,-1.0997490882873535,3.7769694328308105,37.33471508237958,36.628954912924655,148.99926965789643,133.71496280375817,-0.0001618862152099,0.0939245000481605,0,0,0
12464,432498.80448911374,2010-11-21 11:54:00,840.4306852875061,7,38,-1.099568486213684,3.770493984222412,37.33471508237958,36.63812411754091,148.99926965789643,133.7495650082412,-0.0001618862152099,0.0939245000481605,0,0,0
12465,432528.8195380536,2010-11-21 11:54:30,870.4457342223473,7,38,-1.099568486213684,3.7643423080444336,37.33471508237958,36.647293070231,148.99926965789643,133.78410852016728,-0.0001618862152099,0.0939245000481605,0,0,0
12466,432558.8348949472,2010-11-21 11:55:00,900.4610911159009,7,38,-1.099929690361023,3.758190631866455,37.33471508237958,36.65646217104966,148.99926965789643,133.81859627682252,-0.0001942634553415,0.0939245000481605,0,0,0
12467,432588.8503173793,2010-11-21 11:55:30,930.4765135480488,7,38,-1.099568486213684,3.752362966537476,37.33471508237958,36.66563129476375,148.99926965789643,133.85302835792638,-0.0001618385285837,0.0939245000481605,0,0,0
12468,432618.86566145584,2010-11-21 11:56:00,960.4918576246092,7,38,-1.099929690361023,3.746373176574707,37.33471508237958,36.67480034270606,148.99926965789643,133.88740569571772,-0.0001618862152099,0.0939245000481605,0,0,0
12469,432648.88098075055,2010-11-21 11:56:30,990.5071769042728,7,38,-1.0997490882873535,3.740545272827149,37.33471508237958,36.68396944659921,148.99926965789643,133.92172975038818,-0.0001295089750783,0.0939245000481605,0,0,0
12470,432678.89636888704,2010-11-21 11:57:00,1020.5225650408134,7,38,-1.0997490882873535,3.7348792552948,37.33471508237958,36.69313857542789,148.99926965789643,133.95600140626792,-0.0001295089750783,0.0939245000481605,0,0,0
12471,432708.9120698495,2010-11-21 11:57:30,1050.5382660032158,7,38,-1.0997490882873535,3.729213237762451,37.33471508237958,36.70230772609786,148.99926965789643,133.99022153252326,-0.0001618862152099,0.0939245000481605,0,0,0
12472,432738.9271009498,2010-11-21 11:58:00,1080.553297118577,7,38,-1.0997490882873535,3.7238709926605225,37.33471508237958,36.71147666235159,148.99926965789643,134.0243902865462,-0.0001295089750783,0.0939245000481605,0,0,0
12473,432768.94247356267,2010-11-21 11:58:30,1110.568669731368,7,38,-1.099568486213684,3.718366861343384,37.33471508237958,36.720645724415895,148.99926965789643,134.0585090916163,-0.0001295089750783,0.0939245000481605,0,0,0
12474,432798.9579070775,2010-11-21 11:59:00,1140.5841032311423,7,38,-1.0997490882873535,3.713024616241455,37.33471508237958,36.7298148208833,148.99926965789643,134.09257841009912,-0.0001295089750783,0.0939245000481605,0,0,0
12475,432828.973228317,2010-11-21 11:59:30,1170.599424470698,7,38,-1.0997490882873535,3.7076823711395264,37.33471508237958,36.7389839725293,148.99926965789643,134.12659877114604,-0.0001618862152099,0.0939245000481605,0,0,0
12476,432858.9886181828,2010-11-21 12:00:00,1200.6148143515927,7,38,-1.0997490882873535,3.702502012252808,37.33471508237958,36.74815307664751,148.99926965789643,134.1605704439855,-9.713172767078504e-05,0.0939245000481605,0,0,0
12477,432889.0040363143,2010-11-21 12:00:30,1230.630232603306,7,38,-1.099929690361023,3.697321653366089,37.33471508237958,36.757322237891536,148.99926965789643,134.1944950134531,-0.0001295089750783,0.0939245000481605,0,0,0
12478,432919.0209788007,2010-11-21 12:01:00,1260.6471750045305,7,38,-1.0997490882873535,3.69230318069458,37.33471508237958,36.7664918724592,148.99926965789643,134.2283747818596,-9.713172767078504e-05,0.0939245000481605,0,0,0
12479,432949.034785986,2010-11-21 12:01:30,1290.6609822398989,7,38,-1.0997490882873535,3.6872847080230713,37.33471508237958,36.77566045617641,148.99926965789643,134.26220429841942,-0.0001295089750783,0.0939245000481605,0,0,0
12480,432979.0500678572,2010-11-21 12:02:00,1320.6762640259724,7,38,-1.0997490882873535,3.682428121566773,37.33471508237958,36.78482952425944,148.99926965789643,134.29599012855832,-9.713172767078504e-05,0.0939245000481605,0,0,0
12481,433009.06555801845,2010-11-21 12:02:30,1350.6917542573576,7,38,-1.0997490882873535,3.6772477626800537,37.33471508237958,36.79399865780545,148.99926965789643,134.3297313003645,-0.0001618862152099,0.0939245000481605,0,0,0
12482,433039.0824704449,2010-11-21 12:03:00,1380.708666598548,7,38,-1.099929690361023,3.672553062438965,37.33471508237958,36.80316823255353,148.99926965789643,134.36342988978524,-0.0001618862152099,0.0939245000481605,0,0,0
12483,433069.096213094,2010-11-21 12:03:30,1410.722409247699,7,38,-1.0997490882873535,3.667858600616455,37.33471508237958,36.81233695075894,148.99926965789643,134.39708215479348,-0.0001295089750783,0.0939245000481605,0,0,0
12484,433099.1115332058,2010-11-21 12:04:00,1440.7377293594395,7,38,-1.0997490882873535,3.663325786590576,37.33471508237958,36.82150616628184,148.99926965789643,134.4306933908717,-0.0001295089750783,0.0939245000481605,0,0,0
12485,433129.12697610894,2010-11-21 12:04:30,1470.753172267699,7,38,-1.0997490882873535,3.658792972564697,37.33471508237958,36.830675362783616,148.99926965789643,134.4642624402531,-0.0001295089750783,0.0939245000481605,0,0,0
12486,433159.1422928223,2010-11-21 12:05:00,1500.7684889909813,7,38,-1.0997490882873535,3.654422044754028,37.33471508237958,36.839844574996754,148.99926965789643,134.49779035469783,-6.47544875391759e-05,0.0939245000481605,0,0,0
12487,433189.15782385546,2010-11-21 12:05:30,1530.7840200091769,7,38,-1.099929690361023,3.649889230728149,37.33471508237958,36.849013802042286,148.99926965789643,134.53127746741305,-0.0001295089750783,0.0939245000481605,0,0,0
12488,433219.1735168831,2010-11-21 12:06:00,1560.7997131721104,7,38,-1.0997490882873535,3.6456801891326895,37.33471508237958,36.85818298703487,148.99926965789643,134.56472414880886,-6.47544875391759e-05,0.0939245000481605,0,0,0
12489,433249.1884337332,2010-11-21 12:06:30,1590.8146299019477,7,38,-1.099929690361023,3.6413092613220215,37.33471508237958,36.86735184921992,148.99926965789643,134.59813050930916,-9.713172767078504e-05,0.0939245000481605,0,0,0
12490,433279.203784732,2010-11-21 12:07:00,1620.8299808857494,7,38,-1.0997490882873535,3.6371002197265625,37.33471508237958,36.87652097608163,148.99926965789643,134.6314991085382,-9.713172767078504e-05,0.0939245000481605,0,0,0
12491,433309.21913561056,2010-11-21 12:07:30,1650.845331779326,7,38,-1.0997490882873535,3.6330530643463135,37.33471508237958,36.88569006003289,148.99926965789643,134.66482951511793,-9.713172767078504e-05,0.0939245000481605,0,0,0
12492,433339.23452303535,2010-11-21 12:08:00,1680.8607191890528,7,38,-1.0997490882873535,3.6288440227508554,37.33471508237958,36.8948591456521,148.99926965789643,134.69812306862906,-0.0001618862152099,0.0939245000481605,0,0,0
12493,433369.2498804702,2010-11-21 12:08:30,1710.8760766239575,7,38,-1.099568486213684,3.625444412231445,37.33471508237958,36.90402824281244,148.99926965789643,134.73138046258464,-6.47544875391759e-05,0.0939245000481605,0,0,0
12494,433399.26526663685,2010-11-21 12:09:00,1740.8914627905813,7,38,-1.0997490882873535,3.621397256851196,37.33471508237958,36.913197403499225,148.99926965789643,134.76460302870885,-9.713172767078504e-05,0.0939245000481605,0,0,0
12495,433429.28068182594,2010-11-21 12:09:30,1770.9068779796492,7,38,-1.099568486213684,3.617673873901367,37.33471508237958,36.92236657179128,148.99926965789643,134.79779121862668,-0.0001295089750783,0.0939245000481605,0,0,0
12496,433459.2961147091,2010-11-21 12:10:00,1800.9223108678973,7,38,-1.0997490882873535,3.613950490951538,37.33471508237958,36.93153574389109,148.99926965789643,134.83094593688162,-0.0001295089750783,0.0939245000481605,0,0,0
12497,433489.3113520393,2010-11-21 12:10:30,1830.9375481929897,7,38,-1.0997490882873535,3.610712766647339,37.33471508237958,36.94070488611254,148.99926965789643,134.86406799635563,-6.47544875391759e-05,0.0939245000481605,0,0,0
12498,433519.32673276233,2010-11-21 12:11:00,1860.952928916025,7,38,-1.0997490882873535,3.6069893836975098,37.33471508237958,36.94987398043061,148.99926965789643,134.89715797844792,-0.0001295089750783,0.0939245000481605,0,0,0
12499,433549.3420940518,2010-11-21 12:11:31,1890.9682902055515,7,38,-1.099568486213684,3.603913545608521,37.33471508237958,36.95904318043328,148.99926965789643,134.9302175327106,-6.47544875391759e-05,0.0939245000481605,0,0,0
12500,433579.3574658276,2010-11-21 12:12:01,1920.983661981253,7,38,-1.0997490882873535,3.6005139350891118,37.33471508237958,36.96821235823669,148.99926965789643,134.963247035458,-0.0001295089750783,0.0939245000481605,0,0,0
12501,433609.3729562744,2010-11-21 12:12:31,1950.9991524281768,7,38,-1.099568486213684,3.597599983215332,37.33471508237958,36.97738158270633,148.99926965789643,134.9962474710293,-6.47544875391759e-05,0.0939245000481605,0,0,0
12502,433639.3901650456,2010-11-21 12:13:01,1981.0163611993016,7,38,-1.0997490882873535,3.594362258911133,37.33471508237958,36.98655131036036,148.99926965789643,135.0292211226879,-9.713172767078504e-05,0.0939245000481605,0,0,0
12503,433669.403585265,2010-11-21 12:13:31,2011.0297814136056,7,38,-1.099929690361023,3.5912866592407227,37.33471508237958,36.99571984981025,148.99926965789643,135.0621626052006,-9.713172767078504e-05,0.0939245000481605,0,0,0
12504,433699.41894247424,2010-11-21 12:14:01,2041.04513862796,7,38,-1.099568486213684,3.588372707366944,37.33471508237958,37.00488900865638,148.99926965789643,135.09507899730275,-0.0001295089750783,0.0939245000481605,0,0,0
12505,433729.4343148064,2010-11-21 12:14:31,2071.060510975088,7,38,-1.0997490882873535,3.585620641708374,37.33471508237958,37.01405824743696,148.99926965789643,135.12796878062898,-3.237724376958795e-05,0.0939245000481605,0,0,0
12506,433759.44969921856,2010-11-21 12:15:01,2101.0758953923446,7,38,-1.0997490882873535,3.5825448036193848,37.33471508237958,37.02322739825042,148.99926965789643,135.16083137383023,-6.47544875391759e-05,0.0939245000481605,0,0,0
12507,433789.465183846,2010-11-21 12:15:31,2131.091380014729,7,38,-1.099568486213684,3.5797927379608154,37.33471508237958,37.03239654735639,148.99926965789643,135.19366741113143,-6.47544875391759e-05,0.0939245000481605,0,0,0
12508,433819.4804376923,2010-11-21 12:16:01,2161.106633861061,7,38,-1.099929690361023,3.576716899871826,37.33471508237958,37.04156569873543,148.99926965789643,135.22647696451386,-6.47544875391759e-05,0.0939245000481605,0,0,0
12509,433849.4958965203,2010-11-21 12:16:31,2191.122092674021,7,38,-1.099568486213684,3.573964834213257,37.33471508237958,37.05073493963302,148.99926965789643,135.2592605269772,-9.713172767078504e-05,0.0939245000481605,0,0,0
12510,433879.5113849272,2010-11-21 12:17:01,2221.137581100902,7,38,-1.0997490882873535,3.571050882339477,37.33471508237958,37.059904130661465,148.99926965789643,135.2920175321651,-6.47544875391759e-05,0.0939245000481605,0,0,0
12511,433909.5265533803,2010-11-21 12:17:31,2251.152749534029,7,38,-1.099568486213684,3.568298816680908,37.33471508237958,37.06907323372689,148.99926965789643,135.32474790317036,-3.237724376958795e-05,0.0939245000481605,0,0,0
12512,433939.5419082789,2010-11-21 12:18:01,2281.168104437615,7,38,-1.099929690361023,3.565222978591919,37.33471508237958,37.078242423666495,148.99926965789643,135.35745180510668,-6.47544875391759e-05,0.0939245000481605,0,0,0
12513,433969.5574137734,2010-11-21 12:18:31,2311.183609937112,7,38,-1.099929690361023,3.5621471405029297,37.33471508237958,37.08741160980183,148.99926965789643,135.3901283392555,-0.0001295089750783,0.0939245000481605,0,0,0
12514,433999.5726709681,2010-11-21 12:19:01,2341.1988671368144,7,38,-1.099568486213684,3.5590713024139404,37.33471508237958,37.09658070600639,148.99926965789643,135.42277743678625,-9.713172767078504e-05,0.0939245000481605,0,0,0
12515,434029.588030463,2010-11-21 12:19:31,2371.214226631861,7,38,-1.099568486213684,3.555995464324951,37.33471508237958,37.1057498511998,148.99926965789643,135.4553982734935,-0.0001618862152099,0.0939245000481605,0,0,0
12516,434059.6034699178,2010-11-21 12:20:01,2401.2296660865004,7,38,-1.0997490882873535,3.552919626235962,37.33471508237958,37.11491897670052,148.99926965789643,135.48798994555156,-9.713172767078504e-05,0.0939245000481605,0,0,0
12517,434089.6187612075,2010-11-21 12:20:31,2431.244957376297,7,38,-1.0997490882873535,3.5496819019317627,37.33471508237958,37.12408810371859,148.99926965789643,135.52055211363535,-3.237724376958795e-05,0.0939245000481605,0,0,0
12518,434119.6341383216,2010-11-21 12:21:01,2461.260334490324,7,38,-1.099929690361023,3.5459585189819336,37.33471508237958,37.13325729245462,148.99926965789643,135.55308381301828,-0.0001295089750783,0.0939245000481605,0,0,0
12519,434149.6495012904,2010-11-21 12:21:31,2491.275697459042,7,38,-1.0997490882873535,3.5425589084625244,37.33471508237958,37.14242644107754,148.99926965789643,135.58558372913586,-9.713172767078504e-05,0.0939245000481605,0,0,0
12520,434179.66487068,2010-11-21 12:22:01,2521.291066848788,7,38,-1.099929690361023,3.5391592979431152,37.33471508237958,37.1515956516318,148.99926965789643,135.61805109093717,-9.713172767078504e-05,0.0939245000481605,0,0,0
12521,434209.6802423655,2010-11-21 12:22:31,2551.3064385342645,7,38,-1.099929690361023,3.535274028778076,37.33471508237958,37.16076487244683,148.99926965789643,135.65048472632972,-9.713172767078504e-05,0.0939245000481605,0,0,0
12522,434239.6958027169,2010-11-21 12:23:01,2581.3219988706423,7,38,-1.0997490882873535,3.531550645828247,37.33471508237958,37.16993408581568,148.99926965789643,135.68288309517965,-6.47544875391759e-05,0.0939245000481605,0,0,0
12523,434269.6972601904,2010-11-21 12:23:31,2611.323456344105,7,38,-1.0997490882873535,3.527341604232788,37.33471508237958,37.17909906560908,148.99926965789643,135.71523016690904,-0.0001295089750783,0.0939245000481605,0,0,0
12524,434299.7110386189,2010-11-21 12:24:01,2641.3372348828425,7,38,-1.0997490882873535,3.523294448852539,37.33471508237958,37.18826776184783,148.99926965789643,135.74755256282836,-9.713172767078504e-05,0.0939245000481605,0,0,0
12525,434329.7261007115,2010-11-21 12:24:31,2671.3522968853026,7,38,-1.099929690361023,3.51892352104187,37.33471508237958,37.19743687894886,148.99926965789643,135.77983734319773,-9.713172767078504e-05,0.0939245000481605,0,0,0
12526,434359.7414753845,2010-11-21 12:25:01,2701.3676715532238,7,38,-1.099568486213684,3.514390707015991,37.33471508237958,37.20660612435049,148.99926965789643,135.81208210214862,-9.713172767078504e-05,0.0939245000481605,0,0,0
12527,434389.75687687926,2010-11-21 12:25:31,2731.3830730481086,7,38,-1.0997490882873535,3.5095343589782715,37.33471508237958,37.21577535981956,148.99926965789643,135.8442840666261,-0.0001295089750783,0.0939245000481605,0,0,0
12528,434419.7723027149,2010-11-21 12:26:01,2761.398498883752,7,38,-1.0997490882873535,3.5043540000915527,37.33471508237958,37.22494456256227,148.99926965789643,135.8764399627972,-0.0001295089750783,0.0939245000481605,0,0,0
12529,434449.7877111874,2010-11-21 12:26:31,2791.413907356054,7,38,-1.099568486213684,3.498526096343994,37.33471508237958,37.23411380365043,148.99926965789643,135.90854588758734,-0.0001942634553415,0.0939245000481605,0,0,0
12530,434479.80293753,2010-11-21 12:27:01,2821.4291336987326,7,38,-1.0997490882873535,3.492374420166016,37.33471508237958,37.24328371748759,148.99926965789643,135.9405991931486,-0.0001618862152099,0.0939245000481605,0,0,0
12531,434509.8182895262,2010-11-21 12:27:31,2851.4444856950618,7,38,-1.099929690361023,3.4852514266967773,37.33471508237958,37.25245369852762,148.99926965789643,135.9725916372028,-0.0002266406954731,0.0939245000481605,0,0,0
12532,434539.83368058014,2010-11-21 12:28:01,2881.4598767488847,7,38,-1.099929690361023,3.4769952297210693,37.33471508237958,37.26162352401454,148.99926965789643,136.00451405030546,-0.0002590179501567,0.0939245000481605,0,0,0
12533,434569.84907068656,2010-11-21 12:28:31,2911.475266855343,7,38,-1.099929690361023,3.467282056808472,37.33471508237958,37.270793461524114,148.99926965789643,136.03635565134812,-0.0003237724304199,0.0939245000481605,0,0,0
12534,434599.8645566373,2010-11-21 12:29:01,2941.490752836118,7,38,-1.1001102924346924,3.4556262493133545,37.33471508237958,37.27996346062676,148.99926965789643,136.06810067937613,-0.0003885269106831,0.0939245000481605,0,0,0
12535,434629.87987157615,2010-11-21 12:29:31,2971.5060677448705,7,38,-1.099929690361023,3.441218376159668,37.33471508237958,37.28913339971398,148.99926965789643,136.09972619169412,-0.0004209041653666,0.0939245000481605,0,0,0
12536,434659.89537569217,2010-11-21 12:30:01,3001.52157185089,7,38,-1.0997490882873535,3.4226016998291016,37.33471508237958,37.29830275424656,148.99926965789643,136.13119873547015,-0.0005504131549969,0.0939245000481605,0,0,0
12537,434689.910656977,2010-11-21 12:30:31,3031.536853130699,7,38,-1.099929690361023,3.3975093364715576,37.33471508237958,37.30747185573178,148.99926965789643,136.1624719727979,-0.0007770538213662,0.0939245000481605,0,0,0
12538,434719.92589250254,2010-11-21 12:31:01,3061.552088671337,7,38,-1.0997490882873535,3.363351345062256,37.33471508237958,37.316640958093714,148.99926965789643,136.19347696865873,-0.0010684489971026,0.0939245000481605,0,0,0
12539,434749.9412773961,2010-11-21 12:31:31,3091.567473564782,7,38,-1.0997490882873535,3.3159189224243164,37.33471508237958,37.32581015894085,148.99926965789643,136.22411141898644,-0.0014569759368896,0.0939245000481605,0,0,0
12540,434779.9566468359,2010-11-21 12:32:01,3121.5828430046536,7,38,-1.0997490882873535,3.249222040176392,37.33471508237958,37.33497930884347,148.99926965789643,136.25422706423873,-0.0020721436012536,0.0939245000481605,0,0,0
12541,434809.9720028272,2010-11-21 12:32:31,3151.5981989959555,7,38,-1.0997490882873535,3.1516048908233643,37.33471508237958,37.34414838210246,148.99926965789643,136.28360167560533,-0.0030758380889892,0.0939245000481605,0,0,0
12542,434839.98756770993,2010-11-21 12:33:01,3181.6137638786818,7,38,-1.0997490882873535,2.9937663078308105,37.33471508237958,37.35331761473565,148.99926965789643,136.311848367272,-0.0055688857100903,0.0939245000481605,0,0,0
12543,434859.4090847394,2010-11-21 12:33:21,3201.035280908113,7,38,-1.099568486213684,2.793513536453247,37.33471508237958,37.359250526029214,148.99926965789643,136.32907487221925,-0.0101988315582275,0.0939245000481605,0,0,0
12544,434866.28415320296,2010-11-21 12:33:27,3207.910349361676,7,38,-1.0997490882873535,2.699781894683838,37.33471508237958,37.36135073701205,148.99926965789643,136.33484398308863,-0.0110729690641164,0.0939245000481605,0,0,0
12545,434926.30536777806,2010-11-21 12:34:28,60.01523454353367,8,38,0.0,3.3041012287139893,37.33471508237958,37.36135073701205,148.99926965789643,136.33484398308863,0.0012627125252038,0.0939245000481605,0,0,0
12546,434926.4818248665,2010-11-21 12:34:28,0.185587825765083,9,38,-1.9243103452026844e-05,3.304263114929199,37.33471508604303,37.36135073701205,148.99926967000113,136.33484398308863,3.237724376958795e-05,0.0931148082017898,0,0,0
12547,434931.30992243584,2010-11-21 12:34:33,5.013685475282532,9,38,0.0007031940040178,3.3117098808288574,37.3347161015688,37.36135073718026,148.99927302999322,136.33484398364445,0.0010684489971026,0.0931148082017898,0,0,0
