Data_Point,Test_Time(s),Date_Time,Step_Time(s),Step_Index,Cycle_Index,Current(A),Voltage(V),Charge_Capacity(Ah),Discharge_Capacity(Ah),Charge_Energy(Wh),Discharge_Energy(Wh),dV/dt(V/s),Internal_Resistance(Ohm),Is_FC_Data,AC_Impedance(Ohm),ACI_Phase_Angle(Deg)
2062,74858.43278343721,2010-12-21 08:57:27,30.01506080438629,1,8,0.0,3.4935076236724854,6.164753013390486,6.151036548975606,24.74460378777011,22.29008060097649,0.0007446765666827,0.0977081730961799,0,0,0
2063,74888.44784570523,2010-12-21 08:57:57,60.03012307241482,1,8,0.0,3.5177903175354004,6.164753013390486,6.151036548975606,24.74460378777011,22.29008060097649,0.0005504131549969,0.0977081730961799,0,0,0
2064,74918.46290520136,2010-12-21 08:58:27,90.0451825635331,1,8,0.0,3.535759687423706,6.164753013390486,6.151036548975606,24.74460378777011,22.29008060097649,0.0004209041653666,0.0977081730961799,0,0,0
2065,74948.4310762925,2010-12-21 08:58:57,120.01335365467143,1,8,0.0,3.5498437881469727,6.164753013390486,6.151036548975606,24.74460378777011,22.29008060097649,0.0002913951757363,0.0977081730961799,0,0,0
2066,74978.4478475249,2010-12-21 08:59:27,30.0150483734524,2,8,0.550297200679779,3.69181752204895,6.169340406087957,6.151036548975606,24.76141522554961,22.29008060097649,0.0011979580158367,0.0977081730961799,0,0,0
2067,75008.46298554144,2010-12-21 08:59:57,60.03018645514029,2,8,0.5501165986061096,3.725975513458252,6.173927806745142,6.151036548975606,24.77843475130712,22.29008060097649,0.0007770538213662,0.0977081730961799,0,0,0
2068,75038.47797133416,2010-12-21 09:00:27,90.04517217768831,2,8,0.5499359965324402,3.749610900878906,6.17851519282358,6.151036548975606,24.79558438696464,22.29008060097649,0.0004856586456298,0.0977081730961799,0,0,0
2069,75068.49302949195,2010-12-21 09:00:57,120.0602303354887,2,8,0.5501165986061096,3.766770601272583,6.183102562649978,6.151036548975606,24.812826902103733,22.29008060097649,0.0003885269106831,0.0977081730961799,0,0,0
2070,75098.50809475243,2010-12-21 09:01:27,150.07529560097626,2,8,0.550297200679779,3.7784264087677,6.187689863148698,6.151036548975606,24.830134608445764,22.29008060097649,0.0002913951757363,0.0977081730961799,0,0,0
2071,75128.52360484486,2010-12-21 09:01:57,180.09080567334868,2,8,0.550297200679779,3.786358833312988,6.192277242439987,6.151036548975606,24.847486735441606,22.29008060097649,0.0001942634553415,0.0977081730961799,0,0,0
2072,75158.53832495643,2010-12-21 09:02:27,210.1055257749091,2,8,0.5501165986061096,3.792348623275757,6.196864572840247,6.151036548975606,24.864870472007752,22.29008060097649,0.0001295089750783,0.0977081730961799,0,0,0
2073,75188.55326626345,2010-12-21 09:02:57,240.12046711200568,2,8,0.550297200679779,3.797852754592896,6.20145187391952,6.151036548975606,24.882280395012863,22.29008060097649,0.0001295089750783,0.0977081730961799,0,0,0
2074,75218.56836436065,2010-12-21 09:03:27,270.1355652041812,2,8,0.5501165986061096,3.802871227264404,6.206039262693468,6.151036548975606,24.89971475137538,22.29008060097649,9.713172767078504e-05,0.0977081730961799,0,0,0
2075,75248.58338867423,2010-12-21 09:03:57,300.1505895177615,2,8,0.5501165986061096,3.807565927505493,6.210626635857737,6.151036548975606,24.917171564133373,22.29008060097649,9.713172767078504e-05,0.0977081730961799,0,0,0
2076,75278.59844072182,2010-12-21 09:04:27,330.16564156535685,2,8,0.5501165986061096,3.812260627746582,6.215213966076909,6.151036548975606,24.934649684595183,22.29008060097649,6.47544875391759e-05,0.0977081730961799,0,0,0
2077,75308.61350762639,2010-12-21 09:04:57,360.1807084649108,2,8,0.5501165986061096,3.816631555557251,6.219801323739658,6.151036548975606,24.952148829764187,22.29008060097649,6.47544875391759e-05,0.0977081730961799,0,0,0
2078,75338.62883190141,2010-12-21 09:05:27,390.1960327900583,2,8,0.5499359965324402,3.82100248336792,6.224388707303078,6.151036548975606,24.969667968495457,22.29008060097649,9.713172767078504e-05,0.0977081730961799,0,0,0
2079,75368.64361858365,2010-12-21 09:05:57,420.2108194271899,2,8,0.5501165986061096,3.825049638748169,6.228976100103843,6.151036548975606,24.98720625193121,22.29008060097649,9.713172767078504e-05,0.0977081730961799,0,0,0
2080,75398.65866824532,2010-12-21 09:06:27,450.22586909386047,2,8,0.5501165986061096,3.829258680343628,6.233563383091953,6.151036548975606,25.004762715110605,22.29008060097649,0.0001295089750783,0.0977081730961799,0,0,0
2081,75428.67371352106,2010-12-21 09:06:57,480.2409143696043,2,8,0.5501165986061096,3.832982063293457,6.238150657146454,6.151036548975606,25.02233740162771,22.29008060097649,6.47544875391759e-05,0.0977081730961799,0,0,0
2082,75458.6887767164,2010-12-21 09:07:27,510.255977559928,2,8,0.550297200679779,3.837190866470337,6.242737884106048,6.151036548975606,25.03992988802685,22.29008060097649,0.0001295089750783,0.0977081730961799,0,0,0
2083,75488.7038410295,2010-12-21 09:07:57,540.2710418730456,2,8,0.5501165986061096,3.840914249420166,6.247325145598908,6.151036548975606,25.057540361130684,22.29008060097649,6.47544875391759e-05,0.0977081730961799,0,0,0
2084,75518.71891230995,2010-12-21 09:08:27,570.2861131585137,2,8,0.550297200679779,3.844799518585205,6.251912486232189,6.151036548975606,25.0751687892459,22.29008060097649,9.713172767078504e-05,0.0977081730961799,0,0,0
2085,75548.73394606203,2010-12-21 09:08:57,600.3011469055689,2,8,0.550297200679779,3.848684787750244,6.256499786427665,6.151036548975606,25.09281468363083,22.29008060097649,0.0001295089750783,0.0977081730961799,0,0,0
2086,75578.74900313714,2010-12-21 09:09:27,630.3162039856875,2,8,0.550297200679779,3.852408170700073,6.261087110312595,6.151036548975606,25.110478256627697,22.29008060097649,9.713172767078504e-05,0.0977081730961799,0,0,0
2087,75608.76434008872,2010-12-21 09:09:57,660.3315409372553,2,8,0.5501165986061096,3.855969667434693,6.265674468747674,6.151036548975606,25.12815931713129,22.29008060097649,6.47544875391759e-05,0.0977081730961799,0,0,0
2088,75638.77925000261,2010-12-21 09:10:27,690.3464508962688,2,8,0.5499359965324402,3.8596930503845215,6.270261752985594,6.151036548975606,25.145857430974207,22.29008060097649,3.237724376958795e-05,0.0977081730961799,0,0,0
2089,75668.7942852534,2010-12-21 09:10:57,720.3614862172406,2,8,0.5501165986061096,3.863416433334351,6.274849058845724,6.151036548975606,25.16357268881643,22.29008060097649,6.47544875391759e-05,0.0977081730961799,0,0,0
2090,75698.80935823309,2010-12-21 09:11:27,750.3765590816378,2,8,0.550297200679779,3.8673017024993896,6.279436333950796,6.151036548975606,25.18130436347646,22.29008060097649,0.0001295089750783,0.0977081730961799,0,0,0
2091,75728.82431276803,2010-12-21 09:11:58,780.3915136165768,2,8,0.550297200679779,3.870701313018799,6.284023629552912,6.151036548975606,25.199052416136627,22.29008060097649,0.0001295089750783,0.0977081730961799,0,0,0
2092,75758.83947594717,2010-12-21 09:12:28,810.4066767957186,2,8,0.550297200679779,3.874100923538208,6.288611006876671,6.151036548975606,25.21681668050765,22.29008060097649,6.47544875391759e-05,0.0977081730961799,0,0,0
2093,75788.85455604456,2010-12-21 09:12:58,840.4217568730649,2,8,0.550297200679779,3.877500534057617,6.293198296346703,6.151036548975606,25.23459585767608,22.29008060097649,0.0001618862152099,0.0977081730961799,0,0,0
2094,75818.86948541689,2010-12-21 09:13:28,870.4366862754624,2,8,0.550297200679779,3.8805763721466064,6.297785576961818,6.151036548975606,25.252389845819145,22.29008060097649,9.713172767078504e-05,0.0977081730961799,0,0,0
2095,75848.88454969492,2010-12-21 09:13:58,900.4517505434678,2,8,0.5501165986061096,3.8834903240203857,6.302372843702616,6.151036548975606,25.270197946335987,22.29008060097649,6.47544875391759e-05,0.0977081730961799,0,0,0
2096,75878.89958826397,2010-12-21 09:14:28,930.4667891075096,2,8,0.550297200679779,3.886404275894165,6.306960185786778,6.151036548975606,25.288019817420917,22.29008060097649,9.713172767078504e-05,0.0977081730961799,0,0,0
2097,75908.91463578031,2010-12-21 09:14:58,960.4818366138044,2,8,0.5501165986061096,3.889318227767944,6.311547528738737,6.151036548975606,25.30585451466285,22.29008060097649,6.47544875391759e-05,0.0977081730961799,0,0,0
2098,75938.92971859947,2010-12-21 09:15:28,990.496919448011,2,8,0.5501165986061096,3.8917465209960938,6.316134859744286,6.151036548975606,25.3237012910694,22.29008060097649,3.237724376958795e-05,0.0977081730961799,0,0,0
2099,75968.94476923854,2010-12-21 09:15:58,1020.5119700570264,2,8,0.550297200679779,3.894174814224243,6.320722147738501,6.151036548975606,25.341559435136688,22.29008060097649,6.47544875391759e-05,0.0977081730961799,0,0,0
2100,75998.9598880924,2010-12-21 09:16:28,1050.5270889760288,2,8,0.550297200679779,3.896441221237183,6.325309509314675,6.151036548975606,25.35942844490367,22.29008060097649,6.47544875391759e-05,0.0977081730961799,0,0,0
2101,76028.97499904156,2010-12-21 09:16:58,1080.5421998600364,2,8,0.5501165986061096,3.898707628250122,6.329896837916182,6.151036548975606,25.377307714349445,22.29008060097649,6.47544875391759e-05,0.0977081730961799,0,0,0
2102,76058.9899531755,2010-12-21 09:17:28,1110.5571540040023,2,8,0.5501165986061096,3.900488376617432,6.334484136130996,6.151036548975606,25.39519677102896,22.29008060097649,3.237724376958795e-05,0.0977081730961799,0,0,0
2103,76089.00501452124,2010-12-21 09:17:58,1140.5722153697857,2,8,0.5501165986061096,3.902754783630371,6.339071410461814,6.151036548975606,25.41309520699988,22.29008060097649,6.47544875391759e-05,0.0977081730961799,0,0,0
2104,76119.02004974196,2010-12-21 09:18:28,1170.5872505854954,2,8,0.550297200679779,3.90469741821289,6.343658735602822,6.151036548975606,25.431002967799355,22.29008060097649,3.237724376958795e-05,0.0977081730961799,0,0,0
2105,76149.0351157092,2010-12-21 09:18:58,1200.6023165527292,2,8,0.550297200679779,3.90664005279541,6.348246147136068,6.151036548975606,25.44891970867414,22.29008060097649,3.237724376958795e-05,0.0977081730961799,0,0,0
2106,76179.05018677913,2010-12-21 09:19:28,1230.6173877078727,2,8,0.550297200679779,3.9085826873779297,6.352833473053242,6.151036548975606,25.46684464360161,22.29008060097649,9.713172767078504e-05,0.0977081730961799,0,0,0
2107,76209.06524435549,2010-12-21 09:19:58,1260.632445183977,2,8,0.5501165986061096,3.910201549530029,6.357420818437638,6.151036548975606,25.484778048955064,22.29008060097649,6.47544875391759e-05,0.0977081730961799,0,0,0
2108,76239.0804962554,2010-12-21 09:20:28,1290.647697174122,2,8,0.550297200679779,3.911982297897339,6.36200826113149,6.151036548975606,25.502719949181,22.29008060097649,6.47544875391759e-05,0.0977081730961799,0,0,0
2109,76269.09539993879,2010-12-21 09:20:58,1320.6626008374687,2,8,0.550297200679779,3.9136011600494394,6.366595548389937,6.151036548975606,25.520669356566245,22.29008060097649,0.0,0.0977081730961799,0,0,0
2110,76299.11158008363,2010-12-21 09:21:28,1350.6787809822906,2,8,0.550297200679779,3.915543556213379,6.371183039457305,6.151036548975606,25.538627540906635,22.29008060097649,6.47544875391759e-05,0.0977081730961799,0,0,0
2111,76329.12568226752,2010-12-21 09:21:58,1380.6928832012738,2,8,0.550297200679779,3.9171624183654794,6.375770164674873,6.151036548975606,25.556592110699423,22.29008060097649,6.47544875391759e-05,0.0977081730961799,0,0,0
2112,76359.14065488745,2010-12-21 09:22:28,1410.7078557861294,2,8,0.550297200679779,3.918943166732788,6.380357454807078,6.151036548975606,25.574565317173644,22.29008060097649,6.47544875391759e-05,0.0977081730961799,0,0,0
2113,76389.15555128772,2010-12-21 09:22:58,1440.7227521262528,2,8,0.550297200679779,3.9207239151000977,6.384944686907693,6.151036548975606,25.592546181881453,22.29008060097649,6.47544875391759e-05,0.0977081730961799,0,0,0
2114,76419.17073808063,2010-12-21 09:23:28,1470.7379389241687,2,8,0.5501165986061096,3.9221808910369873,6.389532079738183,6.151036548975606,25.61053550921619,22.29008060097649,0.0,0.0977081730961799,0,0,0
2115,76449.18581099516,2010-12-21 09:23:58,1500.7530118186412,2,8,0.550297200679779,3.923961639404297,6.394119448633978,6.151036548975606,25.628532593003623,22.29008060097649,3.237724376958795e-05,0.0977081730961799,0,0,0
2116,76479.20073227232,2010-12-21 09:24:28,1530.767933115869,2,8,0.5501165986061096,3.9257423877716064,6.398706770598349,6.151036548975606,25.64653736820357,22.29008060097649,3.237724376958795e-05,0.0977081730961799,0,0,0
2117,76509.2157818989,2010-12-21 09:24:58,1560.78298274244,2,8,0.5501165986061096,3.927361249923706,6.403294139701599,6.151036548975606,25.66455004368116,22.29008060097649,3.237724376958795e-05,0.0977081730961799,0,0,0
2118,76539.2308355505,2010-12-21 09:25:28,1590.798036394027,2,8,0.5499359965324402,3.9289801120758057,6.407881486060316,6.151036548975606,25.682570510593173,22.29008060097649,-3.237724376958795e-05,0.0977081730961799,0,0,0
2119,76569.24592615404,2010-12-21 09:25:58,1620.8131269725047,2,8,0.550297200679779,3.930922746658325,6.412468857051924,6.151036548975606,25.70059892138925,22.29008060097649,6.47544875391759e-05,0.0977081730961799,0,0,0
2120,76599.26095067312,2010-12-21 09:26:28,1650.8281515166586,2,8,0.5501165986061096,3.932379722595215,6.41705619568621,6.151036548975606,25.718634996619027,22.29008060097649,0.0,0.0977081730961799,0,0,0
2121,76629.27600822943,2010-12-21 09:26:58,1680.8432090729625,2,8,0.5501165986061096,3.9343223571777344,6.421643548142181,6.151036548975606,25.7366790016592,22.29008060097649,6.47544875391759e-05,0.0977081730961799,0,0,0
2122,76659.29108974535,2010-12-21 09:27:28,1710.858290563826,2,8,0.550297200679779,3.935941219329834,6.426230956487044,6.151036548975606,25.75473112204944,22.29008060097649,3.237724376958795e-05,0.0977081730961799,0,0,0
2123,76689.30625551594,2010-12-21 09:27:58,1740.8734563644916,2,8,0.5501165986061096,3.9375600814819336,6.430818374648426,6.151036548975606,25.772790954775477,22.29008060097649,0.0,0.0977081730961799,0,0,0
2124,76719.32130797456,2010-12-21 09:28:28,1770.8885088732343,2,8,0.5501165986061096,3.939340829849243,6.435405711424564,6.151036548975606,25.790858475573213,22.29008060097649,3.237724376958795e-05,0.0977081730961799,0,0,0
2125,76749.33623705115,2010-12-21 09:28:58,1800.9034378996969,2,8,0.5501165986061096,3.9411215782165527,6.43999304781172,6.151036548975606,25.8089339003636,22.29008060097649,3.237724376958795e-05,0.0977081730961799,0,0,0
2126,76779.35130764991,2010-12-21 09:29:28,1830.9185084934431,2,8,0.5501165986061096,3.942740440368652,6.444580141160464,6.151036548975606,25.827016147245857,22.29008060097649,3.237724376958795e-05,0.0977081730961799,0,0,0
2127,76809.36643208264,2010-12-21 09:29:58,1860.933632996341,2,8,0.5501165986061096,3.944521188735962,6.449166723830606,6.151036548975606,25.845104203171683,22.29008060097649,3.237724376958795e-05,0.0977081730961799,0,0,0
2128,76839.38166380234,2010-12-21 09:30:28,1890.948864726068,2,8,0.550297200679779,3.946301937103272,6.453753716768416,6.151036548975606,25.863201952724616,22.29008060097649,3.237724376958795e-05,0.0977081730961799,0,0,0
2129,76869.39648950667,2010-12-21 09:30:58,1920.9636904254048,2,8,0.550297200679779,3.947920799255371,6.458340989477874,6.151036548975606,25.8813086924978,22.29008060097649,0.0,0.0977081730961799,0,0,0
2130,76899.4115633435,2010-12-21 09:31:28,1950.9787642622216,2,8,0.550297200679779,3.94986343383789,6.462928284643859,6.151036548975606,25.899423500427467,22.29008060097649,6.47544875391759e-05,0.0977081730961799,0,0,0
2131,76929.42661638357,2010-12-21 09:31:58,1980.9938172270995,2,8,0.550297200679779,3.9514822959899902,6.467515640410682,6.151036548975606,25.917546576771997,22.29008060097649,6.47544875391759e-05,0.0977081730961799,0,0,0
2132,76959.44165933854,2010-12-21 09:32:28,2011.0088601870807,2,8,0.5501165986061096,3.9532630443573,6.472102984349053,6.151036548975606,25.93567755478803,22.29008060097649,6.47544875391759e-05,0.0977081730961799,0,0,0
2133,76989.45686226658,2010-12-21 09:32:58,2041.024063110124,2,8,0.550297200679779,3.9552056789398193,6.476690347138868,6.151036548975606,25.9538166621662,22.29008060097649,9.713172767078504e-05,0.0977081730961799,0,0,0
2134,77019.47176466178,2010-12-21 09:33:28,2071.038965480253,2,8,0.5501165986061096,3.956824541091919,6.481277677338152,6.151036548975606,25.97196379529405,22.29008060097649,6.47544875391759e-05,0.0977081730961799,0,0,0
2135,77049.4868492704,2010-12-21 09:33:58,2101.054050113937,2,8,0.550297200679779,3.958605289459229,6.485865057469753,6.151036548975606,25.99011913470149,22.29008060097649,6.47544875391759e-05,0.0977081730961799,0,0,0
2136,77079.50189064644,2010-12-21 09:34:28,2131.0690914899774,2,8,0.5501165986061096,3.960224151611328,6.490452394876945,6.151036548975606,26.00828250405715,22.29008060097649,3.237724376958795e-05,0.0977081730961799,0,0,0
2137,77109.51696637296,2010-12-21 09:34:58,2161.084167216497,2,8,0.550297200679779,3.962166786193848,6.495039754178695,6.151036548975606,26.0264541929387,22.29008060097649,3.237724376958795e-05,0.0977081730961799,0,0,0
2138,77139.53200169894,2010-12-21 09:35:28,2191.0992025424807,2,8,0.5501165986061096,3.963947534561157,6.499627152012313,6.151036548975606,26.044634257364173,22.29008060097649,3.237724376958795e-05,0.0977081730961799,0,0,0
2139,77169.54719077754,2010-12-21 09:35:58,2221.114391606035,2,8,0.550297200679779,3.965728282928467,6.504214570804103,6.151036548975606,26.06282280377193,22.29008060097649,3.237724376958795e-05,0.0977081730961799,0,0,0
2140,77199.5621383702,2010-12-21 09:36:28,2251.129339213736,2,8,0.5501165986061096,3.967509031295776,6.508801897671095,6.151036548975606,26.0810192995765,22.29008060097649,6.47544875391759e-05,0.0977081730961799,0,0,0
2141,77229.57717314482,2010-12-21 09:36:58,2281.1443739682986,2,8,0.550297200679779,3.969451665878296,6.513389302450707,6.151036548975606,26.099224420927904,22.29008060097649,9.713172767078504e-05,0.0977081730961799,0,0,0
2142,77259.59243283414,2010-12-21 09:37:28,2311.159633767876,2,8,0.550297200679779,3.971394300460816,6.517976654591548,6.151036548975606,26.117437769134924,22.29008060097649,9.713172767078504e-05,0.0977081730961799,0,0,0
2143,77289.60734191595,2010-12-21 09:37:58,2341.1745427243945,2,8,0.550297200679779,3.973336935043335,6.522564026968427,6.151036548975606,26.135659764557083,22.29008060097649,6.47544875391759e-05,0.0977081730961799,0,0,0
2144,77319.62235268082,2010-12-21 09:38:28,2371.189553499285,2,8,0.550297200679779,3.975117683410645,6.527151383155557,6.151036548975606,26.15389034866929,22.29008060097649,6.47544875391759e-05,0.0977081730961799,0,0,0
2145,77349.63740813688,2010-12-21 09:38:58,2401.2046090656363,2,8,0.550297200679779,3.976898431777954,6.531738819233936,6.151036548975606,26.172129934293206,22.29008060097649,3.237724376958795e-05,0.0977081730961799,0,0,0
2146,77379.65242725253,2010-12-21 09:39:28,2431.2196280960698,2,8,0.5501165986061096,3.978679180145264,6.53632616344142,6.151036548975606,26.19037750875569,22.29008060097649,3.237724376958795e-05,0.0977081730961799,0,0,0
2147,77409.66758264731,2010-12-21 09:39:58,2461.234783561016,2,8,0.5501165986061096,3.980783700942993,6.540913370815109,6.151036548975606,26.20863380832752,22.29008060097649,6.47544875391759e-05,0.0977081730961799,0,0,0
2148,77439.68259754745,2010-12-21 09:40:28,2491.249798390996,2,8,0.550297200679779,3.9827263355255127,6.545500655002194,6.151036548975606,26.22689933066,22.29008060097649,6.47544875391759e-05,0.0977081730961799,0,0,0
2149,77469.69764842713,2010-12-21 09:40:58,2521.264849275697,2,8,0.550297200679779,3.984992742538452,6.550087944447593,6.151036548975606,26.2451738180163,22.29008060097649,9.713172767078504e-05,0.0977081730961799,0,0,0
2150,77499.71269930182,2010-12-21 09:41:28,2551.279900145362,2,8,0.5499359965324402,3.9867734909057617,6.554675187435293,6.151036548975606,26.263457274949065,22.29008060097649,6.47544875391759e-05,0.0977081730961799,0,0,0
2151,77529.72789965848,2010-12-21 09:41:58,2581.295100486981,2,8,0.5501165986061096,3.988716125488281,6.559262518777324,6.151036548975606,26.281750226964515,22.29008060097649,6.47544875391759e-05,0.0977081730961799,0,0,0
2152,77559.74282497572,2010-12-21 09:42:28,2611.3100257992005,2,8,0.550297200679779,3.9908206462860103,6.56384975610527,6.151036548975606,26.300052063902516,22.29008060097649,9.713172767078504e-05,0.0977081730961799,0,0,0
2153,77589.75786349465,2010-12-21 09:42:58,2641.3250643131173,2,8,0.550297200679779,3.99292516708374,6.56843703282339,6.151036548975606,26.318363421672785,22.29008060097649,6.47544875391759e-05,0.0977081730961799,0,0,0
2154,77619.77294971228,2010-12-21 09:43:28,2671.3401505558063,2,8,0.550297200679779,3.99502944946289,6.573024333821139,6.151036548975606,26.3366844055403,22.29008060097649,9.713172767078504e-05,0.0977081730961799,0,0,0
2155,77649.7880130229,2010-12-21 09:43:59,2701.3552138614164,2,8,0.5501165986061096,3.99697208404541,6.577611624545194,6.151036548975606,26.355014997172745,22.29008060097649,3.237724376958795e-05,0.0977081730961799,0,0,0
2156,77679.80314896927,2010-12-21 09:44:29,2731.3703498679406,2,8,0.550297200679779,3.9992384910583496,6.582198863732695,6.151036548975606,26.37335502940721,22.29008060097649,9.713172767078504e-05,0.0977081730961799,0,0,0
2157,77709.8180737602,2010-12-21 09:44:59,2761.3852746087377,2,8,0.5501165986061096,4.001181125640869,6.586786148733048,6.151036548975606,26.39170511343404,22.29008060097649,3.23295607813634e-05,0.0977081730961799,0,0,0
2158,77739.83323570628,2010-12-21 09:45:29,2791.400436619974,2,8,0.550297200679779,4.003447532653809,6.591373417460084,6.151036548975606,26.410065141489653,22.29008060097649,3.23295607813634e-05,0.0977081730961799,0,0,0
2159,77769.84823791483,2010-12-21 09:45:59,2821.415438758372,2,8,0.5501165986061096,4.005552291870117,6.595960698988487,6.151036548975606,26.428435315544945,22.29008060097649,0.0,0.0977081730961799,0,0,0
2160,77799.86328458405,2010-12-21 09:46:29,2851.430485427583,2,8,0.550297200679779,4.007980346679688,6.600547935316452,6.151036548975606,26.44681559494746,22.29008060097649,6.47544875391759e-05,0.0977081730961799,0,0,0
2161,77829.87835798979,2010-12-21 09:46:59,2881.4455588433525,2,8,0.5499359965324402,4.010085105895996,6.605135243113062,6.151036548975606,26.46520644123253,22.29008060097649,0.0,0.0977081730961799,0,0,0
2162,77859.89341869892,2010-12-21 09:47:29,2911.460619532452,2,8,0.550297200679779,4.012513160705566,6.609722492308717,6.151036548975606,26.483607582351468,22.29008060097649,6.47544875391759e-05,0.0977081730961799,0,0,0
2163,77889.9084723806,2010-12-21 09:47:59,2941.4756732241385,2,8,0.550297200679779,4.014617919921875,6.614309853213766,6.151036548975606,26.50201974578095,22.29008060097649,0.0,0.0977081730961799,0,0,0
2164,77919.9235142178,2010-12-21 09:48:29,2971.490715061326,2,8,0.5504778623580933,4.017208099365234,6.618897123837888,6.151036548975606,26.520442185863917,22.29008060097649,9.71794142969884e-05,0.0977081730961799,0,0,0
2165,77949.93856259626,2010-12-21 09:48:59,3001.505763419741,2,8,0.5501165986061096,4.019312381744385,6.623484435830316,6.151036548975606,26.53887552820965,22.29008060097649,0.0,0.0977081730961799,0,0,0
2166,77979.95362610236,2010-12-21 09:49:29,3031.5208269308623,2,8,0.5501165986061096,4.021902561187744,6.628071682804589,6.151036548975606,26.55731945803186,22.29008060097649,6.47544875391759e-05,0.0977081730961799,0,0,0
2167,78009.96871571345,2010-12-21 09:49:59,3061.5359165569707,2,8,0.5501165986061096,4.024331092834473,6.632658964681985,6.151036548975606,26.575774582237703,22.29008060097649,6.47544875391759e-05,0.0977081730961799,0,0,0
2168,78039.98375994158,2010-12-21 09:50:29,3091.5509607800955,2,8,0.5501165986061096,4.026921272277832,6.637246203536251,6.151036548975606,26.59424065484803,22.29008060097649,6.47544875391759e-05,0.0977081730961799,0,0,0
2169,78069.99879100194,2010-12-21 09:50:59,3121.565991845477,2,8,0.5504778623580933,4.029349327087402,6.64183350413795,6.151036548975606,26.612718284997865,22.29008060097649,9.70840483205393e-05,0.0977081730961799,0,0,0
2170,78100.0137629051,2010-12-21 09:51:29,3151.5809637486363,2,8,0.550297200679779,4.031777858734131,6.646420714867434,6.151036548975606,26.631206832356646,22.29008060097649,9.71794142969884e-05,0.0977081730961799,0,0,0
2171,78130.02888632029,2010-12-21 09:51:59,3181.5960871638267,2,8,0.5499359965324402,4.03404426574707,6.651007958429307,6.151036548975606,26.64970710028201,22.29008060097649,3.24249267578125e-05,0.0977081730961799,0,0,0
2172,78160.04406181005,2010-12-21 09:52:29,3211.611262658616,2,8,0.5501165986061096,4.0367960929870605,6.655595278721989,6.151036548975606,26.6682193376035,22.29008060097649,6.47544875391759e-05,0.0977081730961799,0,0,0
2173,78190.05899989407,2010-12-21 09:52:59,3241.626200717555,2,8,0.5501165986061096,4.03938627243042,6.660182552445433,6.151036548975606,26.686743170678827,22.29008060097649,9.71794142969884e-05,0.0977081730961799,0,0,0
2174,78220.07482587255,2010-12-21 09:53:29,3271.642026871484,2,8,0.550297200679779,4.04181432723999,6.664769925408713,6.151036548975606,26.705279184002777,22.29008060097649,3.23295607813634e-05,0.0977081730961799,0,0,0
2175,78250.07654919213,2010-12-21 09:53:59,3301.6437501258906,2,8,0.5501165986061096,4.04440450668335,6.669355161342433,6.151036548975606,26.72381861657861,22.29008060097649,3.23295607813634e-05,0.0977081730961799,0,0,0
2176,78280.0887324659,2010-12-21 09:54:29,3331.655933384615,2,8,0.5501165986061096,4.047156810760498,6.673942033641681,6.151036548975606,26.742376687819068,22.29008060097649,6.47544875391759e-05,0.0977081730961799,0,0,0
2177,78310.10364015926,2010-12-21 09:54:59,3361.670841002803,2,8,0.5501165986061096,4.049908638000488,6.678529272747995,6.151036548975606,26.76094840307505,22.29008060097649,6.47544875391759e-05,0.0977081730961799,0,0,0
2178,78340.11865439276,2010-12-21 09:55:29,3391.685855211237,2,8,0.5499359965324402,4.052498817443848,6.68311655431733,6.151036548975606,26.7795325277916,22.29008060097649,3.23295607813634e-05,0.0977081730961799,0,0,0
2179,78370.13371910187,2010-12-21 09:55:59,3421.7009199454023,2,8,0.550297200679779,4.055251121520996,6.6877038440251,6.151036548975606,26.798129148182017,22.29008060097649,6.47544875391759e-05,0.0977081730961799,0,0,0
2180,78400.14893926281,2010-12-21 09:56:29,3451.716140111354,2,8,0.550297200679779,4.058002948760986,6.692291120908929,6.151036548975606,26.81673819836716,22.29008060097649,6.47544875391759e-05,0.0977081730961799,0,0,0
2181,78430.16382607924,2010-12-21 09:56:59,3481.731026927778,2,8,0.5501165986061096,4.060593128204346,6.696878431337747,6.151036548975606,26.83536001099166,22.29008060097649,3.23295607813634e-05,0.0977081730961799,0,0,0
2182,78460.17957973275,2010-12-21 09:57:29,3511.7467806614923,2,8,0.5501165986061096,4.063507080078125,6.701465798620124,6.151036548975606,26.853994419220168,22.29008060097649,6.47544875391759e-05,0.0977081730961799,0,0,0
2183,78490.19393731718,2010-12-21 09:57:59,3541.7611381607308,2,8,0.5501165986061096,4.066259384155273,6.706052940788171,6.151036548975606,26.872640882931304,22.29008060097649,6.47544875391759e-05,0.0977081730961799,0,0,0
2184,78520.20903787049,2010-12-21 09:58:29,3571.7762387140306,2,8,0.550297200679779,4.069173336029053,6.710640182356312,6.151036548975606,26.89130072543213,22.29008060097649,6.47544875391759e-05,0.0977081730961799,0,0,0
2185,78550.22417538076,2010-12-21 09:58:59,3601.791376209259,2,8,0.5501165986061096,4.071925163269043,6.715227439428917,6.151036548975606,26.909973695944256,22.29008060097649,6.47544875391759e-05,0.0977081730961799,0,0,0
2186,78580.23910525434,2010-12-21 09:59:29,3631.8063060978666,2,8,0.5499359965324402,4.074677467346191,6.719814595667114,6.151036548975606,26.9286594061394,22.29008060097649,3.24249267578125e-05,0.0977081730961799,0,0,0
2187,78610.25429175652,2010-12-21 09:59:59,3661.8214926702217,2,8,0.5501165986061096,4.077753067016602,6.724401790620065,6.151036548975606,26.94735858097521,22.29008060097649,3.23295607813634e-05,0.0977081730961799,0,0,0
2188,78640.26937185893,2010-12-21 10:00:29,3691.83657279268,2,8,0.5501165986061096,4.08082914352417,6.72898907004666,6.151036548975606,26.96607160909045,22.29008060097649,6.47544875391759e-05,0.0977081730961799,0,0,0
2189,78670.28440769117,2010-12-21 10:00:59,3721.8516086048735,2,8,0.550297200679779,4.083743095397949,6.733576298408534,6.151036548975606,26.9847978955041,22.29008060097649,6.47544875391759e-05,0.0977081730961799,0,0,0
2190,78700.29934262233,2010-12-21 10:01:29,3751.866543465856,2,8,0.550297200679779,4.086818695068359,6.738163549570693,6.151036548975606,27.00353793901689,22.29008060097649,6.47544875391759e-05,0.0977081730961799,0,0,0
2191,78730.3143897577,2010-12-21 10:01:59,3781.8815906012273,2,8,0.5501165986061096,4.089732646942139,6.742750821270568,6.151036548975606,27.022291808112875,22.29008060097649,6.47544875391759e-05,0.0977081730961799,0,0,0
2192,78760.32946462206,2010-12-21 10:02:29,3811.896665465601,2,8,0.550297200679779,4.092808723449707,6.74733814860725,6.151036548975606,27.04105982140268,22.29008060097649,6.47544875391759e-05,0.0977081730961799,0,0,0
2193,78790.34472517853,2010-12-21 10:02:59,3841.9119260972498,2,8,0.550297200679779,4.095884323120117,6.751925485430705,6.151036548975606,27.059841889155244,22.29008060097649,9.70840483205393e-05,0.0977081730961799,0,0,0
2194,78820.35957699285,2010-12-21 10:03:29,3871.926777831373,2,8,0.5501165986061096,4.0987982749938965,6.756512771351695,6.151036548975606,27.07863788683063,22.29008060097649,3.23295607813634e-05,0.0977081730961799,0,0,0
2195,78850.37473043276,2010-12-21 10:03:59,3901.9419312512287,2,8,0.550297200679779,4.101874351501465,6.761100146934386,6.151036548975606,27.09744845840874,22.29008060097649,3.24249267578125e-05,0.0977081730961799,0,0,0
2196,78880.38980901137,2010-12-21 10:04:29,3931.957009854908,2,8,0.5501165986061096,4.105273723602295,6.765687396611249,6.151036548975606,27.116272664255355,22.29008060097649,9.70840483205393e-05,0.0977081730961799,0,0,0
2197,78910.40472490515,2010-12-21 10:04:59,3961.971925753702,2,8,0.5501165986061096,4.108349800109863,6.77027465460251,6.151036548975606,27.13511141620694,22.29008060097649,9.71794142969884e-05,0.0977081730961799,0,0,0
2198,78940.41978178978,2010-12-21 10:05:29,3991.986982633322,2,8,0.5501165986061096,4.111425399780273,6.774862037963199,6.151036548975606,27.153965225311392,22.29008060097649,9.70840483205393e-05,0.0977081730961799,0,0,0
2199,78970.43485748624,2010-12-21 10:05:59,4022.0020583147298,2,8,0.5501165986061096,4.114663124084473,6.779449335217876,6.151036548975606,27.172833286519698,22.29008060097649,6.47544875391759e-05,0.0977081730961799,0,0,0
2200,79000.44991459642,2010-12-21 10:06:29,4052.01711543996,2,8,0.550297200679779,4.118062496185303,6.784036614817384,6.151036548975606,27.191716114126592,22.29008060097649,0.0001295089750783,0.0977081730961799,0,0,0
2201,79030.46497436824,2010-12-21 10:06:59,4082.032175211777,2,8,0.5501165986061096,4.121138572692871,6.788623970573477,6.151036548975606,27.21061421762593,22.29008060097649,9.71794142969884e-05,0.0977081730961799,0,0,0
2202,79060.48019336126,2010-12-21 10:07:29,4112.0473942599465,2,8,0.5501165986061096,4.12437629699707,6.79321137268899,6.151036548975606,27.22952755743962,22.29008060097649,9.71794142969884e-05,0.0977081730961799,0,0,0
2203,79090.49508124034,2010-12-21 10:07:59,4142.062282083878,2,8,0.5501165986061096,4.1277756690979,6.797798624752859,6.151036548975606,27.24845547375263,22.29008060097649,6.47544875391759e-05,0.0977081730961799,0,0,0
2204,79120.51012852107,2010-12-21 10:08:29,4172.077329369624,2,8,0.550297200679779,4.13133716583252,6.802385945136965,6.151036548975606,27.26739898509534,22.29008060097649,0.0001295089750783,0.0977081730961799,0,0,0
2205,79150.52708796014,2010-12-21 10:08:59,4202.094288878864,2,8,0.550297200679779,4.134737014770508,6.806973632746574,6.151036548975606,27.28635941309807,22.29008060097649,9.71794142969884e-05,0.0977081730961799,0,0,0
2206,79180.54025855582,2010-12-21 10:09:29,4232.107459484563,2,8,0.550297200679779,4.137974739074707,6.811560620001026,6.151036548975606,27.30533248034779,22.29008060097649,9.71794142969884e-05,0.0977081730961799,0,0,0
2207,79210.55545089253,2010-12-21 10:09:59,4262.122651716001,2,8,0.550297200679779,4.141536235809326,6.81614794020269,6.151036548975606,27.324322654355846,22.29008060097649,0.0001295089750783,0.0977081730961799,0,0,0
2208,79240.5705323132,2010-12-21 10:10:29,4292.137733131678,2,8,0.550297200679779,4.144935607910156,6.820735247571028,6.151036548975606,27.343328526314785,22.29008060097649,9.70840483205393e-05,0.0977081730961799,0,0,0
2209,79270.58561380907,2010-12-21 10:10:59,4322.152814717779,2,8,0.5501165986061096,4.148497104644775,6.825322523685355,6.151036548975606,27.362350499619524,22.29008060097649,0.0001295089750783,0.0977081730961799,0,0,0
2210,79300.60069073358,2010-12-21 10:11:29,4352.167891552054,2,8,0.5501165986061096,4.151896953582764,6.829909813106294,6.151036548975606,27.38138844128389,22.29008060097649,9.71794142969884e-05,0.0977081730961799,0,0,0
2211,79330.61578818416,2010-12-21 10:11:59,4382.182989067796,2,8,0.5501165986061096,4.155296325683594,6.834496704165923,6.151036548975606,27.40044073099028,22.29008060097649,6.47544875391759e-05,0.0977081730961799,0,0,0
2212,79360.6309391429,2010-12-21 10:12:29,4412.198140041564,2,8,0.5501165986061096,4.159019947052002,6.839083273127654,6.151036548975606,27.419507817676703,22.29008060097649,0.0001295089750783,0.0977081730961799,0,0,0
2213,79390.64581808471,2010-12-21 10:12:59,4442.213018903194,2,8,0.5501165986061096,4.162419319152832,6.843669782140442,6.151036548975606,27.438590874276738,22.29008060097649,9.70840483205393e-05,0.0977081730961799,0,0,0
2214,79420.66092479836,2010-12-21 10:13:29,4472.228125762185,2,8,0.5499359965324402,4.165980815887451,6.848256339386952,6.151036548975606,27.45769043222787,22.29008060097649,6.47544875391759e-05,0.0977081730961799,0,0,0
2215,79450.675944315,2010-12-21 10:13:59,4502.243145143492,2,8,0.550297200679779,4.16954231262207,6.852842878829876,6.151036548975606,27.476806376369247,22.29008060097649,9.70840483205393e-05,0.0977081730961799,0,0,0
2216,79480.69102317932,2010-12-21 10:14:29,4532.25822400782,2,8,0.5501165986061096,4.173427581787109,6.857429478901415,6.151036548975606,27.49593913444888,22.29008060097649,0.0001295089750783,0.0977081730961799,0,0,0
2217,79510.70605547777,2010-12-21 10:14:59,4562.273256296245,2,8,0.5501165986061096,4.1769890785217285,6.862016096083896,6.151036548975606,27.515088746468315,22.29008060097649,0.0001295089750783,0.0977081730961799,0,0,0
2218,79540.72111594131,2010-12-21 10:15:29,4592.288316759783,2,8,0.5499359965324402,4.180550575256348,6.866602709415409,6.151036548975606,27.534255160061686,22.29008060097649,0.0001295089750783,0.0977081730961799,0,0,0
2219,79570.73619327684,2010-12-21 10:15:59,4622.303394095306,2,8,0.5501165986061096,4.184274196624756,6.871189342323202,6.151036548975606,27.55343857970068,22.29008060097649,9.71794142969884e-05,0.0977081730961799,0,0,0
2220,79600.75133794491,2010-12-21 10:16:30,4652.318538853609,2,8,0.5501165986061096,4.187997341156006,6.875775935249784,6.151036548975606,27.57263875442417,22.29008060097649,9.70840483205393e-05,0.0977081730961799,0,0,0
2221,79630.77395806536,2010-12-21 10:17:00,4682.341158979075,2,8,0.5501165986061096,4.191720962524414,6.880363741597062,6.151036548975606,27.591861285257785,22.29008060097649,9.71794142969884e-05,0.0977081730961799,0,0,0
2222,79660.7814909869,2010-12-21 10:17:30,4712.348691805378,2,8,0.5501165986061096,4.195605754852295,6.884949143764295,6.151036548975606,27.611091044181418,22.29008060097649,9.70840483205393e-05,0.0977081730961799,0,0,0
2223,79690.7964424943,2010-12-21 10:18:00,4742.363643317794,2,8,0.5501165986061096,4.199329376220703,6.889535720162613,6.151036548975606,27.6303430306538,22.29008060097649,9.71794142969884e-05,0.0977081730961799,0,0,0
2224,79694.95276733383,2010-12-21 10:18:04,4746.519968262561,2,8,0.550297200679779,4.200138568878174,6.8901708374263,6.151036548975606,27.633010289750143,22.29008060097649,0.0001618385285837,0.0977081730961799,0,0,0
2225,79724.95746067967,2010-12-21 10:18:34,30.00731838768011,3,8,0.0,4.109644889831543,6.8901708374263,6.151036548975606,27.633010289750143,22.29008060097649,-0.0004208564641885,0.0977081730961799,0,0,0
2226,79754.96438914703,2010-12-21 10:19:04,60.01424672974672,3,8,0.0,4.098312854766846,6.8901708374263,6.151036548975606,27.633010289750143,22.29008060097649,-0.0002265930233988,0.0977081730961799,0,0,0
2227,79784.97949875788,2010-12-21 10:19:34,90.02935635061095,3,8,0.0,4.091513633728027,6.8901708374263,6.151036548975606,27.633010289750143,22.29008060097649,-0.0001618385285837,0.0977081730961799,0,0,0
2228,79814.96466521632,2010-12-21 10:20:04,120.01452287422931,3,8,0.0,4.087142467498779,6.8901708374263,6.151036548975606,27.633010289750143,22.29008060097649,-9.71794142969884e-05,0.0977081730961799,0,0,0
2229,79814.97892758652,2010-12-21 10:20:04,0.015881711027056,4,8,1.009225368499756,4.199814796447754,6.89017528971099,6.151036548975606,27.633028988521264,22.29008060097649,0.0,0.0977081730961799,0,0,0
2230,79815.69755577012,2010-12-21 10:20:05,0.734509869560021,4,8,0.9590160250663756,4.199814796447754,6.890370247455786,6.151036548975606,27.63384776488517,22.29008060097649,0.0,0.0977081730961799,0,0,0
2231,79817.55674721654,2010-12-21 10:20:07,2.593701356066828,4,8,0.9086260199546814,4.199814796447754,6.890851384790211,6.151036548975606,27.63586842195849,22.29008060097649,0.0,0.0977081730961799,0,0,0
2232,79820.4316286033,2010-12-21 10:20:09,5.468582632551001,4,8,0.8580554127693176,4.199814796447754,6.891555657916578,6.151036548975606,27.638826215507656,22.29008060097649,-3.24249267578125e-05,0.0977081730961799,0,0,0
2233,79824.40512913655,2010-12-21 10:20:13,9.4420832510131,4,8,0.8078460693359375,4.199814796447754,6.892473813378179,6.151036548975606,27.642682259554743,22.29008060097649,0.0,0.0977081730961799,0,0,0
2234,79829.6658466698,2010-12-21 10:20:19,14.70280070405972,4,8,0.7574560642242432,4.199814796447754,6.8936162341656,6.151036548975606,27.64748017725073,22.29008060097649,0.0,0.0977081730961799,0,0,0
2235,79836.52509913073,2010-12-21 10:20:26,21.56205317501629,4,8,0.7074273228645325,4.199653148651123,6.895010002828247,6.151036548975606,27.65333371748812,22.29008060097649,-6.47544875391759e-05,0.0977081730961799,0,0,0
2236,79845.58743789217,2010-12-21 10:20:35,30.62439191642279,4,8,0.657398521900177,4.199653148651123,6.89672490150618,6.151036548975606,27.66053594205864,22.29008060097649,0.0,0.0977081730961799,0,0,0
2237,79858.13414146144,2010-12-21 10:20:47,43.17109560097627,4,8,0.6073697805404663,4.199653148651123,6.898924030162244,6.151036548975606,27.669771827349805,22.29008060097649,-3.23295607813634e-05,0.0977081730961799,0,0,0
2238,79877.102503571,2010-12-21 10:21:06,62.13945760025911,4,8,0.5573409795761108,4.199976921081543,6.901982517184261,6.151036548975606,27.68261683580734,22.29008060097649,3.24249267578125e-05,0.0977081730961799,0,0,0
2239,79909.10187024422,2010-12-21 10:21:38,94.13882427849302,4,8,0.5073122382164001,4.199491024017334,6.906693959024521,6.151036548975606,27.70240394946958,22.29008060097649,-3.24249267578125e-05,0.0977081730961799,0,0,0
2240,79970.31959841626,2010-12-21 10:22:39,155.35655253072068,4,8,0.4572834372520447,4.199814796447754,6.914854807262389,6.151036548975606,27.73667790532163,22.29008060097649,0.0,0.0977081730961799,0,0,0
2241,80066.80202617687,2010-12-21 10:24:16,251.83898020111587,4,8,0.4072546660900116,4.199814796447754,6.926410461439665,6.151036548975606,27.785209403042924,22.29008060097649,3.23295607813634e-05,0.0977081730961799,0,0,0
2242,80190.76849002924,2010-12-21 10:26:20,375.80544414870855,4,8,0.3572258949279785,4.199653148651123,6.939558900690207,6.151036548975606,27.84043030002982,22.29008060097649,0.0,0.0977081730961799,0,0,0
2243,80339.64066221385,2010-12-21 10:28:49,524.6776162731876,4,8,0.3071971237659454,4.199814796447754,6.953280311178227,6.151036548975606,27.898057547205745,22.29008060097649,0.0,0.0977081730961799,0,0,0
2244,80517.74702153879,2010-12-21 10:31:47,702.7839756181729,4,8,0.2571683526039123,4.199814796447754,6.967216296460966,6.151036548975606,27.95658600778556,22.29008060097649,0.0,0.0977081730961799,0,0,0
2245,80739.08638184886,2010-12-21 10:35:28,924.1233359382773,4,8,0.2071395963430404,4.199653148651123,6.981447458890318,6.151036548975606,28.016354072442684,22.29008060097649,-3.23295607813634e-05,0.0977081730961799,0,0,0
2246,81026.61213581392,2010-12-21 10:40:16,1211.6490898532115,4,8,0.1571108251810073,4.199814796447754,6.995917296037165,6.151036548975606,28.077124581161307,22.29008060097649,-3.24249267578125e-05,0.0977081730961799,0,0,0
2247,81454.54176224045,2010-12-21 10:47:24,1639.5787162897673,4,8,0.1070820614695549,4.199814796447754,7.011429767764839,6.151036548975606,28.142273824351985,22.29008060097649,0.0,0.0977081730961799,0,0,0
2248,82270.4170067867,2010-12-21 11:01:00,2455.453960941265,4,8,0.0568726807832717,4.199653148651123,7.029329609898869,6.151036548975606,28.21744950708925,22.29008060097649,-3.23295607813634e-05,0.0977081730961799,0,0,0
2249,82461.5229669734,2010-12-21 11:04:11,2646.559921092873,4,8,0.0498289167881011,4.199653148651123,7.032183804932878,6.151036548975606,28.229436452175584,22.29008060097649,-3.23295607813634e-05,0.0977081730961799,0,0,0
2250,82491.54030642223,2010-12-21 11:04:41,30.01505557136413,5,8,0.0,4.191235065460205,7.032183804932878,6.151036548975606,28.229436452175584,22.29008060097649,-6.47544875391759e-05,0.0977081730961799,0,0,0
2251,82521.53972122216,2010-12-21 11:05:11,60.01447039131994,5,8,0.0,4.189939975738525,7.032183804932878,6.151036548975606,28.229436452175584,22.29008060097649,-3.24249267578125e-05,0.0977081730961799,0,0,0
2252,82521.7311134854,2010-12-21 11:05:11,0.187651072476509,6,8,-1.9243103452026844e-05,4.189939975738525,7.032183804932878,6.151036549978659,28.229436452175584,22.290080605179224,0.0,0.098061554133892,0,0,0
2253,82526.55916646954,2010-12-21 11:05:16,5.015704126807864,6,8,0.0005225847125984,4.189939975738525,7.032184400590787,6.151036550231058,28.22943894801256,22.290080606236764,0.0,0.098061554133892,0,0,0
2254,82556.57796857215,2010-12-21 11:05:46,30.015137154380323,7,8,-1.0997490882873535,4.002476215362549,7.032184400590787,6.160205659540085,28.22943894801256,22.32699982835411,-0.0011008263099938,0.098061554133892,0,0,0
2255,82586.59290716241,2010-12-21 11:06:16,60.03007574464147,7,8,-1.099568486213684,3.972365617752075,7.032184400590787,6.169374365938475,28.22943894801256,22.363550490154825,-0.0006799221155233,0.098061554133892,0,0,0
2256,82616.60797305446,2010-12-21 11:06:46,90.04514172691275,7,8,-1.0997490882873535,3.9511585235595694,7.032184400590787,6.178543065376934,28.22943894801256,22.39987060671828,-0.0005180359003134,0.098061554133892,0,0,0
2257,82646.62318676936,2010-12-21 11:07:16,120.06035544181096,7,8,-1.099568486213684,3.934969902038574,7.032184400590787,6.187711801683535,28.22943894801256,22.436021741243,-0.0003885269106831,0.098061554133892,0,0,0
2258,82676.63811232218,2010-12-21 11:07:46,150.0752809244543,7,8,-1.099568486213684,3.9213714599609375,7.032184400590787,6.196880404810723,28.22943894801256,22.472035667465992,-0.0003237724304199,0.098061554133892,0,0,0
2259,82706.65518674237,2010-12-21 11:08:16,180.09235541482073,7,8,-1.0997490882873535,3.90874457359314,7.032184400590787,6.206049687380412,28.22943894801256,22.50793308256045,-0.0003561496851034,0.098061554133892,0,0,0
2260,82736.66836651588,2010-12-21 11:08:46,210.10553519334653,7,8,-1.099568486213684,3.897250652313232,7.032184400590787,6.215217750295505,28.22943894801256,22.543716490335488,-0.0003237724304199,0.098061554133892,0,0,0
2261,82766.68355774984,2010-12-21 11:09:16,240.120726387202,7,8,-1.099568486213684,3.886566162109375,7.032184400590787,6.224386394292583,28.22943894801256,22.579399681303173,-0.0002590179501567,0.098061554133892,0,0,0
2262,82796.69832258773,2010-12-21 11:09:46,270.135491235112,7,8,-1.099568486213684,3.8758816719055176,7.032184400590787,6.233554987180681,28.22943894801256,22.61498404490447,-0.0002590179501567,0.098061554133892,0,0,0
2263,82826.71414941331,2010-12-21 11:10:16,300.1513180506877,7,8,-1.0997490882873535,3.86568284034729,7.032184400590787,6.242723883207741,28.22943894801256,22.65047418327744,-0.0002590179501567,0.098061554133892,0,0,0
2264,82856.72847241671,2010-12-21 11:10:46,330.1656410891719,7,8,-1.099568486213684,3.855645895004273,7.032184400590787,6.251892364729224,28.22943894801256,22.685870231446565,-0.0002590179501567,0.098061554133892,0,0,0
2265,82886.7435187551,2010-12-21 11:11:16,360.18068735738547,7,8,-1.0997490882873535,3.845770835876465,7.032184400590787,6.261060974687839,28.22943894801256,22.72117624519174,-0.0002913951757363,0.098061554133892,0,0,0
2266,82916.75855475277,2010-12-21 11:11:46,390.1957234252158,7,8,-1.0997490882873535,3.836381435394287,7.032184400590787,6.270229616872457,28.22943894801256,22.75639388523334,-0.0002590179501567,0.098061554133892,0,0,0
2267,82946.7737563174,2010-12-21 11:12:16,420.2109248896291,7,8,-1.0997490882873535,3.8268303871154794,7.032184400590787,6.279398352682662,28.22943894801256,22.79152485423052,-0.0002913951757363,0.098061554133892,0,0,0
2268,82976.78880596906,2010-12-21 11:12:46,450.2259745462747,7,8,-1.0997490882873535,3.8177647590637207,7.032184400590787,6.288567059136875,28.22943894801256,22.826570612532777,-0.0002266406954731,0.098061554133892,0,0,0
2269,83006.80374671468,2010-12-21 11:13:16,480.2409152969119,7,8,-1.099568486213684,3.808699131011963,7.032184400590787,6.297735691340762,28.22943894801256,22.86153263957848,-0.0002266406954731,0.098061554133892,0,0,0
2270,83036.8188422154,2010-12-21 11:13:46,510.2560107876138,7,8,-1.0997490882873535,3.799795389175415,7.032184400590787,6.306904396696479,28.22943894801256,22.89641352028498,-0.0002590179501567,0.098061554133892,0,0,0
2271,83066.83388743602,2010-12-21 11:14:16,540.2710560082204,7,8,-1.0997490882873535,3.791539192199707,7.032184400590787,6.316073133883842,28.22943894801256,22.93121562473991,-0.0001618862152099,0.098061554133892,0,0,0
2272,83096.84895807489,2010-12-21 11:14:46,570.2861266671293,7,8,-1.099568486213684,3.783282995223999,7.032184400590787,6.325241784636062,28.22943894801256,22.965940621681437,-0.0001942634553415,0.098061554133892,0,0,0
2273,83126.86426194916,2010-12-21 11:15:16,600.3014305965229,7,8,-1.0997490882873535,3.775026798248291,7.032184400590787,6.334410516960037,28.22943894801256,23.000590833891053,-0.0002266406954731,0.098061554133892,0,0,0
2274,83156.87907425013,2010-12-21 11:15:46,630.3162428223309,7,8,-1.0997490882873535,3.767256259918213,7.032184400590787,6.343579146691917,28.22943894801256,23.035166937504272,-0.0001942634553415,0.098061554133892,0,0,0
2275,83186.89414116472,2010-12-21 11:16:16,660.3313097369223,7,8,-1.099568486213684,3.759485721588135,7.032184400590787,6.352747839513515,28.22943894801256,23.069670978293846,-0.0001942634553415,0.098061554133892,0,0,0
2276,83216.90919935761,2010-12-21 11:16:46,690.34636792981,7,8,-1.0997490882873535,3.7518773078918457,7.032184400590787,6.361916561620474,28.22943894801256,23.10410466298883,-0.0002265930233988,0.098061554133892,0,0,0
2277,83246.92425992641,2010-12-21 11:17:16,720.3614285136474,7,8,-1.0997490882873535,3.744430541992188,7.032184400590787,6.37108528177049,28.22943894801256,23.138469747973787,-0.0001942634553415,0.098061554133892,0,0,0
2278,83276.93932180347,2010-12-21 11:17:46,750.3764903856905,7,8,-1.099568486213684,3.737307548522949,7.032184400590787,6.380254052651964,28.22943894801256,23.17276822695855,-0.0001618862152099,0.098061554133892,0,0,0
2279,83306.95442041692,2010-12-21 11:18:16,780.3915889991633,7,8,-1.1001102924346924,3.730022668838501,7.032184400590787,6.389422747909641,28.22943894801256,23.207000670324447,-0.0002266406954731,0.098061554133892,0,0,0
2280,83336.96948325638,2010-12-21 11:18:46,810.4066519288383,7,8,-1.0997490882873535,3.7232234477996826,7.032184400590787,6.398591469360623,28.22943894801256,23.24116900516895,-0.0001618862152099,0.098061554133892,0,0,0
2281,83366.98452565998,2010-12-21 11:19:16,840.4216942422106,7,8,-1.0997490882873535,3.7162623405456543,7.032184400590787,6.407760226018617,28.22943894801256,23.275274466777983,-0.0002266406954731,0.098061554133892,0,0,0
2282,83396.99963658409,2010-12-21 11:19:46,870.4368052364923,7,8,-1.0997490882873535,3.709786891937256,7.032184400590787,6.416928989391421,28.22943894801256,23.309318065006057,-0.0001618862152099,0.098061554133892,0,0,0
2283,83427.01465358949,2010-12-21 11:20:16,900.451822161687,7,8,-1.0997490882873535,3.7033114433288574,7.032184400590787,6.42609768045146,28.22943894801256,23.34330137943241,-0.0001295089750783,0.098061554133892,0,0,0
2284,83457.02970802803,2010-12-21 11:20:46,930.466876600232,7,8,-1.0997490882873535,3.696835994720459,7.032184400590787,6.435266412690957,28.22943894801256,23.377225935195938,-0.0001618862152099,0.098061554133892,0,0,0
2285,83487.04481345345,2010-12-21 11:21:16,960.481982150968,7,8,-1.0997490882873535,3.690684318542481,7.032184400590787,6.4444351332855,28.22943894801256,23.41109241890108,-9.713172767078504e-05,0.098061554133892,0,0,0
2286,83517.05985198241,2010-12-21 11:21:46,990.4970205546108,7,8,-1.0997490882873535,3.684370756149292,7.032184400590787,6.453603874066232,28.22943894801256,23.4449016378599,-0.0001618862152099,0.098061554133892,0,0,0
2287,83547.07491216525,2010-12-21 11:22:16,1020.5120807374506,7,8,-1.0997490882873535,3.678380966186523,7.032184400590787,6.462772605724873,28.22943894801256,23.478654935733232,-0.0001618862152099,0.098061554133892,0,0,0
2288,83577.08995296987,2010-12-21 11:22:47,1050.5271215470805,7,8,-1.0997490882873535,3.672229528427124,7.032184400590787,6.471941311319063,28.22943894801256,23.51235296167497,-0.0001618385285837,0.098061554133892,0,0,0
2289,83607.10514938673,2010-12-21 11:23:17,1080.5423179839834,7,8,-1.0997490882873535,3.666401624679565,7.032184400590787,6.481110122403859,28.22943894801256,23.545996564339536,-0.0001618862152099,0.098061554133892,0,0,0
2290,83637.12007736054,2010-12-21 11:23:47,1110.5572459427883,7,8,-1.0997490882873535,3.660573720932007,7.032184400590787,6.4902788024218,28.22943894801256,23.579586237916565,-0.0001618862152099,0.098061554133892,0,0,0
2291,83667.1351512074,2010-12-21 11:24:17,1140.5723197896305,7,8,-1.0993878841400146,3.655069589614868,7.032184400590787,6.499447498929628,28.22943894801256,23.613123160076995,-9.713172767078504e-05,0.098061554133892,0,0,0
2292,83697.15020477379,2010-12-21 11:24:47,1170.5873733459805,7,8,-1.0997490882873535,3.6490797996521,7.032184400590787,6.508616204990359,28.22943894801256,23.646607992131266,-0.0001942634553415,0.098061554133892,0,0,0
2293,83727.1654393907,2010-12-21 11:25:17,1200.6026080280544,7,8,-1.0997490882873535,3.643575668334961,7.032184400590787,6.517784949976671,28.22943894801256,23.68004117684865,-0.0001942634553415,0.098061554133892,0,0,0
2294,83757.18040501322,2010-12-21 11:25:47,1230.6175736505843,7,8,-1.0997490882873535,3.6380715370178223,7.032184400590787,6.526953637375585,28.22943894801256,23.71342375308843,-0.0001618862152099,0.098061554133892,0,0,0
2295,83787.19574687701,2010-12-21 11:26:17,1260.6329155193887,7,8,-1.0997490882873535,3.632891178131104,7.032184400590787,6.536122407407508,28.22943894801256,23.74675723351536,-0.0001618862152099,0.098061554133892,0,0,0
2296,83817.2104686377,2010-12-21 11:26:47,1290.6476372149157,7,8,-1.0997490882873535,3.627548933029175,7.032184400590787,6.54529101514764,28.22943894801256,23.780041501832383,-0.0001295089750783,0.098061554133892,0,0,0
2297,83847.22553588812,2010-12-21 11:27:17,1320.66270446033,7,8,-1.099568486213684,3.622530460357666,7.032184400590787,6.554459756675135,28.22943894801256,23.81327863095028,-0.0001618862152099,0.098061554133892,0,0,0
2298,83877.24061903812,2010-12-21 11:27:47,1350.67778762536,7,8,-1.0997490882873535,3.617511987686157,7.032184400590787,6.563628478117062,28.22943894801256,23.84646922583373,-9.713172767078504e-05,0.098061554133892,0,0,0
2299,83907.25568876973,2010-12-21 11:28:17,1380.6928573469363,7,8,-1.099929690361023,3.612493515014648,7.032184400590787,6.572797152614198,28.22943894801256,23.879614146164933,-0.0001618862152099,0.098061554133892,0,0,0
2300,83937.27105343525,2010-12-21 11:28:47,1410.708222102694,7,8,-1.0997490882873535,3.60779881477356,7.032184400590787,6.581965952145048,28.22943894801256,23.912715462344533,-0.0001295089750783,0.098061554133892,0,0,0
2301,83967.28580224825,2010-12-21 11:29:17,1440.7229708254772,7,8,-1.0997490882873535,3.603104114532471,7.032184400590787,6.591134504203828,28.22943894801256,23.945772766988224,-0.0001295089750783,0.098061554133892,0,0,0
2302,83997.30085433094,2010-12-21 11:29:47,1470.738022903147,7,8,-1.0997490882873535,3.5987331867218018,7.032184400590787,6.600303230260933,28.22943894801256,23.978788100768327,-9.713172767078504e-05,0.098061554133892,0,0,0
2303,84027.31593303489,2010-12-21 11:30:17,1500.753101607076,7,8,-1.0997490882873535,3.594038486480713,7.032184400590787,6.609471933174071,28.22943894801256,24.01176188562224,-0.0001618862152099,0.098061554133892,0,0,0
2304,84057.33098041084,2010-12-21 11:30:47,1530.768148983046,7,8,-1.099568486213684,3.589829683303833,7.032184400590787,6.618640610250572,28.22943894801256,24.044695960282453,-0.0001295089750783,0.098061554133892,0,0,0
2305,84087.34604798707,2010-12-21 11:31:17,1560.7832165642965,7,8,-1.0997490882873535,3.585620641708374,7.032184400590787,6.627809319299528,28.22943894801256,24.077591103643105,-9.713172767078504e-05,0.098061554133892,0,0,0
2306,84117.36110726265,2010-12-21 11:31:47,1590.798275834866,7,8,-1.0997490882873535,3.581573486328125,7.032184400590787,6.636977976250542,28.22943894801256,24.11044788131043,-0.0001295089750783,0.098061554133892,0,0,0
2307,84147.37621086354,2010-12-21 11:32:17,1620.8133794357498,7,8,-1.0997490882873535,3.577364444732666,7.032184400590787,6.646146715041038,28.22943894801256,24.14326748832316,-0.0001295089750783,0.098061554133892,0,0,0
2308,84177.3912392272,2010-12-21 11:32:47,1650.8284078094334,7,8,-1.099568486213684,3.573641061782837,7.032184400590787,6.655315388345844,28.22943894801256,24.176049961196288,-6.47544875391759e-05,0.098061554133892,0,0,0
2309,84207.40630042256,2010-12-21 11:33:17,1680.8434689997805,7,8,-1.0997490882873535,3.569755792617798,7.032184400590787,6.664484065052765,28.22943894801256,24.20879704100376,-0.0001295089750783,0.098061554133892,0,0,0
2310,84237.42136104651,2010-12-21 11:33:47,1710.858529618705,7,8,-1.0997490882873535,3.5660324096679688,7.032184400590787,6.673652793761067,28.22943894801256,24.241509612601856,-9.713172767078504e-05,0.098061554133892,0,0,0
2311,84267.43643783567,2010-12-21 11:34:17,1740.8736064078687,7,8,-1.0997490882873535,3.5624709129333496,7.032184400590787,6.682821501800924,28.22943894801256,24.27418798801159,-9.713172767078504e-05,0.098061554133892,0,0,0
2312,84297.45163373624,2010-12-21 11:34:47,1770.8888023084369,7,8,-1.0997490882873535,3.5587475299835205,7.032184400590787,6.691990172067584,28.22943894801256,24.30683328597092,-9.713172767078504e-05,0.098061554133892,0,0,0
2313,84327.46665150352,2010-12-21 11:35:17,1800.9038201408891,7,8,-1.099568486213684,3.5551860332489014,7.032184400590787,6.701158850736688,28.22943894801256,24.33944598040128,-9.713172767078504e-05,0.098061554133892,0,0,0
2314,84357.4816681781,2010-12-21 11:35:47,1830.9188367553104,7,8,-1.099568486213684,3.551786422729492,7.032184400590787,6.710327521428995,28.22943894801256,24.37202655386022,-9.713172767078504e-05,0.098061554133892,0,0,0
2315,84387.49683188855,2010-12-21 11:36:17,1860.934000460762,7,8,-1.099568486213684,3.548063039779663,7.032184400590787,6.719495680495617,28.22943894801256,24.404573045896985,-9.713172767078504e-05,0.098061554133892,0,0,0
2316,84417.51189250748,2010-12-21 11:36:47,1890.9490610796868,7,8,-1.099568486213684,3.544663429260254,7.032184400590787,6.728663740438043,28.22943894801256,24.43708626347631,-9.713172767078504e-05,0.098061554133892,0,0,0
2317,84447.5268189024,2010-12-21 11:37:17,1920.9639874746003,7,8,-1.099568486213684,3.5411019325256348,7.032184400590787,6.737831782503459,28.22943894801256,24.46956687943991,-6.47544875391759e-05,0.098061554133892,0,0,0
2318,84477.54188356135,2010-12-21 11:37:47,1950.979052138591,7,8,-1.099568486213684,3.537540435791016,7.032184400590787,6.74699987782255,28.22943894801256,24.50201539978203,-6.47544875391759e-05,0.098061554133892,0,0,0
2319,84507.55696422016,2010-12-21 11:38:17,1980.9941328224463,7,8,-1.099568486213684,3.5339789390563965,7.032184400590787,6.75616864405707,28.22943894801256,24.53443340873373,-9.713172767078504e-05,0.098061554133892,0,0,0
2320,84537.57206389628,2010-12-21 11:38:47,2011.0092325687383,7,8,-1.099568486213684,3.5304174423217773,7.032184400590787,6.765337420613416,28.22943894801256,24.5668190078405,-9.713172767078504e-05,0.098061554133892,0,0,0
2321,84567.58735298374,2010-12-21 11:39:17,2041.0245216561984,7,8,-1.099568486213684,3.526855945587158,7.032184400590787,6.774506262359381,28.22943894801256,24.599172263410612,-9.713172767078504e-05,0.098061554133892,0,0,0
2322,84597.6022830879,2010-12-21 11:39:47,2071.039451740292,7,8,-1.0997490882873535,3.523132562637329,7.032184400590787,6.78367501912596,28.22943894801256,24.631492494895717,-6.47544875391759e-05,0.098061554133892,0,0,0
2323,84627.61723127704,2010-12-21 11:40:17,2101.0543998492403,7,8,-1.0997490882873535,3.5194091796875,7.032184400590787,6.792843757789445,28.22943894801256,24.66377849983712,-9.713172767078504e-05,0.098061554133892,0,0,0
2324,84657.63227796128,2010-12-21 11:40:47,2131.069446558552,7,8,-1.0997490882873535,3.515685796737671,7.032184400590787,6.802012510062341,28.22943894801256,24.696030297821096,-0.0001295089750783,0.098061554133892,0,0,0
2325,84687.64756073804,2010-12-21 11:41:17,2161.0847294104947,7,8,-1.0997490882873535,3.511800527572632,7.032184400590787,6.811181432432361,28.22943894801256,24.728247636032822,-6.47544875391759e-05,0.098061554133892,0,0,0
2326,84717.66240466273,2010-12-21 11:41:47,2191.099573350222,7,8,-1.0997490882873535,3.507591724395752,7.032184400590787,6.820350179417072,28.22943894801256,24.760427534507716,-0.0001295089750783,0.098061554133892,0,0,0
2327,84747.68040818996,2010-12-21 11:42:17,2221.1175768924986,7,8,-1.0997490882873535,3.503382682800293,7.032184400590787,6.829519836595275,28.22943894801256,24.79257205134471,-0.0001295089750783,0.098061554133892,0,0,0
2328,84777.69259879197,2010-12-21 11:42:47,2251.129767454396,7,8,-1.099568486213684,3.498849868774414,7.032184400590787,6.838687714311001,28.22943894801256,24.82467066954744,-0.0001618862152099,0.098061554133892,0,0,0
2329,84807.7077300216,2010-12-21 11:43:17,2281.144898623884,7,8,-1.0997490882873535,3.494317054748535,7.032184400590787,6.847856569388584,28.22943894801256,24.85673093623682,-0.0001295089750783,0.098061554133892,0,0,0
2330,84837.72299355046,2010-12-21 11:43:47,2311.160162232941,7,8,-1.0997490882873535,3.4894604682922363,7.032184400590787,6.857025423311643,28.22943894801256,24.888747060719155,-0.0001295089750783,0.098061554133892,0,0,0
2331,84867.73773448388,2010-12-21 11:44:17,2341.1749030560663,7,8,-1.099568486213684,3.484118223190308,7.032184400590787,6.86619415729447,28.22943894801256,24.92071604562036,-0.0001295089750783,0.098061554133892,0,0,0
2332,84897.75290973304,2010-12-21 11:44:47,2371.190078385444,7,8,-1.099568486213684,3.478290319442749,7.032184400590787,6.875362839968431,28.22943894801256,24.952634546147323,-0.0001618862152099,0.098061554133892,0,0,0
2333,84927.76794579586,2010-12-21 11:45:17,2401.205114463299,7,8,-1.0997490882873535,3.4721386432647705,7.032184400590787,6.884531601984867,28.22943894801256,24.98449825287146,-0.0001295089750783,0.098061554133892,0,0,0
2334,84957.78306377251,2010-12-21 11:45:47,2431.2202324499813,7,8,-1.0997490882873535,3.465015649795532,7.032184400590787,6.893700398188386,28.22943894801256,25.01630136768912,-0.0002266406954731,0.098061554133892,0,0,0
2335,84987.79801135516,2010-12-21 11:46:17,2461.2351799273574,7,8,-1.0997490882873535,3.457083225250244,7.032184400590787,6.90286911473482,28.22943894801256,25.04803538119937,-0.0001942634553415,0.098061554133892,0,0,0
2336,85017.81304395436,2010-12-21 11:46:47,2491.250212551619,7,8,-1.099568486213684,3.4480175971984863,7.032184400590787,6.912037894114617,28.22943894801256,25.079691827409203,-0.0002590179501567,0.098061554133892,0,0,0
2337,85047.82810141542,2010-12-21 11:47:17,2521.265269992636,7,8,-1.099568486213684,3.437171220779419,7.032184400590787,6.921206689151082,28.22943894801256,25.11125828319616,-0.0003561496851034,0.098061554133892,0,0,0
2338,85077.84328617828,2010-12-21 11:47:47,2551.280454750475,7,8,-1.0997490882873535,3.424382448196411,7.032184400590787,6.93037546866989,28.22943894801256,25.142716671825568,-0.0003885269106831,0.098061554133892,0,0,0
2339,85107.8582395002,2010-12-21 11:48:17,2581.295408077408,7,8,-1.0997490882873535,3.408841371536255,7.032184400590787,6.939544247443113,28.22943894801256,25.174045818598497,-0.0004209041653666,0.098061554133892,0,0,0
2340,85137.87333771266,2010-12-21 11:48:47,2611.310506380107,7,8,-1.099568486213684,3.3897387981414795,7.032184400590787,6.948713041279512,28.22943894801256,25.205216302162512,-0.0005504131549969,0.098061554133892,0,0,0
2341,85167.88837878796,2010-12-21 11:49:17,2641.3255474453736,7,8,-1.099568486213684,3.3654558658599854,7.032184400590787,6.957881842258686,28.22943894801256,25.23618930587744,-0.0007122993702068,0.098061554133892,0,0,0
2342,85197.90344776268,2010-12-21 11:49:47,2671.340616334879,7,8,-1.0997490882873535,3.333564519882202,7.032184400590787,6.967050630105332,28.22943894801256,25.26690707337667,-0.0009713172912597,0.098061554133892,0,0,0
2343,85227.91849697322,2010-12-21 11:50:17,2701.355665545415,7,8,-1.0997490882873535,3.2914741039276123,7.032184400590787,6.97621943157299,28.22943894801256,25.297288006927143,-0.0012303352123126,0.098061554133892,0,0,0
2344,85257.93354476521,2010-12-21 11:50:47,2731.3707133524576,7,8,-1.0997490882873535,3.234814167022705,7.032184400590787,6.985388221186611,28.22943894801256,25.32722045394196,-0.0017483711708337,0.098061554133892,0,0,0
2345,85287.94862192532,2010-12-21 11:51:17,2761.3857904975075,7,8,-1.0997490882873535,3.1577565670013428,7.032184400590787,6.994557029827489,28.22943894801256,25.35654628620188,-0.0023635388351976,0.098061554133892,0,0,0
2346,85317.96366817346,2010-12-21 11:51:47,2791.4008367707333,7,8,-1.099929690361023,3.045893430709839,7.032184400590787,7.003725860496098,28.22943894801256,25.38502055773161,-0.0035614967346191,0.098061554133892,0,0,0
2347,85347.9787496894,2010-12-21 11:52:17,2821.415918291672,7,8,-1.0997490882873535,2.8673336505889893,7.032184400590787,7.012894663814345,28.22943894801256,25.4121970081472,-0.0058278562501072,0.098061554133892,0,0,0
2348,85367.82209271031,2010-12-21 11:52:37,2841.2592612824988,7,8,-1.0993878841400146,2.699943780899048,7.032184400590787,7.018956250882492,28.22943894801256,25.42908388164728,-0.0071229459717869,0.098061554133892,0,0,0
2349,85427.83888051337,2010-12-21 11:53:37,60.0144679753078,8,8,0.0,3.4468843936920166,7.032184400590787,7.018956250882492,28.22943894801256,25.42908388164728,0.0013598442310467,0.098061554133892,0,0,0
2350,85428.02964877895,2010-12-21 11:53:38,0.187340825438688,9,8,0.002509286860004,3.4478557109832764,7.032184531171859,7.018956250882492,28.229439398237258,25.42908388164728,0.0,0.0956302732229232,0,0,0
2351,85432.85779410289,2010-12-21 11:53:43,5.015486179454258,9,8,0.0007031940040178,3.4554643630981445,7.032185471909675,7.018956250882492,28.229442645650906,25.42908388164728,0.0011979580158367,0.0956302732229232,0,0,0
