Data_Point,Test_Time(s),Date_Time,Step_Time(s),Step_Index,Cycle_Index,Current(A),Voltage(V),Charge_Capacity(Ah),Discharge_Capacity(Ah),Charge_Energy(Wh),Discharge_Energy(Wh),dV/dt(V/s),Internal_Resistance(Ohm),Is_FC_Data,AC_Impedance(Ohm),ACI_Phase_Angle(Deg)
4683,170104.98319458804,2010-12-22 11:25:05,30.01508565622916,1,17,0.0,3.4959359169006348,13.990833172693009,13.97445222558966,56.1621854606911,50.62342398581324,0.0007770538213662,0.0970755815505981,0,0,0
4684,170134.99837655894,2010-12-22 11:25:35,60.03026762713368,1,17,0.0,3.51989483833313,13.990833172693009,13.97445222558966,56.1621854606911,50.62342398581324,0.0005827903514727,0.0970755815505981,0,0,0
4685,170165.01341760915,2010-12-22 11:26:05,90.04530869239994,1,17,0.0,3.5377023220062256,13.990833172693009,13.97445222558966,56.1621854606911,50.62342398581324,0.0004209041653666,0.0970755815505981,0,0,0
4686,170194.9815250469,2010-12-22 11:26:35,120.0134161552016,1,17,0.0,3.5516245365142822,13.990833172693009,13.97445222558966,56.1621854606911,50.62342398581324,0.0003561496851034,0.0970755815505981,0,0,0
4687,170224.99736723796,2010-12-22 11:27:05,30.015407853003435,2,17,0.5501165986061096,3.692626953125,13.995419732929353,13.97445222558966,56.17899812251091,50.62342398581324,0.0011655807029455,0.0970755815505981,0,0,0
4688,170255.01210398093,2010-12-22 11:27:35,60.0301444957259,2,17,0.5501165986061096,3.726623058319092,14.000006174819667,13.97445222558966,56.19601729131227,50.62342398581324,0.0007770538213662,0.0970755815505981,0,0,0
4689,170285.02740928376,2010-12-22 11:28:05,90.045449818587,2,17,0.5501165986061096,3.750258445739746,14.004592836020931,13.97445222558966,56.21316663178476,50.62342398581324,0.0005504131549969,0.0970755815505981,0,0,0
4690,170315.04245329133,2010-12-22 11:28:35,120.06049390136224,2,17,0.5501165986061096,3.766932487487793,14.009179336649124,13.97445222558966,56.23040750011502,50.62342398581324,0.0003561496851034,0.0970755815505981,0,0,0
4691,170345.05737917498,2010-12-22 11:29:05,150.07541972986624,2,17,0.5501165986061096,3.77826452255249,14.01376588659558,13.97445222558966,56.247712664782746,50.62342398581324,0.0002590179501567,0.0970755815505981,0,0,0
4692,170375.0725143745,2010-12-22 11:29:35,180.09055488928217,2,17,0.5501165986061096,3.786035060882568,14.018352405625867,13.97445222558966,56.26506077302123,50.62342398581324,0.0001618862152099,0.0970755815505981,0,0,0
4693,170405.0874736011,2010-12-22 11:30:05,210.1055141108836,2,17,0.5501165986061096,3.792348623275757,14.022938963944178,13.97445222558966,56.28244074004192,50.62342398581324,0.0001618862152099,0.0970755815505981,0,0,0
4694,170435.10252851585,2010-12-22 11:30:35,240.1205690306262,2,17,0.5501165986061096,3.797852754592896,14.027525467768966,13.97445222558966,56.299846964322725,50.62342398581324,0.0001618862152099,0.0970755815505981,0,0,0
4695,170465.11772731863,2010-12-22 11:31:05,270.13576783341625,2,17,0.5499359965324402,3.802871227264404,14.032112042738202,13.97445222558966,56.3172773815209,50.62342398581324,0.0001295089750783,0.0970755815505981,0,0,0
4696,170495.1326781393,2010-12-22 11:31:35,300.1507186591248,2,17,0.5501165986061096,3.807565927505493,14.036698610770662,13.97445222558966,56.334730201297305,50.62342398581324,0.0001295089750783,0.0970755815505981,0,0,0
4697,170525.14778273267,2010-12-22 11:32:05,330.1658232474658,2,17,0.5499359965324402,3.812098741531372,14.04128512484304,13.97445222558966,56.35220423109334,50.62342398581324,0.0001295089750783,0.0970755815505981,0,0,0
4698,170555.16282329673,2010-12-22 11:32:35,360.1808638064723,2,17,0.550297200679779,3.816631555557251,14.045871709515144,13.97445222558966,56.36969939833372,50.62342398581324,0.0001295089750783,0.0970755815505981,0,0,0
4699,170585.17789678765,2010-12-22 11:33:05,390.1959372974286,2,17,0.5501165986061096,3.82100248336792,14.050458181490434,13.97445222558966,56.38721388684683,50.62342398581324,0.0001295089750783,0.0970755815505981,0,0,0
4700,170615.19296962197,2010-12-22 11:33:35,420.2110101367634,2,17,0.5499359965324402,3.824887752532959,14.055044739428544,13.97445222558966,56.40474781595753,50.62342398581324,9.713172767078504e-05,0.0970755815505981,0,0,0
4701,170645.2080621403,2010-12-22 11:34:05,450.2261026500561,2,17,0.5501165986061096,3.828773021697998,14.059631242673092,13.97445222558966,56.42230008333175,50.62342398581324,6.47544875391759e-05,0.0970755815505981,0,0,0
4702,170675.22314335546,2010-12-22 11:34:35,480.2411838702464,2,17,0.550297200679779,3.832982063293457,14.064217718477428,13.97445222558966,56.43987050717671,50.62342398581324,9.713172767078504e-05,0.0970755815505981,0,0,0
4703,170705.23818760365,2010-12-22 11:35:05,510.2562281184332,2,17,0.550297200679779,3.836705207824707,14.06880429105742,13.97445222558966,56.45745913219992,50.62342398581324,9.713172767078504e-05,0.0970755815505981,0,0,0
4704,170735.25327569092,2010-12-22 11:35:35,540.271316205712,2,17,0.5501165986061096,3.840590476989746,14.073390772891756,13.97445222558966,56.47506512098005,50.62342398581324,9.713172767078504e-05,0.0970755815505981,0,0,0
4705,170765.26832707188,2010-12-22 11:36:05,570.2863675816359,2,17,0.5501165986061096,3.844475746154785,14.077977251688228,13.97445222558966,56.492688710541216,50.62342398581324,9.713172767078504e-05,0.0970755815505981,0,0,0
4706,170795.28339032733,2010-12-22 11:36:35,600.3014308371215,2,17,0.5501165986061096,3.8481991291046143,14.082563768569866,13.97445222558966,56.51032996760508,50.62342398581324,0.0001295089750783,0.0970755815505981,0,0,0
4707,170825.2984724247,2010-12-22 11:37:05,630.3165129344947,2,17,0.5501165986061096,3.852084398269653,14.087150254780289,13.97445222558966,56.527988444700384,50.62342398581324,0.0001295089750783,0.0970755815505981,0,0,0
4708,170855.31353770025,2010-12-22 11:37:35,660.3315782100071,2,17,0.5499359965324402,3.855645895004273,14.091736778626792,13.97445222558966,56.54566425321045,50.62342398581324,6.47544875391759e-05,0.0970755815505981,0,0,0
4709,170885.32862430884,2010-12-22 11:38:05,690.3466648236188,2,17,0.550297200679779,3.8596930503845215,14.096323278503872,13.97445222558966,56.56335713529533,50.62342398581324,0.0001295089750783,0.0970755815505981,0,0,0
4710,170915.34371436102,2010-12-22 11:38:35,720.3617549660116,2,17,0.5501165986061096,3.8632545471191406,14.100909826236377,13.97445222558966,56.58106713555458,50.62342398581324,0.0001295089750783,0.0970755815505981,0,0,0
4711,170945.35891768002,2010-12-22 11:39:05,750.3769582198779,2,17,0.5499359965324402,3.86665415763855,14.10549632812441,13.97445222558966,56.598793524965046,50.62342398581324,9.713172767078504e-05,0.0970755815505981,0,0,0
4712,170975.3738434183,2010-12-22 11:39:35,780.3918839330951,2,17,0.5499359965324402,3.870215654373169,14.110082774771978,13.97445222558966,56.61653595832902,50.62342398581324,9.713172767078504e-05,0.0970755815505981,0,0,0
4713,171005.38881685527,2010-12-22 11:40:05,810.4068573650584,2,17,0.550297200679779,3.873777151107788,14.114669250268689,13.97445222558966,56.63429423712645,50.62342398581324,0.0001295089750783,0.0970755815505981,0,0,0
4714,171035.40407996808,2010-12-22 11:40:36,840.4221205079563,2,17,0.5499359965324402,3.876691102981568,14.119255758176443,13.97445222558966,56.65206767909579,50.62342398581324,9.713172767078504e-05,0.0970755815505981,0,0,0
4715,171065.41913938904,2010-12-22 11:41:06,870.4371799038375,2,17,0.5499359965324402,3.879928827285767,14.123842199542022,13.97445222558966,56.66985542328345,50.62342398581324,9.713172767078504e-05,0.0970755815505981,0,0,0
4716,171095.43423564165,2010-12-22 11:41:36,900.4522761614478,2,17,0.5499359965324402,3.882680892944336,14.128428722450517,13.97445222558966,56.68765740671828,50.62342398581324,3.237724376958795e-05,0.0970755815505981,0,0,0
4717,171125.4491715402,2010-12-22 11:42:06,930.467212049986,2,17,0.5499359965324402,3.885432958602905,14.133015211779506,13.97445222558966,56.70547244184394,50.62342398581324,3.237724376958795e-05,0.0970755815505981,0,0,0
4718,171155.4642458933,2010-12-22 11:42:36,960.4822864030876,2,17,0.5499359965324402,3.888346910476685,14.137601760363038,13.97445222558966,56.72330035056537,50.62342398581324,6.47544875391759e-05,0.0970755815505981,0,0,0
4719,171185.47929796597,2010-12-22 11:43:06,990.497338480758,2,17,0.550297200679779,3.890937089920044,14.142188233208833,13.97445222558966,56.74113994460008,50.62342398581324,9.713172767078504e-05,0.0970755815505981,0,0,0
4720,171215.4943710108,2010-12-22 11:43:36,1020.5124115205916,2,17,0.5499359965324402,3.893203496932984,14.14677481153574,13.97445222558966,56.75899138301886,50.62342398581324,3.237724376958795e-05,0.0970755815505981,0,0,0
4721,171245.50967560688,2010-12-22 11:44:06,1050.527716116644,2,17,0.5501165986061096,3.895469903945923,14.15136143302102,13.97445222558966,56.77685356859347,50.62342398581324,9.713172767078504e-05,0.0970755815505981,0,0,0
4722,171275.52455203244,2010-12-22 11:44:36,1080.5425926023606,2,17,0.5497553944587708,3.8977363109588623,14.155947958340878,13.97445222558966,56.794725466387504,50.62342398581324,6.47544875391759e-05,0.0970755815505981,0,0,0
4723,171305.5395834086,2010-12-22 11:45:06,1110.557623918366,2,17,0.5501165986061096,3.899678945541382,14.160534540632876,13.97445222558966,56.81260742013488,50.62342398581324,3.237724376958795e-05,0.0970755815505981,0,0,0
4724,171335.55465735067,2010-12-22 11:45:36,1140.5726978654577,2,17,0.5501165986061096,3.9017834663391113,14.165121040806952,13.97445222558966,56.830498342414266,50.62342398581324,6.47544875391759e-05,0.0970755815505981,0,0,0
4725,171365.56977112687,2010-12-22 11:46:06,1170.5878116416625,2,17,0.5499359965324402,3.903402328491211,14.16970762933045,13.97445222558966,56.84839872141403,50.62342398581324,3.237724376958795e-05,0.0970755815505981,0,0,0
4726,171395.584793651,2010-12-22 11:46:36,1200.602834165789,2,17,0.5501165986061096,3.905506849288941,14.174294199507743,13.97445222558966,56.86630773733957,50.62342398581324,6.47544875391759e-05,0.0970755815505981,0,0,0
4727,171425.59986548783,2010-12-22 11:47:06,1230.6179060026295,2,17,0.5499359965324402,3.90728759765625,14.178880673692356,13.97445222558966,56.88422486909285,50.62342398581324,3.237724376958795e-05,0.0970755815505981,0,0,0
4728,171455.6149417908,2010-12-22 11:47:36,1260.632982300571,2,17,0.5501165986061096,3.9092302322387695,14.18346722459094,13.97445222558966,56.90215069748504,50.62342398581324,3.237724376958795e-05,0.0970755815505981,0,0,0
4729,171485.6300278831,2010-12-22 11:48:06,1290.6480683928853,2,17,0.550297200679779,3.911172866821289,14.188053782508788,13.97445222558966,56.92008480967316,50.62342398581324,9.713172767078504e-05,0.0970755815505981,0,0,0
4730,171515.64510590033,2010-12-22 11:48:36,1320.6631465304044,2,17,0.5501165986061096,3.9127917289733887,14.192640308705537,13.97445222558966,56.938026963055904,50.62342398581324,3.237724376958795e-05,0.0970755815505981,0,0,0
4731,171545.66015848928,2010-12-22 11:49:06,1350.6781990040602,2,17,0.5501165986061096,3.914572238922119,14.197226867612027,13.97445222558966,56.95597732957414,50.62342398581324,6.47544875391759e-05,0.0970755815505981,0,0,0
4732,171575.67537038465,2010-12-22 11:49:36,1380.6934109244928,2,17,0.5501165986061096,3.9163529872894287,14.201813538035465,13.97445222558966,56.97393610862009,50.62342398581324,3.237724376958795e-05,0.0970755815505981,0,0,0
4733,171605.6903042331,2010-12-22 11:50:06,1410.7083447428795,2,17,0.5501165986061096,3.9181337356567374,14.206400048572212,13.97445222558966,56.99190229289327,50.62342398581324,6.47544875391759e-05,0.0970755815505981,0,0,0
4734,171635.70534491743,2010-12-22 11:50:36,1440.72338543221,2,17,0.5501165986061096,3.919752597808838,14.210986543694538,13.97445222558966,57.009876329254055,50.62342398581324,6.47544875391759e-05,0.0970755815505981,0,0,0
4735,171665.72040629323,2010-12-22 11:51:06,1470.7384468080186,2,17,0.5501165986061096,3.921533346176148,14.215573136607157,13.97445222558966,57.02785868453786,50.62342398581324,6.47544875391759e-05,0.0970755815505981,0,0,0
4736,171695.73548546832,2010-12-22 11:51:36,1500.7535259831195,2,17,0.5501165986061096,3.923152208328247,14.220159606043168,13.97445222558966,57.0458484301261,50.62342398581324,0.0,0.0970755815505981,0,0,0
4737,171725.75051309518,2010-12-22 11:52:06,1530.7685536049323,2,17,0.5501165986061096,3.9249329566955566,14.224746128755417,13.97445222558966,57.063846267196325,50.62342398581324,6.47544875391759e-05,0.0970755815505981,0,0,0
4738,171755.76571582272,2010-12-22 11:52:36,1560.7837563375012,2,17,0.5501165986061096,3.926551818847656,14.229332751187137,13.97445222558966,57.08185235131311,50.62342398581324,0.0,0.0970755815505981,0,0,0
4739,171785.7806841119,2010-12-22 11:53:06,1590.7987246467171,2,17,0.5501165986061096,3.928332567214966,14.233919256434111,13.97445222558966,57.09986585388409,50.62342398581324,3.237724376958795e-05,0.0970755815505981,0,0,0
4740,171815.79579763746,2010-12-22 11:53:36,1620.8138381472356,2,17,0.5501165986061096,3.9301133155822754,14.238505733622446,13.97445222558966,57.1178870978858,50.62342398581324,6.47544875391759e-05,0.0970755815505981,0,0,0
4741,171845.81086532396,2010-12-22 11:54:06,1650.828905833748,2,17,0.5499359965324402,3.931894063949585,14.243092276616377,13.97445222558966,57.13591653308673,50.62342398581324,9.713172767078504e-05,0.0970755815505981,0,0,0
4742,171875.82594060438,2010-12-22 11:54:36,1680.8439811191697,2,17,0.5499359965324402,3.9333510398864746,14.247678764645771,13.97445222558966,57.15395367066743,50.62342398581324,3.237724376958795e-05,0.0970755815505981,0,0,0
4743,171905.84104721274,2010-12-22 11:55:06,1710.8590877275374,2,17,0.5499359965324402,3.935131788253784,14.252265301431462,13.97445222558966,57.171998897786,50.62342398581324,3.237724376958795e-05,0.0970755815505981,0,0,0
4744,171935.85607987212,2010-12-22 11:55:36,1740.8741203868858,2,17,0.5501165986061096,3.937074422836304,14.256851860097653,13.97445222558966,57.19005201541785,50.62342398581324,6.47544875391759e-05,0.0970755815505981,0,0,0
4745,171965.8711487666,2010-12-22 11:56:06,1770.8891892763916,2,17,0.5499359965324402,3.9386932849884033,14.261438339494733,13.97445222558966,57.208112800020224,50.62342398581324,3.237724376958795e-05,0.0970755815505981,0,0,0
4746,171995.8862229894,2010-12-22 11:56:36,1800.9042635342564,2,17,0.5497553944587708,3.940312147140503,14.266024820257496,13.97445222558966,57.22618141602823,50.62342398581324,3.237724376958795e-05,0.0970755815505981,0,0,0
4747,172025.90140563197,2010-12-22 11:57:06,1830.919446216932,2,17,0.5501165986061096,3.942092895507813,14.270611381555955,13.97445222558966,57.24425823581242,50.62342398581324,3.237724376958795e-05,0.0970755815505981,0,0,0
4748,172055.91634724473,2010-12-22 11:57:36,1860.9343877645529,2,17,0.5501165986061096,3.943873643875122,14.275197852214626,13.97445222558966,57.26234266205831,50.62342398581324,6.47544875391759e-05,0.0970755815505981,0,0,0
4749,172085.931584804,2010-12-22 11:58:06,1890.9496253237864,2,17,0.5499359965324402,3.9454925060272217,14.279784425281743,13.97445222558966,57.28043549707044,50.62342398581324,3.237724376958795e-05,0.0970755815505981,0,0,0
4750,172115.9465181913,2010-12-22 11:58:36,1920.9645588263872,2,17,0.550297200679779,3.947435140609741,14.28437095805032,13.97445222558966,57.2985361892944,50.62342398581324,6.47544875391759e-05,0.0970755815505981,0,0,0
4751,172145.96190985903,2010-12-22 11:59:06,1950.979950449002,2,17,0.5501165986061096,3.949054002761841,14.288957547577413,13.97445222558966,57.31664513222962,50.62342398581324,3.237724376958795e-05,0.0970755815505981,0,0,0
4752,172175.9766356648,2010-12-22 11:59:36,1980.9946761895949,2,17,0.5501165986061096,3.9508347511291504,14.293544005621328,13.97445222558966,57.33476158847808,50.62342398581324,3.237724376958795e-05,0.0970755815505981,0,0,0
4753,172205.99193259177,2010-12-22 12:00:06,2011.0099731917503,2,17,0.5499359965324402,3.95261549949646,14.298130604501113,13.97445222558966,57.35288673512343,50.62342398581324,6.47544875391759e-05,0.0970755815505981,0,0,0
4754,172236.00695538655,2010-12-22 12:00:36,2041.024995996576,2,17,0.5501165986061096,3.9543962478637695,14.302717126603127,13.97445222558966,57.371019703561615,50.62342398581324,6.47544875391759e-05,0.0970755815505981,0,0,0
4755,172266.02187446327,2010-12-22 12:01:06,2071.039914983054,2,17,0.5501165986061096,3.956176996231079,14.307303644520436,13.97445222558966,57.3891608061504,50.62342398581324,3.237724376958795e-05,0.0970755815505981,0,0,0
4756,172296.0369260447,2010-12-22 12:01:36,2101.0549665644894,2,17,0.5501165986061096,3.9577958583831783,14.311890154930625,13.97445222558966,57.40730993370829,50.62342398581324,-3.237724376958795e-05,0.0970755815505981,0,0,0
4757,172326.05200432256,2010-12-22 12:02:06,2131.07004484737,2,17,0.5499359965324402,3.959576606750488,14.316476621270413,13.97445222558966,57.42546702979876,50.62342398581324,0.0,0.0970755815505981,0,0,0
4758,172356.06739231612,2010-12-22 12:02:36,2161.085432956241,2,17,0.5501165986061096,3.961519241333008,14.321063172931058,13.97445222558966,57.44363269157411,50.62342398581324,3.237724376958795e-05,0.0970755815505981,0,0,0
4759,172386.0821300165,2010-12-22 12:03:06,2191.100170536296,2,17,0.5501165986061096,3.9634618759155273,14.325649562763742,13.97445222558966,57.46180596677134,50.62342398581324,6.47544875391759e-05,0.0970755815505981,0,0,0
4760,172416.09744599086,2010-12-22 12:03:36,2221.115486595875,2,17,0.550297200679779,3.965242624282837,14.330235909309671,13.97445222558966,57.47998737664455,50.62342398581324,6.47544875391759e-05,0.0970755815505981,0,0,0
4761,172446.11242391902,2010-12-22 12:04:06,2251.130464503977,2,17,0.5499359965324402,3.966861486434937,14.33482229751737,13.97445222558966,57.49817739147018,50.62342398581324,3.237724376958795e-05,0.0970755815505981,0,0,0
4762,172476.12734680518,2010-12-22 12:04:36,2281.145387340034,2,17,0.5501165986061096,3.968804121017456,14.33940869007967,13.97445222558966,57.5163757931745,50.62342398581324,3.237724376958795e-05,0.0970755815505981,0,0,0
4763,172506.14241839142,2010-12-22 12:05:06,2311.1604589062013,2,17,0.5501165986061096,3.970746755599976,14.343995154108732,13.97445222558966,57.53458295237704,50.62342398581324,6.47544875391759e-05,0.0970755815505981,0,0,0
4764,172536.1574421386,2010-12-22 12:05:36,2341.175482653372,2,17,0.5501165986061096,3.972527503967285,14.34858213109039,13.97445222558966,57.552800678274906,50.62342398581324,3.237724376958795e-05,0.0970755815505981,0,0,0
4765,172566.17252978976,2010-12-22 12:06:06,2371.1905703045654,2,17,0.5501165986061096,3.9743082523345943,14.353169539153948,13.97445222558966,57.57102870735231,50.62342398581324,3.237724376958795e-05,0.0970755815505981,0,0,0
4766,172596.187629506,2010-12-22 12:06:36,2401.2056701360693,2,17,0.550297200679779,3.976412773132324,14.357756821846936,13.97445222558966,57.58926492145007,50.62342398581324,3.237724376958795e-05,0.0970755815505981,0,0,0
4767,172626.20269788423,2010-12-22 12:07:06,2431.220738399016,2,17,0.550297200679779,3.977869749069214,14.362344241113751,13.97445222558966,57.60751026983911,50.62342398581324,0.0,0.0970755815505981,0,0,0
4768,172656.21786763976,2010-12-22 12:07:36,2461.2359081495106,2,17,0.5501165986061096,3.9802980422973633,14.366931514651352,13.97445222558966,57.6257640935225,50.62342398581324,9.713172767078504e-05,0.0970755815505981,0,0,0
4769,172686.23283739254,2010-12-22 12:08:06,2491.250877907331,2,17,0.550297200679779,3.982240676879883,14.371518763284351,13.97445222558966,57.6440269829257,50.62342398581324,6.47544875391759e-05,0.0970755815505981,0,0,0
4770,172716.24804918264,2010-12-22 12:08:36,2521.266089792676,2,17,0.550297200679779,3.9841833114624015,14.3761056993491,13.97445222558966,57.66229758391876,50.62342398581324,6.47544875391759e-05,0.0970755815505981,0,0,0
4771,172746.26299136184,2010-12-22 12:09:06,2551.281031936781,2,17,0.5501165986061096,3.986287832260132,14.380692258439227,13.97445222558966,57.68057587713549,50.62342398581324,6.47544875391759e-05,0.0970755815505981,0,0,0
4772,172776.27803175544,2010-12-22 12:09:36,2581.296072270226,2,17,0.5499359965324402,3.9880685806274414,14.385278809622728,13.97445222558966,57.69886339556768,50.62342398581324,3.237724376958795e-05,0.0970755815505981,0,0,0
4773,172806.2931043642,2010-12-22 12:10:06,2611.3111448839995,2,17,0.5499359965324402,3.990173101425171,14.389865374115857,13.97445222558966,57.71716028623454,50.62342398581324,0.0,0.0970755815505981,0,0,0
4774,172836.30819277727,2010-12-22 12:10:36,2641.3262333121265,2,17,0.5501165986061096,3.992277622222901,14.394451925813618,13.97445222558966,57.73546659688321,50.62342398581324,3.237724376958795e-05,0.0970755815505981,0,0,0
4775,172866.3232467597,2010-12-22 12:11:06,2671.3412872694744,2,17,0.5501165986061096,3.994381904602051,14.39903846284876,13.97445222558966,57.75378238813119,50.62342398581324,6.47544875391759e-05,0.0970755815505981,0,0,0
4776,172896.3383203058,2010-12-22 12:11:36,2701.3563608857426,2,17,0.5501165986061096,3.9966483116149902,14.403625063512106,13.97445222558966,57.77210818366456,50.62342398581324,6.47544875391759e-05,0.0970755815505981,0,0,0
4777,172926.3533940925,2010-12-22 12:12:06,2731.3714346022603,2,17,0.5501165986061096,3.9985909461975098,14.408211660599395,13.97445222558966,57.79044377147526,50.62342398581324,3.237724376958795e-05,0.0970755815505981,0,0,0
4778,172956.36845228038,2010-12-22 12:12:37,2761.386492790135,2,17,0.5501165986061096,4.000857353210449,14.41279818668791,13.97445222558966,57.80878891921649,50.62342398581324,3.23295607813634e-05,0.0970755815505981,0,0,0
4779,172986.3836512235,2010-12-22 12:13:07,2791.4016918084617,2,17,0.5501165986061096,4.003123760223389,14.417384743458424,13.97445222558966,57.82714426268979,50.62342398581324,6.47544875391759e-05,0.0970755815505981,0,0,0
4780,173016.3986687903,2010-12-22 12:13:37,2821.416709360216,2,17,0.550297200679779,4.005390167236328,14.421971280683636,13.97445222558966,57.8455096825895,50.62342398581324,6.47544875391759e-05,0.0970755815505981,0,0,0
4781,173046.41368888336,2010-12-22 12:14:07,2851.431729413194,2,17,0.5499359965324402,4.007494926452637,14.426557857854254,13.97445222558966,57.8638856053624,50.62342398581324,6.47544875391759e-05,0.0970755815505981,0,0,0
4782,173076.4287593819,2010-12-22 12:14:37,2881.4467999016783,2,17,0.5501165986061096,4.010085105895996,14.4311444536759,13.97445222558966,57.88227200373121,50.62342398581324,0.0001295089750783,0.0970755815505981,0,0,0
4783,173106.44380838188,2010-12-22 12:15:07,2911.4618488916653,2,17,0.5501165986061096,4.0121893882751465,14.43573108118489,13.97445222558966,57.90066911383878,50.62342398581324,9.70840483205393e-05,0.0970755815505981,0,0,0
4784,173136.4588822588,2010-12-22 12:15:37,2941.476922768581,2,17,0.5499359965324402,4.014455795288086,14.44031767301834,13.97445222558966,57.919076722137966,50.62342398581324,3.23295607813634e-05,0.0970755815505981,0,0,0
4785,173166.4739753335,2010-12-22 12:16:07,2971.4920158532964,2,17,0.5501165986061096,4.016884326934815,14.444904290025615,13.97445222558966,57.93749522039448,50.62342398581324,6.47544875391759e-05,0.0970755815505981,0,0,0
4786,173196.48903002267,2010-12-22 12:16:37,3001.507070542465,2,17,0.5501165986061096,4.019312381744385,14.449490927580612,13.97445222558966,57.95592464411386,50.62342398581324,6.47544875391759e-05,0.0970755815505981,0,0,0
4787,173226.50408968923,2010-12-22 12:17:07,3031.522130198995,2,17,0.5499359965324402,4.021740913391113,14.454077494072775,13.97445222558966,57.97436458228219,50.62342398581324,6.47544875391759e-05,0.0970755815505981,0,0,0
4788,173256.51930825622,2010-12-22 12:17:37,3061.5373487759925,2,17,0.5501165986061096,4.024168968200684,14.45866413120076,13.97445222558966,57.992815946892094,50.62342398581324,9.70840483205393e-05,0.0970755815505981,0,0,0
4789,173286.53426452045,2010-12-22 12:18:07,3091.552305135472,2,17,0.5501165986061096,4.026597499847412,14.46325067483862,13.97445222558966,58.01127818767549,50.62342398581324,6.47544875391759e-05,0.0970755815505981,0,0,0
4790,173316.54936925415,2010-12-22 12:18:37,3121.5674098591494,2,17,0.550297200679779,4.029025554656982,14.467837229818924,13.97445222558966,58.029751811889824,50.62342398581324,3.23295607813634e-05,0.0970755815505981,0,0,0
4791,173346.56438297636,2010-12-22 12:19:07,3151.582423496161,2,17,0.5497553944587708,4.031291961669922,14.472423780090436,13.97445222558966,58.04823679126832,50.62342398581324,0.0,0.0970755815505981,0,0,0
4792,173376.57944902882,2010-12-22 12:19:37,3181.5974895435947,2,17,0.550297200679779,4.034205913543701,14.4770103415147,13.97445222558966,58.06673340343697,50.62342398581324,9.70840483205393e-05,0.0970755815505981,0,0,0
4793,173406.59452662998,2010-12-22 12:20:07,3211.612567139767,2,17,0.5499359965324402,4.036633968353272,14.481596925442584,13.97445222558966,58.085241784438026,50.62342398581324,9.70840483205393e-05,0.0970755815505981,0,0,0
4794,173436.60958258732,2010-12-22 12:20:37,3241.6276231021043,2,17,0.550297200679779,4.03938627243042,14.486183505063773,13.97445222558966,58.10376202794984,50.62342398581324,9.71794142969884e-05,0.0970755815505981,0,0,0
4795,173466.62477581622,2010-12-22 12:21:07,3271.6428163911733,2,17,0.5501165986061096,4.04181432723999,14.490770152968688,13.97445222558966,58.122294435572464,50.62342398581324,6.47544875391759e-05,0.0970755815505981,0,0,0
4796,173496.63972780984,2010-12-22 12:21:37,3301.6577683196265,2,17,0.5501165986061096,4.044566631317139,14.495356771456803,13.97445222558966,58.14083881836059,50.62342398581324,6.47544875391759e-05,0.0970755815505981,0,0,0
4797,173526.6548050652,2010-12-22 12:22:07,3331.672845680212,2,17,0.5501165986061096,4.046994686126709,14.499943364654529,13.97445222558966,58.15939527183934,50.62342398581324,3.23295607813634e-05,0.0970755815505981,0,0,0
4798,173556.66987038078,2010-12-22 12:22:37,3361.687910900587,2,17,0.550297200679779,4.049908638000488,14.504529964009846,13.97445222558966,58.177964071703045,50.62342398581324,9.70840483205393e-05,0.0970755815505981,0,0,0
4799,173586.6849606184,2010-12-22 12:23:07,3391.7030011332045,2,17,0.5501165986061096,4.052498817443848,14.509116528116708,13.97445222558966,58.196545047489735,50.62342398581324,6.47544875391759e-05,0.0970755815505981,0,0,0
4800,173616.7001060534,2010-12-22 12:23:37,3421.7181466283405,2,17,0.5501165986061096,4.055251121520996,14.513703138689442,13.97445222558966,58.21513876336783,50.62342398581324,6.47544875391759e-05,0.0970755815505981,0,0,0
4801,173646.7151117256,2010-12-22 12:24:07,3451.733152240383,2,17,0.5501165986061096,4.057841300964356,14.518289760656248,13.97445222558966,58.23374511471799,50.62342398581324,0.0,0.0970755815505981,0,0,0
4802,173676.73032615226,2010-12-22 12:24:37,3481.748366687102,2,17,0.550297200679779,4.060755252838135,14.522876409880586,13.97445222558966,58.25236431268943,50.62342398581324,6.47544875391759e-05,0.0970755815505981,0,0,0
4803,173706.7452427929,2010-12-22 12:25:07,3511.76328330268,2,17,0.5501165986061096,4.063507080078125,14.527462923855198,13.97445222558966,58.27099534121706,50.62342398581324,6.47544875391759e-05,0.0970755815505981,0,0,0
4804,173736.76031421873,2010-12-22 12:25:37,3541.77835473351,2,17,0.5501165986061096,4.066421031951904,14.532049515063836,13.97445222558966,58.289639766860205,50.62342398581324,9.70840483205393e-05,0.0970755815505981,0,0,0
4805,173766.77539907294,2010-12-22 12:26:07,3571.7934395827306,2,17,0.5499359965324402,4.069173336029053,14.536636025946397,13.97445222558966,58.308296871458325,50.62342398581324,6.47544875391759e-05,0.0970755815505981,0,0,0
4806,173796.79046855393,2010-12-22 12:26:37,3601.8085090637087,2,17,0.5501165986061096,4.072248935699463,14.541222510479344,13.97445222558966,58.32696695117648,50.62342398581324,9.70840483205393e-05,0.0970755815505981,0,0,0
4807,173826.80553487205,2010-12-22 12:27:07,3631.8235753818153,2,17,0.550297200679779,4.075162887573242,14.545809054604758,13.97445222558966,58.345650492999845,50.62342398581324,9.70840483205393e-05,0.0970755815505981,0,0,0
4808,173856.82064354554,2010-12-22 12:27:37,3661.8386840553226,2,17,0.5501165986061096,4.077915191650391,14.55039561585736,13.97445222558966,58.36434747278752,50.62342398581324,6.47544875391759e-05,0.0970755815505981,0,0,0
4809,173886.83577182284,2010-12-22 12:28:07,3691.8538124027873,2,17,0.5499359965324402,4.08082914352417,14.554982168353392,13.97445222558966,58.38305800483294,50.62342398581324,6.47544875391759e-05,0.0970755815505981,0,0,0
4810,173916.83708169355,2010-12-22 12:28:37,3721.855122328641,2,17,0.5501165986061096,4.08390474319458,14.55956657959754,13.97445222558966,58.40177339756789,50.62342398581324,6.47544875391759e-05,0.0970755815505981,0,0,0
4811,173946.85022818926,2010-12-22 12:29:07,3751.868268824343,2,17,0.5499359965324402,4.0866570472717285,14.56415284487578,13.97445222558966,58.42051011491558,50.62342398581324,6.47544875391759e-05,0.0970755815505981,0,0,0
4812,173976.8653979548,2010-12-22 12:29:37,3781.8834385397504,2,17,0.550297200679779,4.090056419372559,14.568739394314903,13.97445222558966,58.43926188334078,50.62342398581324,9.70840483205393e-05,0.0970755815505981,0,0,0
4813,174006.88034148735,2010-12-22 12:30:07,3811.898381997124,2,17,0.5501165986061096,4.092970371246338,14.573325964515696,13.97445222558966,58.45802770303314,50.62342398581324,9.70840483205393e-05,0.0970755815505981,0,0,0
4814,174036.89545783497,2010-12-22 12:30:37,3841.913498344727,2,17,0.5501165986061096,4.096208095550537,14.577912535509595,13.97445222558966,58.47680755203629,50.62342398581324,0.0001295089750783,0.0970755815505981,0,0,0
4815,174066.91048398812,2010-12-22 12:31:07,3871.9285244978846,2,17,0.550297200679779,4.0992841720581055,14.58249911422712,13.97445222558966,58.49560165016462,50.62342398581324,0.0001295089750783,0.0970755815505981,0,0,0
4816,174096.9258350097,2010-12-22 12:31:37,3901.943875584628,2,17,0.5499359965324402,4.102198123931885,14.587085790738518,13.97445222558966,58.51441042438216,50.62342398581324,6.47544875391759e-05,0.0970755815505981,0,0,0
4817,174126.94076000614,2010-12-22 12:32:07,3931.958800525924,2,17,0.5501165986061096,4.105435848236084,14.591672368355932,13.97445222558966,58.53323315390666,50.62342398581324,9.71794142969884e-05,0.0970755815505981,0,0,0
4818,174156.95591297487,2010-12-22 12:32:37,3961.973953509695,2,17,0.5501165986061096,4.108673572540283,14.596258957293015,13.97445222558966,58.552070471610605,50.62342398581324,9.71794142969884e-05,0.0970755815505981,0,0,0
4819,174186.97084105897,2010-12-22 12:33:07,3991.988881658975,2,17,0.5501165986061096,4.111749172210693,14.600845583495117,13.97445222558966,58.57092263567378,50.62342398581324,6.47544875391759e-05,0.0970755815505981,0,0,0
4820,174216.98591246974,2010-12-22 12:33:37,4022.003953044692,2,17,0.5499359965324402,4.114986896514893,14.605432210764995,13.97445222558966,58.589789422567286,50.62342398581324,9.70840483205393e-05,0.0970755815505981,0,0,0
4821,174247.0009517957,2010-12-22 12:34:07,4052.0189923154926,2,17,0.5501165986061096,4.118386268615723,14.610018778889252,13.97445222558966,58.60867087353468,50.62342398581324,9.70840483205393e-05,0.0970755815505981,0,0,0
4822,174277.01612656366,2010-12-22 12:34:37,4082.0341671386095,2,17,0.5499359965324402,4.121462345123291,14.614605358943193,13.97445222558966,58.627567346566416,50.62342398581324,6.47544875391759e-05,0.0970755815505981,0,0,0
4823,174307.03117956864,2010-12-22 12:35:07,4112.049220078426,2,17,0.5501165986061096,4.124861717224121,14.619191968859198,13.97445222558966,58.646479030543,50.62342398581324,9.70840483205393e-05,0.0970755815505981,0,0,0
4824,174337.04613199836,2010-12-22 12:35:37,4142.064172508126,2,17,0.5501165986061096,4.12809944152832,14.623778489600063,13.97445222558966,58.66540554297021,50.62342398581324,6.47544875391759e-05,0.0970755815505981,0,0,0
4825,174367.0612044267,2010-12-22 12:36:07,4172.079244936438,2,17,0.5501165986061096,4.13166093826294,14.628365067127971,13.97445222558966,58.684347669804815,50.62342398581324,0.0001295089750783,0.0970755815505981,0,0,0
4826,174397.07627849907,2010-12-22 12:36:37,4202.094319013853,2,17,0.5499359965324402,4.134898662567139,14.632951701291024,13.97445222558966,58.70330538766635,50.62342398581324,9.70840483205393e-05,0.0970755815505981,0,0,0
4827,174427.09135983457,2010-12-22 12:37:07,4232.109400344319,2,17,0.5499359965324402,4.138136386871338,14.637538291597531,13.97445222558966,58.72227847840185,50.62342398581324,6.47544875391759e-05,0.0970755815505981,0,0,0
4828,174457.10643788183,2010-12-22 12:37:37,4262.124478416676,2,17,0.550297200679779,4.141860008239746,14.642124953558367,13.97445222558966,58.741267599145445,50.62342398581324,9.71794142969884e-05,0.0970755815505981,0,0,0
4829,174487.12161948183,2010-12-22 12:38:07,4292.1396600717935,2,17,0.5501165986061096,4.145259380340576,14.64671155990937,13.97445222558966,58.76027234858725,50.62342398581324,9.70840483205393e-05,0.0970755815505981,0,0,0
4830,174517.1365789641,2010-12-22 12:38:37,4322.154619478857,2,17,0.5501165986061096,4.148820877075195,14.651298129549994,13.97445222558966,58.77929316460736,50.62342398581324,6.47544875391759e-05,0.0970755815505981,0,0,0
4831,174547.15167356757,2010-12-22 12:39:07,4352.169714172575,2,17,0.5501165986061096,4.152382373809815,14.6558846852961,13.97445222558966,58.79832993634914,50.62342398581324,9.70840483205393e-05,0.0970755815505981,0,0,0
4832,174577.16702545632,2010-12-22 12:39:37,4382.18506609139,2,17,0.550297200679779,4.155782222747803,14.66047133513342,13.97445222558966,58.81738318623093,50.62342398581324,9.71794142969884e-05,0.0970755815505981,0,0,0
4833,174607.18178124668,2010-12-22 12:40:07,4412.199821756448,2,17,0.5501165986061096,4.159505367279053,14.665057818490816,13.97445222558966,58.836451981481,50.62342398581324,9.70840483205393e-05,0.0970755815505981,0,0,0
4834,174637.19688650168,2010-12-22 12:40:37,4442.214927021473,2,17,0.5499359965324402,4.162905216217041,14.669644299482004,13.97445222558966,58.85553712009295,50.62342398581324,9.71794142969884e-05,0.0970755815505981,0,0,0
4835,174667.21194619327,2010-12-22 12:41:07,4472.229986708077,2,17,0.5499359965324402,4.16646671295166,14.674230837666244,13.97445222558966,58.87463887138311,50.62342398581324,9.71794142969884e-05,0.0970755815505981,0,0,0
4836,174697.2269657701,2010-12-22 12:41:37,4502.245006304921,2,17,0.5501165986061096,4.17018985748291,14.678817379416566,13.97445222558966,58.8937572076058,50.62342398581324,0.0001295089750783,0.0970755815505981,0,0,0
4837,174727.24204319585,2010-12-22 12:42:07,4532.260083730668,2,17,0.5499359965324402,4.173751354217529,14.683404007926011,13.97445222558966,58.91289265524956,50.62342398581324,9.70840483205393e-05,0.0970755815505981,0,0,0
4838,174757.2572505499,2010-12-22 12:42:37,4562.27529108975,2,17,0.5499359965324402,4.177636623382568,14.687990653056383,13.97445222558966,58.93204486624858,50.62342398581324,0.0001295089750783,0.0970755815505981,0,0,0
4839,174787.27219098975,2010-12-22 12:43:07,4592.29023149954,2,17,0.5501165986061096,4.181036472320557,14.692577190737508,13.97445222558966,58.95121347889469,50.62342398581324,6.47544875391759e-05,0.0970755815505981,0,0,0
4840,174817.28732526698,2010-12-22 12:43:37,4622.305365841922,2,17,0.5501165986061096,4.184759616851807,14.697163781966388,13.97445222558966,58.97039929381094,50.62342398581324,6.47544875391759e-05,0.0970755815505981,0,0,0
4841,174847.30249189472,2010-12-22 12:44:07,4652.320532504733,2,17,0.5501165986061096,4.188644886016846,14.701750495613098,13.97445222558966,58.989602647555046,50.62342398581324,6.47544875391759e-05,0.0970755815505981,0,0,0
4842,174877.31745563756,2010-12-22 12:44:37,4682.335496267636,2,17,0.5499359965324402,4.192206382751465,14.70633718509522,13.97445222558966,59.00882317403197,50.62342398581324,6.47544875391759e-05,0.0970755815505981,0,0,0
4843,174907.33261783927,2010-12-22 12:45:08,4712.350658349045,2,17,0.5501165986061096,4.196091651916504,14.71092391314374,13.97445222558966,59.028061146067095,50.62342398581324,6.47544875391759e-05,0.0970755815505981,0,0,0
4844,174937.0663134021,2010-12-22 12:45:37,4742.084353921874,2,17,0.5501165986061096,4.200138568878174,14.715467553219725,13.97445222558966,59.047135563191134,50.62342398581324,9.70840483205393e-05,0.0970755815505981,0,0,0
4845,174967.0757105655,2010-12-22 12:46:07,30.015168798124563,3,17,0.0,4.110777854919434,14.715467553219725,13.97445222558966,59.047135563191134,50.62342398581324,-0.0004532813909463,0.0970755815505981,0,0,0
4846,174997.09081667263,2010-12-22 12:46:37,60.03027492529487,3,17,0.0,4.099445819854736,14.715467553219725,13.97445222558966,59.047135563191134,50.62342398581324,-0.0002590179501567,0.0970755815505981,0,0,0
4847,175027.1057281905,2010-12-22 12:47:07,90.04518641311262,3,17,0.0,4.092808723449707,14.715467553219725,13.97445222558966,59.047135563191134,50.62342398581324,-0.0001618385285837,0.0970755815505981,0,0,0
4848,175057.0739437824,2010-12-22 12:47:37,120.01340200498936,3,17,0.0,4.088599681854248,14.715467553219725,13.97445222558966,59.047135563191134,50.62342398581324,-9.70840483205393e-05,0.0970755815505981,0,0,0
4849,175057.08601954856,2010-12-22 12:47:38,0.015642270187736,4,17,1.0083223581314087,4.199814796447754,14.715471934455923,13.97445222558966,59.04715396357175,50.62342398581324,0.0,0.0970755815505981,0,0,0
4850,175057.8672491584,2010-12-22 12:47:38,0.796871875012049,4,17,0.9572099447250366,4.199653148651123,14.71568371030416,13.97445222558966,59.04804336959011,50.62342398581324,-3.23295607813634e-05,0.0970755815505981,0,0,0
4851,175059.7578195,2010-12-22 12:47:40,2.687442211580356,4,17,0.9066393375396729,4.199653148651123,14.716172147824564,13.97445222558966,59.05009469450999,50.62342398581324,-3.23295607813634e-05,0.0970755815505981,0,0,0
4852,175062.6328000385,2010-12-22 12:47:43,5.562422755086696,4,17,0.8566105365753174,4.199976921081543,14.716875118877772,13.97445222558966,59.053047009884416,50.62342398581324,3.24249267578125e-05,0.0970755815505981,0,0,0
4853,175066.60144373568,2010-12-22 12:47:47,9.531066447274563,4,17,0.8064011931419373,4.199976921081543,14.7177904827348,13.97445222558966,59.05689133654002,50.62342398581324,3.24249267578125e-05,0.0970755815505981,0,0,0
4854,175071.82011382046,2010-12-22 12:47:52,14.749736557124844,4,17,0.7563723921775818,4.199653148651123,14.718921764910869,13.97445222558966,59.06164248624914,50.62342398581324,0.0,0.0970755815505981,0,0,0
4855,175078.63247480377,2010-12-22 12:47:59,21.56209751535552,4,17,0.7063436508178711,4.199814796447754,14.720303701135313,13.97445222558966,59.06744633412863,50.62342398581324,3.23295607813634e-05,0.0970755815505981,0,0,0
4856,175087.63230929573,2010-12-22 12:48:08,30.561932012353825,4,17,0.6563148498535156,4.199653148651123,14.722003953849192,13.97445222558966,59.07458705238907,50.62342398581324,-3.23295607813634e-05,0.0970755815505981,0,0,0
4857,175100.14792781105,2010-12-22 12:48:21,43.077550612871256,4,17,0.6061055064201355,4.199653148651123,14.724193365513813,13.97445222558966,59.08378213183074,50.62342398581324,-3.23295607813634e-05,0.0970755815505981,0,0,0
4858,175118.9286516801,2010-12-22 12:48:39,61.85827450193366,4,17,0.55607670545578,4.199814796447754,14.727215098825726,13.97445222558966,59.096472784906126,50.62342398581324,3.23295607813634e-05,0.0970755815505981,0,0,0
4859,175150.896795331,2010-12-22 12:49:11,93.82641807266543,4,17,0.5058673620223999,4.199653148651123,14.731909438893252,13.97445222558966,59.1161880317326,50.62342398581324,0.0,0.0970755815505981,0,0,0
4860,175210.59882566726,2010-12-22 12:50:11,153.52844852922465,4,17,0.4558385610580444,4.199653148651123,14.739845463376405,13.97445222558966,59.14951767548239,50.62342398581324,-3.23295607813634e-05,0.0970755815505981,0,0,0
4861,175304.50330422545,2010-12-22 12:51:45,247.4329269570817,4,17,0.4058097898960113,4.199814796447754,14.751055187517352,13.97445222558966,59.1965958254575,50.62342398581324,0.0,0.0970755815505981,0,0,0
4862,175425.29795069725,2010-12-22 12:53:46,368.22757341885386,4,17,0.3557810187339782,4.199491024017334,14.763821407487042,13.97445222558966,59.2502106141643,50.62342398581324,-3.24249267578125e-05,0.0970755815505981,0,0,0
4863,175570.93602188592,2010-12-22 12:56:11,513.8656446075427,4,17,0.3055716454982757,4.199814796447754,14.777193245339346,13.97445222558966,59.30636965004718,50.62342398581324,0.0,0.0970755815505981,0,0,0
4864,175745.35457211477,2010-12-22 12:59:06,688.2841948313688,4,17,0.2555428743362427,4.199653148651123,14.790764273805868,13.97445222558966,59.36336534955185,50.62342398581324,-3.23295607813634e-05,0.0970755815505981,0,0,0
4865,175960.9131085971,2010-12-22 13:02:41,903.8427313287297,4,17,0.2055141180753708,4.199653148651123,14.804522151697896,13.97445222558966,59.42114567901949,50.62342398581324,-3.23295607813634e-05,0.0970755815505981,0,0,0
4866,176244.95494859625,2010-12-22 13:07:25,1187.8845714080808,4,17,0.1554853469133377,4.199814796447754,14.8186807281143,13.97445222558966,59.4806089399193,50.62342398581324,0.0,0.0970755815505981,0,0,0
4867,176672.61896497238,2010-12-22 13:14:33,1615.548587764167,4,17,0.1054565757513046,4.199653148651123,14.833994767141233,13.97445222558966,59.54492486345553,50.62342398581324,0.0,0.0970755815505981,0,0,0
4868,177494.8536467235,2010-12-22 13:28:15,2437.783269435094,4,17,0.0554278045892715,4.199814796447754,14.851704814208748,13.97445222558966,59.61930360935799,50.62342398581324,-3.24249267578125e-05,0.0970755815505981,0,0,0
4869,177645.5698975469,2010-12-22 13:30:46,2588.499520268514,4,17,0.0498289167881011,4.199814796447754,14.853929460173136,13.97445222558966,59.62864668954638,50.62342398581324,3.23295607813634e-05,0.0970755815505981,0,0,0
4870,177675.5820001725,2010-12-22 13:31:16,30.01517539453949,5,17,0.0,4.191397190093994,14.853929460173136,13.97445222558966,59.62864668954638,50.62342398581324,-9.70840483205393e-05,0.0970755815505981,0,0,0
4871,177705.58132540953,2010-12-22 13:31:46,60.01450063658412,5,17,0.0,4.1901021003723145,14.853929460173136,13.97445222558966,59.62864668954638,50.62342398581324,0.0,0.0970755815505981,0,0,0
4872,177705.76734324763,2010-12-22 13:31:47,0.187703858833328,6,17,-1.9243103452026844e-05,4.190425872802734,14.853929460173136,13.974452226592994,59.62864668954638,50.62342399001764,0.0,0.0963535830378532,0,0,0
4873,177710.5951962341,2010-12-22 13:31:51,5.015556825253612,6,17,0.0008838032954372,4.1901021003723145,14.853930324660109,13.974452226675432,59.628650311966695,50.62342399036308,0.0,0.0963535830378532,0,0,0
4874,177740.60858424997,2010-12-22 13:32:21,30.015046188014026,7,17,-1.0997490882873535,4.004904747009277,14.853930324660109,13.983621210980852,59.628650311966695,50.660362543371726,-0.0010360718006268,0.0963535830378532,0,0,0
4875,177770.6236673097,2010-12-22 13:32:51,60.03012924778198,7,17,-1.099929690361023,3.9752795696258554,14.853930324660109,13.992790085891132,59.628650311966695,50.69693811488938,-0.0006475448608398,0.0963535830378532,0,0,0
4876,177800.63872467054,2010-12-22 13:33:21,90.04518661361159,7,17,-1.099929690361023,3.9543962478637695,14.853930324660109,14.001958928571003,59.628650311966695,50.733286518588216,-0.0004856586456298,0.0963535830378532,0,0,0
4877,177830.6538174996,2010-12-22 13:33:51,120.0602794577275,7,17,-1.0997490882873535,3.938207626342773,14.853930324660109,14.011127783417743,59.628650311966695,50.76946802292214,-0.0004209041653666,0.0963535830378532,0,0,0
4878,177860.6688668104,2010-12-22 13:34:22,150.0753287484625,7,17,-1.0997490882873535,3.9246091842651367,14.853930324660109,14.020296582852229,59.628650311966695,50.805513172130986,-0.0003237724304199,0.0963535830378532,0,0,0
4879,177890.68406359816,2010-12-22 13:34:52,180.09052554125074,7,17,-1.099568486213684,3.912144184112549,14.853930324660109,14.029465422244591,59.628650311966695,50.84143934431557,-0.0003237247583456,0.0963535830378532,0,0,0
4880,177920.6990160429,2010-12-22 13:35:22,210.1054779809757,7,17,-1.0997490882873535,3.900488376617432,14.853930324660109,14.03863422584502,59.628650311966695,50.87725587459633,-0.0003237724304199,0.0963535830378532,0,0,0
4881,177950.71409290726,2010-12-22 13:35:52,240.12055484532664,7,17,-1.0997490882873535,3.889642000198364,14.853930324660109,14.047803017658229,59.628650311966695,50.9129686273082,-0.0002590179501567,0.0963535830378532,0,0,0
4882,177980.72915595223,2010-12-22 13:36:22,270.13561789028853,7,17,-1.0997490882873535,3.878795623779297,14.853930324660109,14.05697192002518,59.628650311966695,50.94858226753093,-0.0002913951757363,0.0963535830378532,0,0,0
4883,178010.74434147193,2010-12-22 13:36:52,300.15080341002414,7,17,-1.099568486213684,3.868596792221069,14.853930324660109,14.06614031064634,59.628650311966695,50.98409754340054,-0.0002913951757363,0.0963535830378532,0,0,0
4884,178040.75937137945,2010-12-22 13:37:22,330.1658333275497,7,17,-1.0997490882873535,3.858397960662842,14.853930324660109,14.075308464157075,59.628650311966695,51.01951827806504,-0.0002266406954731,0.0963535830378532,0,0,0
4885,178070.77469972457,2010-12-22 13:37:52,360.18116166768846,7,17,-1.099568486213684,3.848684787750244,14.853930324660109,14.08447674810454,59.628650311966695,51.05484772653521,-0.0002266406954731,0.0963535830378532,0,0,0
4886,178100.7894287233,2010-12-22 13:38:22,390.1958906613767,7,17,-1.099568486213684,3.8389716148376474,14.853930324660109,14.09364483078986,59.628650311966695,51.09008721976753,-0.0002266406954731,0.0963535830378532,0,0,0
4887,178130.8045326149,2010-12-22 13:38:52,420.21099454797127,7,17,-1.0997490882873535,3.829420566558838,14.853930324660109,14.102813633121135,59.628650311966695,51.12524211766491,-0.0002590179501567,0.0963535830378532,0,0,0
4888,178160.81972200927,2010-12-22 13:39:22,450.22618397242366,7,17,-1.099568486213684,3.82035493850708,14.853930324660109,14.111982497503492,59.628650311966695,51.16031189536603,-0.0002266406954731,0.0963535830378532,0,0,0
4889,178190.83661627115,2010-12-22 13:39:52,480.2430783044731,7,17,-1.099929690361023,3.811127424240112,14.853930324660109,14.121151837467949,59.628650311966695,51.19529970637995,-0.0002590179501567,0.0963535830378532,0,0,0
4890,178220.84973822077,2010-12-22 13:40:22,510.25620024908136,7,17,-1.1001102924346924,3.8023855686187744,14.853930324660109,14.130320057487683,59.628650311966695,51.23020137339616,-0.0002266406954731,0.0963535830378532,0,0,0
4891,178250.86492577556,2010-12-22 13:40:52,540.2713877337067,7,17,-1.099929690361023,3.793643712997437,14.853930324660109,14.139488924169726,59.628650311966695,51.2650261303984,-0.0002590179501567,0.0963535830378532,0,0,0
4892,178280.8798414087,2010-12-22 13:41:22,570.2863033568149,7,17,-1.0997490882873535,3.785711288452149,14.853930324660109,14.148657747287784,59.628650311966695,51.29977282079295,-0.0001618862152099,0.0963535830378532,0,0,0
4893,178310.8950715244,2010-12-22 13:41:52,600.3015334625009,7,17,-1.099568486213684,3.77745509147644,14.853930324660109,14.157826705640066,59.628650311966695,51.33444405461845,-0.0001618862152099,0.0963535830378532,0,0,0
4894,178340.9101079331,2010-12-22 13:42:22,630.3165698812044,7,17,-1.0997490882873535,3.7693607807159424,14.853930324660109,14.166995551329764,59.628650311966695,51.36904054066242,-0.0001942634553415,0.0963535830378532,0,0,0
4895,178370.92533879567,2010-12-22 13:42:52,660.3318008440234,7,17,-1.0997490882873535,3.7614283561706543,14.853930324660109,14.176164500348232,59.628650311966695,51.40356539053533,-0.0002590179501567,0.0963535830378532,0,0,0
4896,178400.9401252022,2010-12-22 13:43:22,690.3465871352944,7,17,-1.0997490882873535,3.753981590270996,14.853930324660109,14.185333277830075,59.628650311966695,51.43801955076248,-0.0001942634553415,0.0963535830378532,0,0,0
4897,178430.9552984063,2010-12-22 13:43:52,720.3617604296074,7,17,-1.0997490882873535,3.746696949005127,14.853930324660109,14.194502195677678,59.628650311966695,51.47240567695528,-0.0001618862152099,0.0963535830378532,0,0,0
4898,178460.97027406882,2010-12-22 13:44:22,750.3767360018969,7,17,-1.099568486213684,3.739412069320679,14.853930324660109,14.203671075079122,59.628650311966695,51.506724669280416,-0.0001618862152099,0.0963535830378532,0,0,0
4899,178490.98532551996,2010-12-22 13:44:52,780.3917874580205,7,17,-1.099568486213684,3.7324509620666495,14.853930324660109,14.212839987526154,59.628650311966695,51.54097807503759,-0.0001295089750783,0.0963535830378532,0,0,0
4900,178521.00040092066,2010-12-22 13:45:22,810.4068628587293,7,17,-1.0997490882873535,3.725327968597412,14.853930324660109,14.222008860180903,59.628650311966695,51.57516694034031,-0.0001942634553415,0.0963535830378532,0,0,0
4901,178551.01548814075,2010-12-22 13:45:52,840.42195007885,7,17,-1.0997490882873535,3.7185287475585938,14.853930324660109,14.231177707816318,59.628650311966695,51.60929263251321,-0.0001618862152099,0.0963535830378532,0,0,0
4902,178581.03066001154,2010-12-22 13:46:22,870.4371219746832,7,17,-1.0997490882873535,3.711891412734986,14.853930324660109,14.240346628814237,59.628650311966695,51.643356911517536,-0.0001618862152099,0.0963535830378532,0,0,0
4903,178611.04560356415,2010-12-22 13:46:52,900.4520655272929,7,17,-1.099568486213684,3.705415964126587,14.853930324660109,14.249515509669866,59.628650311966695,51.677360070585536,-0.0001618862152099,0.0963535830378532,0,0,0
4904,178641.06080293836,2010-12-22 13:47:22,930.4672648814552,7,17,-1.0997490882873535,3.6987786293029785,14.853930324660109,14.258684430542331,59.628650311966695,51.71130329903457,-0.0001295089750783,0.0963535830378532,0,0,0
4905,178671.07576445068,2010-12-22 13:47:52,960.4822264188192,7,17,-1.0997490882873535,3.69230318069458,14.853930324660109,14.26785328761928,59.628650311966695,51.74518750917608,-0.0001618862152099,0.0963535830378532,0,0,0
4906,178701.09096707797,2010-12-22 13:48:22,990.4974290210638,7,17,-1.0997490882873535,3.6861515045166016,14.853930324660109,14.277022200676669,59.628650311966695,51.7790142663794,-0.0001618862152099,0.0963535830378532,0,0,0
4907,178731.10589200922,2010-12-22 13:48:52,1020.5123539473228,7,17,-1.0997490882873535,3.679999828338623,14.853930324660109,14.286190988168324,59.628650311966695,51.81278423154378,-0.0001942634553415,0.0963535830378532,0,0,0
4908,178761.12101165505,2010-12-22 13:49:22,1050.5274736883707,7,17,-1.0997490882873535,3.6740100383758554,14.853930324660109,14.295359885028992,59.628650311966695,51.84649925096697,-0.0001618862152099,0.0963535830378532,0,0,0
4909,178791.13605126168,2010-12-22 13:49:52,1080.5425132097953,7,17,-1.099929690361023,3.668182373046875,14.853930324660109,14.30452877110393,59.628650311966695,51.88015975774971,-0.0001618862152099,0.0963535830378532,0,0,0
4910,178821.15113106335,2010-12-22 13:50:22,1110.5575931267424,7,17,-1.0997490882873535,3.6621925830841056,14.853930324660109,14.31369765001232,59.628650311966695,51.91376630620153,-0.0001618862152099,0.0963535830378532,0,0,0
4911,178851.16629567606,2010-12-22 13:50:52,1140.572757639202,7,17,-1.099568486213684,3.656688451766968,14.853930324660109,14.32286656235995,59.628650311966695,51.94731989755912,-0.0001295089750783,0.0963535830378532,0,0,0
4912,178881.181226512,2010-12-22 13:51:22,1170.5876884751672,7,17,-1.0997490882873535,3.651184320449829,14.853930324660109,14.33203546152358,59.628650311966695,51.980822069865454,-0.0001295089750783,0.0963535830378532,0,0,0
4913,178911.19636929038,2010-12-22 13:51:52,1200.6028313036672,7,17,-1.0997490882873535,3.6456801891326895,14.853930324660109,14.341204278787757,59.628650311966695,52.01427296988288,-9.713172767078504e-05,0.0963535830378532,0,0,0
4914,178941.21138394997,2010-12-22 13:52:22,1230.6178458880368,7,17,-1.099929690361023,3.640014171600342,14.853930324660109,14.35037310322304,59.628650311966695,52.04767360107083,-0.0001942634553415,0.0963535830378532,0,0,0
4915,178971.22671137282,2010-12-22 13:52:52,1260.63317340613,7,17,-1.099568486213684,3.634833812713623,14.853930324660109,14.359542024903224,59.628650311966695,52.081025374383486,-0.0001295089750783,0.0963535830378532,0,0,0
4916,179001.2415583852,2010-12-22 13:53:22,1290.6480204335403,7,17,-1.0997490882873535,3.6294915676116943,14.853930324660109,14.368710815506722,59.628650311966695,52.11432836450241,-0.0001618862152099,0.0963535830378532,0,0,0
4917,179031.2565938415,2010-12-22 13:53:52,1320.663055804637,7,17,-1.099568486213684,3.624634981155396,14.853930324660109,14.377879630377318,59.628650311966695,52.147584127153,-0.0001295089750783,0.0963535830378532,0,0,0
4918,179061.27169398876,2010-12-22 13:54:22,1350.6781560271136,7,17,-1.099929690361023,3.6194546222686768,14.853930324660109,14.387048529990889,59.628650311966695,52.18079416306029,-0.0001295089750783,0.0963535830378532,0,0,0
4919,179091.28673971063,2010-12-22 13:54:52,1380.6932016737803,7,17,-1.099568486213684,3.614759922027588,14.853930324660109,14.396217350324113,59.628650311966695,52.2139589985829,-6.47544875391759e-05,0.0963535830378532,0,0,0
4920,179121.3017866505,2010-12-22 13:55:22,1410.7082485986282,7,17,-1.099568486213684,3.610065221786499,14.853930324660109,14.405386200426207,59.628650311966695,52.24708016816498,-9.713172767078504e-05,0.0963535830378532,0,0,0
4921,179151.3168905672,2010-12-22 13:55:52,1440.7233525253228,7,17,-1.099929690361023,3.60537052154541,14.853930324660109,14.414555078167115,59.628650311966695,52.28015901367344,-0.0001295089750783,0.0963535830378532,0,0,0
4922,179181.3319247002,2010-12-22 13:56:22,1470.7383866382884,7,17,-1.099568486213684,3.600999593734741,14.853930324660109,14.42372389482986,59.628650311966695,52.31319608504825,-9.713172767078504e-05,0.0963535830378532,0,0,0
4923,179211.3469934945,2010-12-22 13:56:52,1500.7534554275446,7,17,-1.099568486213684,3.5966286659240723,14.853930324660109,14.432892693775612,59.628650311966695,52.34619280663467,-9.713172767078504e-05,0.0963535830378532,0,0,0
4924,179241.3620657223,2010-12-22 13:57:22,1530.7685276603704,7,17,-1.099568486213684,3.5924196243286133,14.853930324660109,14.4420615687946,59.628650311966695,52.37915019939463,-0.0001295089750783,0.0963535830378532,0,0,0
4925,179271.37714689234,2010-12-22 13:57:52,1560.783608855498,7,17,-1.099568486213684,3.588372707366944,14.853930324660109,14.45123040361551,59.628650311966695,52.4120687473682,-6.47544875391759e-05,0.0963535830378532,0,0,0
4926,179301.39222098482,2010-12-22 13:58:22,1590.7986829228887,7,17,-1.099568486213684,3.5841636657714844,14.853930324660109,14.460399284637283,59.628650311966695,52.44494975252611,-0.0001295089750783,0.0963535830378532,0,0,0
4927,179331.40728056114,2010-12-22 13:58:52,1620.8137424992192,7,17,-1.099568486213684,3.5802783966064453,14.853930324660109,14.469568177237276,59.628650311966695,52.47779429500716,-9.713172767078504e-05,0.0963535830378532,0,0,0
4928,179361.42234853836,2010-12-22 13:59:22,1650.8288105015172,7,17,-1.099568486213684,3.5763931274414062,14.853930324660109,14.478737095221469,59.628650311966695,52.51060303096016,-9.713172767078504e-05,0.0963535830378532,0,0,0
4929,179391.43743606925,2010-12-22 13:59:52,1680.8438980324115,7,17,-1.0997490882873535,3.572669744491577,14.853930324660109,14.487905981852473,59.628650311966695,52.543376584480505,-6.47544875391759e-05,0.0963535830378532,0,0,0
4930,179421.43877804987,2010-12-22 14:00:22,1710.845240083207,7,17,-1.0997490882873535,3.568784475326538,14.853930324660109,14.497070634532196,59.628650311966695,52.57610134388286,-0.0001295089750783,0.0963535830378532,0,0,0
4931,179451.45200253467,2010-12-22 14:00:52,1740.8584645679823,7,17,-1.0997490882873535,3.565222978591919,14.853930324660109,14.506238913444973,59.628650311966695,52.6088055682396,-9.713172767078504e-05,0.0963535830378532,0,0,0
4932,179481.4670817599,2010-12-22 14:01:22,1770.8735438032334,7,17,-1.0997490882873535,3.5618233680725098,14.853930324660109,14.515407752422574,59.628650311966695,52.641478958800015,-9.713172767078504e-05,0.0963535830378532,0,0,0
4933,179511.48209276536,2010-12-22 14:01:52,1800.8885547284974,7,17,-1.0997490882873535,3.5580999851226807,14.853930324660109,14.524576574071808,59.628650311966695,52.67412015886688,-0.0001295089750783,0.0963535830378532,0,0,0
4934,179541.4971718402,2010-12-22 14:02:22,1830.9036337782863,7,17,-1.099568486213684,3.554862260818481,14.853930324660109,14.533745453911962,59.628650311966695,52.706729099429545,-6.47544875391759e-05,0.0963535830378532,0,0,0
4935,179571.51236065314,2010-12-22 14:02:52,1860.9188225912176,7,17,-1.099568486213684,3.5511388778686523,14.853930324660109,14.542914375577285,59.628650311966695,52.7393058890692,-0.0001295089750783,0.0963535830378532,0,0,0
4936,179601.52729889253,2010-12-22 14:03:22,1890.9337608306057,7,17,-1.0997490882873535,3.547739267349243,14.853930324660109,14.552083269506392,59.628650311966695,52.77185029149027,-6.47544875391759e-05,0.0963535830378532,0,0,0
4937,179631.54249595598,2010-12-22 14:03:52,1920.948957924142,7,17,-1.0997490882873535,3.544177770614624,14.853930324660109,14.561252264432968,59.628650311966695,52.80436286683254,-9.713172767078504e-05,0.0963535830378532,0,0,0
4938,179661.5574656236,2010-12-22 14:04:22,1950.9639275817133,7,17,-1.0997490882873535,3.540454387664795,14.853930324660109,14.570421205809076,59.628650311966695,52.83684250156939,-9.713172767078504e-05,0.0963535830378532,0,0,0
4939,179691.57251632283,2010-12-22 14:04:52,1980.9789782659152,7,17,-1.099568486213684,3.5370547771453857,14.853930324660109,14.579590208891092,59.628650311966695,52.86928913888439,-6.47544875391759e-05,0.0963535830378532,0,0,0
4940,179721.58760866566,2010-12-22 14:05:22,2010.9940706238217,7,17,-1.099568486213684,3.5331695079803467,14.853930324660109,14.588759132152006,59.628650311966695,52.90170239362436,-0.0001618862152099,0.0963535830378532,0,0,0
4941,179751.60266113933,2010-12-22 14:05:52,2041.0091231075023,7,17,-1.0997490882873535,3.529769897460937,14.853930324660109,14.597928072002375,59.628650311966695,52.93408237457668,-6.47544875391759e-05,0.0963535830378532,0,0,0
4942,179781.61773874055,2010-12-22 14:06:22,2071.024200678612,7,17,-1.0997490882873535,3.5258846282958984,14.853930324660109,14.607097022314171,59.628650311966695,52.96642888989135,-6.47544875391759e-05,0.0963535830378532,0,0,0
4943,179811.63280107873,2010-12-22 14:06:53,2101.039263016815,7,17,-1.099568486213684,3.52199935913086,14.853930324660109,14.61626597452217,59.628650311966695,52.99874021352156,-0.0001295089750783,0.0963535830378532,0,0,0
4944,179841.64800178626,2010-12-22 14:07:23,2131.054463769457,7,17,-1.0997490882873535,3.5182759761810303,14.853930324660109,14.625434914533502,59.628650311966695,53.03101610122652,-9.713172767078504e-05,0.0963535830378532,0,0,0
4945,179871.66298677697,2010-12-22 14:07:53,2161.069448790259,7,17,-1.0997490882873535,3.514228820800781,14.853930324660109,14.634603836775735,59.628650311966695,53.06325541475811,-0.0001295089750783,0.0963535830378532,0,0,0
4946,179901.67802216814,2010-12-22 14:08:23,2191.0844841312805,7,17,-1.099929690361023,3.5098581314086914,14.853930324660109,14.643772757117192,59.628650311966695,53.09545701729798,-0.0001295089750783,0.0963535830378532,0,0,0
4947,179931.69297577578,2010-12-22 14:08:53,2221.099437713849,7,17,-1.0997490882873535,3.5056490898132324,14.853930324660109,14.652941887375604,59.628650311966695,53.12762027512079,-9.713172767078504e-05,0.0963535830378532,0,0,0
4948,179961.70825438717,2010-12-22 14:09:23,2251.114716335265,7,17,-1.0997490882873535,3.501116275787353,14.853930324660109,14.662111765138786,59.628650311966695,53.15974553651188,-9.713172767078504e-05,0.0963535830378532,0,0,0
4949,179991.72313533397,2010-12-22 14:09:53,2281.1295972720577,7,17,-1.0997490882873535,3.4965834617614746,14.853930324660109,14.671281484734497,59.628650311966695,53.19182883686825,-9.713172767078504e-05,0.0963535830378532,0,0,0
4950,180021.7384609724,2010-12-22 14:10:23,2311.144922960598,7,17,-1.099929690361023,3.491564989089966,14.853930324660109,14.680451406007297,59.628650311966695,53.22386966978548,-0.0001295089750783,0.0963535830378532,0,0,0
4951,180051.75341751732,2010-12-22 14:10:53,2341.1598795707014,7,17,-1.099568486213684,3.486384630203247,14.853930324660109,14.689620888550792,59.628650311966695,53.25586223471346,-0.0001618862152099,0.0963535830378532,0,0,0
4952,180081.7684531992,2010-12-22 14:11:23,2371.174915162346,7,17,-1.0997490882873535,3.4803948402404785,14.853930324660109,14.698789549876206,59.628650311966695,53.28780135939115,-0.0001618862152099,0.0963535830378532,0,0,0
4953,180111.78356837388,2010-12-22 14:11:53,2401.1900303119687,7,17,-1.099929690361023,3.47408127784729,14.853930324660109,14.707958466716253,59.628650311966695,53.31968531474528,-0.0002266406954731,0.0963535830378532,0,0,0
4954,180141.79865104266,2010-12-22 14:12:23,2431.2051129907886,7,17,-1.0997490882873535,3.466958284378052,14.853930324660109,14.717127422051496,59.628650311966695,53.35150694149485,-0.0001942634553415,0.0963535830378532,0,0,0
4955,180171.81369580212,2010-12-22 14:12:53,2461.220157740223,7,17,-1.0997490882873535,3.458702087402344,14.853930324660109,14.726296386436715,59.628650311966695,53.38325781444441,-0.0002266406954731,0.0963535830378532,0,0,0
4956,180201.82876882196,2010-12-22 14:13:23,2491.235230785069,7,17,-1.099568486213684,3.448988914489746,14.853930324660109,14.73546537101465,59.628650311966695,53.41492707927638,-0.0002590179501567,0.0963535830378532,0,0,0
4957,180231.84384133044,2010-12-22 14:13:53,2521.250303268518,7,17,-1.099929690361023,3.437656879425049,14.853930324660109,14.744634290396911,59.628650311966695,53.44650032925352,-0.0002913951757363,0.0963535830378532,0,0,0
4958,180261.85905597263,2010-12-22 14:14:23,2551.265517935786,7,17,-1.0997490882873535,3.424220561981201,14.853930324660109,14.75380330555424,59.628650311966695,53.47796104206429,-0.0003885269106831,0.0963535830378532,0,0,0
4959,180291.87412350377,2010-12-22 14:14:53,2581.280585466912,7,17,-1.099568486213684,3.407870054244995,14.853930324660109,14.762972301183687,59.628650311966695,53.509285471977954,-0.0005180359003134,0.0963535830378532,0,0,0
4960,180321.88905098132,2010-12-22 14:15:23,2611.295512919457,7,17,-1.0997490882873535,3.38731050491333,14.853930324660109,14.772141216442687,59.628650311966695,53.540441853711386,-0.0006151676061563,0.0963535830378532,0,0,0
4961,180351.904244095,2010-12-22 14:15:53,2641.3107060581524,7,17,-1.0997490882873535,3.3614087104797363,14.853930324660109,14.7813102703207,59.628650311966695,53.57138741237342,-0.0008094310760498,0.0963535830378532,0,0,0
4962,180381.919274594,2010-12-22 14:16:23,2671.3257365771747,7,17,-1.099929690361023,3.3272509574890137,14.853930324660109,14.790479290729198,59.628650311966695,53.60205940972354,-0.0010684489971026,0.0963535830378532,0,0,0
4963,180411.9343274536,2010-12-22 14:16:53,2701.340789481903,7,17,-1.0997490882873535,3.281760931015014,14.853930324660109,14.799648317805678,59.628650311966695,53.63236947049508,-0.0013598442310467,0.0963535830378532,0,0,0
4964,180441.94933878488,2010-12-22 14:17:23,2731.355800748015,7,17,-1.099568486213684,3.2197587490081787,14.853930324660109,14.808817300210924,59.628650311966695,53.662191078585806,-0.0019102573860436,0.0963535830378532,0,0,0
4965,180471.9644046268,2010-12-22 14:17:53,2761.3708665899376,7,17,-1.099929690361023,3.132664203643799,14.853930324660109,14.817986342873684,59.628650311966695,53.69133812373048,-0.0027196884620934,0.0963535830378532,0,0,0
4966,180501.9795877105,2010-12-22 14:18:23,2791.386049733761,7,17,-1.099929690361023,3.003641366958618,14.853930324660109,14.827155432962392,59.628650311966695,53.719516071846094,-0.0042090415954589,0.0963535830378532,0,0,0
4967,180530.4320842237,2010-12-22 14:18:51,2819.838546161795,7,17,-1.0997490882873535,2.8035504817962646,14.853930324660109,14.835847095026406,59.628650311966695,53.74482250089815,-0.0067668436095118,0.0963535830378532,0,0,0
4968,180542.02561624724,2010-12-22 14:19:03,2831.432078210393,7,17,-1.0997490882873535,2.699943780899048,14.853930324660109,14.839388715729234,59.628650311966695,53.75456982005766,-0.0072524547576904,0.0963535830378532,0,0,0
4969,180602.0438301065,2010-12-22 14:20:03,60.01441340952293,8,17,0.0,3.444941759109497,14.853930324660109,14.839388715729234,59.628650311966695,53.75456982005766,0.0013922214275225,0.0963535830378532,0,0,0
4970,180602.23634360303,2010-12-22 14:20:03,0.187628275747726,9,17,-1.9243103452026844e-05,3.445103645324707,14.853930324660109,14.839388716732165,59.628650311966695,53.75456982351286,0.0,0.0949056595563888,0,0,0
4971,180607.0642692102,2010-12-22 14:20:08,5.015553983181224,9,17,0.0007031940040178,3.453197956085205,14.8539311236907,14.839388716815195,59.62865306855818,53.75456982379891,0.0011655807029455,0.0949056595563888,0,0,0
