Data_Point,Test_Time(s),Date_Time,Step_Time(s),Step_Index,Cycle_Index,Current(A),Voltage(V),Charge_Capacity(Ah),Discharge_Capacity(Ah),Charge_Energy(Wh),Discharge_Energy(Wh),dV/dt(V/s),Internal_Resistance(Ohm),Is_FC_Data,AC_Impedance(Ohm),ACI_Phase_Angle(Deg)
7005,254332.7218395423,2010-12-23 10:49:03,30.01505738086701,1,25,0.0,3.5051634311676025,20.9154357220443,20.89162013441048,83.9594473361415,75.68897862759513,0.0008094310760498,0.0970755815505981,0,0,0
7006,254362.73690700825,2010-12-23 10:49:33,60.03012483680544,1,25,0.0,3.529284238815308,20.9154357220443,20.89162013441048,83.9594473361415,75.68897862759513,0.0005504131549969,0.0970755815505981,0,0,0
7007,254392.75199674963,2010-12-23 10:50:03,90.04521460326274,1,25,0.0,3.5469298362731934,20.9154357220443,20.89162013441048,83.9594473361415,75.68897862759513,0.0003885269106831,0.0970755815505981,0,0,0
7008,254422.72030613493,2010-12-23 10:50:33,120.0135239735033,1,25,0.0,3.56101393699646,20.9154357220443,20.89162013441048,83.9594473361415,75.68897862759513,0.0003885269106831,0.0970755815505981,0,0,0
7009,254452.7398376288,2010-12-23 10:51:03,30.01525579962445,2,25,0.5499359965324402,3.699264287948608,20.92002246719471,20.89162013441048,83.97629492721214,75.68897862759513,0.0011332035064697,0.0970755815505981,0,0,0
7010,254482.7549416357,2010-12-23 10:51:33,60.030359806518526,2,25,0.5501165986061096,3.73228907585144,20.924609161929048,20.89162013441048,83.99334359657658,75.68897862759513,0.0006799221155233,0.0970755815505981,0,0,0
7011,254512.76974766608,2010-12-23 10:52:03,90.04516583189708,2,25,0.5501165986061096,3.754791021347046,20.929195711532945,20.89162013441048,84.01051646493113,75.68897862759513,0.0004856109735555,0.0970755815505981,0,0,0
7012,254542.7849087701,2010-12-23 10:52:33,120.06032693086256,2,25,0.5501165986061096,3.770493984222412,20.933781663342018,20.89162013441048,84.02777420864201,75.68897862759513,0.0003237724304199,0.0970755815505981,0,0,0
7013,254572.79983648827,2010-12-23 10:53:03,150.0752546540815,2,25,0.5499359965324402,3.7808547019958496,20.93836749477609,20.89162013441048,84.0450908062107,75.68897862759513,0.0001942634553415,0.0970755815505981,0,0,0
7014,254602.81492445525,2010-12-23 10:53:33,180.09034262106087,2,25,0.5501165986061096,3.788625240325928,20.94295352439272,20.89162013441048,84.06244836725894,75.68897862759513,0.0002266406954731,0.0970755815505981,0,0,0
7015,254632.82997752543,2010-12-23 10:54:03,210.1053956912008,2,25,0.5501165986061096,3.794615030288696,20.947539454508536,20.89162013441048,84.07983618337481,75.68897862759513,0.0001618862152099,0.0970755815505981,0,0,0
7016,254662.84503613933,2010-12-23 10:54:33,240.12045428007383,2,25,0.5501165986061096,3.800119161605835,20.95212533948304,20.89162013441048,84.09725036735294,75.68897862759513,0.0001618862152099,0.0970755815505981,0,0,0
7017,254692.8601128483,2010-12-23 10:55:03,270.135531009088,2,25,0.5499359965324402,3.8052995204925537,20.95671122028145,20.89162013441048,84.1146888295106,75.68897862759513,0.0001618862152099,0.0970755815505981,0,0,0
7018,254722.87519567247,2010-12-23 10:55:33,300.1506138132198,2,25,0.5501165986061096,3.810156106948853,20.961297683155035,20.89162013441048,84.13215271324772,75.68897862759513,0.0001295089750783,0.0970755815505981,0,0,0
7019,254752.8903779491,2010-12-23 10:56:03,330.1657961650723,2,25,0.5501165986061096,3.815012693405152,20.965884456320605,20.89162013441048,84.1496400145031,75.68897862759513,0.0001618862152099,0.0970755815505981,0,0,0
7020,254782.90565531745,2010-12-23 10:56:33,360.18107356845684,2,25,0.5501165986061096,3.8195455074310303,20.970471291217592,20.89162013441048,84.16714886980698,75.68897862759513,0.0001618862152099,0.0970755815505981,0,0,0
7021,254812.92037377995,2010-12-23 10:57:03,390.1957919206641,2,25,0.5501165986061096,3.823754549026489,20.97505818344917,20.89162013441048,84.18467811116689,75.68897862759513,0.0001295089750783,0.0970755815505981,0,0,0
7022,254842.9354407346,2010-12-23 10:57:33,420.21085894051737,2,25,0.550297200679779,3.827963590621948,20.97964557357667,20.89162013441048,84.20222885101384,75.68897862759513,9.713172767078504e-05,0.0970755815505981,0,0,0
7023,254872.95075999212,2010-12-23 10:58:03,450.22617834842856,2,25,0.550297200679779,3.8321726322174072,20.98423300364458,20.89162013441048,84.21979879745203,75.68897862759513,9.713172767078504e-05,0.0970755815505981,0,0,0
7024,254902.96555309536,2010-12-23 10:58:33,480.24097129626415,2,25,0.5499359965324402,3.836219549179077,20.98882040423676,20.89162013441048,84.237387264589,75.68897862759513,0.0001295089750783,0.0970755815505981,0,0,0
7025,254932.9834232006,2010-12-23 10:59:03,510.2588414415874,2,25,0.5501165986061096,3.840104818344116,20.99340807691744,20.89162013441048,84.25499521009864,75.68897862759513,9.713172767078504e-05,0.0970755815505981,0,0,0
7026,254962.9957243978,2010-12-23 10:59:33,540.2711425385479,2,25,0.5501165986061096,3.8439900875091553,20.99799442990257,20.89162013441048,84.27261626764745,75.68897862759513,9.713172767078504e-05,0.0970755815505981,0,0,0
7027,254993.01074933293,2010-12-23 11:00:03,570.2861674836998,2,25,0.5501165986061096,3.848037242889404,21.00258122188547,20.89162013441048,84.29025708449267,75.68897862759513,0.0001295089750783,0.0970755815505981,0,0,0
7028,255023.0259379955,2010-12-23 11:00:33,600.3013561362313,2,25,0.5501165986061096,3.8519225120544434,21.00716798733676,20.89162013441048,84.3079157701259,75.68897862759513,9.713172767078504e-05,0.0970755815505981,0,0,0
7029,255053.04102128083,2010-12-23 11:01:03,630.3164394315855,2,25,0.5501165986061096,3.8558077812194815,21.011754746205828,20.89162013441048,84.32559229705231,75.68897862759513,0.0001295089750783,0.0970755815505981,0,0,0
7030,255083.05593574105,2010-12-23 11:01:33,660.331353881775,2,25,0.5501165986061096,3.8596930503845215,21.016341466807745,20.89162013441048,84.3432863770379,75.68897862759513,0.0001618862152099,0.0970755815505981,0,0,0
7031,255113.07119563085,2010-12-23 11:02:03,690.3466138818521,2,25,0.550297200679779,3.863416433334351,21.02092828580061,20.89162013441048,84.36099831660191,75.68897862759513,9.713172767078504e-05,0.0970755815505981,0,0,0
7032,255143.0860908532,2010-12-23 11:02:33,720.361508988907,2,25,0.5501165986061096,3.8669779300689697,21.02551500147226,20.89162013441048,84.37872687847002,75.68897862759513,9.713172767078504e-05,0.0970755815505981,0,0,0
7033,255173.10116313613,2010-12-23 11:03:03,750.3765812868947,2,25,0.5501165986061096,3.870701313018799,21.030101726764805,20.89162013441048,84.39647213780329,75.68897862759513,9.713172767078504e-05,0.0970755815505981,0,0,0
7034,255203.11620381544,2010-12-23 11:03:33,780.3916219812379,2,25,0.550297200679779,3.874100923538208,21.034688499600417,20.89162013441048,84.41423387026887,75.68897862759513,6.47544875391759e-05,0.0970755815505981,0,0,0
7035,255233.1312679381,2010-12-23 11:04:03,810.4066860788192,2,25,0.550297200679779,3.877500534057617,21.039275195134707,20.89162013441048,84.4320108439841,75.68897862759513,9.713172767078504e-05,0.0970755815505981,0,0,0
7036,255263.14635382488,2010-12-23 11:04:33,840.421771995697,2,25,0.550297200679779,3.880738258361816,21.0438619325237,20.89162013441048,84.44980317451683,75.68897862759513,9.713172767078504e-05,0.0970755815505981,0,0,0
7037,255293.1614019076,2010-12-23 11:05:03,870.436820058376,2,25,0.550297200679779,3.8838140964508057,21.048448715300022,20.89162013441048,84.46761010441875,75.68897862759513,0.0001295089750783,0.0970755815505981,0,0,0
7038,255323.17646143385,2010-12-23 11:05:33,900.4518795845815,2,25,0.550297200679779,3.886566162109375,21.0530354778176,20.89162013441048,84.48543067672728,75.68897862759513,3.237724376958795e-05,0.0970755815505981,0,0,0
7039,255353.1915090053,2010-12-23 11:06:03,930.4669271460134,2,25,0.5501165986061096,3.8894801139831534,21.05762224438655,20.89162013441048,84.50326431678492,75.68897862759513,9.713172767078504e-05,0.0970755815505981,0,0,0
7040,255383.206591634,2010-12-23 11:06:33,960.4820097947584,2,25,0.5501165986061096,3.8920702934265137,21.06220901389419,20.89162013441048,84.52111026004107,75.68897862759513,6.47544875391759e-05,0.0970755815505981,0,0,0
7041,255413.2216467141,2010-12-23 11:07:03,990.4970648799126,2,25,0.5501165986061096,3.894336700439453,21.066795786402004,20.89162013441048,84.53896793443067,75.68897862759513,3.237724376958795e-05,0.0970755815505981,0,0,0
7042,255443.23667947872,2010-12-23 11:07:33,1020.5120976194607,2,25,0.5501165986061096,3.8967649936676025,21.07138247388757,20.89162013441048,84.55683596881694,75.68897862759513,6.47544875391759e-05,0.0970755815505981,0,0,0
7043,255473.2517445036,2010-12-23 11:08:03,1050.5271626443496,2,25,0.550297200679779,3.899193286895752,21.07596919009737,20.89162013441048,84.57471471702964,75.68897862759513,6.47544875391759e-05,0.0970755815505981,0,0,0
7044,255503.2669862884,2010-12-23 11:08:33,1080.5424044290985,2,25,0.5501165986061096,3.9012978076934814,21.08055596204114,20.89162013441048,84.59260379480614,75.68897862759513,6.47544875391759e-05,0.0970755815505981,0,0,0
7045,255533.28207887185,2010-12-23 11:09:03,1110.5574970225907,2,25,0.5501165986061096,3.903240442276001,21.08514271580481,20.89162013441048,84.61050249857149,75.68897862759513,3.237724376958795e-05,0.0970755815505981,0,0,0
7046,255563.29697923697,2010-12-23 11:09:33,1140.572397377705,2,25,0.5501165986061096,3.9053449630737305,21.08972947031824,20.89162013441048,84.62841056296574,75.68897862759513,9.713172767078504e-05,0.0970755815505981,0,0,0
7047,255593.3120588181,2010-12-23 11:10:03,1170.5874769838792,2,25,0.5501165986061096,3.90728759765625,21.09431621434235,20.89162013441048,84.6463275438203,75.68897862759513,6.47544875391759e-05,0.0970755815505981,0,0,0
7048,255623.32709461023,2010-12-23 11:10:33,1200.6025127659984,2,25,0.5501165986061096,3.9092302322387695,21.0989029187134,20.89162013441048,84.6642532440028,75.68897862759513,6.47544875391759e-05,0.0970755815505981,0,0,0
7049,255653.3421809532,2010-12-23 11:11:03,1230.6175990938991,2,25,0.550297200679779,3.911172866821289,21.103489698885667,20.89162013441048,84.68218795767761,75.68897862759513,3.237724376958795e-05,0.0970755815505981,0,0,0
7050,255683.3572244495,2010-12-23 11:11:34,1260.6326425952273,2,25,0.5501165986061096,3.9127917289733887,21.108076404136806,20.89162013441048,84.70013088037119,75.68897862759513,3.237724376958795e-05,0.0970755815505981,0,0,0
7051,255713.3724328612,2010-12-23 11:12:04,1290.647851062066,2,25,0.5501165986061096,3.914572238922119,21.11266318402176,20.89162013441048,84.71808255807846,75.68897862759513,3.237724376958795e-05,0.0970755815505981,0,0,0
7052,255743.38734553196,2010-12-23 11:12:34,1320.66276369774,2,25,0.5501165986061096,3.916514873504639,21.117249945673805,20.89162013441048,84.73604240162517,75.68897862759513,6.47544875391759e-05,0.0970755815505981,0,0,0
7053,255773.40242068205,2010-12-23 11:13:04,1350.6778388478251,2,25,0.5501165986061096,3.918295621871948,21.12183670127852,20.89162013441048,84.75401051161246,75.68897862759513,3.237724376958795e-05,0.0970755815505981,0,0,0
7054,255803.41749749123,2010-12-23 11:13:34,1380.6929156470137,2,25,0.5501165986061096,3.920076370239258,21.126423379213332,20.89162013441048,84.77198658921091,75.68897862759513,6.47544875391759e-05,0.0970755815505981,0,0,0
7055,255833.4325348673,2010-12-23 11:14:04,1410.7079530080623,2,25,0.550297200679779,3.921857118606568,21.13101007032392,20.89162013441048,84.78997089430497,75.68897862759513,6.47544875391759e-05,0.0970755815505981,0,0,0
7056,255863.44761151617,2010-12-23 11:14:34,1440.7230296618893,2,25,0.550297200679779,3.923637866973877,21.13559680843919,20.89162013441048,84.80796353901192,75.68897862759513,3.237724376958795e-05,0.0970755815505981,0,0,0
7057,255893.46304531876,2010-12-23 11:15:04,1470.7384635496794,2,25,0.5501165986061096,3.9254186153411865,21.140183611098312,20.89162013441048,84.82596465177315,75.68897862759513,3.237724376958795e-05,0.0970755815505981,0,0,0
7058,255923.47773108984,2010-12-23 11:15:34,1500.7531492506353,2,25,0.5501165986061096,3.927199363708496,21.14477030748838,20.89162013441048,84.8439733377961,75.68897862759513,3.237724376958795e-05,0.0970755815505981,0,0,0
7059,255953.49279028023,2010-12-23 11:16:04,1530.7682084359926,2,25,0.5501165986061096,3.928818225860596,21.149357002690497,20.89162013441048,84.86199012969118,75.68897862759513,6.47544875391759e-05,0.0970755815505981,0,0,0
7060,255983.50785703945,2010-12-23 11:16:34,1560.7832752052225,2,25,0.5501165986061096,3.930598974227905,21.153943708505476,20.89162013441048,84.88001510196715,75.68897862759513,3.237724376958795e-05,0.0970755815505981,0,0,0
7061,256013.522968134,2010-12-23 11:17:04,1590.7983863649158,2,25,0.5501165986061096,3.932379722595215,21.158530437058378,20.89162013441048,84.89804822173059,75.68897862759513,6.47544875391759e-05,0.0970755815505981,0,0,0
7062,256043.5379822622,2010-12-23 11:17:34,1620.8134004229755,2,25,0.550297200679779,3.934160470962525,21.163117205054768,20.89162013441048,84.91608960963381,75.68897862759513,0.0,0.0970755815505981,0,0,0
7063,256073.55304597883,2010-12-23 11:18:04,1650.8284641145465,2,25,0.5501165986061096,3.936103105545044,21.167703947988727,20.89162013441048,84.93413899722476,75.68897862759513,6.47544875391759e-05,0.0970755815505981,0,0,0
7064,256103.56812126425,2010-12-23 11:18:34,1680.8435394250307,2,25,0.5501165986061096,3.937721967697144,21.17229070923929,20.89162013441048,84.95219637092994,75.68897862759513,9.713172767078504e-05,0.0970755815505981,0,0,0
7065,256133.58318004865,2010-12-23 11:19:04,1710.858598194353,2,25,0.5501165986061096,3.939502716064453,21.176877421594373,20.89162013441048,84.97026173698453,75.68897862759513,3.237724376958795e-05,0.0970755815505981,0,0,0
7066,256163.59836010475,2010-12-23 11:19:34,1740.87377824548,2,25,0.550297200679779,3.9412834644317623,21.18146423393065,20.89162013441048,84.98833559539618,75.68897862759513,3.237724376958795e-05,0.0970755815505981,0,0,0
7067,256193.6132977777,2010-12-23 11:20:04,1770.888715943521,2,25,0.5501165986061096,3.943064212799072,21.186050928822045,20.89162013441048,85.0064169835023,75.68897862759513,6.47544875391759e-05,0.0970755815505981,0,0,0
7068,256223.6284199548,2010-12-23 11:20:34,1800.903838120631,2,25,0.550297200679779,3.944844961166382,21.19063765034366,20.89162013441048,85.02450658569339,75.68897862759513,3.237724376958795e-05,0.0970755815505981,0,0,0
7069,256253.64344415817,2010-12-23 11:21:04,1830.9188623239368,2,25,0.550297200679779,3.9466257095336914,21.19522440278172,20.89162013441048,85.0426044512316,75.68897862759513,6.47544875391759e-05,0.0970755815505981,0,0,0
7070,256283.65849617065,2010-12-23 11:21:34,1860.93391432642,2,25,0.5501165986061096,3.948406457901001,21.199811138545886,20.89162013441048,85.06071020738604,75.68897862759513,6.47544875391759e-05,0.0970755815505981,0,0,0
7071,256313.67355955145,2010-12-23 11:22:04,1890.948977687168,2,25,0.5501165986061096,3.9500253200531006,21.204397882402297,20.89162013441048,85.07882418358517,75.68897862759513,0.0,0.0970755815505981,0,0,0
7072,256343.68861812027,2010-12-23 11:22:34,1920.9640362610032,2,25,0.5501165986061096,3.95180606842041,21.208984563746547,20.89162013441048,85.09694604788281,75.68897862759513,6.47544875391759e-05,0.0970755815505981,0,0,0
7073,256373.70371258844,2010-12-23 11:23:04,1950.9791307492103,2,25,0.5499359965324402,3.95358681678772,21.213571373444623,20.89162013441048,85.11507652016579,75.68897862759513,6.47544875391759e-05,0.0970755815505981,0,0,0
7074,256403.7188708503,2010-12-23 11:23:34,1980.9942889960787,2,25,0.550297200679779,3.9555294513702393,21.21815816334092,20.89162013441048,85.13321511173119,75.68897862759513,3.237724376958795e-05,0.0970755815505981,0,0,0
7075,256433.73382038783,2010-12-23 11:24:04,2011.009238553632,2,25,0.5501165986061096,3.957148313522339,21.222744884791904,20.89162013441048,85.15136158355745,75.68897862759513,3.237724376958795e-05,0.0970755815505981,0,0,0
7076,256463.7489886747,2010-12-23 11:24:34,2041.0244068454963,2,25,0.5499359965324402,3.9590909481048575,21.22733160554541,20.89162013441048,85.16951614775019,75.68897862759513,6.47544875391759e-05,0.0970755815505981,0,0,0
7077,256493.76410502227,2010-12-23 11:25:04,2071.03952317305,2,25,0.5501165986061096,3.960871696472168,21.231918308685383,20.89162013441048,85.18767890705105,75.68897862759513,6.47544875391759e-05,0.0970755815505981,0,0,0
7078,256523.779002806,2010-12-23 11:25:34,2101.054420951753,2,25,0.5501165986061096,3.962490558624268,21.23650500197403,20.89162013441048,85.2058499830352,75.68897862759513,6.47544875391759e-05,0.0970755815505981,0,0,0
7079,256553.79417639604,2010-12-23 11:26:04,2131.069594546814,2,25,0.550297200679779,3.964595079421997,21.24109171730722,20.89162013441048,85.22402948336,75.68897862759513,6.47544875391759e-05,0.0970755815505981,0,0,0
7080,256583.80911978323,2010-12-23 11:26:34,2161.08453794905,2,25,0.5501165986061096,3.966375827789306,21.24567843124717,20.89162013441048,85.24221735255345,75.68897862759513,6.47544875391759e-05,0.0970755815505981,0,0,0
7081,256613.82418933944,2010-12-23 11:27:04,2191.099607505215,2,25,0.5501165986061096,3.9679946899414062,21.250265155648588,20.89162013441048,85.26041370765381,75.68897862759513,3.237724376958795e-05,0.0970755815505981,0,0,0
7082,256643.8392591913,2010-12-23 11:27:34,2221.1146773521027,2,25,0.5501165986061096,3.969937324523926,21.254851911115217,20.89162013441048,85.27861868585617,75.68897862759513,3.237724376958795e-05,0.0970755815505981,0,0,0
7083,256673.8544283654,2010-12-23 11:28:04,2251.129846566263,2,25,0.5501165986061096,3.971879959106445,21.2594386605233,20.89162013441048,85.29683225447549,75.68897862759513,3.237724376958795e-05,0.0970755815505981,0,0,0
7084,256703.86938568225,2010-12-23 11:28:34,2281.1448038179624,2,25,0.5501165986061096,3.973822593688965,21.26402536679293,20.89162013441048,85.31505425913333,75.68897862759513,9.713172767078504e-05,0.0970755815505981,0,0,0
7085,256733.88444449165,2010-12-23 11:29:04,2311.159862657459,2,25,0.5501165986061096,3.975765228271485,21.268612039853707,20.89162013441048,85.33328486037762,75.68897862759513,6.47544875391759e-05,0.0970755815505981,0,0,0
7086,256763.8994866697,2010-12-23 11:29:34,2341.1749048104325,2,25,0.5501165986061096,3.977545976638794,21.273198748621567,20.89162013441048,85.35152441003017,75.68897862759513,6.47544875391759e-05,0.0970755815505981,0,0,0
7087,256793.914823912,2010-12-23 11:30:04,2371.190242162998,2,25,0.5501165986061096,3.9794886112213135,21.27778552193857,20.89162013441048,85.36977270424391,75.68897862759513,3.237724376958795e-05,0.0970755815505981,0,0,0
7088,256823.92961983723,2010-12-23 11:30:34,2401.2050379980183,2,25,0.5501165986061096,3.981431245803833,21.28237211267181,20.89162013441048,85.38802961709453,75.68897862759513,0.0,0.0970755815505981,0,0,0
7089,256853.9477090728,2010-12-23 11:31:04,2431.2231273337884,2,25,0.5501165986061096,3.983373880386353,21.286959185127326,20.89162013441048,85.40629745393643,75.68897862759513,9.713172767078504e-05,0.0970755815505981,0,0,0
7090,256883.95975761625,2010-12-23 11:31:34,2461.2351757569795,2,25,0.5499359965324402,3.985478401184082,21.2915453776018,20.89162013441048,85.42457092947744,75.68897862759513,3.237724376958795e-05,0.0970755815505981,0,0,0
7091,256913.9748106413,2010-12-23 11:32:04,2491.2502287820075,2,25,0.5499359965324402,3.987259149551392,21.296132043797293,20.89162013441048,85.44285542991524,75.68897862759513,3.237724376958795e-05,0.0970755815505981,0,0,0
7092,256943.98987408724,2010-12-23 11:32:34,2521.2652922379925,2,25,0.5499359965324402,3.989363670349121,21.30071866954935,20.89162013441048,85.46114896013722,75.68897862759513,0.0,0.0970755815505981,0,0,0
7093,256974.00495133252,2010-12-23 11:33:04,2551.280369498328,2,25,0.5501165986061096,3.991630077362061,21.30530527152919,20.89162013441048,85.47945178715817,75.68897862759513,6.47544875391759e-05,0.0970755815505981,0,0,0
7094,257004.0201987112,2010-12-23 11:33:34,2581.29561700231,2,25,0.5499359965324402,3.99357271194458,21.30989194918416,20.89162013441048,85.49776437714328,75.68897862759513,3.237724376958795e-05,0.0970755815505981,0,0,0
7095,257034.03507710164,2010-12-23 11:34:04,2611.310495267454,2,25,0.5499359965324402,3.9956769943237305,21.31447860338404,20.89162013441048,85.51608642686038,75.68897862759513,6.47544875391759e-05,0.0970755815505981,0,0,0
7096,257064.05016940943,2010-12-23 11:34:34,2641.32558766546,2,25,0.5501165986061096,3.99794340133667,21.319065260097915,20.89162013441048,85.53441818871238,75.68897862759513,6.47544875391759e-05,0.0970755815505981,0,0,0
7097,257094.0653329144,2010-12-23 11:35:04,2671.3407511654004,2,25,0.5501165986061096,4.0000481605529785,21.32365193482457,20.89162013441048,85.55275972228998,75.68897862759513,6.480216688942164e-05,0.0970755815505981,0,0,0
7098,257124.0803471028,2010-12-23 11:35:34,2701.355765268572,2,25,0.5501165986061096,4.002314567565918,21.328238533476696,20.89162013441048,85.57111091452208,75.68897862759513,9.71794142969884e-05,0.0970755815505981,0,0,0
7099,257154.09533127147,2010-12-23 11:36:04,2731.3707494372534,2,25,0.5501165986061096,4.004418849945068,21.332825164446596,20.89162013441048,85.58947232561614,75.68897862759513,9.70840483205393e-05,0.0970755815505981,0,0,0
7100,257184.11039740912,2010-12-23 11:36:34,2761.3858155749112,2,25,0.5501165986061096,4.006685256958008,21.33741182518843,20.89162013441048,85.60784409191163,75.68897862759513,6.47544875391759e-05,0.0970755815505981,0,0,0
7101,257214.12547044893,2010-12-23 11:37:04,2791.4008886197576,2,25,0.550297200679779,4.008790016174316,21.34199850506131,20.89162013441048,85.62622629097783,75.68897862759513,6.47544875391759e-05,0.0970755815505981,0,0,0
7102,257244.1406329614,2010-12-23 11:37:34,2821.416051127228,2,25,0.5501165986061096,4.011218070983887,21.34658522064504,20.89162013441048,85.6446190064638,75.68897862759513,6.47544875391759e-05,0.0970755815505981,0,0,0
7103,257274.1556053408,2010-12-23 11:38:04,2851.43102350156,2,25,0.5501165986061096,4.013484477996826,21.35117181595337,20.89162013441048,85.66302173768071,75.68897862759513,6.47544875391759e-05,0.0970755815505981,0,0,0
7104,257304.170657649,2010-12-23 11:38:34,2881.446075814816,2,25,0.5501165986061096,4.015750885009766,21.3557584594334,20.89162013441048,85.68143528956371,75.68897862759513,6.47544875391759e-05,0.0970755815505981,0,0,0
7105,257334.18572039824,2010-12-23 11:39:04,2911.461138543992,2,25,0.5501165986061096,4.018179416656494,21.360345095030844,20.89162013441048,85.69985959838185,75.68897862759513,6.47544875391759e-05,0.0970755815505981,0,0,0
7106,257364.2007747115,2010-12-23 11:39:34,2941.476192857225,2,25,0.5501165986061096,4.020445823669434,21.3649318319544,20.89162013441048,85.7182951314641,75.68897862759513,3.24249267578125e-05,0.0970755815505981,0,0,0
7107,257394.21583840804,2010-12-23 11:40:04,2971.491256578871,2,25,0.5501165986061096,4.022873878479004,21.369518450395056,20.89162013441048,85.73674124050568,75.68897862759513,6.47544875391759e-05,0.0970755815505981,0,0,0
7108,257424.23090081644,2010-12-23 11:40:34,3001.5063189621865,2,25,0.5501165986061096,4.025302410125732,21.37410510206673,20.89162013441048,85.75519862873296,75.68897862759513,6.47544875391759e-05,0.0970755815505981,0,0,0
7109,257454.24600253263,2010-12-23 11:41:04,3031.5214206984306,2,25,0.5501165986061096,4.027892589569092,21.378691751138,20.89162013441048,85.77366726926617,75.68897862759513,9.71794142969884e-05,0.0970755815505981,0,0,0
7110,257484.26105958267,2010-12-23 11:41:34,3061.536477743461,2,25,0.5501165986061096,4.030320644378662,21.383278380733504,20.89162013441048,85.79214718562734,75.68897862759513,6.47544875391759e-05,0.0970755815505981,0,0,0
7111,257514.2760885679,2010-12-23 11:42:04,3091.551506708617,2,25,0.550297200679779,4.0329108238220215,21.38786494879416,20.89162013441048,85.81063833841591,75.68897862759513,9.70840483205393e-05,0.0970755815505981,0,0,0
7112,257544.2911484149,2010-12-23 11:42:34,3121.566566555621,2,25,0.5501165986061096,4.035338878631592,21.3924515250818,20.89162013441048,85.8291411248482,75.68897862759513,6.47544875391759e-05,0.0970755815505981,0,0,0
7113,257574.30623369012,2010-12-23 11:43:04,3151.5816518359147,2,25,0.5501165986061096,4.037929058074951,21.39703813288456,20.89162013441048,85.84765572621441,75.68897862759513,3.23295607813634e-05,0.0970755815505981,0,0,0
7114,257604.32127452487,2010-12-23 11:43:35,3181.596692690657,2,25,0.5501165986061096,4.0406813621521,21.401624802410893,20.89162013441048,85.86618232367485,75.68897862759513,0.0001619339018361,0.0970755815505981,0,0,0
7115,257634.3364659944,2010-12-23 11:44:05,3211.6118841952857,2,25,0.550297200679779,4.04310941696167,21.406211448487493,20.89162013441048,85.88472075696228,75.68897862759513,6.47544875391759e-05,0.0970755815505981,0,0,0
7116,257664.3515290494,2010-12-23 11:44:35,3241.6269471951355,2,25,0.550297200679779,4.045861721038818,21.41079808774392,20.89162013441048,85.90327120297793,75.68897862759513,6.47544875391759e-05,0.0970755815505981,0,0,0
7117,257694.3666494972,2010-12-23 11:45:05,3271.6420676680045,2,25,0.5499359965324402,4.048451900482178,21.41538467723485,20.89162013441048,85.92183360553298,75.68897862759513,6.47544875391759e-05,0.0970755815505981,0,0,0
7118,257724.3815446644,2010-12-23 11:45:35,3301.6569628101465,2,25,0.5501165986061096,4.051203727722168,21.419971324560706,20.89162013441048,85.94040855105072,75.68897862759513,6.47544875391759e-05,0.0970755815505981,0,0,0
7119,257754.39671651516,2010-12-23 11:46:05,3331.6721346608674,2,25,0.5499359965324402,4.0536322593688965,21.424557939669462,20.89162013441048,85.95899569654179,75.68897862759513,3.24249267578125e-05,0.0970755815505981,0,0,0
7120,257784.41165408783,2010-12-23 11:46:35,3361.6870722335966,2,25,0.5501165986061096,4.056707859039307,21.429144652055456,20.89162013441048,85.97759573689011,75.68897862759513,9.70840483205393e-05,0.0970755815505981,0,0,0
7121,257814.4269181831,2010-12-23 11:47:05,3391.702336389014,2,25,0.5501165986061096,4.059460163116455,21.433731364601,20.89162013441048,85.99620833101199,75.68897862759513,6.47544875391759e-05,0.0970755815505981,0,0,0
7122,257844.44178581683,2010-12-23 11:47:35,3421.7172039826028,2,25,0.5501165986061096,4.062050342559815,21.4383179435912,20.89162013441048,86.01483279380828,75.68897862759513,9.71794142969884e-05,0.0970755815505981,0,0,0
7123,257874.45684440067,2010-12-23 11:48:05,3451.7322625414013,2,25,0.5501165986061096,4.064964294433594,21.442904570360948,20.89162013441048,86.03347027031819,75.68897862759513,9.71794142969884e-05,0.0970755815505981,0,0,0
7124,257904.4719354854,2010-12-23 11:48:35,3481.747353651201,2,25,0.5501165986061096,4.067716121673584,21.44749120045325,20.89162013441048,86.05212069547652,75.68897862759513,9.70840483205393e-05,0.0970755815505981,0,0,0
7125,257934.4869956532,2010-12-23 11:49:05,3511.7624138190035,2,25,0.5501165986061096,4.070468425750732,21.45207789136176,20.89162013441048,86.07078449240684,75.68897862759513,6.47544875391759e-05,0.0970755815505981,0,0,0
7126,257964.50203374107,2010-12-23 11:49:35,3541.7774519068603,2,25,0.5499359965324402,4.073544025421143,21.456664514262947,20.89162013441048,86.08946115475827,75.68897862759513,9.70840483205393e-05,0.0970755815505981,0,0,0
7127,257994.517130926,2010-12-23 11:50:05,3571.792549066716,2,25,0.5499359965324402,4.076296329498291,21.46125114361377,20.89162013441048,86.10815125459561,75.68897862759513,6.47544875391759e-05,0.0970755815505981,0,0,0
7128,258024.5321569388,2010-12-23 11:50:35,3601.807575104587,2,25,0.5501165986061096,4.07921028137207,21.465837785591155,20.89162013441048,86.1268548593946,75.68897862759513,3.24249267578125e-05,0.0970755815505981,0,0,0
7129,258054.54723368285,2010-12-23 11:51:05,3631.822651848639,2,25,0.5501165986061096,4.0822858810424805,21.47042440762123,20.89162013441048,86.1455719115303,75.68897862759513,6.47544875391759e-05,0.0970755815505981,0,0,0
7130,258084.56229013132,2010-12-23 11:51:35,3661.837708272123,2,25,0.5499359965324402,4.085038185119629,21.475010927521904,20.89162013441048,86.16430211148412,75.68897862759513,3.24249267578125e-05,0.0970755815505981,0,0,0
7131,258114.5773663642,2010-12-23 11:52:05,3691.852784514928,2,25,0.5501165986061096,4.088113784790039,21.47959759614772,20.89162013441048,86.18304667073735,75.68897862759513,3.23295607813634e-05,0.0970755815505981,0,0,0
7132,258144.5924519653,2010-12-23 11:52:35,3721.867870206244,2,25,0.5501165986061096,4.091351509094238,21.48418424608621,20.89162013441048,86.20180502377679,75.68897862759513,6.47544875391759e-05,0.0970755815505981,0,0,0
7133,258174.60748843916,2010-12-23 11:53:05,3751.882906584848,2,25,0.5501165986061096,4.094265460968018,21.488770900157892,20.89162013441048,86.22057728507272,75.68897862759513,6.47544875391759e-05,0.0970755815505981,0,0,0
7134,258204.622548226,2010-12-23 11:53:35,3781.8979663666896,2,25,0.5501165986061096,4.097503185272217,21.49335749822252,20.89162013441048,86.23936337426696,75.68897862759513,9.70840483205393e-05,0.0970755815505981,0,0,0
7135,258234.63761492496,2010-12-23 11:54:05,3811.9130330707567,2,25,0.550297200679779,4.100740909576416,21.4979443929594,20.89162013441048,86.25816498099897,75.68897862759513,0.0001295089750783,0.0970755815505981,0,0,0
7136,258264.6526696543,2010-12-23 11:54:35,3841.9280878000254,2,25,0.5501165986061096,4.103816986083984,21.50253181915449,20.89162013441048,86.27698307102169,75.68897862759513,0.0001295089750783,0.0970755815505981,0,0,0
7137,258294.6677981471,2010-12-23 11:55:05,3871.943216292851,2,25,0.550297200679779,4.1068925857543945,21.507118940652795,20.89162013441048,86.2958144065486,75.68897862759513,9.70840483205393e-05,0.0970755815505981,0,0,0
7138,258324.6830807785,2010-12-23 11:55:35,3901.9584989192335,2,25,0.550297200679779,4.110130310058594,21.51170556924011,20.89162013441048,86.31465826677758,75.68897862759513,0.0001295089750783,0.0970755815505981,0,0,0
7139,258354.69787171631,2010-12-23 11:56:05,3931.9732898570674,2,25,0.5499359965324402,4.113368034362793,21.51629210668563,20.89162013441048,86.33351644604696,75.68897862759513,9.70840483205393e-05,0.0970755815505981,0,0,0
7140,258384.71294322732,2010-12-23 11:56:35,3961.9883613781217,2,25,0.5501165986061096,4.116605758666992,21.52087861956433,20.89162013441048,86.35238936232945,75.68897862759513,9.71794142969884e-05,0.0970755815505981,0,0,0
7141,258414.72804854249,2010-12-23 11:57:05,3992.0034667734703,2,25,0.550297200679779,4.119681358337402,21.52546522680294,20.89162013441048,86.37127762598503,75.68897862759513,6.47544875391759e-05,0.0970755815505981,0,0,0
7142,258444.7430796079,2010-12-23 11:57:35,4022.018497748628,2,25,0.5501165986061096,4.123081207275391,21.53005181012416,20.89162013441048,86.39018083512258,75.68897862759513,6.47544875391759e-05,0.0970755815505981,0,0,0
7143,258474.75813867795,2010-12-23 11:58:05,4052.0335568186993,2,25,0.5501165986061096,4.12631893157959,21.534638382905065,20.89162013441048,86.40909912968152,75.68897862759513,9.71794142969884e-05,0.0970755815505981,0,0,0
7144,258504.7731945601,2010-12-23 11:58:35,4082.048612725898,2,25,0.550297200679779,4.129880428314209,21.539224975042057,20.89162013441048,86.42803276050324,75.68897862759513,9.71794142969884e-05,0.0970755815505981,0,0,0
7145,258534.7883191883,2010-12-23 11:59:05,4112.06373743932,2,25,0.5501165986061096,4.133118152618408,21.54381164380471,20.89162013441048,86.44698216371708,75.68897862759513,9.71794142969884e-05,0.0970755815505981,0,0,0
7146,258564.80330456505,2010-12-23 11:59:35,4142.078722730796,2,25,0.5501165986061096,4.136517524719238,21.54839826489576,20.89162013441048,86.46594676120363,75.68897862759513,0.0001295089750783,0.0970755815505981,0,0,0
7147,258594.8184820046,2010-12-23 12:00:05,4172.093900155387,2,25,0.5501165986061096,4.1397552490234375,21.55298486821988,20.89162013441048,86.48492692743494,75.68897862759513,6.47544875391759e-05,0.0970755815505981,0,0,0
7148,258624.8334258129,2010-12-23 12:00:35,4202.108843953608,2,25,0.5501165986061096,4.143316745758057,21.55757146276361,20.89162013441048,86.50392284834206,75.68897862759513,6.47544875391759e-05,0.0970755815505981,0,0,0
7149,258654.8485006572,2010-12-23 12:01:05,4232.123918822995,2,25,0.5499359965324402,4.146878242492676,21.56215811216114,20.89162013441048,86.52293503312283,75.68897862759513,6.47544875391759e-05,0.0970755815505981,0,0,0
7150,258684.86357916065,2010-12-23 12:01:35,4262.138997366524,2,25,0.550297200679779,4.150601863861084,21.56674467818309,20.89162013441048,86.54196304603127,75.68897862759513,0.0001295089750783,0.0970755815505981,0,0,0
7151,258714.8788864434,2010-12-23 12:02:05,4292.154304644249,2,25,0.5501165986061096,4.153839588165283,21.571331319985923,20.89162013441048,86.56100753165003,75.68897862759513,6.47544875391759e-05,0.0970755815505981,0,0,0
7152,258744.89369813283,2010-12-23 12:02:35,4322.169116293623,2,25,0.5501165986061096,4.157401084899902,21.57591788629149,20.89162013441048,86.58006784148154,75.68897862759513,9.71794142969884e-05,0.0970755815505981,0,0,0
7153,258774.91172170496,2010-12-23 12:03:05,4352.18713996098,2,25,0.5501165986061096,4.1609625816345215,21.58050486804229,20.89162013441048,86.59914627908495,75.68897862759513,9.71794142969884e-05,0.0970755815505981,0,0,0
7154,258804.9238236563,2010-12-23 12:03:35,4382.1992418021,2,25,0.5501165986061096,4.164524078369141,21.5850909711248,20.89162013441048,86.61823748190959,75.68897862759513,6.47544875391759e-05,0.0970755815505981,0,0,0
7155,258834.9388770824,2010-12-23 12:04:05,4412.21429523815,2,25,0.5501165986061096,4.168247222900391,21.589677570032453,20.89162013441048,86.63734728119064,75.68897862759513,9.70840483205393e-05,0.0970755815505981,0,0,0
7156,258864.9540654893,2010-12-23 12:04:35,4442.229483695195,2,25,0.5501165986061096,4.171970844268799,21.59426419087677,20.89162013441048,86.65647393072923,75.68897862759513,9.71794142969884e-05,0.0970755815505981,0,0,0
7157,258894.96914130103,2010-12-23 12:05:05,4472.244559441765,2,25,0.5501165986061096,4.175532341003418,21.598850771168102,20.89162013441048,86.67561716432172,75.68897862759513,6.47544875391759e-05,0.0970755815505981,0,0,0
7158,258924.9840565532,2010-12-23 12:05:35,4502.25947469395,2,25,0.5501165986061096,4.179255485534668,21.60343735366862,20.89162013441048,86.69477729832172,75.68897862759513,9.70840483205393e-05,0.0970755815505981,0,0,0
7159,258954.99927200744,2010-12-23 12:06:05,4532.274690148177,2,25,0.5501165986061096,4.182979106903076,21.60802403684877,20.89162013441048,86.71395485696632,75.68897862759513,9.71794142969884e-05,0.0970755815505981,0,0,0
7160,258985.0141919112,2010-12-23 12:06:35,4562.28961005695,2,25,0.5499359965324402,4.186702251434326,21.612610723362017,20.89162013441048,86.73314955334091,75.68897862759513,6.47544875391759e-05,0.0970755815505981,0,0,0
7161,259015.02926271543,2010-12-23 12:07:05,4592.30468086122,2,25,0.5501165986061096,4.190425872802734,21.61719733644725,20.89162013441048,86.75236114636125,75.68897862759513,6.47544875391759e-05,0.0970755815505981,0,0,0
7162,259045.044317144,2010-12-23 12:07:35,4622.319735284728,2,25,0.5501165986061096,4.194311141967773,21.62178401764846,20.89162013441048,86.7715904332283,75.68897862759513,9.71794142969884e-05,0.0970755815505981,0,0,0
7163,259075.0593815774,2010-12-23 12:08:05,4652.3347997181445,2,25,0.5501165986061096,4.198034286499023,21.626370669578492,20.89162013441048,86.79083702928453,75.68897862759513,6.47544875391759e-05,0.0970755815505981,0,0,0
7164,259088.9653912276,2010-12-23 12:08:19,4666.240809373325,2,25,0.5501165986061096,4.200138568878174,21.62849568152184,20.89162013441048,86.79975998455848,75.68897862759513,0.0001295089750783,0.0970755815505981,0,0,0
7165,259118.97834625567,2010-12-23 12:08:49,30.014970599915944,3,25,0.0,4.109806537628174,21.62849568152184,20.89162013441048,86.79975998455848,75.68897862759513,-0.0003885269106831,0.0970755815505981,0,0,0
7166,259148.99351279825,2010-12-23 12:09:19,60.03013711235266,3,25,0.0,4.098150730133057,21.62849568152184,20.89162013441048,86.79975998455848,75.68897862759513,-0.0002590179501567,0.0970755815505981,0,0,0
7167,259179.0086037777,2010-12-23 12:09:49,90.0452281118784,3,25,0.0,4.091675281524658,21.62849568152184,20.89162013441048,86.79975998455848,75.68897862759513,-0.0001295089750783,0.0970755815505981,0,0,0
7168,259208.9767822823,2010-12-23 12:10:19,120.01340662648975,3,25,0.0,4.087142467498779,21.62849568152184,20.89162013441048,86.79975998455848,75.68897862759513,-9.71794142969884e-05,0.0970755815505981,0,0,0
7169,259208.97701133756,2010-12-23 12:10:19,2.726785501e-06,4,25,1.009225368499756,4.199814796447754,21.628495682286264,20.89162013441048,86.79975998776895,75.68897862759513,0.0,0.0970755815505981,0,0,0
7170,259209.74263362915,2010-12-23 12:10:20,0.76562503344862,4,25,0.9582935571670532,4.199653148651123,21.628703483972803,20.89162013441048,86.80063269412348,75.68897862759513,-3.23295607813634e-05,0.0970755815505981,0,0,0
7171,259211.6019577507,2010-12-23 12:10:22,2.624949245237187,4,25,0.9082648158073424,4.199491024017334,21.62918448714356,20.89162013441048,86.8026527638682,75.68897862759513,-6.47544875391759e-05,0.0970755815505981,0,0,0
7172,259214.44569242507,2010-12-23 12:10:25,5.468683919599927,4,25,0.8582360148429871,4.199814796447754,21.629881147773325,20.89162013441048,86.80557852876427,75.68897862759513,3.23295607813634e-05,0.0970755815505981,0,0,0
7173,259218.414364137,2010-12-23 12:10:29,9.437355556326706,4,25,0.8082072734832764,4.199814796447754,21.630798406248648,20.89162013441048,86.80943073751314,75.68897862759513,3.23295607813634e-05,0.0970755815505981,0,0,0
7174,259223.6330129238,2010-12-23 12:10:34,14.65600434812784,4,25,0.7576366662979126,4.199653148651123,21.63193199674523,20.89162013441048,86.81419151584349,75.68897862759513,0.0,0.0970755815505981,0,0,0
7175,259230.4454146184,2010-12-23 12:10:41,21.46840611290403,4,25,0.7074273228645325,4.199653148651123,21.63331661401068,20.89162013441048,86.82000652620557,75.68897862759513,-3.23295607813634e-05,0.0970755815505981,0,0,0
7176,259239.53889402715,2010-12-23 12:10:50,30.56188542642653,4,25,0.657398521900177,4.199653148651123,21.635037189653225,20.89162013441048,86.82723249599464,75.68897862759513,-3.23295607813634e-05,0.0970755815505981,0,0,0
7177,259251.97622164857,2010-12-23 12:11:02,42.99921309296595,4,25,0.6071891188621521,4.199653148651123,21.63721698994961,20.89162013441048,86.83638721038356,75.68897862759513,-3.23295607813634e-05,0.0970755815505981,0,0,0
7178,259270.80407548367,2010-12-23 12:11:21,61.827066943123846,4,25,0.5567991733551025,4.199814796447754,21.64025212411862,20.89162013441048,86.84913416030945,75.68897862759513,0.0,0.0970755815505981,0,0,0
7179,259302.92836570932,2010-12-23 12:11:53,93.95135711366362,4,25,0.5067703723907471,4.199653148651123,21.644977693226583,20.89162013441048,86.8689805856969,75.68897862759513,-3.23295607813634e-05,0.0970755815505981,0,0,0
7180,259362.5212573983,2010-12-23 12:12:53,153.54424890785918,4,25,0.4567416310310364,4.199653148651123,21.652914197016507,20.89162013441048,86.90231219573717,75.68897862759513,0.0,0.0970755815505981,0,0,0
7181,259457.9723928978,2010-12-23 12:14:28,248.99538440233965,4,25,0.4065322279930115,4.199653148651123,21.66433401271385,20.89162013441048,86.95027306433376,75.68897862759513,0.0,0.0970755815505981,0,0,0
7182,259580.68881765092,2010-12-23 12:16:31,371.7118090602383,4,25,0.3563228547573089,4.199814796447754,21.67732512136593,20.89162013441048,87.00483304985346,75.68897862759513,0.0,0.0970755815505981,0,0,0
7183,259726.73296516493,2010-12-23 12:18:57,517.7559565642194,4,25,0.3061134815216064,4.199814796447754,21.69075136134956,20.89162013441048,87.0612205351803,75.68897862759513,0.0,0.0970755815505981,0,0,0
7184,259903.15153255456,2010-12-23 12:21:54,694.1745239488265,4,25,0.2560847103595733,4.199653148651123,21.704506670975437,20.89162013441048,87.11899003281657,75.68897862759513,-3.23295607813634e-05,0.0970755815505981,0,0,0
7185,260119.85061475603,2010-12-23 12:25:30,910.8736061603298,4,25,0.2060559391975402,4.199653148651123,21.71837409806482,20.89162013441048,87.17723034439027,75.68897862759513,0.0,0.0970755815505981,0,0,0
7186,260406.7046308021,2010-12-23 12:30:17,1197.7276222014011,4,25,0.1560271680355072,4.199653148651123,21.73271667188231,20.89162013441048,87.23746615495143,75.68897862759513,-3.23295607813634e-05,0.0970755815505981,0,0,0
7187,260837.00908822927,2010-12-23 12:37:28,1628.0320796285373,4,25,0.1059984043240547,4.199653148651123,21.74817144257889,20.89162013441048,87.30237299175899,75.68897862759513,-6.47544875391759e-05,0.0970755815505981,0,0,0
