Data_Point,Test_Time(s),Date_Time,Step_Time(s),Step_Index,Cycle_Index,Current(A),Voltage(V),Charge_Capacity(Ah),Discharge_Capacity(Ah),Charge_Energy(Wh),Discharge_Energy(Wh),dV/dt(V/s),Internal_Resistance(Ohm),Is_FC_Data,AC_Impedance(Ohm),ACI_Phase_Angle(Deg)
5550,201722.32694730072,2010-12-22 20:12:06,30.01220573966756,1,20,0.0,3.492860078811645,16.58063980316507,16.564388793524405,66.56374119035162,59.9967089327108,0.0007770538213662,0.0962666198611259,0,0,0
5551,201752.3419868021,2010-12-22 20:12:36,60.02724516084256,1,20,0.0,3.5169808864593506,16.58063980316507,16.564388793524405,66.56374119035162,59.9967089327108,0.0005504131549969,0.0962666198611259,0,0,0
5552,201782.3569183849,2010-12-22 20:13:06,90.04217674366599,1,20,0.0,3.534950256347656,16.58063980316507,16.564388793524405,66.56374119035162,59.9967089327108,0.0004209041653666,0.0962666198611259,0,0,0
5553,201812.3252542411,2010-12-22 20:13:36,120.0105125998157,1,20,0.0,3.549196243286133,16.58063980316507,16.564388793524405,66.56374119035162,59.9967089327108,0.0003237724304199,0.0962666198611259,0,0,0
5554,201842.34781044043,2010-12-22 20:14:06,30.01508699455953,2,20,0.5499359965324402,3.6897130012512207,16.58522553360755,16.564388793524405,66.5805369366689,59.9967089327108,0.0011979580158367,0.0962666198611259,0,0,0
5555,201872.3628824627,2010-12-22 20:14:36,60.030158996811295,2,20,0.5499359965324402,3.7238709926605225,16.589811216599617,16.564388793524405,66.59754101826225,59.9967089327108,0.0007446765666827,0.0962666198611259,0,0,0
5556,201902.37792053053,2010-12-22 20:15:06,90.04519706461849,2,20,0.5501165986061096,3.7478301525115967,16.594397317188605,16.564388793524405,66.61467703793544,59.9967089327108,0.0005504131549969,0.0962666198611259,0,0,0
5557,201932.3929822221,2010-12-22 20:15:36,120.06025877626249,2,20,0.5501165986061096,3.764827966690064,16.59898388756321,16.564388793524405,66.63190787581537,59.9967089327108,0.0003885269106831,0.0962666198611259,0,0,0
5558,201962.4080567156,2010-12-22 20:16:06,150.07533326470102,2,20,0.5501165986061096,3.7764837741851807,16.60357044613781,16.564388793524405,66.64920365942646,59.9967089327108,0.0002590179501567,0.0962666198611259,0,0,0
5559,201992.42314720384,2010-12-22 20:16:36,180.09042375796693,2,20,0.5501165986061096,3.784254312515259,16.60815706084339,16.564388793524405,66.66654336935011,59.9967089327108,0.0001942634553415,0.0962666198611259,0,0,0
5560,202022.43819742184,2010-12-22 20:17:06,210.10547395595964,2,20,0.5501165986061096,3.790405988693237,16.612743662420346,16.564388793524405,66.68391497404498,59.9967089327108,0.0001295089750783,0.0962666198611259,0,0,0
5561,202052.4532704216,2010-12-22 20:17:36,240.1205469506811,2,20,0.5499359965324402,3.796072006225586,16.617330314107186,16.564388793524405,66.70131365129797,59.9967089327108,0.0001618862152099,0.0962666198611259,0,0,0
5562,202082.4683486544,2010-12-22 20:18:06,270.13562518343724,2,20,0.550297200679779,3.8012523651123047,16.621916941475508,16.564388793524405,66.71873678941776,59.9967089327108,0.0001295089750783,0.0962666198611259,0,0,0
5563,202112.4834188872,2010-12-22 20:18:36,300.1506954162859,2,20,0.550297200679779,3.806108951568604,16.62650361279144,16.564388793524405,66.73618293368732,59.9967089327108,0.0001295089750783,0.0962666198611259,0,0,0
5564,202142.4984851652,2010-12-22 20:19:06,330.1657616993056,2,20,0.5501165986061096,3.8106417655944815,16.631090324832833,16.564388793524405,66.75365095333709,59.9967089327108,9.713172767078504e-05,0.0962666198611259,0,0,0
5565,202172.51355297203,2010-12-22 20:19:36,360.1808295061172,2,20,0.5501165986061096,3.8153364658355713,16.635677029774044,16.564388793524405,66.77113981988657,59.9967089327108,0.0001618862152099,0.0962666198611259,0,0,0
5566,202202.52864191643,2010-12-22 20:20:06,390.1959184705787,2,20,0.550297200679779,3.81970739364624,16.64026378687796,16.564388793524405,66.78864911010238,59.9967089327108,0.0001618862152099,0.0962666198611259,0,0,0
5567,202232.5437013223,2010-12-22 20:20:36,420.21097785142257,2,20,0.5501165986061096,3.823754549026489,16.644850482629256,16.564388793524405,66.80617748473942,59.9967089327108,0.0001295089750783,0.0962666198611259,0,0,0
5568,202262.5587667733,2010-12-22 20:21:07,450.2260433023717,2,20,0.5501165986061096,3.8278017044067374,16.64943711258768,16.564388793524405,66.82372458978858,59.9967089327108,9.713172767078504e-05,0.0962666198611259,0,0,0
5569,202292.57398734023,2010-12-22 20:21:37,480.24126393448313,2,20,0.5501165986061096,3.831686973571777,16.654023777101063,16.564388793524405,66.84129034481454,59.9967089327108,6.47544875391759e-05,0.0962666198611259,0,0,0
5570,202322.58894029623,2010-12-22 20:22:07,510.2562169155552,2,20,0.5501165986061096,3.8357338905334473,16.65861038181824,16.564388793524405,66.85887407586885,59.9967089327108,0.0001295089750783,0.0962666198611259,0,0,0
5571,202352.6040136669,2010-12-22 20:22:37,540.2712902862122,2,20,0.5501165986061096,3.8396191596984863,16.66319707230338,16.564388793524405,66.87647619098885,59.9967089327108,0.0001295089750783,0.0962666198611259,0,0,0
5572,202382.61905058185,2010-12-22 20:23:07,570.2863271159385,2,20,0.5501165986061096,3.843504428863525,16.667783693096712,16.564388793524405,66.8940959517926,59.9967089327108,9.713172767078504e-05,0.0962666198611259,0,0,0
5573,202412.634135396,2010-12-22 20:23:37,600.3014119250596,2,20,0.550297200679779,3.8475515842437744,16.672370368662982,16.564388793524405,66.91173371468966,59.9967089327108,0.0001942634553415,0.0962666198611259,0,0,0
5574,202442.64930971284,2010-12-22 20:24:07,630.3165862519423,2,20,0.5501165986061096,3.851274967193604,16.676957027505907,16.564388793524405,66.9293891879626,59.9967089327108,0.0001295089750783,0.0962666198611259,0,0,0
5575,202472.66445410025,2010-12-22 20:24:37,660.3317307195213,2,20,0.5501165986061096,3.8551602363586426,16.681543631678664,16.564388793524405,66.94706197949995,59.9967089327108,0.0001295089750783,0.0962666198611259,0,0,0
5576,202502.6793437938,2010-12-22 20:25:07,690.3466203830301,2,20,0.5501165986061096,3.8587217330932617,16.686130224131812,16.564388793524405,66.96475227155653,59.9967089327108,6.47544875391759e-05,0.0962666198611259,0,0,0
5577,202532.6944000068,2010-12-22 20:25:37,720.3616765358411,2,20,0.550297200679779,3.862445116043091,16.69071677978537,16.564388793524405,66.98245954310306,59.9967089327108,9.713172767078504e-05,0.0962666198611259,0,0,0
5578,202562.7094734877,2010-12-22 20:26:07,750.3767500368224,2,20,0.5499359965324402,3.86600661277771,16.695303434459426,16.564388793524405,67.00018409554586,59.9967089327108,3.237724376958795e-05,0.0962666198611259,0,0,0
5579,202592.72457664745,2010-12-22 20:26:37,780.3918532717955,2,20,0.550297200679779,3.869729995727539,16.69989007524747,16.564388793524405,67.01792500706469,59.9967089327108,9.713172767078504e-05,0.0962666198611259,0,0,0
5580,202622.73962675023,2010-12-22 20:27:07,810.4069032793143,2,20,0.5501165986061096,3.873129606246948,16.704476686071718,16.564388793524405,67.03568168161223,59.9967089327108,9.713172767078504e-05,0.0962666198611259,0,0,0
5581,202652.7546099164,2010-12-22 20:27:37,840.4218864505134,2,20,0.5499359965324402,3.876367330551148,16.709063369875118,16.564388793524405,67.05345398576605,59.9967089327108,9.713172767078504e-05,0.0962666198611259,0,0,0
5582,202682.76973712604,2010-12-22 20:28:07,870.437013675184,2,20,0.5501165986061096,3.8796050548553462,16.713650000451555,16.564388793524405,67.07124082914686,59.9967089327108,9.713172767078504e-05,0.0962666198611259,0,0,0
5583,202712.78477600584,2010-12-22 20:28:37,900.4520525650368,2,20,0.5501165986061096,3.882519006729126,16.718236523616323,16.564388793524405,67.08904136635482,59.9967089327108,9.713172767078504e-05,0.0962666198611259,0,0,0
5584,202742.799913446,2010-12-22 20:29:07,930.4671900001156,2,20,0.5501165986061096,3.885432958602905,16.72282320392123,16.564388793524405,67.10685604939847,59.9967089327108,6.47544875391759e-05,0.0962666198611259,0,0,0
5585,202772.81501877116,2010-12-22 20:29:37,960.4822953202778,2,20,0.5501165986061096,3.887861251831055,16.727409821287555,16.564388793524405,67.12468323311812,59.9967089327108,0.0,0.0962666198611259,0,0,0
5586,202802.8293637743,2010-12-22 20:30:07,990.4966403033704,2,20,0.550297200679779,3.890775203704834,16.73199403885221,16.564388793524405,67.14251318779861,59.9967089327108,9.713172767078504e-05,0.0962666198611259,0,0,0
5587,202832.8295020796,2010-12-22 20:30:37,1020.496778613704,2,20,0.5501165986061096,3.893365383148194,16.736580656470682,16.564388793524405,67.1603639333737,59.9967089327108,0.0001295089750783,0.0962666198611259,0,0,0
5588,202862.84463587563,2010-12-22 20:31:07,1050.511912469877,2,20,0.5499359965324402,3.895146131515503,16.741167329981536,16.564388793524405,67.17822557201508,59.9967089327108,3.237724376958795e-05,0.0962666198611259,0,0,0
5589,202892.85967724663,2010-12-22 20:31:37,1080.5269537857669,2,20,0.5501165986061096,3.8974125385284415,16.74575386621546,16.564388793524405,67.19609683987545,59.9967089327108,0.0,0.0962666198611259,0,0,0
5590,202922.8747655545,2010-12-22 20:32:07,1110.5420420835696,2,20,0.5501165986061096,3.899840831756592,16.75034043580451,16.564388793524405,67.21397818811316,59.9967089327108,9.713172767078504e-05,0.0962666198611259,0,0,0
5591,202952.88983341644,2010-12-22 20:32:37,1140.5571099455185,2,20,0.550297200679779,3.9017834663391113,16.754927036926603,16.564388793524405,67.23186912359947,59.9967089327108,6.47544875391759e-05,0.0962666198611259,0,0,0
5592,202982.90491262663,2010-12-22 20:33:07,1170.5721891607193,2,20,0.5501165986061096,3.903726100921631,16.759513627330143,16.564388793524405,67.24976920318153,59.9967089327108,6.47544875391759e-05,0.0962666198611259,0,0,0
5593,203012.92008566528,2010-12-22 20:33:37,1200.5873622044087,2,20,0.5501165986061096,3.9056687355041504,16.764100195455782,16.564388793524405,67.26767805303326,59.9967089327108,6.47544875391759e-05,0.0962666198611259,0,0,0
5594,203042.9350245864,2010-12-22 20:34:07,1230.6023011204804,2,20,0.5501165986061096,3.90744948387146,16.76868667158554,16.564388793524405,67.2855951901635,59.9967089327108,3.237724376958795e-05,0.0962666198611259,0,0,0
5595,203072.95010980652,2010-12-22 20:34:37,1260.617386335612,2,20,0.5501165986061096,3.9092302322387695,16.773273182823154,16.564388793524405,67.30352095101453,59.9967089327108,3.237724376958795e-05,0.0962666198611259,0,0,0
5596,203102.9651822198,2010-12-22 20:35:07,1290.6324587488866,2,20,0.5501165986061096,3.911172866821289,16.77785974008108,16.564388793524405,67.32145529582796,59.9967089327108,6.47544875391759e-05,0.0962666198611259,0,0,0
5597,203132.98025960545,2010-12-22 20:35:37,1320.647536134535,2,20,0.5499359965324402,3.9127917289733887,16.782446252938325,16.564388793524405,67.3393977530536,59.9967089327108,3.237724376958795e-05,0.0962666198611259,0,0,0
5598,203162.9953245702,2010-12-22 20:36:07,1350.6626010992738,2,20,0.5499359965324402,3.914572238922119,16.78703278643178,16.564388793524405,67.35734852385033,59.9967089327108,3.237724376958795e-05,0.0962666198611259,0,0,0
5599,203193.01043254192,2010-12-22 20:36:37,1380.677709181309,2,20,0.5501165986061096,3.9163529872894287,16.791619412158685,16.564388793524405,67.37530773609954,59.9967089327108,3.237724376958795e-05,0.0962666198611259,0,0,0
5600,203223.02547040925,2010-12-22 20:37:07,1410.692746938343,2,20,0.5501165986061096,3.9181337356567374,16.796205937726835,16.564388793524405,67.3932746936402,59.9967089327108,3.237724376958795e-05,0.0962666198611259,0,0,0
5601,203253.0405363364,2010-12-22 20:37:37,1440.7078128654769,2,20,0.5501165986061096,3.919914484024048,16.80079249472677,16.564388793524405,67.41124985341999,59.9967089327108,3.237724376958795e-05,0.0962666198611259,0,0,0
5602,203283.0557317157,2010-12-22 20:38:07,1470.723008344997,2,20,0.5501165986061096,3.921695232391357,16.805379083037266,16.564388793524405,67.42923315191817,59.9967089327108,3.237724376958795e-05,0.0962666198611259,0,0,0
5603,203313.07068198,2010-12-22 20:38:37,1500.7379585090591,2,20,0.5499359965324402,3.923475980758667,16.80996562251002,16.564388793524405,67.44722424414125,59.9967089327108,3.237724376958795e-05,0.0962666198611259,0,0,0
5604,203343.0857610348,2010-12-22 20:39:07,1530.753037563861,2,20,0.5501165986061096,3.925094842910767,16.814552134192343,16.564388793524405,67.46522325461542,59.9967089327108,0.0,0.0962666198611259,0,0,0
5605,203373.1008722396,2010-12-22 20:39:37,1560.768148798741,2,20,0.5501165986061096,3.926875591278076,16.819138813700654,16.564388793524405,67.48323089878748,59.9967089327108,3.237724376958795e-05,0.0962666198611259,0,0,0
5606,203403.11628607247,2010-12-22 20:40:07,1590.7835626967878,2,20,0.550297200679779,3.928494453430176,16.823726203511708,16.564388793524405,67.50124939203998,59.9967089327108,3.237724376958795e-05,0.0962666198611259,0,0,0
5607,203433.13088983952,2010-12-22 20:40:37,1620.798166368617,2,20,0.5501165986061096,3.930275201797485,16.828313445506325,16.564388793524405,67.51927532022648,59.9967089327108,3.237724376958795e-05,0.0962666198611259,0,0,0
5608,203463.14690614663,2010-12-22 20:41:07,1650.8141827408976,2,20,0.5501165986061096,3.932217836380005,16.832900837144113,16.564388793524405,67.53730977817416,59.9967089327108,6.47544875391759e-05,0.0962666198611259,0,0,0
5609,203493.14862408783,2010-12-22 20:41:37,1680.8159007071442,2,20,0.550297200679779,3.933836698532105,16.837486117427137,16.564388793524405,67.55534389404279,59.9967089327108,3.237724376958795e-05,0.0962666198611259,0,0,0
5610,203523.1605835697,2010-12-22 20:42:07,1710.8278602140713,2,20,0.550297200679779,3.935779333114624,16.842073014883542,16.564388793524405,67.57339238980065,59.9967089327108,6.47544875391759e-05,0.0962666198611259,0,0,0
5611,203553.1756976266,2010-12-22 20:42:37,1740.8429742709743,2,20,0.5501165986061096,3.937398195266724,16.846660371807573,16.564388793524405,67.59145057870566,59.9967089327108,6.47544875391759e-05,0.0962666198611259,0,0,0
5612,203583.19068235168,2010-12-22 20:43:07,1770.8579588857656,2,20,0.550297200679779,3.9390170574188232,16.851247092275198,16.564388793524405,67.60951430391019,59.9967089327108,3.237724376958795e-05,0.0962666198611259,0,0,0
5613,203613.20577579227,2010-12-22 20:43:37,1800.8730523213535,2,20,0.550297200679779,3.940959692001343,16.85583379899365,16.564388793524405,67.62758599259638,59.9967089327108,6.47544875391759e-05,0.0962666198611259,0,0,0
5614,203643.2208344012,2010-12-22 20:44:07,1830.8881109302763,2,20,0.5499359965324402,3.942740440368652,16.860420471535313,16.564388793524405,67.6456655234669,59.9967089327108,6.47544875391759e-05,0.0962666198611259,0,0,0
5615,203673.2359092856,2010-12-22 20:44:37,1860.9031858147,2,20,0.5499359965324402,3.944359302520752,16.865007203139722,16.564388793524405,67.66375331881937,59.9967089327108,6.47544875391759e-05,0.0962666198611259,0,0,0
5616,203703.25100008465,2010-12-22 20:45:07,1890.9182767039515,2,20,0.5499359965324402,3.946301937103272,16.869594013423644,16.564388793524405,67.68184949828827,59.9967089327108,6.47544875391759e-05,0.0962666198611259,0,0,0
5617,203733.26607411692,2010-12-22 20:45:37,1920.9333506460307,2,20,0.5501165986061096,3.947758913040161,16.874180749842516,16.564388793524405,67.69995329810708,59.9967089327108,3.237724376958795e-05,0.0962666198611259,0,0,0
5618,203763.2811367208,2010-12-22 20:46:07,1950.9484132699447,2,20,0.5501165986061096,3.949539661407471,16.878767435538713,16.564388793524405,67.71806494181529,59.9967089327108,3.237724376958795e-05,0.0962666198611259,0,0,0
5619,203793.29618732983,2010-12-22 20:46:37,1980.9634638589105,2,20,0.5501165986061096,3.95132040977478,16.88335415857222,16.564388793524405,67.73618488808351,59.9967089327108,0.0,0.0962666198611259,0,0,0
5620,203823.3113985886,2010-12-22 20:47:07,2010.9786751176969,2,20,0.5501165986061096,3.95310115814209,16.887940898281293,16.564388793524405,67.75431294371748,59.9967089327108,6.47544875391759e-05,0.0962666198611259,0,0,0
5621,203853.3263445572,2010-12-22 20:47:37,2040.9936210963435,2,20,0.5501165986061096,3.9548819065094,16.89252763723318,16.564388793524405,67.77244914739687,59.9967089327108,3.237724376958795e-05,0.0962666198611259,0,0,0
5622,203883.3415880212,2010-12-22 20:48:07,2071.008864665533,2,20,0.5501165986061096,3.956824541091919,16.897114424930443,16.564388793524405,67.79059372161721,59.9967089327108,6.47544875391759e-05,0.0962666198611259,0,0,0
5623,203913.35648186508,2010-12-22 20:48:37,2101.02375839917,2,20,0.5499359965324402,3.9584434032440186,16.901701135204487,16.564388793524405,67.80874606540013,59.9967089327108,3.237724376958795e-05,0.0962666198611259,0,0,0
5624,203943.37155067932,2010-12-22 20:49:07,2131.0388272185014,2,20,0.550297200679779,3.960386037826538,16.90628785395419,16.564388793524405,67.82690677402928,59.9967089327108,3.237724376958795e-05,0.0962666198611259,0,0,0
5625,203973.38679041903,2010-12-22 20:49:37,2161.054066953149,2,20,0.5499359965324402,3.9620048999786377,16.910874592701838,16.564388793524405,67.84507587100101,59.9967089327108,3.237724376958795e-05,0.0962666198611259,0,0,0
5626,204003.40169282927,2010-12-22 20:50:07,2191.068969358365,2,20,0.5501165986061096,3.963947534561157,16.91546124913168,16.564388793524405,67.863252903433,59.9967089327108,6.47544875391759e-05,0.0962666198611259,0,0,0
5627,204033.41676917736,2010-12-22 20:50:37,2221.084045706431,2,20,0.5497553944587708,3.965728282928467,16.920047937846267,16.564388793524405,67.88143849484729,59.9967089327108,6.47544875391759e-05,0.0962666198611259,0,0,0
5628,204063.43184168587,2010-12-22 20:51:07,2251.0991182149423,2,20,0.550297200679779,3.9676709175109854,16.924634658349493,16.564388793524405,67.89963262925798,59.9967089327108,6.47544875391759e-05,0.0962666198611259,0,0,0
5629,204093.44691765297,2010-12-22 20:51:37,2281.1141941820606,2,20,0.5501165986061096,3.969451665878296,16.929221406033417,16.564388793524405,67.91783533430878,59.9967089327108,6.47544875391759e-05,0.0962666198611259,0,0,0
5630,204123.46198408137,2010-12-22 20:52:07,2311.129260610442,2,20,0.5499359965324402,3.9712324142456055,16.933808065373384,16.564388793524405,67.9360462365458,59.9967089327108,3.237724376958795e-05,0.0962666198611259,0,0,0
5631,204153.47705114636,2010-12-22 20:52:37,2341.144327675408,2,20,0.5501165986061096,3.973175048828125,16.938394812219418,16.564388793524405,67.95426610817199,59.9967089327108,3.237724376958795e-05,0.0962666198611259,0,0,0
5632,204183.49213379005,2010-12-22 20:53:07,2371.159410329165,2,20,0.550297200679779,3.975117683410645,16.94298152842158,16.564388793524405,67.97249456012987,59.9967089327108,3.237724376958795e-05,0.0962666198611259,0,0,0
5633,204213.50719990264,2010-12-22 20:53:37,2401.174476431736,2,20,0.5501165986061096,3.977222204208374,16.947568375631267,16.564388793524405,67.9907323241178,59.9967089327108,9.713172767078504e-05,0.0962666198611259,0,0,0
5634,204243.52226554407,2010-12-22 20:54:08,2431.189542073159,2,20,0.5501165986061096,3.979002952575684,16.952155067041375,16.564388793524405,68.00897788930627,59.9967089327108,3.237724376958795e-05,0.0962666198611259,0,0,0
5635,204273.537459575,2010-12-22 20:54:38,2461.2047361692366,2,20,0.5501165986061096,3.980945587158203,16.95674174243619,16.564388793524405,68.02723278357911,59.9967089327108,6.47544875391759e-05,0.0962666198611259,0,0,0
5636,204303.5524044609,2010-12-22 20:55:08,2491.219680990002,2,20,0.550297200679779,3.982888221740722,16.961328347138817,16.564388793524405,68.04549647957663,59.9967089327108,3.237724376958795e-05,0.0962666198611259,0,0,0
5637,204333.5674837914,2010-12-22 20:55:38,2521.2347603204894,2,20,0.550297200679779,3.984992742538452,16.9659150266035,16.564388793524405,68.06376951895194,59.9967089327108,6.47544875391759e-05,0.0962666198611259,0,0,0
5638,204363.58254526748,2010-12-22 20:56:08,2551.24982180156,2,20,0.5501165986061096,3.9867734909057617,16.97050162691615,16.564388793524405,68.08205145303917,59.9967089327108,0.0,0.0962666198611259,0,0,0
5639,204393.59763326956,2010-12-22 20:56:38,2581.264909803627,2,20,0.550297200679779,3.989039897918701,16.97508832757466,16.564388793524405,68.10034309513074,59.9967089327108,6.47544875391759e-05,0.0962666198611259,0,0,0
5640,204423.61277822836,2010-12-22 20:57:08,2611.2800548777145,2,20,0.5499359965324402,3.9908206462860103,16.97967488867273,16.564388793524405,68.11864356597921,59.9967089327108,3.237724376958795e-05,0.0962666198611259,0,0,0
5641,204453.6277755297,2010-12-22 20:57:38,2641.2950520637896,2,20,0.5501165986061096,3.99308705329895,16.984261461592812,16.564388793524405,68.1369536619098,59.9967089327108,3.237724376958795e-05,0.0962666198611259,0,0,0
5642,204483.64284364728,2010-12-22 20:58:08,2671.3101201813743,2,20,0.5501165986061096,3.995353221893311,16.988848136061375,16.564388793524405,68.15527375946554,59.9967089327108,6.47544875391759e-05,0.0962666198611259,0,0,0
5643,204513.65791321345,2010-12-22 20:58:38,2701.325189832776,2,20,0.5501165986061096,3.99729585647583,16.993434765797886,16.564388793524405,68.17360342189613,59.9967089327108,6.47544875391759e-05,0.0962666198611259,0,0,0
5644,204543.67310778573,2010-12-22 20:59:08,2731.3403843799765,2,20,0.5501165986061096,3.9995622634887695,16.9980214930137,16.564388793524405,68.19194327360209,59.9967089327108,9.713172767078504e-05,0.0962666198611259,0,0,0
5645,204573.68808088187,2010-12-22 20:59:38,2761.355357415954,2,20,0.5501165986061096,4.001828670501709,17.00260811976742,16.564388793524405,68.21029272363174,59.9967089327108,9.70840483205393e-05,0.0962666198611259,0,0,0
5646,204603.7031340071,2010-12-22 21:00:08,2791.370410536219,2,20,0.5501165986061096,4.003933429718018,17.00719477117919,16.564388793524405,68.22865229852128,59.9967089327108,6.47544875391759e-05,0.0962666198611259,0,0,0
5647,204633.71819218,2010-12-22 21:00:38,2821.3854686890068,2,20,0.5501165986061096,4.006037712097168,17.011781417373452,16.564388793524405,68.24702202458712,59.9967089327108,3.23295607813634e-05,0.0962666198611259,0,0,0
5648,204663.73326600177,2010-12-22 21:01:08,2851.4005425308364,2,20,0.5501165986061096,4.0084662437438965,17.01636809830606,16.564388793524405,68.26540209130268,59.9967089327108,6.47544875391759e-05,0.0962666198611259,0,0,0
5649,204693.74835522185,2010-12-22 21:01:38,2881.415631755947,2,20,0.5501165986061096,4.010732650756836,17.02095480022817,16.564388793524405,68.28379240859418,59.9967089327108,9.71794142969884e-05,0.0962666198611259,0,0,0
5650,204723.7634123872,2010-12-22 21:02:08,2911.4306889162644,2,20,0.550297200679779,4.012836933135986,17.02554152350595,16.564388793524405,68.3021931807299,59.9967089327108,3.23295607813634e-05,0.0962666198611259,0,0,0
5651,204753.7784888756,2010-12-22 21:02:38,2941.4457654096927,2,20,0.550297200679779,4.015265464782715,17.03012821676419,16.564388793524405,68.320604244491,59.9967089327108,6.47544875391759e-05,0.0962666198611259,0,0,0
5652,204783.7935676948,2010-12-22 21:03:08,2971.4608442238955,2,20,0.5501165986061096,4.017531871795654,17.034714873149543,16.564388793524405,68.33902564667682,59.9967089327108,6.47544875391759e-05,0.0962666198611259,0,0,0
5653,204813.8086737468,2010-12-22 21:03:38,3001.475950280891,2,20,0.5499359965324402,4.019798278808594,17.03930156472269,16.564388793524405,68.35745771547927,59.9967089327108,6.47544875391759e-05,0.0962666198611259,0,0,0
5654,204843.82372699736,2010-12-22 21:04:08,3031.491003526468,2,20,0.5501165986061096,4.022064685821533,17.04388820238224,16.564388793524405,68.3759003148366,59.9967089327108,6.47544875391759e-05,0.0962666198611259,0,0,0
5655,204873.83893136904,2010-12-22 21:04:38,3061.506207898116,2,20,0.5501165986061096,4.024331092834473,17.048474898265265,16.564388793524405,68.39435399134702,59.9967089327108,0.0,0.0962666198611259,0,0,0
5656,204903.8538929214,2010-12-22 21:05:08,3091.5211694505174,2,20,0.5499359965324402,4.026921272277832,17.05306154245861,16.564388793524405,68.41281840689784,59.9967089327108,6.47544875391759e-05,0.0962666198611259,0,0,0
5657,204933.86910559871,2010-12-22 21:05:38,3121.5363821278333,2,20,0.5499359965324402,4.029187679290772,17.057648259623633,16.564388793524405,68.43129423630131,59.9967089327108,3.24249267578125e-05,0.0962666198611259,0,0,0
5658,204963.88421550533,2010-12-22 21:06:08,3151.5514920444334,2,20,0.5501165986061096,4.031777858734131,17.062234932842873,16.564388793524405,68.44978101316336,59.9967089327108,6.47544875391759e-05,0.0962666198611259,0,0,0
5659,204993.8991589176,2010-12-22 21:06:38,3181.566435556944,2,20,0.5501165986061096,4.034205913543701,17.06682159262894,16.564388793524405,68.46827905970663,59.9967089327108,9.70840483205393e-05,0.0962666198611259,0,0,0
5660,205023.91439286785,2010-12-22 21:07:08,3211.581669487147,2,20,0.5501165986061096,4.0367960929870605,17.071408373112035,16.564388793524405,68.48678901987684,59.9967089327108,6.47544875391759e-05,0.0962666198611259,0,0,0
5661,205053.9293181901,2010-12-22 21:07:38,3241.596594729192,2,20,0.5501165986061096,4.039224147796631,17.07599508183243,16.564388793524405,68.50531022064949,59.9967089327108,6.47544875391759e-05,0.0962666198611259,0,0,0
5662,205083.94439701937,2010-12-22 21:08:08,3271.611673548407,2,20,0.5501165986061096,4.04181432723999,17.08058178201352,16.564388793524405,68.52384290375288,59.9967089327108,6.47544875391759e-05,0.0962666198611259,0,0,0
5663,205113.95948351765,2010-12-22 21:08:38,3301.626760046732,2,20,0.5501165986061096,4.04440450668335,17.085168478556874,16.564388793524405,68.54238734716988,59.9967089327108,6.47544875391759e-05,0.0962666198611259,0,0,0
5664,205143.97468072147,2010-12-22 21:09:08,3331.6419572505424,2,20,0.5501165986061096,4.046994686126709,17.08975518917054,16.564388793524405,68.56094369924244,59.9967089327108,6.47544875391759e-05,0.0962666198611259,0,0,0
5665,205173.9896578426,2010-12-22 21:09:38,3361.6569343716865,2,20,0.550297200679779,4.049746990203857,17.0943419062282,16.564388793524405,68.57951202731856,59.9967089327108,9.71794142969884e-05,0.0962666198611259,0,0,0
5666,205204.0047458196,2010-12-22 21:10:08,3391.672022348691,2,20,0.5501165986061096,4.052337169647217,17.09892865912285,16.564388793524405,68.59809255483519,59.9967089327108,9.71794142969884e-05,0.0962666198611259,0,0,0
5667,205234.01994362992,2010-12-22 21:10:38,3421.6872201940987,2,20,0.550297200679779,4.054927349090576,17.10351542406789,16.564388793524405,68.61668533833709,59.9967089327108,9.71794142969884e-05,0.0962666198611259,0,0,0
5668,205264.0348989368,2010-12-22 21:11:08,3451.702175475896,2,20,0.550297200679779,4.057679176330566,17.108102197739054,16.564388793524405,68.63529046351427,59.9967089327108,9.70840483205393e-05,0.0962666198611259,0,0,0
5669,205294.0500513441,2010-12-22 21:11:38,3481.717327968445,2,20,0.5501165986061096,4.060431480407715,17.112688953603158,16.564388793524405,68.6539078762439,59.9967089327108,9.71794142969884e-05,0.0962666198611259,0,0,0
5670,205324.06507271537,2010-12-22 21:12:08,3511.732349244466,2,20,0.5501165986061096,4.063021659851074,17.117275686485247,16.564388793524405,68.6725373499297,59.9967089327108,6.47544875391759e-05,0.0962666198611259,0,0,0
5671,205354.08044057383,2010-12-22 21:12:38,3541.747717198182,2,20,0.550297200679779,4.0657734870910645,17.121862464271697,16.564388793524405,68.69117971410115,59.9967089327108,6.47544875391759e-05,0.0962666198611259,0,0,0
5672,205384.09525749632,2010-12-22 21:13:08,3571.7625340354653,2,20,0.5501165986061096,4.068687438964844,17.12644921122576,16.564388793524405,68.70983465018614,59.9967089327108,9.70840483205393e-05,0.0962666198611259,0,0,0
5673,205414.1119152697,2010-12-22 21:13:38,3601.77919189406,2,20,0.5501165986061096,4.071439743041992,17.13103627908911,16.564388793524405,68.72850382738834,59.9967089327108,9.71794142969884e-05,0.0962666198611259,0,0,0
5674,205444.12565269595,2010-12-22 21:14:08,3631.7929293252832,2,20,0.550297200679779,4.074353694915772,17.13562291320613,16.564388793524405,68.74718420830405,59.9967089327108,9.71794142969884e-05,0.0962666198611259,0,0,0
5675,205474.14054459,2010-12-22 21:14:38,3661.8078211291177,2,20,0.550297200679779,4.076943874359131,17.14020971674432,16.564388793524405,68.76587839320727,59.9967089327108,6.47544875391759e-05,0.0962666198611259,0,0,0
5676,205504.15563285773,2010-12-22 21:15:08,3691.8229093918326,2,20,0.550297200679779,4.080019474029541,17.14479654289691,16.564388793524405,68.78458596871444,59.9967089327108,6.47544875391759e-05,0.0962666198611259,0,0,0
5677,205534.17074406755,2010-12-22 21:15:38,3721.838020596638,2,20,0.5501165986061096,4.08293342590332,17.149383417669636,16.564388793524405,68.80330709519792,59.9967089327108,6.47544875391759e-05,0.0962666198611259,0,0,0
5678,205564.1858251725,2010-12-22 21:16:08,3751.8531017015416,2,20,0.550297200679779,4.0858473777771,17.15397026951955,16.564388793524405,68.8220416625443,59.9967089327108,6.47544875391759e-05,0.0962666198611259,0,0,0
5679,205594.2009436804,2010-12-22 21:16:38,3781.8682203047583,2,20,0.5501165986061096,4.088761329650879,17.15855717178705,16.564388793524405,68.84078999241764,59.9967089327108,6.47544875391759e-05,0.0962666198611259,0,0,0
5680,205624.21598729707,2010-12-22 21:17:08,3811.8832638361614,2,20,0.5501165986061096,4.091837406158447,17.163144080236375,16.564388793524405,68.85955208905071,59.9967089327108,6.47544875391759e-05,0.0962666198611259,0,0,0
5681,205654.23126317665,2010-12-22 21:17:38,3841.898539735804,2,20,0.5501165986061096,4.094913005828857,17.167730979456298,16.564388793524405,68.87832787060022,59.9967089327108,9.70840483205393e-05,0.0962666198611259,0,0,0
5682,205684.24618032857,2010-12-22 21:18:08,3871.9134568576414,2,20,0.550297200679779,4.097826957702637,17.172317812068783,16.564388793524405,68.8971173861916,59.9967089327108,3.23295607813634e-05,0.0962666198611259,0,0,0
5683,205714.26127119776,2010-12-22 21:18:38,3901.928547731856,2,20,0.550297200679779,4.101064682006836,17.176904631675814,16.564388793524405,68.91592096106633,59.9967089327108,6.47544875391759e-05,0.0962666198611259,0,0,0
5684,205744.2765107319,2010-12-22 21:19:08,3931.943787271017,2,20,0.5501165986061096,4.104140758514404,17.181491494988155,16.564388793524405,68.93473891570329,59.9967089327108,9.71794142969884e-05,0.0962666198611259,0,0,0
5685,205774.29147977292,2010-12-22 21:19:38,3961.9587563020286,2,20,0.5501165986061096,4.107378482818604,17.186078347372156,16.564388793524405,68.95357118680364,59.9967089327108,6.47544875391759e-05,0.0962666198611259,0,0,0
5686,205804.3065702913,2010-12-22 21:20:08,3991.973846820357,2,20,0.5501165986061096,4.110454082489014,17.190665190896038,16.564388793524405,68.97241778177818,59.9967089327108,9.70840483205393e-05,0.0962666198611259,0,0,0
5687,205834.3216684837,2010-12-22 21:20:38,4021.9889450177934,2,20,0.5501165986061096,4.113530158996582,17.19525204175802,16.564388793524405,68.99127894535692,59.9967089327108,3.24249267578125e-05,0.0962666198611259,0,0,0
5688,205864.33678279625,2010-12-22 21:21:08,4052.0040593453714,2,20,0.5499359965324402,4.116767406463623,17.199838887110882,16.564388793524405,69.01015471477163,59.9967089327108,6.47544875391759e-05,0.0962666198611259,0,0,0
5689,205894.35187538472,2010-12-22 21:21:38,4082.0191519138007,2,20,0.5501165986061096,4.120005130767822,17.204425756566952,16.564388793524405,69.02904535818446,59.9967089327108,6.47544875391759e-05,0.0962666198611259,0,0,0
5690,205924.36696196324,2010-12-22 21:22:08,4112.034238497337,2,20,0.550297200679779,4.1232428550720215,17.209012715744265,16.564388793524405,69.04795123633572,59.9967089327108,6.47544875391759e-05,0.0962666198611259,0,0,0
5691,205954.38207329332,2010-12-22 21:22:38,4142.049349822443,2,20,0.5501165986061096,4.126480579376221,17.213599633732425,16.564388793524405,69.06687183138033,59.9967089327108,6.47544875391759e-05,0.0962666198611259,0,0,0
5692,205984.39728910848,2010-12-22 21:23:08,4172.064565647593,2,20,0.5501165986061096,4.129880428314209,17.21818650352081,16.564388793524405,69.08580731883124,59.9967089327108,0.0001295089750783,0.0962666198611259,0,0,0
5693,206014.4122742446,2010-12-22 21:23:38,4202.079550783681,2,20,0.550297200679779,4.133118152618408,17.222773333086625,16.564388793524405,69.1047579102788,59.9967089327108,6.47544875391759e-05,0.0962666198611259,0,0,0
5694,206044.4273705573,2010-12-22 21:24:08,4232.094647086404,2,20,0.550297200679779,4.136517524719238,17.227360228225333,16.564388793524405,69.12372399414025,59.9967089327108,9.70840483205393e-05,0.0962666198611259,0,0,0
5695,206074.44261395608,2010-12-22 21:24:38,4262.109890495194,2,20,0.5501165986061096,4.139917373657227,17.231947118957788,16.564388793524405,69.14270550171511,59.9967089327108,9.71794142969884e-05,0.0962666198611259,0,0,0
5696,206104.4576283399,2010-12-22 21:25:08,4292.1249049642765,2,20,0.5501165986061096,4.143316745758057,17.23653405645846,16.564388793524405,69.16170279593311,59.9967089327108,9.70840483205393e-05,0.0962666198611259,0,0,0
5697,206134.47265707955,2010-12-22 21:25:38,4322.139933613646,2,20,0.550297200679779,4.146878242492676,17.24112087207424,16.564388793524405,69.18071547813348,59.9967089327108,9.70840483205393e-05,0.0962666198611259,0,0,0
5698,206164.48781159715,2010-12-22 21:26:09,4352.155088256546,2,20,0.5501165986061096,4.150115966796875,17.245707725352098,16.564388793524405,69.19974426577748,59.9967089327108,9.70840483205393e-05,0.0962666198611259,0,0,0
5699,206194.5030235276,2010-12-22 21:26:39,4382.1703001318665,2,20,0.5501165986061096,4.153677463531494,17.250294536986473,16.564388793524405,69.21878883002539,59.9967089327108,6.47544875391759e-05,0.0962666198611259,0,0,0
5700,206224.51800060863,2010-12-22 21:27:09,4412.185277167798,2,20,0.5501165986061096,4.157238960266113,17.254881324972512,16.564388793524405,69.23784922008777,59.9967089327108,6.47544875391759e-05,0.0962666198611259,0,0,0
5701,206254.53313378312,2010-12-22 21:27:39,4442.200410317212,2,20,0.5501165986061096,4.160800457000732,17.25946812158745,16.564388793524405,69.25692567517912,59.9967089327108,0.0001618385285837,0.0962666198611259,0,0,0
5702,206284.5482347875,2010-12-22 21:28:09,4472.215511326647,2,20,0.5501165986061096,4.164200305938721,17.264054988709717,16.564388793524405,69.27601868343211,59.9967089327108,6.47544875391759e-05,0.0962666198611259,0,0,0
5703,206314.56330303045,2010-12-22 21:28:39,4502.230579564532,2,20,0.550297200679779,4.167923450469971,17.268641775586335,16.564388793524405,69.29512763468227,59.9967089327108,9.70840483205393e-05,0.0962666198611259,0,0,0
5704,206344.5784044459,2010-12-22 21:29:09,4532.245681005039,2,20,0.550297200679779,4.171323299407959,17.273228615881127,16.564388793524405,69.31425329012669,59.9967089327108,3.24249267578125e-05,0.0962666198611259,0,0,0
5705,206374.5937147161,2010-12-22 21:29:39,4562.260991270199,2,20,0.5501165986061096,4.175208568572998,17.27781552949091,16.564388793524405,69.33339582533527,59.9967089327108,0.0001295089750783,0.0962666198611259,0,0,0
5706,206404.6087622023,2010-12-22 21:30:09,4592.276038731381,2,20,0.5501165986061096,4.178770065307617,17.282402002711905,16.564388793524405,69.35255307622849,59.9967089327108,0.0001295089750783,0.0962666198611259,0,0,0
5707,206434.6237086521,2010-12-22 21:30:39,4622.290985181201,2,20,0.5499359965324402,4.182331562042236,17.286987973188175,16.564388793524405,69.37172496113939,59.9967089327108,6.47544875391759e-05,0.0962666198611259,0,0,0
5708,206464.6388322979,2010-12-22 21:31:09,4652.306108887115,2,20,0.5501165986061096,4.186054706573486,17.291574018623873,16.564388793524405,69.39091395560848,59.9967089327108,9.70840483205393e-05,0.0962666198611259,0,0,0
5709,206494.6539567657,2010-12-22 21:31:39,4682.3212333048,2,20,0.5499359965324402,4.1896162033081055,17.29616000579286,16.564388793524405,69.41011972038862,59.9967089327108,3.23295607813634e-05,0.0962666198611259,0,0,0
5710,206524.66902759505,2010-12-22 21:32:09,4712.336304129121,2,20,0.5501165986061096,4.193339824676514,17.300746216246367,16.564388793524405,69.42934356053982,59.9967089327108,3.24249267578125e-05,0.0962666198611259,0,0,0
5711,206554.68412722103,2010-12-22 21:32:39,4742.351403755113,2,20,0.5501165986061096,4.197386741638184,17.30533306548327,16.564388793524405,69.4485874316843,59.9967089327108,0.0001295089750783,0.0962666198611259,0,0,0
5712,206574.96504613268,2010-12-22 21:32:59,4762.632322661778,2,20,0.550297200679779,4.200138568878174,17.308432392599396,16.564388793524405,69.46160033478859,59.9967089327108,0.0001295089750783,0.0962666198611259,0,0,0
5713,206604.98355781203,2010-12-22 21:33:29,30.018225344221968,3,20,0.0,4.112072944641113,17.308432392599396,16.564388793524405,69.46160033478859,59.9967089327108,-0.0003885269106831,0.0962666198611259,0,0,0
5714,206634.99551123384,2010-12-22 21:33:59,60.03017863568187,3,20,0.0,4.101226806640625,17.308432392599396,16.564388793524405,69.46160033478859,59.9967089327108,-0.0001618385285837,0.0962666198611259,0,0,0
5715,206665.01061757657,2010-12-22 21:34:29,90.04528496335111,3,20,0.0,4.094427585601807,17.308432392599396,16.564388793524405,69.46160033478859,59.9967089327108,-0.0001618385285837,0.0962666198611259,0,0,0
5716,206694.98176691396,2010-12-22 21:34:59,120.01643440099016,3,20,0.0,4.0903801918029785,17.308432392599396,16.564388793524405,69.46160033478859,59.9967089327108,-9.71794142969884e-05,0.0962666198611259,0,0,0
5717,206694.9969972917,2010-12-22 21:34:59,0.015766579526745,4,20,1.0023622512817385,4.199653148651123,17.30843680153785,16.564388793524405,69.46161885080085,59.9967089327108,0.0,0.0962666198611259,0,0,0
5718,206695.9344729839,2010-12-22 21:35:00,0.953242271730036,4,20,0.951972246170044,4.199814796447754,17.308689949247707,16.564388793524405,69.46268199737341,59.9967089327108,3.23295607813634e-05,0.0962666198611259,0,0,0
5719,206697.88742682445,2010-12-22 21:35:02,2.90619610222361,4,20,0.9014016389846802,4.199814796447754,17.30919153114225,16.564388793524405,69.46478851513575,59.9967089327108,3.23295607813634e-05,0.0962666198611259,0,0,0
5720,206700.8249179531,2010-12-22 21:35:05,5.843687296079088,4,20,0.8510116934776306,4.199653148651123,17.30990556415885,16.564388793524405,69.46778725801839,59.9967089327108,-3.23295607813634e-05,0.0962666198611259,0,0,0
5721,206704.91857885083,2010-12-22 21:35:09,9.937348148662249,4,20,0.8009828925132751,4.199653148651123,17.31084379843302,16.564388793524405,69.4717275928823,59.9967089327108,0.0,0.0962666198611259,0,0,0
5722,206710.26221372568,2010-12-22 21:35:15,15.280983013498975,4,20,0.750773549079895,4.199653148651123,17.3119940773676,16.564388793524405,69.47655847839499,59.9967089327108,0.0,0.0962666198611259,0,0,0
5723,206717.24660326543,2010-12-22 21:35:22,22.26537255323825,4,20,0.7007447481155396,4.199653148651123,17.313400187163325,16.564388793524405,69.48246380018006,59.9967089327108,0.0,0.0962666198611259,0,0,0
5724,206726.4964556072,2010-12-22 21:35:31,31.515224890014768,4,20,0.6507160067558289,4.199653148651123,17.315133379948417,16.564388793524405,69.48974281523458,59.9967089327108,-3.23295607813634e-05,0.0962666198611259,0,0,0
5725,206739.51170551605,2010-12-22 21:35:44,44.53047479381384,4,20,0.600506603717804,4.199653148651123,17.317390045321087,16.564388793524405,69.4992202659504,59.9967089327108,-3.23295607813634e-05,0.0962666198611259,0,0,0
5726,206759.26135965076,2010-12-22 21:36:04,64.28012893855093,4,20,0.5504778623580933,4.199653148651123,17.320537567827056,16.564388793524405,69.51243913761239,59.9967089327108,-3.23295607813634e-05,0.0962666198611259,0,0,0
5727,206793.3389045556,2010-12-22 21:36:38,98.35767383334682,4,20,0.5004490613937378,4.199814796447754,17.325489670980687,16.564388793524405,69.53323682223531,59.9967089327108,3.23295607813634e-05,0.0962666198611259,0,0,0
5728,206856.0253202851,2010-12-22 21:37:40,161.04408956287375,4,20,0.4504202902317047,4.199653148651123,17.333729789748546,16.564388793524405,69.56784341832449,59.9967089327108,0.0,0.0962666198611259,0,0,0
5729,206952.41428299653,2010-12-22 21:39:17,257.4330522743133,4,20,0.4003915190696716,4.199653148651123,17.345091077827632,16.564388793524405,69.61555818583079,59.9967089327108,0.0,0.0962666198611259,0,0,0
5730,207073.02156368576,2010-12-22 21:41:17,378.04033296356704,4,20,0.3503627479076385,4.199814796447754,17.357651991595972,16.564388793524405,69.66831113868332,59.9967089327108,0.0,0.0962666198611259,0,0,0
5731,207217.62858102663,2010-12-22 21:43:42,522.6473503094238,4,20,0.3003339767456054,4.199814796447754,17.3707062720853,16.564388793524405,69.72313614592123,59.9967089327108,-3.24249267578125e-05,0.0962666198611259,0,0,0
5732,207390.67233652665,2010-12-22 21:46:35,695.6911058044442,4,20,0.2503052055835724,4.199814796447754,17.383914233919313,16.564388793524405,69.77860657265084,59.9967089327108,0.0,0.0962666198611259,0,0,0
5733,207606.0281203568,2010-12-22 21:50:10,911.0468896345908,4,20,0.2002764493227005,4.199814796447754,17.397350533582806,16.564388793524405,69.83503593872375,59.9967089327108,3.23295607813634e-05,0.0962666198611259,0,0,0
5734,207894.6324149387,2010-12-22 21:54:59,1199.6511842164923,4,20,0.1500670611858368,4.199653148651123,17.411321472479692,16.564388793524405,69.89371069458552,59.9967089327108,3.24249267578125e-05,0.0962666198611259,0,0,0
5735,208342.12475833905,2010-12-22 22:02:26,1647.143527646875,4,20,0.1000382974743843,4.199653148651123,17.42667120938878,16.564388793524405,69.95817601770774,59.9967089327108,-6.47544875391759e-05,0.0962666198611259,0,0,0
5736,209221.7351679321,2010-12-22 22:17:06,2526.7539373101527,4,20,0.0500095263123512,4.199653148651123,17.44426750827576,16.564388793524405,70.0320763981551,59.9967089327108,-6.47544875391759e-05,0.0962666198611259,0,0,0
5737,209232.96890435816,2010-12-22 22:17:17,2537.987673666007,4,20,0.0498289167881011,4.199814796447754,17.444424975353005,16.564388793524405,70.03273772142563,59.9967089327108,3.23295607813634e-05,0.0962666198611259,0,0,0
5738,209262.98324932883,2010-12-22 22:17:47,30.01525083727584,5,20,0.0,4.191558837890625,17.444424975353005,16.564388793524405,70.03273772142563,59.9967089327108,-9.71794142969884e-05,0.0962666198611259,0,0,0
5739,209292.98261547263,2010-12-22 22:18:17,60.0146169961404,5,20,0.0,4.190263748168945,17.444424975353005,16.564388793524405,70.03273772142563,59.9967089327108,-6.47544875391759e-05,0.0962666198611259,0,0,0
5740,209293.17035426063,2010-12-22 22:18:18,0.187630571460519,6,20,-1.9243103452026844e-05,4.190263748168945,17.444424979056773,16.564388793524405,70.03273773694539,59.9967089327108,0.0,0.0961798131465911,0,0,0
5741,209297.998275918,2010-12-22 22:18:23,5.01555225387792,6,20,0.0007031940040178,4.190263748168945,17.444425848515454,16.564388793690778,70.03274138034351,59.996708933407945,0.0,0.0961798131465911,0,0,0
5742,209328.01361096537,2010-12-22 22:18:53,30.01512454800985,7,20,-1.099929690361023,4.009599208831787,17.444425848515454,16.573558304851566,70.03274138034351,60.03368451848393,-0.0009713172912597,0.0961798131465911,0,0,0
5743,209358.0288556824,2010-12-22 22:19:23,60.03036926004327,7,20,-1.099929690361023,3.980621814727783,17.444425848515454,16.582727972749158,70.03274138034351,60.07030856525691,-0.0006475448608398,0.0961798131465911,0,0,0
5744,209388.0438320216,2010-12-22 22:19:53,90.04534562931603,7,20,-1.099929690361023,3.960547924041748,17.444425848515454,16.591898070197725,70.03274138034351,60.106715326712255,-0.0004856586456298,0.0961798131465911,0,0,0
5745,209418.05901629827,2010-12-22 22:20:23,120.06052999117033,7,20,-1.0997490882873535,3.9451687335968018,17.444425848515454,16.60106815270959,70.03274138034351,60.14296085294597,-0.0003237724304199,0.0961798131465911,0,0,0
5746,209448.07408475663,2010-12-22 22:20:53,150.07559835937892,7,20,-1.0997490882873535,3.931570291519165,17.444425848515454,16.610237569855958,70.03274138034351,60.17907204482782,-0.0003561496851034,0.0961798131465911,0,0,0
5747,209478.0892006381,2010-12-22 22:21:23,180.09071421576,7,20,-1.0997490882873535,3.919428825378418,17.444425848515454,16.61940694123244,70.03274138034351,60.215066016975385,-0.0003237724304199,0.0961798131465911,0,0,0
5748,209508.1042929058,2010-12-22 22:21:53,210.1058064834415,7,20,-1.0997490882873535,3.90793514251709,17.444425848515454,16.628576333151823,70.03274138034351,60.25095175877448,-0.0002590179501567,0.0961798131465911,0,0,0
5749,209538.11942854145,2010-12-22 22:22:23,240.12094211402996,7,20,-1.0997490882873535,3.8970887660980233,17.444425848515454,16.637745754368417,70.03274138034351,60.28673542798172,-0.0002913951757363,0.0961798131465911,0,0,0
5750,209568.1345361372,2010-12-22 22:22:53,270.1360497349173,7,20,-1.0997490882873535,3.886566162109375,17.444425848515454,16.64691511949955,70.03274138034351,60.3224213939849,-0.0002913951757363,0.0961798131465911,0,0,0
5751,209598.1496392168,2010-12-22 22:23:23,300.1511528245288,7,20,-1.0997490882873535,3.876529216766357,17.444425848515454,16.65608448854913,70.03274138034351,60.35801252847983,-0.0002266406954731,0.0961798131465911,0,0,0
5752,209628.16478516808,2010-12-22 22:23:53,330.1662987407125,7,20,-1.0997490882873535,3.86649227142334,17.444425848515454,16.66525390515374,70.03274138034351,60.39351153606846,-0.0002590179501567,0.0961798131465911,0,0,0
5753,209658.17986107507,2010-12-22 22:24:23,360.1813746526935,7,20,-1.0997490882873535,3.856779098510742,17.444425848515454,16.674423254465456,70.03274138034351,60.42892008555605,-0.0002590179501567,0.0961798131465911,0,0,0
5754,209688.1949979738,2010-12-22 22:24:53,390.1965115514376,7,20,-1.0997490882873535,3.847389698028565,17.444425848515454,16.68359267233111,70.03274138034351,60.46424073147679,-0.0001942634553415,0.0961798131465911,0,0,0
5755,209718.21021330773,2010-12-22 22:25:23,420.2117268853647,7,20,-1.099929690361023,3.8380002975463863,17.444425848515454,16.692762123591862,70.03274138034351,60.49947539711775,-0.0002590179501567,0.0961798131465911,0,0,0
5756,209748.2252022884,2010-12-22 22:25:53,450.2267158910829,7,20,-1.099929690361023,3.828773021697998,17.444425848515454,16.70193151475822,70.03274138034351,60.53462556215758,-0.0002913951757363,0.0961798131465911,0,0,0
5757,209778.2404426446,2010-12-22 22:26:23,480.2419562222146,7,20,-1.099929690361023,3.81986927986145,17.444425848515454,16.711101057077983,70.03274138034351,60.56969389951236,-0.0002590179501567,0.0961798131465911,0,0,0
5758,209808.2554385124,2010-12-22 22:26:53,510.2569520900087,7,20,-1.0997490882873535,3.811451196670532,17.444425848515454,16.720270422897975,70.03274138034351,60.60468083857808,-0.0001295089750783,0.0961798131465911,0,0,0
5759,209838.27055691008,2010-12-22 22:27:23,540.2720704927261,7,20,-1.099568486213684,3.802871227264404,17.444425848515454,16.729439822450907,70.03274138034351,60.6395888740402,-0.0001942634553415,0.0961798131465911,0,0,0
5760,209868.28565772905,2010-12-22 22:27:53,570.2871713066747,7,20,-1.099568486213684,3.794615030288696,17.444425848515454,16.738609221496333,70.03274138034351,60.67442030388527,-0.0001942634553415,0.0961798131465911,0,0,0
5761,209898.3022589567,2010-12-22 22:28:23,600.3037726496319,7,20,-1.0997490882873535,3.786358833312988,17.444425848515454,16.747779013238702,70.03274138034351,60.7091777892556,-0.0002266406954731,0.0961798131465911,0,0,0
5762,209928.3159713005,2010-12-22 22:28:53,630.3174849483137,7,20,-1.0997490882873535,3.77858829498291,17.444425848515454,16.756948067398785,70.03274138034351,60.74385861429811,-0.0001942634553415,0.0961798131465911,0,0,0
5763,209958.3310058897,2010-12-22 22:29:23,660.3325195575143,7,20,-1.0997490882873535,3.770655870437622,17.444425848515454,16.76611752703236,70.03274138034351,60.77846984165317,-0.0001942634553415,0.0961798131465911,0,0,0
5764,209988.34624857164,2010-12-22 22:29:53,690.3477621743338,7,20,-1.099929690361023,3.763209104537964,17.444425848515454,16.775287067011526,70.03274138034351,60.81301139882889,-0.0001942634553415,0.0961798131465911,0,0,0
5765,210018.361240635,2010-12-22 22:30:23,720.3627542125984,7,20,-1.099929690361023,3.7557623386383057,17.444425848515454,16.784456548405792,70.03274138034351,60.84748432006096,-0.0001942634553415,0.0961798131465911,0,0,0
5766,210048.3763584462,2010-12-22 22:30:53,750.3778720288565,7,20,-1.0997490882873535,3.748801469802856,17.444425848515454,16.79362607546919,70.03274138034351,60.88189083564482,-0.0001942634553415,0.0961798131465911,0,0,0
5767,210078.391473676,2010-12-22 22:31:23,780.3929872536658,7,20,-1.099929690361023,3.741516590118408,17.444425848515454,16.802795647532104,70.03274138034351,60.916232354288766,-0.0001942634553415,0.0961798131465911,0,0,0
5768,210108.40687298772,2010-12-22 22:31:53,810.408386620552,7,20,-1.099929690361023,3.73471736907959,17.444425848515454,16.811965234271614,70.03274138034351,60.95051038289686,-0.0001942634553415,0.0961798131465911,0,0,0
5769,210138.42168699304,2010-12-22 22:32:23,840.4232005756631,7,20,-1.0997490882873535,3.728080034255981,17.444425848515454,16.821134590456257,70.03274138034351,60.984725122712334,-0.0001942634553415,0.0961798131465911,0,0,0
5770,210168.43964212984,2010-12-22 22:32:53,870.4411558227589,7,20,-1.0997490882873535,3.721442699432373,17.444425848515454,16.830304910003086,70.03274138034351,61.018883080917774,-0.0001942634553415,0.0961798131465911,0,0,0
5771,210198.45192354784,2010-12-22 22:33:23,900.4534371555371,7,20,-1.0997490882873535,3.714967250823975,17.444425848515454,16.839473570029597,70.03274138034351,61.05297477705625,-0.0001942634553415,0.0961798131465911,0,0,0
5772,210228.46703659723,2010-12-22 22:33:53,930.4685501898956,7,20,-1.1001102924346924,3.708653688430786,17.444425848515454,16.848643183005606,70.03274138034351,61.087011078243776,-0.0001942634553415,0.0961798131465911,0,0,0
5773,210258.48214462912,2010-12-22 22:34:23,960.4836582318308,7,20,-1.0997490882873535,3.7026638984680176,17.444425848515454,16.8578127840041,70.03274138034351,61.12098991347363,-0.0001295089750783,0.0961798131465911,0,0,0
5774,210288.4972683451,2010-12-22 22:34:53,990.4987819527826,7,20,-1.0997490882873535,3.696350336074829,17.444425848515454,16.8669823768104,70.03274138034351,61.154912237040726,-0.0001618862152099,0.0961798131465911,0,0,0
5775,210318.51241042672,2010-12-22 22:35:23,1020.5139240945738,7,20,-1.099568486213684,3.6905224323272714,17.444425848515454,16.87615188615374,70.03274138034351,61.18877872381526,-0.0001295089750783,0.0961798131465911,0,0,0
5776,210348.5274917973,2010-12-22 22:35:53,1050.529005399976,7,20,-1.099929690361023,3.684370756149292,17.444425848515454,16.885321387101204,70.03274138034351,61.22259016225726,-0.0001618862152099,0.0961798131465911,0,0,0
5777,210378.5426103153,2010-12-22 22:36:23,1080.5441238929182,7,20,-1.0997490882873535,3.678542852401733,17.444425848515454,16.894490934451046,70.03274138034351,61.25634793405496,-0.0001618862152099,0.0961798131465911,0,0,0
5778,210408.5577435549,2010-12-22 22:36:53,1110.5592571576192,7,20,-1.0997490882873535,3.6730387210845943,17.444425848515454,16.903660487374268,70.03274138034351,61.29005269318911,-9.713172767078504e-05,0.0961798131465911,0,0,0
5779,210438.5729567385,2010-12-22 22:37:23,1140.5744703411951,7,20,-1.0997490882873535,3.6672110557556152,17.444425848515454,16.912829822592467,70.03274138034351,61.32370438523596,-0.0001295089750783,0.0961798131465911,0,0,0
5780,210468.58806746712,2010-12-22 22:37:53,1170.5895810447537,7,20,-1.099929690361023,3.661706924438477,17.444425848515454,16.921999053663974,70.03274138034351,61.357304621324026,-0.0001295089750783,0.0961798131465911,0,0,0
5781,210498.60321261137,2010-12-22 22:38:23,1200.6047261990414,7,20,-1.099929690361023,3.656040906906128,17.444425848515454,16.93116835723168,70.03274138034351,61.39085477346838,-0.0001942634553415,0.0961798131465911,0,0,0
5782,210528.6182075669,2010-12-22 22:38:53,1230.6197212598272,7,20,-1.099929690361023,3.651022434234619,17.444425848515454,16.940337563914216,70.03274138034351,61.42435554769149,-0.0001295089750783,0.0961798131465911,0,0,0
5783,210558.6332987519,2010-12-22 22:39:23,1260.63481235459,7,20,-1.0997490882873535,3.645842075347901,17.444425848515454,16.949507005876328,70.03274138034351,61.45780874112946,-9.713172767078504e-05,0.0961798131465911,0,0,0
5784,210588.6484103928,2010-12-22 22:39:53,1290.6499239904686,7,20,-1.099929690361023,3.6406617164611816,17.444425848515454,16.958676480177,70.03274138034351,61.49121413479338,-9.713172767078504e-05,0.0961798131465911,0,0,0
5785,210618.66355352703,2010-12-22 22:40:23,1320.6650671046798,7,20,-1.0997490882873535,3.635319471359253,17.444425848515454,16.96784604422454,70.03274138034351,61.524573178890144,-0.0001295089750783,0.0961798131465911,0,0,0
5786,210648.67865283223,2010-12-22 22:40:53,1350.6801664048612,7,20,-1.0997490882873535,3.630462884902954,17.444425848515454,16.977015605552012,70.03274138034351,61.55788649986822,-0.0001618862152099,0.0961798131465911,0,0,0
5787,210678.6937595208,2010-12-22 22:41:23,1380.695273098441,7,20,-1.0997490882873535,3.6256062984466553,17.444425848515454,16.986185192827726,70.03274138034351,61.59115534563547,-0.0001618862152099,0.0961798131465911,0,0,0
5788,210708.7088802844,2010-12-22 22:41:53,1410.7103938620337,7,20,-1.0997490882873535,3.621073484420776,17.444425848515454,16.99535473493475,70.03274138034351,61.62438047666793,-0.0001295089750783,0.0961798131465911,0,0,0
5789,210738.7241378384,2010-12-22 22:42:23,1440.7256514110113,7,20,-1.0997490882873535,3.6165406703948975,17.444425848515454,17.004524298986087,70.03274138034351,61.65756300434997,-9.713172767078504e-05,0.0961798131465911,0,0,0
5790,210768.73912116,2010-12-22 22:42:53,1470.7406347576468,7,20,-1.0997490882873535,3.612169742584229,17.444425848515454,17.013693786054315,70.03274138034351,61.6907038995383,-6.47544875391759e-05,0.0961798131465911,0,0,0
5791,210798.75421193396,2010-12-22 22:43:23,1500.7557255366237,7,20,-1.099568486213684,3.6076369285583496,17.444425848515454,17.02286330147433,70.03274138034351,61.72380456261141,-0.0001295089750783,0.0961798131465911,0,0,0
5792,210828.7693325271,2010-12-22 22:43:53,1530.7708461147547,7,20,-1.099568486213684,3.6035897731781006,17.444425848515454,17.03203285826514,70.03274138034351,61.75686612862332,-9.713172767078504e-05,0.0961798131465911,0,0,0
5793,210858.7846077651,2010-12-22 22:44:23,1560.7861213677884,7,20,-1.099929690361023,3.5993807315826416,17.444425848515454,17.041202423864014,70.03274138034351,61.78988953117084,-0.0001295089750783,0.0961798131465911,0,0,0
5794,210888.7997349948,2010-12-22 22:44:53,1590.8012485974716,7,20,-1.099929690361023,3.5953335762023926,17.444425848515454,17.0503719927332,70.03274138034351,61.82287568963485,-9.713172767078504e-05,0.0961798131465911,0,0,0
5795,210918.814713344,2010-12-22 22:45:24,1620.8162269216086,7,20,-1.0997490882873535,3.5916104316711426,17.444425848515454,17.05954155856996,70.03274138034351,61.85582551258335,-6.47544875391759e-05,0.0961798131465911,0,0,0
5796,210948.8299901258,2010-12-22 22:45:54,1650.8315037736213,7,20,-1.0997490882873535,3.5875632762908936,17.444425848515454,17.068711198366408,70.03274138034351,61.888740439174825,-0.0001295089750783,0.0961798131465911,0,0,0
5797,210978.84495784857,2010-12-22 22:46:24,1680.8464714512652,7,20,-1.099929690361023,3.5840017795562744,17.444425848515454,17.077880691497285,70.03274138034351,61.92162061080856,-6.47544875391759e-05,0.0961798131465911,0,0,0
5798,211008.86009504303,2010-12-22 22:46:54,1710.8616086256957,7,20,-1.0997490882873535,3.5804402828216557,17.444425848515454,17.087050194417778,70.03274138034351,61.95446738135959,-6.47544875391759e-05,0.0961798131465911,0,0,0
5799,211038.87520603737,2010-12-22 22:47:24,1740.8767196099525,7,20,-1.099568486213684,3.576878786087036,17.444425848515454,17.096219777829162,70.03274138034351,61.98728145930695,-6.47544875391759e-05,0.0961798131465911,0,0,0
5800,211068.89029959825,2010-12-22 22:47:54,1770.891813200927,7,20,-1.0997490882873535,3.573317289352417,17.444425848515454,17.105389286027506,70.03274138034351,62.02006298559397,-9.713172767078504e-05,0.0961798131465911,0,0,0
5801,211098.9054173894,2010-12-22 22:48:24,1800.9069309921229,7,20,-1.0997490882873535,3.569755792617798,17.444425848515454,17.114558864098974,70.03274138034351,62.05281308567291,-0.0001295089750783,0.0961798131465911,0,0,0
5802,211128.92077103257,2010-12-22 22:48:54,1830.9222846753264,7,20,-1.1001102924346924,3.5663561820983887,17.444425848515454,17.12372854446685,70.03274138034351,62.08553200906981,-0.0001295089750783,0.0961798131465911,0,0,0
5803,211158.9356849514,2010-12-22 22:49:24,1860.9371985340445,7,20,-1.0997490882873535,3.563118457794189,17.444425848515454,17.13289801479367,70.03274138034351,62.11821858591247,-3.237724376958795e-05,0.0961798131465911,0,0,0
5804,211188.9508132287,2010-12-22 22:49:54,1890.9523269165963,7,20,-1.0997490882873535,3.5595569610595703,17.444425848515454,17.1420674941115,70.03274138034351,62.15087472550657,-9.713172767078504e-05,0.0961798131465911,0,0,0
5805,211218.9659217919,2010-12-22 22:50:24,1920.9674354798285,7,20,-1.099568486213684,3.556319236755371,17.444425848515454,17.151237092443175,70.03274138034351,62.18349995183048,-9.713172767078504e-05,0.0961798131465911,0,0,0
5806,211248.98104614444,2010-12-22 22:50:54,1950.9825597371157,7,20,-1.0997490882873535,3.552919626235962,17.444425848515454,17.16040673309558,70.03274138034351,62.21609401992615,-6.47544875391759e-05,0.0961798131465911,0,0,0
5807,211278.9962490424,2010-12-22 22:51:24,1980.9977626200584,7,20,-1.099929690361023,3.5495200157165527,17.444425848515454,17.169576322750522,70.03274138034351,62.248656373847545,-9.713172767078504e-05,0.0961798131465911,0,0,0
5808,211309.0112492861,2010-12-22 22:51:54,2011.0127628637413,7,20,-1.0997490882873535,3.545796632766724,17.444425848515454,17.17874596968656,70.03274138034351,62.28118707075103,-0.0001295089750783,0.0961798131465911,0,0,0
5809,211339.02636238065,2010-12-22 22:52:24,2041.027875983312,7,20,-1.0997490882873535,3.5422351360321045,17.444425848515454,17.18791562217716,70.03274138034351,62.31368555446343,-0.0001295089750783,0.0961798131465911,0,0,0
5810,211369.0416372978,2010-12-22 22:52:54,2071.0431508854726,7,20,-1.0997490882873535,3.5388355255126958,17.444425848515454,17.19708523746542,70.03274138034351,62.34615133298693,-6.47544875391759e-05,0.0961798131465911,0,0,0
5811,211399.0567199265,2010-12-22 22:53:24,2101.0582335292056,7,20,-1.0997490882873535,3.534950256347656,17.444425848515454,17.206254819824565,70.03274138034351,62.37858326485629,-0.0001295089750783,0.0961798131465911,0,0,0
5812,211429.07169792984,2010-12-22 22:53:54,2131.0732115175074,7,20,-1.0997490882873535,3.531388759613037,17.444425848515454,17.2154244260276,70.03274138034351,62.410981007928825,-6.47544875391759e-05,0.0961798131465911,0,0,0
5813,211459.0869505616,2010-12-22 22:54:24,2161.088464164286,7,20,-1.0997490882873535,3.527341604232788,17.444425848515454,17.22459413974019,70.03274138034351,62.44334421625403,-0.0001295089750783,0.0961798131465911,0,0,0
5814,211489.10195023383,2010-12-22 22:54:54,2191.1034638114847,7,20,-1.0997490882873535,3.523618221282959,17.444425848515454,17.233763723726934,70.03274138034351,62.47567071178858,-3.237724376958795e-05,0.0961798131465911,0,0,0
5815,211519.11706118303,2010-12-22 22:55:24,2221.1185747606546,7,20,-1.099929690361023,3.51924729347229,17.444425848515454,17.242933315289257,70.03274138034351,62.50795974240875,-0.0001295089750783,0.0961798131465911,0,0,0
5816,211549.13217557577,2010-12-22 22:55:54,2251.133689178456,7,20,-1.099929690361023,3.514876365661621,17.444425848515454,17.252102964336505,70.03274138034351,62.54021038159122,-0.0001295089750783,0.0961798131465911,0,0,0
5817,211579.1474401422,2010-12-22 22:56:24,2281.1489537298585,7,20,-1.0997490882873535,3.5105056762695312,17.444425848515454,17.26127267023784,70.03274138034351,62.572421189195,-0.0001295089750783,0.0961798131465911,0,0,0
5818,211609.16257115628,2010-12-22 22:56:54,2311.1640847389467,7,20,-1.099929690361023,3.5058109760284424,17.444425848515454,17.270442431982083,70.03274138034351,62.60459048686688,-0.0001295089750783,0.0961798131465911,0,0,0
5819,211639.17764530893,2010-12-22 22:57:24,2341.179158886537,7,20,-1.1001102924346924,3.5007925033569336,17.444425848515454,17.279612071249428,70.03274138034351,62.63671558361239,-0.0001618862152099,0.0961798131465911,0,0,0
5820,211669.1927717867,2010-12-22 22:57:54,2371.194285389411,7,20,-1.099929690361023,3.495612144470215,17.444425848515454,17.288781788337563,70.03274138034351,62.66879431721242,-0.0001618862152099,0.0961798131465911,0,0,0
5821,211699.2077692685,2010-12-22 22:58:24,2401.209282851172,7,20,-1.0997490882873535,3.490108013153076,17.444425848515454,17.297951394264622,70.03274138034351,62.70082234739673,-0.0001295089750783,0.0961798131465911,0,0,0
5822,211729.2228905434,2010-12-22 22:58:54,2431.2244041460863,7,20,-1.0997490882873535,3.483794450759888,17.444425848515454,17.307121000621645,70.03274138034351,62.73279572040372,-0.0001618862152099,0.0961798131465911,0,0,0
5823,211759.238007683,2010-12-22 22:59:24,2461.239521265611,7,20,-1.0997490882873535,3.4765095710754395,17.444425848515454,17.316290592019854,70.03274138034351,62.76470755213076,-0.0001942634553415,0.0961798131465911,0,0,0
5824,211789.25307118407,2010-12-22 22:59:54,2491.254584781745,7,20,-1.099568486213684,3.4682533740997314,17.444425848515454,17.325460220735355,70.03274138034351,62.796549829818886,-0.0002913951757363,0.0961798131465911,0,0,0
5825,211819.2682478217,2010-12-22 23:00:24,2521.2697614243907,7,20,-1.0997490882873535,3.459025859832764,17.444425848515454,17.334629885813463,70.03274138034351,62.82831167811177,-0.0002590179501567,0.0961798131465911,0,0,0
5826,211849.2833473224,2010-12-22 23:00:54,2551.2848609200587,7,20,-1.0997490882873535,3.4476938247680664,17.444425848515454,17.343799499172544,70.03274138034351,62.859979420802055,-0.0003561496851034,0.0961798131465911,0,0,0
5827,211879.2984559207,2010-12-22 23:01:24,2581.2999695233907,7,20,-1.0997490882873535,3.43458104133606,17.444425848515454,17.352969127838602,70.03274138034351,62.89153561330885,-0.0003561496851034,0.0961798131465911,0,0,0
5828,211909.31370135956,2010-12-22 23:01:54,2611.315215032408,7,20,-1.099929690361023,3.4179069995880127,17.444425848515454,17.36213883008507,70.03274138034351,62.922956419898185,-0.0005180359003134,0.0961798131465911,0,0,0
5829,211939.32869916715,2010-12-22 23:02:24,2641.330212749805,7,20,-1.0997490882873535,3.3975093364715576,17.444425848515454,17.371308471490895,70.03274138034351,62.95420796520338,-0.0005504131549969,0.0961798131465911,0,0,0
5830,211969.3438246124,2010-12-22 23:02:54,2671.345338285272,7,20,-1.099929690361023,3.370312452316284,17.444425848515454,17.380478109925157,70.03274138034351,62.98524257200621,-0.0007770538213662,0.0961798131465911,0,0,0
5831,211999.35895320048,2010-12-22 23:03:24,2701.360466778098,7,20,-1.099929690361023,3.334212064743042,17.444425848515454,17.38964774870484,70.03274138034351,63.015989921627074,-0.0011008263099938,0.0961798131465911,0,0,0
5832,212029.37432011665,2010-12-22 23:03:54,2731.3758337894683,7,20,-1.099568486213684,3.285160541534424,17.444425848515454,17.398817465050442,70.03274138034351,63.046350122386855,-0.0014893531333655,0.0961798131465911,0,0,0
5833,212059.38916710392,2010-12-22 23:04:24,2761.390680681542,7,20,-1.099929690361023,3.2174923419952397,17.444425848515454,17.40798696836315,70.03274138034351,63.076179945278845,-0.0021045207977294,0.0961798131465911,0,0,0
5834,212089.40731550663,2010-12-22 23:04:54,2791.408829199585,7,20,-1.099929690361023,3.121655941009521,17.444425848515454,17.41715750697158,70.03274138034351,63.10527441040516,-0.002978706266731,0.0961798131465911,0,0,0
5835,212119.41945957785,2010-12-22 23:05:24,2821.4209732457307,7,20,-1.099929690361023,2.973206758499145,17.444425848515454,17.426326267550483,70.03274138034351,63.133275137613424,-0.0049860952422022,0.0961798131465911,0,0,0
5836,212143.8253217071,2010-12-22 23:05:49,2845.826835344877,7,20,-1.099929690361023,2.773116111755371,17.444425848515454,17.433782218726503,70.03274138034351,63.154747258271904,-0.0075114727951586,0.0961798131465911,0,0,0
5837,212151.4188795036,2010-12-22 23:05:56,2853.4203930812446,7,20,-1.099929690361023,2.699943780899048,17.444425848515454,17.436102054580658,70.03274138034351,63.16109582985099,-0.0077381134033203,0.0961798131465911,0,0,0
5838,212211.4354664448,2010-12-22 23:06:56,60.01488050687672,8,20,0.0,3.421792268753052,17.444425848515454,17.436102054580658,70.03274138034351,63.16109582985099,0.0013922214275225,0.0961798131465911,0,0,0
5839,212211.62557021948,2010-12-22 23:06:57,0.187641162816702,9,20,-1.9243103452026844e-05,3.422116041183472,17.444425848515454,17.436102055583657,70.03274138034351,63.161095833283376,0.0,0.0962666198611259,0,0,0
5840,212216.45332040515,2010-12-22 23:07:01,5.015391263258956,9,20,0.0005225847125984,3.43037223815918,17.444426846159207,17.436102055666368,70.03274479922459,63.16109583356642,0.0011979580158367,0.0962666198611259,0,0,0
