Data_Point,Test_Time(s),Date_Time,Step_Time(s),Step_Index,Cycle_Index,Current(A),Voltage(V),Charge_Capacity(Ah),Discharge_Capacity(Ah),Charge_Energy(Wh),Discharge_Energy(Wh),dV/dt(V/s),Internal_Resistance(Ohm),Is_FC_Data,AC_Impedance(Ohm),ACI_Phase_Angle(Deg)
1771,64229.5546351587,2010-12-21 06:00:17,30.012340299514563,1,7,0.0,3.4805567264556885,5.291122161878999,5.282967768335718,21.23768213245771,19.150682587413613,0.0007770538213662,0.0961798131465911,0,0,0
1772,64259.56955879174,2010-12-21 06:00:47,60.027263897467925,1,7,0.0,3.5054872035980225,5.291122161878999,5.282967768335718,21.23768213245771,19.150682587413613,0.0005827903514727,0.0961798131465911,0,0,0
1773,64289.5846256913,2010-12-21 06:01:17,90.04233079702182,1,7,0.0,3.523941993713379,5.291122161878999,5.282967768335718,21.23768213245771,19.150682587413613,0.0004856586456298,0.0961798131465911,0,0,0
1774,64319.55289731761,2010-12-21 06:01:47,120.01060253862497,1,7,0.0,3.5385117530822754,5.291122161878999,5.282967768335718,21.23768213245771,19.150682587413613,0.0003237724304199,0.0961798131465911,0,0,0
1775,64349.5670612491,2010-12-21 06:02:17,30.01528036074385,2,7,0.5499359965324402,3.681618690490722,5.295709612567696,5.282967768335718,21.254443323410527,19.150682587413613,0.0011655807029455,0.0961798131465911,0,0,0
1776,64379.582115401936,2010-12-21 06:02:47,60.030334488515656,2,7,0.5501165986061096,3.717395544052124,5.300296952875236,5.282967768335718,21.27142034303497,19.150682587413613,0.0008094310760498,0.0961798131465911,0,0,0
1777,64409.596991020495,2010-12-21 06:03:17,90.04521004191199,2,7,0.5501165986061096,3.742326021194458,5.30488425755548,5.282967768335718,21.28853327589518,19.150682587413613,0.0005827903514727,0.0961798131465911,0,0,0
1778,64439.61217826452,2010-12-21 06:03:47,120.060397280926,2,7,0.5501165986061096,3.7604570388793945,5.30947150703109,5.282967768335718,21.305744191177443,19.150682587413613,0.0004209041653666,0.0961798131465911,0,0,0
1779,64469.627123897306,2010-12-21 06:04:17,150.0753429137122,2,7,0.550297200679779,3.773246049880981,5.314058847719505,5.282967768335718,21.3230260980794,19.150682587413613,0.0002590179501567,0.0961798131465911,0,0,0
1780,64499.64219510759,2010-12-21 06:04:47,180.09041412399316,2,7,0.550297200679779,3.781826019287109,5.318646179931537,5.282967768335718,21.3403556355565,19.150682587413613,0.0002266406954731,0.0961798131465911,0,0,0
1781,64529.65728963088,2010-12-21 06:05:17,210.10550864728768,2,7,0.5501165986061096,3.787977695465088,5.323233527903272,5.282967768335718,21.35771831455764,19.150682587413613,0.0001618862152099,0.0961798131465911,0,0,0
1782,64559.67257316953,2010-12-21 06:05:47,240.1207923212764,2,7,0.5501165986061096,3.7933199405670166,5.327820887328537,5.282967768335718,21.37510769009257,19.150682587413613,0.0001295089750783,0.0961798131465911,0,0,0
1783,64589.6874203022,2010-12-21 06:06:17,270.1356393186121,2,7,0.5501165986061096,3.798500299453736,5.332408194938691,5.282967768335718,21.39252087665756,19.150682587413613,0.0001295089750783,0.0961798131465911,0,0,0
1784,64619.70253564732,2010-12-21 06:06:47,300.1507546587084,2,7,0.550297200679779,3.803194999694824,5.336995542176098,5.282967768335718,21.409956591809436,19.150682587413613,9.713172767078504e-05,0.0961798131465911,0,0,0
1785,64649.717643584,2010-12-21 06:07:17,330.1658626705687,2,7,0.5501165986061096,3.807727813720703,5.341582961121161,5.282967768335718,21.42741375479159,19.150682587413613,9.713172767078504e-05,0.0961798131465911,0,0,0
1786,64679.732639015696,2010-12-21 06:07:47,360.1808580170656,2,7,0.550297200679779,3.812098741531372,5.346170312009498,5.282967768335718,21.444890991432004,19.150682587413613,9.713172767078504e-05,0.0961798131465911,0,0,0
1787,64709.74770672727,2010-12-21 06:08:17,390.1959257436775,2,7,0.550297200679779,3.816145896911621,5.350757670978176,5.282967768335718,21.46238799278949,19.150682587413613,6.47544875391759e-05,0.0961798131465911,0,0,0
1788,64739.76279443862,2010-12-21 06:08:47,420.2110134500083,2,7,0.550297200679779,3.82051682472229,5.355344984404471,5.282967768335718,21.479903785806577,19.150682587413613,0.0001618862152099,0.0961798131465911,0,0,0
1789,64769.77787051099,2010-12-21 06:09:17,450.2260895173759,2,7,0.550297200679779,3.824240207672119,5.359932250327992,5.282967768335718,21.497437770531185,19.150682587413613,9.713172767078504e-05,0.0961798131465911,0,0,0
1790,64799.792953996825,2010-12-21 06:09:47,480.2411730633538,2,7,0.550297200679779,3.828287363052368,5.364519557988783,5.282967768335718,21.51498981783989,19.150682587413613,0.0001618862152099,0.0961798131465911,0,0,0
1791,64829.80812676984,2010-12-21 06:10:17,510.2563457661951,2,7,0.5501165986061096,3.832010746002197,5.369106872736747,5.282967768335718,21.53255971041224,19.150682587413613,9.713172767078504e-05,0.0961798131465911,0,0,0
1792,64859.82320023072,2010-12-21 06:10:47,540.2714192320891,2,7,0.550297200679779,3.835895776748657,5.373694167096534,5.282967768335718,21.55014705948677,19.150682587413613,0.0001295089750783,0.0961798131465911,0,0,0
1793,64889.83818642445,2010-12-21 06:11:17,570.286405536084,2,7,0.550297200679779,3.8396191596984863,5.378281384723057,5.282967768335718,21.56775163092987,19.150682587413613,6.47544875391759e-05,0.0961798131465911,0,0,0
1794,64919.853296351066,2010-12-21 06:11:47,600.3015154376468,2,7,0.550297200679779,3.843504428863525,5.38286867797079,5.282967768335718,21.585373931890604,19.150682587413613,9.713172767078504e-05,0.0961798131465911,0,0,0
1795,64949.868320058136,2010-12-21 06:12:17,630.3165390745431,2,7,0.5501165986061096,3.8472278118133545,5.387455992023888,5.282967768335718,21.60301373664192,19.150682587413613,9.713172767078504e-05,0.0961798131465911,0,0,0
1796,64979.883423994856,2010-12-21 06:12:47,660.3316430513624,2,7,0.5501165986061096,3.8511130809783936,5.392043295680132,5.282967768335718,21.620670848624403,19.150682587413613,0.0001295089750783,0.0961798131465911,0,0,0
1797,65009.89858952485,2010-12-21 06:13:17,690.3468085312296,2,7,0.5501165986061096,3.854836463928223,5.396630667077521,5.282967768335718,21.638345464419345,19.150682587413613,0.0001295089750783,0.0961798131465911,0,0,0
1798,65039.91351256642,2010-12-21 06:13:47,720.3617315828235,2,7,0.5501165986061096,3.858397960662842,5.401217976924841,5.282967768335718,21.65603699254791,19.150682587413613,6.47544875391759e-05,0.0961798131465911,0,0,0
1799,65069.928705133694,2010-12-21 06:14:17,750.3769242453335,2,7,0.5499359965324402,3.861959457397461,5.40580531446787,5.282967768335718,21.673745453969488,19.150682587413613,6.47544875391759e-05,0.0961798131465911,0,0,0
1800,65099.943781065725,2010-12-21 06:14:47,780.3920000670901,2,7,0.5501165986061096,3.86568284034729,5.410392614808488,5.282967768335718,21.691470256699496,19.150682587413613,6.47544875391759e-05,0.0961798131465911,0,0,0
1801,65129.95874177603,2010-12-21 06:15:17,810.4069607824085,2,7,0.550297200679779,3.869082450866699,5.414979912543934,5.282967768335718,21.70921111927809,19.150682587413613,9.713172767078504e-05,0.0961798131465911,0,0,0
1802,65159.97383136204,2010-12-21 06:15:47,840.4220503734293,2,7,0.5501165986061096,3.8723201751708975,5.419567230599359,5.282967768335718,21.726967590267712,19.150682587413613,3.237724376958795e-05,0.0961798131465911,0,0,0
1803,65189.98887345987,2010-12-21 06:16:17,870.4370924762775,2,7,0.550297200679779,3.875719785690308,5.424154557154757,5.282967768335718,21.74473907845564,19.150682587413613,9.713172767078504e-05,0.0961798131465911,0,0,0
1804,65220.003961366696,2010-12-21 06:16:47,900.4521803831072,2,7,0.5501165986061096,3.878795623779297,5.428741898629435,5.282967768335718,21.76252513556336,19.150682587413613,9.713172767078504e-05,0.0961798131465911,0,0,0
1805,65250.019032080745,2010-12-21 06:17:17,930.4672511021656,2,7,0.550297200679779,3.881709575653076,5.433329189864418,5.282967768335718,21.780324826934372,19.150682587413613,6.47544875391759e-05,0.0961798131465911,0,0,0
1806,65280.0340910606,2010-12-21 06:17:47,960.4823100769994,2,7,0.550297200679779,3.8844616413116455,5.437916500868893,5.282967768335718,21.798137852815177,19.150682587413613,6.47544875391759e-05,0.0961798131465911,0,0,0
1807,65310.04915971953,2010-12-21 06:18:17,990.497378740944,2,7,0.5501165986061096,3.887051820755005,5.442503879186787,5.282967768335718,21.81596359352174,19.150682587413613,6.47544875391759e-05,0.0961798131465911,0,0,0
1808,65340.064233556346,2010-12-21 06:18:47,1020.5124525727484,2,7,0.550297200679779,3.889642000198364,5.447091239265479,5.282967768335718,21.833801186112467,19.150682587413613,3.237724376958795e-05,0.0961798131465911,0,0,0
1809,65370.07932771874,2010-12-21 06:19:18,1050.5275467201072,2,7,0.550297200679779,3.8920702934265137,5.451678619825612,5.282967768335718,21.85165004937104,19.150682587413613,3.237724376958795e-05,0.0961798131465911,0,0,0
1810,65400.09451254676,2010-12-21 06:19:48,1080.5427316333337,2,7,0.5501165986061096,3.894336700439453,5.456266065243216,5.282967768335718,21.869509818729856,19.150682587413613,6.47544875391759e-05,0.0961798131465911,0,0,0
1811,65430.109458204606,2010-12-21 06:20:18,1110.5576772059703,2,7,0.550297200679779,3.896441221237183,5.460853428788377,5.282967768335718,21.887378947732707,19.150682587413613,9.713172767078504e-05,0.0961798131465911,0,0,0
1812,65460.12452236735,2010-12-21 06:20:48,1140.5727413637012,2,7,0.5501165986061096,3.898221969604492,5.465440746985935,5.282967768335718,21.905257555998624,19.150682587413613,3.237724376958795e-05,0.0961798131465911,0,0,0
1813,65490.139623086056,2010-12-21 06:21:18,1170.5878420974502,2,7,0.5501165986061096,3.9003264904022217,5.470028105780164,5.282967768335718,21.923145526423266,19.150682587413613,6.47544875391759e-05,0.0961798131465911,0,0,0
1814,65520.154732867326,2010-12-21 06:21:48,1200.6029519539009,2,7,0.550297200679779,3.902269124984741,5.474615475740553,5.282967768335718,21.94104242641845,19.150682587413613,3.237724376958795e-05,0.0961798131465911,0,0,0
1815,65550.16974551688,2010-12-21 06:22:18,1230.6179645332809,2,7,0.550297200679779,3.904049873352051,5.479202858778466,5.282967768335718,21.958947954936328,19.150682587413613,6.47544875391759e-05,0.0961798131465911,0,0,0
1816,65580.18483911788,2010-12-21 06:22:48,1260.6330581342804,2,7,0.550297200679779,3.9059925079345694,5.483790194416043,5.282967768335718,21.976861634786356,19.150682587413613,3.237724376958795e-05,0.0961798131465911,0,0,0
1817,65610.19991899973,2010-12-21 06:23:18,1290.64813801614,2,7,0.550297200679779,3.90777325630188,5.488377543982161,5.282967768335718,21.99478358321265,19.150682587413613,6.47544875391759e-05,0.0961798131465911,0,0,0
1818,65640.2149642454,2010-12-21 06:23:48,1320.6631832618093,2,7,0.550297200679779,3.90939211845398,5.492964840547109,5.282967768335718,22.01271334147048,19.150682587413613,3.237724376958795e-05,0.0961798131465911,0,0,0
1819,65670.23003626268,2010-12-21 06:24:18,1350.678255254036,2,7,0.5501165986061096,3.911334753036499,5.49755220567419,5.282967768335718,22.03065137584735,19.150682587413613,6.47544875391759e-05,0.0961798131465911,0,0,0
1820,65700.24511558817,2010-12-21 06:24:48,1380.6933346797607,2,7,0.5501165986061096,3.9127917289733887,5.502139533910681,5.282967768335718,22.04859710690619,19.150682587413613,3.237724376958795e-05,0.0961798131465911,0,0,0
1821,65730.26032045604,2010-12-21 06:25:18,1410.7085395225813,2,7,0.5501165986061096,3.914572238922119,5.506726860574584,5.282967768335718,22.066550654750262,19.150682587413613,6.47544875391759e-05,0.0961798131465911,0,0,0
1822,65760.27525042485,2010-12-21 06:25:48,1440.7234694212134,2,7,0.550297200679779,3.916514873504639,5.511314236973381,5.282967768335718,22.08451214349591,19.150682587413613,6.47544875391759e-05,0.0961798131465911,0,0,0
1823,65790.29036323365,2010-12-21 06:26:18,1470.7385822450483,2,7,0.5501165986061096,3.917971849441528,5.51590151122062,5.282967768335718,22.10248098647774,19.150682587413613,3.237724376958795e-05,0.0961798131465911,0,0,0
1824,65820.30544109047,2010-12-21 06:26:48,1500.7536601018687,2,7,0.5501165986061096,3.919590711593628,5.520488823774338,5.282967768335718,22.120457742831565,19.150682587413613,3.237724376958795e-05,0.0961798131465911,0,0,0
1825,65850.3204891732,2010-12-21 06:27:18,1530.7687081896104,2,7,0.550297200679779,3.9213714599609375,5.525076183238048,5.282967768335718,22.138442459280235,19.150682587413613,3.237724376958795e-05,0.0961798131465911,0,0,0
1826,65880.33554351151,2010-12-21 06:27:48,1560.7837625028435,2,7,0.550297200679779,3.922990322113037,5.529663476466605,5.282967768335718,22.15643469708958,19.150682587413613,0.0,0.0961798131465911,0,0,0
1827,65910.35061248622,2010-12-21 06:28:18,1590.798831502624,2,7,0.550297200679779,3.9247710704803462,5.534250823787521,5.282967768335718,22.17443485583845,19.150682587413613,3.237724376958795e-05,0.0961798131465911,0,0,0
1828,65940.366219565,2010-12-21 06:28:48,1620.8144386315175,2,7,0.550297200679779,3.9263899326324463,5.53883820952482,5.282967768335718,22.19244284949041,19.150682587413613,3.237724376958795e-05,0.0961798131465911,0,0,0
1829,65970.38096076404,2010-12-21 06:29:18,1650.8291798706782,2,7,0.5501165986061096,3.928008794784546,5.543425458181108,5.282967768335718,22.210458021476256,19.150682587413613,3.237724376958795e-05,0.0961798131465911,0,0,0
1830,66000.39584046777,2010-12-21 06:29:48,1680.8440595643774,2,7,0.550297200679779,3.929789543151856,5.548012715939625,5.282967768335718,22.22848100624734,19.150682587413613,3.237724376958795e-05,0.0961798131465911,0,0,0
1831,66030.41106034801,2010-12-21 06:30:18,1710.8592794195556,2,7,0.5501165986061096,3.931570291519165,5.552600094293012,5.282967768335718,22.24651226298817,19.150682587413613,6.47544875391759e-05,0.0961798131465911,0,0,0
1832,66060.42617938732,2010-12-21 06:30:48,1740.874398478907,2,7,0.550297200679779,3.9331891536712646,5.557187472315459,5.282967768335718,22.264551344217747,19.150682587413613,3.237724376958795e-05,0.0961798131465911,0,0,0
1833,66090.4413351079,2010-12-21 06:31:18,1770.889554109264,2,7,0.5501165986061096,3.934808015823364,5.561774869331622,5.282967768335718,22.282598328104157,19.150682587413613,3.237724376958795e-05,0.0961798131465911,0,0,0
1834,66120.45614718835,2010-12-21 06:31:48,1800.904366204748,2,7,0.5501165986061096,3.936426877975464,5.566362210686366,5.282967768335718,22.3006529136718,19.150682587413613,3.237724376958795e-05,0.0961798131465911,0,0,0
1835,66150.47122805264,2010-12-21 06:32:18,1830.9194470740647,2,7,0.5501165986061096,3.938369512557984,5.570949595278344,5.282967768335718,22.318715522289587,19.150682587413613,3.237724376958795e-05,0.0961798131465911,0,0,0
1836,66180.48628156389,2010-12-21 06:32:48,1860.9345005802904,2,7,0.550297200679779,3.940150260925293,5.57553697258195,5.282967768335718,22.336785971127583,19.150682587413613,6.47544875391759e-05,0.0961798131465911,0,0,0
1837,66210.50152968941,2010-12-21 06:33:18,1890.9497486907808,2,7,0.5501165986061096,3.941607236862183,5.580124353088664,5.282967768335718,22.354864318112995,19.150682587413613,3.237724376958795e-05,0.0961798131465911,0,0,0
1838,66240.51644746287,2010-12-21 06:33:48,1920.9646664542147,2,7,0.550297200679779,3.943549871444702,5.584711688517339,5.282967768335718,22.372950355941462,19.150682587413613,6.47544875391759e-05,0.0961798131465911,0,0,0
1839,66270.53145971142,2010-12-21 06:34:18,1950.9796787278344,2,7,0.550297200679779,3.945330619812012,5.58929909952821,5.282967768335718,22.391044603291164,19.150682587413613,6.47544875391759e-05,0.0961798131465911,0,0,0
1840,66300.5465540242,2010-12-21 06:34:48,1980.9947730406047,2,7,0.550297200679779,3.9469494819641113,5.593886521595297,5.282967768335718,22.409146821939537,19.150682587413613,6.47544875391759e-05,0.0961798131465911,0,0,0
1841,66330.56162700389,2010-12-21 06:35:18,2011.0098460202887,2,7,0.5499359965324402,3.948730230331421,5.598473852615944,5.282967768335718,22.427256591464708,19.150682587413613,6.47544875391759e-05,0.0961798131465911,0,0,0
1842,66360.57693862241,2010-12-21 06:35:48,2041.025157714004,2,7,0.550297200679779,3.950349092483521,5.60306129497748,5.282967768335718,22.445374775068093,19.150682587413613,3.237724376958795e-05,0.0961798131465911,0,0,0
1843,66390.5918124816,2010-12-21 06:36:18,2071.040031497997,2,7,0.5499359965324402,3.95212984085083,5.607648607156644,5.282967768335718,22.46350047507753,19.150682587413613,3.237724376958795e-05,0.0961798131465911,0,0,0
1844,66420.60689963655,2010-12-21 06:36:48,2101.055118657968,2,7,0.550297200679779,3.95391058921814,5.612235956470139,5.282967768335718,22.481634332130927,19.150682587413613,6.47544875391759e-05,0.0961798131465911,0,0,0
1845,66450.62217777176,2010-12-21 06:37:18,2131.070396773124,2,7,0.5501165986061096,3.9555294513702393,5.616823391141103,5.282967768335718,22.499776593087496,19.150682587413613,3.237724376958795e-05,0.0961798131465911,0,0,0
1846,66480.63725374389,2010-12-21 06:37:48,2161.0854728404915,2,7,0.550297200679779,3.957472085952759,5.621410801360943,5.282967768335718,22.5179268392868,19.150682587413613,6.47544875391759e-05,0.0961798131465911,0,0,0
1847,66510.65221724614,2010-12-21 06:38:18,2191.1004363176826,2,7,0.550297200679779,3.959252834320069,5.625998215146828,5.282967768335718,22.536085260936307,19.150682587413613,3.237724376958795e-05,0.0961798131465911,0,0,0
1848,66540.66715721483,2010-12-21 06:38:48,2221.1153762061745,2,7,0.550297200679779,3.961033582687378,5.63058555137414,5.282967768335718,22.554251559690893,19.150682587413613,3.237724376958795e-05,0.0961798131465911,0,0,0
1849,66570.68224142746,2010-12-21 06:39:18,2251.1304604438737,2,7,0.550297200679779,3.962814331054688,5.635172957288597,5.282967768335718,22.572426411694035,19.150682587413613,3.237724376958795e-05,0.0961798131465911,0,0,0
1850,66600.697354126,2010-12-21 06:39:48,2281.145573127359,2,7,0.5501165986061096,3.964595079421997,5.639760369193272,5.282967768335718,22.590609603245536,19.150682587413613,6.47544875391759e-05,0.0961798131465911,0,0,0
1851,66630.71239107601,2010-12-21 06:40:18,2311.160610097435,2,7,0.550297200679779,3.9665377140045166,5.644347742717982,5.282967768335718,22.608800980224835,19.150682587413613,6.47544875391759e-05,0.0961798131465911,0,0,0
1852,66660.7274493441,2010-12-21 06:40:48,2341.17566836551,2,7,0.5501165986061096,3.968156576156616,5.648935113291239,5.282967768335718,22.62700072496075,19.150682587413613,3.237724376958795e-05,0.0961798131465911,0,0,0
1853,66690.74266019186,2010-12-21 06:41:18,2371.190879298485,2,7,0.550297200679779,3.970099210739136,5.653522486748002,5.282967768335718,22.64520898703656,19.150682587413613,6.47544875391759e-05,0.0961798131465911,0,0,0
1854,66720.75774122658,2010-12-21 06:41:48,2401.2059603332136,2,7,0.550297200679779,3.9720418453216553,5.658109831256334,5.282967768335718,22.663425780825623,19.150682587413613,0.0,0.0961798131465911,0,0,0
1855,66750.77268587693,2010-12-21 06:42:18,2431.220904893331,2,7,0.550297200679779,3.973984479904175,5.662697231910022,5.282967768335718,22.681651469701404,19.150682587413613,6.47544875391759e-05,0.0961798131465911,0,0,0
1856,66780.78773598469,2010-12-21 06:42:48,2461.2359550010992,2,7,0.5499359965324402,3.975765228271485,5.667284696118492,5.282967768335718,22.69988620871121,19.150682587413613,3.237724376958795e-05,0.0961798131465911,0,0,0
1857,66810.80281369615,2010-12-21 06:43:18,2491.251032692508,2,7,0.550297200679779,3.977707862854004,5.671872096417199,5.282967768335718,22.71812952521292,19.150682587413613,6.47544875391759e-05,0.0961798131465911,0,0,0
1858,66840.81790643501,2010-12-21 06:43:48,2521.266125456425,2,7,0.550297200679779,3.979974269866944,5.676459439072557,5.282967768335718,22.7363811553798,19.150682587413613,0.0001295089750783,0.0961798131465911,0,0,0
1859,66870.83293988633,2010-12-21 06:44:18,2551.281158907744,2,7,0.5501165986061096,3.981916904449463,5.681046678594477,5.282967768335718,22.75464178598813,19.150682587413613,9.713172767078504e-05,0.0961798131465911,0,0,0
1860,66900.84822377084,2010-12-21 06:44:48,2581.2964428574182,2,7,0.5499359965324402,3.983697652816773,5.685634020247625,5.282967768335718,22.772911965741866,19.150682587413613,6.47544875391759e-05,0.0961798131465911,0,0,0
1861,66930.86310062246,2010-12-21 06:45:18,2611.311319623833,2,7,0.550297200679779,3.985640287399292,5.690221324991816,5.282967768335718,22.791191161787243,19.150682587413613,3.237724376958795e-05,0.0961798131465911,0,0,0
1862,66960.87824278431,2010-12-21 06:45:48,2641.326461895949,2,7,0.5499359965324402,3.987582921981812,5.694808649919061,5.282967768335718,22.809479758777982,19.150682587413613,3.237724376958795e-05,0.0961798131465911,0,0,0
1863,66990.89323569475,2010-12-21 06:46:18,2671.3414547011216,2,7,0.550297200679779,3.989849328994751,5.699395936925003,5.282967768335718,22.827777408619088,19.150682587413613,9.713172767078504e-05,0.0961798131465911,0,0,0
1864,67020.90829904046,2010-12-21 06:46:48,2701.356518056857,2,7,0.550297200679779,3.9917919635772714,5.703983241500908,5.282967768335718,22.84608468324254,19.150682587413613,3.237724376958795e-05,0.0961798131465911,0,0,0
1865,67050.9234754425,2010-12-21 06:47:18,2731.371694529078,2,7,0.5501165986061096,3.993896484375,5.70857056458644,5.282967768335718,22.86440163154932,19.150682587413613,0.0,0.0961798131465911,0,0,0
1866,67080.93844869903,2010-12-21 06:47:48,2761.386667720443,2,7,0.5504778623580933,3.99616265296936,5.713157795797941,5.282967768335718,22.88272791852306,19.150682587413613,9.713172767078504e-05,0.0961798131465911,0,0,0
1867,67110.95366085504,2010-12-21 06:48:18,2791.4018798614243,2,7,0.550297200679779,3.9984290599823,5.71774516346825,5.282967768335718,22.90106461941712,19.150682587413613,6.47544875391759e-05,0.0961798131465911,0,0,0
1868,67140.9685915256,2010-12-21 06:48:48,2821.4168105169406,2,7,0.5501165986061096,4.000371932983398,5.722332425411095,5.282967768335718,22.91941072536274,19.150682587413613,3.24249267578125e-05,0.0961798131465911,0,0,0
1869,67170.98386385133,2010-12-21 06:49:18,2851.432082922889,2,7,0.5501165986061096,4.002476215362549,5.726919717117244,5.282967768335718,22.93776706935152,19.150682587413613,3.23295607813634e-05,0.0961798131465911,0,0,0
1870,67200.99874103379,2010-12-21 06:49:48,2881.44696002514,2,7,0.5501165986061096,4.004904747009277,5.731507073250716,5.282967768335718,22.95613391472797,19.150682587413613,6.47544875391759e-05,0.0961798131465911,0,0,0
1871,67231.01379500619,2010-12-21 06:50:18,2911.462014022587,2,7,0.5501165986061096,4.007009029388428,5.736094357461739,5.282967768335718,22.97451075837818,19.150682587413613,0.0,0.0961798131465911,0,0,0
1872,67261.02888765481,2010-12-21 06:50:48,2941.477106666204,2,7,0.5499359965324402,4.009437561035156,5.740681734001996,5.282967768335718,22.992898397428576,19.150682587413613,6.47544875391759e-05,0.0961798131465911,0,0,0
1873,67291.04394242918,2010-12-21 06:51:19,2971.492161445597,2,7,0.550297200679779,4.011865615844727,5.74526902489398,5.282967768335718,23.011296160630778,19.150682587413613,6.47544875391759e-05,0.0961798131465911,0,0,0
1874,67321.05913867561,2010-12-21 06:51:49,3001.507357682001,2,7,0.5499359965324402,4.013970375061035,5.749856414026728,5.282967768335718,23.029705009589332,19.150682587413613,3.24249267578125e-05,0.0961798131465911,0,0,0
1875,67351.07419939479,2010-12-21 06:52:19,3031.522418481374,2,7,0.5501165986061096,4.016236782073975,5.754443789848678,5.282967768335718,23.048124540075044,19.150682587413613,0.0,0.0961798131465911,0,0,0
1876,67381.08925912651,2010-12-21 06:52:49,3061.537478213092,2,7,0.5501165986061096,4.018826961517334,5.75903117527223,5.282967768335718,23.066555001133416,19.150682587413613,9.71794142969884e-05,0.0961798131465911,0,0,0
1877,67411.10422625278,2010-12-21 06:53:19,3091.5524452691893,2,7,0.550297200679779,4.021417140960693,5.763618530607936,5.282967768335718,23.084996223645224,19.150682587413613,9.71794142969884e-05,0.0961798131465911,0,0,0
1878,67441.11928930777,2010-12-21 06:53:49,3121.5675083291885,2,7,0.5501165986061096,4.023521423339844,5.768205766024118,5.282967768335718,23.10344813207645,19.150682587413613,3.23295607813634e-05,0.0961798131465911,0,0,0
1879,67471.13437137006,2010-12-21 06:54:19,3151.582590361399,2,7,0.5501165986061096,4.026273727416992,5.772793128221088,5.282967768335718,23.12191177474128,19.150682587413613,9.71794142969884e-05,0.0961798131465911,0,0,0
1880,67501.14952640895,2010-12-21 06:54:49,3181.5977454253466,2,7,0.5501165986061096,4.028540134429932,5.777380507426351,5.282967768335718,23.140386915633567,19.150682587413613,6.47544875391759e-05,0.0961798131465911,0,0,0
1881,67531.16448962048,2010-12-21 06:55:19,3211.612708636877,2,7,0.550297200679779,4.031291961669922,5.781967847134707,5.282967768335718,23.158873382821675,19.150682587413613,9.70840483205393e-05,0.0961798131465911,0,0,0
1882,67561.17960422875,2010-12-21 06:55:49,3241.627823335377,2,7,0.5501165986061096,4.03372049331665,5.786555146440287,5.282967768335718,23.17737129602149,19.150682587413613,6.47544875391759e-05,0.0961798131465911,0,0,0
1883,67591.1948171617,2010-12-21 06:56:19,3271.643036163068,2,7,0.5501165986061096,4.036148548126221,5.79114245915537,5.282967768335718,23.19588093181793,19.150682587413613,6.47544875391759e-05,0.0961798131465911,0,0,0
1884,67621.20974772699,2010-12-21 06:56:49,3301.657966733371,2,7,0.5504778623580933,4.0390625,5.795729709990812,5.282967768335718,23.214402078181745,19.150682587413613,0.0001295089750783,0.0961798131465911,0,0,0
1885,67651.22481791473,2010-12-21 06:57:19,3331.67303690607,2,7,0.5501165986061096,4.04149055480957,5.800317012987105,5.282967768335718,23.232935246836604,19.150682587413613,9.70840483205393e-05,0.0961798131465911,0,0,0
1886,67681.23991288414,2010-12-21 06:57:49,3361.688131890512,2,7,0.5501165986061096,4.04408073425293,5.804904329958077,5.282967768335718,23.25148048535819,19.150682587413613,6.47544875391759e-05,0.0961798131465911,0,0,0
1887,67711.25499255546,2010-12-21 06:58:19,3391.7032116671103,2,7,0.5501165986061096,4.046670913696289,5.809491685050177,5.282967768335718,23.270037995341223,19.150682587413613,6.47544875391759e-05,0.0961798131465911,0,0,0
1888,67741.27002164593,2010-12-21 06:58:49,3421.7182406623406,2,7,0.5501165986061096,4.0494232177734375,5.814078947126792,5.282967768335718,23.28860740060604,19.150682587413613,9.71794142969884e-05,0.0961798131465911,0,0,0
1889,67771.28509485618,2010-12-21 06:59:19,3451.733313857561,2,7,0.550297200679779,4.052013397216797,5.818666274935072,5.282967768335718,23.30718946890621,19.150682587413613,6.47544875391759e-05,0.0961798131465911,0,0,0
1890,67801.3001659612,2010-12-21 06:59:49,3481.7483849675928,2,7,0.550297200679779,4.054765224456787,5.823253546419414,5.282967768335718,23.3257837836253,19.150682587413613,6.47544875391759e-05,0.0961798131465911,0,0,0
1891,67831.31522565283,2010-12-21 07:00:19,3511.763444674247,2,7,0.550297200679779,4.057679176330566,5.82784090892045,5.282967768335718,23.34439109160248,19.150682587413613,6.47544875391759e-05,0.0961798131465911,0,0,0
1892,67861.333341274,2010-12-21 07:00:49,3541.7815603656018,2,7,0.5501165986061096,4.060431480407715,5.83242878274351,5.282967768335718,23.363013256483462,19.150682587413613,6.47544875391759e-05,0.0961798131465911,0,0,0
1893,67891.34540906039,2010-12-21 07:01:19,3571.7936281319285,2,7,0.5501165986061096,4.063183307647705,5.837015607498572,5.282967768335718,23.38164356138073,19.150682587413613,6.47544875391759e-05,0.0961798131465911,0,0,0
1894,67921.3604142614,2010-12-21 07:01:49,3601.808633262773,2,7,0.5499359965324402,4.0659356117248535,5.841602885200266,5.282967768335718,23.400288752127786,19.150682587413613,6.47544875391759e-05,0.0961798131465911,0,0,0
1895,67951.37551024332,2010-12-21 07:02:19,3631.8237293349225,2,7,0.550297200679779,4.068849563598633,5.846190114053148,5.282967768335718,23.41894679045004,19.150682587413613,9.71794142969884e-05,0.0961798131465911,0,0,0
1896,67981.39060345838,2010-12-21 07:02:49,3661.838822464749,2,7,0.550297200679779,4.071763515472412,5.850777408558262,5.282967768335718,23.437618258191364,19.150682587413613,0.0001295089750783,0.0961798131465911,0,0,0
1897,68011.40580752425,2010-12-21 07:03:19,3691.854026540661,2,7,0.550297200679779,4.074515342712402,5.855364644024093,5.282967768335718,23.45630274022687,19.150682587413613,3.23295607813634e-05,0.0961798131465911,0,0,0
1898,68041.42073163348,2010-12-21 07:03:49,3721.8689506498863,2,7,0.550297200679779,4.077429294586182,5.859951910049665,5.282967768335718,23.47500084073656,19.150682587413613,3.23295607813634e-05,0.0961798131465911,0,0,0
1899,68071.43579711951,2010-12-21 07:04:19,3751.8840161359226,2,7,0.550297200679779,4.08050537109375,5.864539229456335,5.282967768335718,23.49371281487075,19.150682587413613,6.47544875391759e-05,0.0961798131465911,0,0,0
1900,68101.45088602383,2010-12-21 07:04:49,3781.899105040234,2,7,0.5501165986061096,4.083419322967529,5.869126500517978,5.282967768335718,23.512438166522045,19.150682587413613,6.47544875391759e-05,0.0961798131465911,0,0,0
1901,68131.46596580042,2010-12-21 07:05:19,3811.914184816833,2,7,0.5501165986061096,4.08649492263794,5.873713651408481,5.282967768335718,23.53117682242757,19.150682587413613,6.47544875391759e-05,0.0961798131465911,0,0,0
1902,68161.48100761756,2010-12-21 07:05:49,3841.9292266189327,2,7,0.5501165986061096,4.089732646942139,5.878300860001419,5.282967768335718,23.549929643162585,19.150682587413613,0.0001295089750783,0.0961798131465911,0,0,0
1903,68191.49607037181,2010-12-21 07:06:19,3871.9442893681594,2,7,0.550297200679779,4.092646598815918,5.882888139811375,5.282967768335718,23.56869671966375,19.150682587413613,0.0001295089750783,0.0961798131465911,0,0,0
1904,68221.5112692598,2010-12-21 07:06:49,3901.9594882611727,2,7,0.5501165986061096,4.095722675323486,5.887475392095809,5.282967768335718,23.58747778315617,19.150682587413613,9.71794142969884e-05,0.0961798131465911,0,0,0
1905,68251.52622081732,2010-12-21 07:07:19,3931.974439818702,2,7,0.550297200679779,4.099122047424316,5.892062666115811,5.282967768335718,23.606273251118303,19.150682587413613,0.0001618385285837,0.0961798131465911,0,0,0
1906,68281.54140652755,2010-12-21 07:07:49,3961.989625533925,2,7,0.5499359965324402,4.101874351501465,5.896649961464324,5.282967768335718,23.62508325488291,19.150682587413613,3.24249267578125e-05,0.0961798131465911,0,0,0
1907,68311.55640448054,2010-12-21 07:08:19,3992.0046234969327,2,7,0.5501165986061096,4.105112075805664,5.901237235715266,5.282967768335718,23.64390757515748,19.150682587413613,9.71794142969884e-05,0.0961798131465911,0,0,0
1908,68341.57142129545,2010-12-21 07:08:49,4022.019640311853,2,7,0.5501165986061096,4.108349800109863,5.905824517693249,5.282967768335718,23.662746639440805,19.150682587413613,6.47544875391759e-05,0.0961798131465911,0,0,0
1909,68371.58659807342,2010-12-21 07:09:19,4052.0348171600094,2,7,0.5499359965324402,4.111425399780273,5.91041181289782,5.282967768335718,23.68160048177333,19.150682587413613,3.23295607813634e-05,0.0961798131465911,0,0,0
1910,68401.60185225905,2010-12-21 07:09:49,4082.0500713556426,2,7,0.5501165986061096,4.114824771881104,5.914999054226654,5.282967768335718,23.70046890582245,19.150682587413613,6.46591215627268e-05,0.0961798131465911,0,0,0
1911,68431.61662200914,2010-12-21 07:10:19,4112.06484110074,2,7,0.5501165986061096,4.118062496185303,5.919586243385913,5.282967768335718,23.719352023987792,19.150682587413613,9.70840483205393e-05,0.0961798131465911,0,0,0
1912,68461.63169032222,2010-12-21 07:10:49,4142.079909343635,2,7,0.5499359965324402,4.121300220489502,5.924173529955207,5.282967768335718,23.738250660972756,19.150682587413613,6.47544875391759e-05,0.0961798131465911,0,0,0
1913,68491.64676843968,2010-12-21 07:11:19,4172.094987461105,2,7,0.550297200679779,4.12470006942749,5.928760859056631,5.282967768335718,23.7571645677612,19.150682587413613,6.47544875391759e-05,0.0961798131465911,0,0,0
1914,68521.66183711866,2010-12-21 07:11:49,4202.110056135074,2,7,0.550297200679779,4.1279377937316895,5.933348137937823,5.282967768335718,23.776093564268148,19.150682587413613,6.47544875391759e-05,0.0961798131465911,0,0,0
1915,68551.67688456982,2010-12-21 07:12:19,4232.125103591245,2,7,0.5501165986061096,4.13133716583252,5.937935383933931,5.282967768335718,23.795037881641544,19.150682587413613,6.47544875391759e-05,0.0961798131465911,0,0,0
1916,68581.6919771132,2010-12-21 07:12:49,4262.1401961296,2,7,0.550297200679779,4.134898662567139,5.942522627246441,5.282967768335718,23.81399770922192,19.150682587413613,9.70840483205393e-05,0.0961798131465911,0,0,0
1917,68611.70717048246,2010-12-21 07:13:19,4292.155389594105,2,7,0.550297200679779,4.138298511505127,5.947109937446219,5.282967768335718,23.832973500359053,19.150682587413613,9.71794142969884e-05,0.0961798131465911,0,0,0
1918,68641.72209026593,2010-12-21 07:13:49,4322.17030928233,2,7,0.550297200679779,4.141860008239746,5.951697255653262,5.282967768335718,23.85196508370917,19.150682587413613,0.0001295089750783,0.0961798131465911,0,0,0
1919,68671.73726542488,2010-12-21 07:14:19,4352.185484511458,2,7,0.550297200679779,4.145259380340576,5.956284616436454,5.282967768335718,23.87097270885242,19.150682587413613,9.70840483205393e-05,0.0961798131465911,0,0,0
1920,68701.75222620537,2010-12-21 07:14:49,4382.200445206726,2,7,0.550297200679779,4.148820877075195,5.960871896171085,5.282967768335718,23.889996231645448,19.150682587413613,0.0001295089750783,0.0961798131465911,0,0,0
1921,68731.76731620739,2010-12-21 07:15:19,4412.215535228819,2,7,0.5504778623580933,4.152382373809815,5.965459176992473,5.282967768335718,23.90903580633675,19.150682587413613,0.0001295089750783,0.0961798131465911,0,0,0
1922,68761.78248018853,2010-12-21 07:15:49,4442.230699189907,2,7,0.550297200679779,4.155782222747803,5.970046416694711,5.282967768335718,23.928091356024247,19.150682587413613,9.71794142969884e-05,0.0961798131465911,0,0,0
1923,68791.79742773109,2010-12-21 07:16:19,4472.245646752495,2,7,0.5504778623580933,4.159505367279053,5.974633603910314,5.282967768335718,23.94716301048852,19.150682587413613,9.70840483205393e-05,0.0961798131465911,0,0,0
1924,68821.81270212196,2010-12-21 07:16:49,4502.260921208545,2,7,0.550297200679779,4.162905216217041,5.979220848027627,5.282967768335718,23.96625131198996,19.150682587413613,6.47544875391759e-05,0.0961798131465911,0,0,0
1925,68851.82757543979,2010-12-21 07:17:19,4532.275794461217,2,7,0.550297200679779,4.166628360748291,5.98380808172268,5.282967768335718,23.98535606569267,19.150682587413613,0.0001295089750783,0.0961798131465911,0,0,0
1926,68881.84262578817,2010-12-21 07:17:49,4562.290844809583,2,7,0.5501165986061096,4.17018985748291,5.988395276641085,5.282967768335718,24.004477339282484,19.150682587413613,9.70840483205393e-05,0.0961798131465911,0,0,0
1927,68911.85768695846,2010-12-21 07:18:19,4592.305905974868,2,7,0.5501165986061096,4.173751354217529,5.992982530634335,5.282967768335718,24.02361567471134,19.150682587413613,9.70840483205393e-05,0.0961798131465911,0,0,0
1928,68941.87275141192,2010-12-21 07:18:49,4622.320970428335,2,7,0.5501165986061096,4.1774749755859375,5.997569724334382,5.282967768335718,24.042770474646623,19.150682587413613,6.47544875391759e-05,0.0961798131465911,0,0,0
1929,68971.88783236645,2010-12-21 07:19:19,4652.336051387877,2,7,0.550297200679779,4.181198120117188,6.002156937784775,5.282967768335718,24.061942187185423,19.150682587413613,6.47544875391759e-05,0.0961798131465911,0,0,0
1930,69001.90286489046,2010-12-21 07:19:49,4682.351083906876,2,7,0.5501165986061096,4.184921741485596,6.006744195270825,5.282967768335718,24.081131120767218,19.150682587413613,9.71794142969884e-05,0.0961798131465911,0,0,0
1931,69031.91792897302,2010-12-21 07:20:19,4712.36614798942,2,7,0.550297200679779,4.188807010650635,6.011331335378787,5.282967768335718,24.100336712158388,19.150682587413613,0.0001295089750783,0.0961798131465911,0,0,0
1932,69061.93295507104,2010-12-21 07:20:49,4742.381174087441,2,7,0.5499359965324402,4.192368507385254,6.015917962302195,5.282967768335718,24.11955746634741,19.150682587413613,6.47544875391759e-05,0.0961798131465911,0,0,0
1933,69091.9481654376,2010-12-21 07:21:19,4772.396384454007,2,7,0.5501165986061096,4.196253299713135,6.020504444242477,5.282967768335718,24.138794920462608,19.150682587413613,6.47544875391759e-05,0.0961798131465911,0,0,0
1934,69120.31069994887,2010-12-21 07:21:48,4800.758919055495,2,7,0.5501165986061096,4.200138568878174,6.024838542241027,5.282967768335718,24.156989917550323,19.150682587413613,0.0001942634553415,0.0961798131465911,0,0,0
1935,69150.32362422573,2010-12-21 07:22:18,30.01509801698843,3,7,0.0,4.110616207122803,6.024838542241027,5.282967768335718,24.156989917550323,19.150682587413613,-0.0003885269106831,0.0961798131465911,0,0,0
1936,69180.33865779734,2010-12-21 07:22:48,60.0301315936195,3,7,0.0,4.0992841720581055,6.024838542241027,5.282967768335718,24.156989917550323,19.150682587413613,-0.0002590179501567,0.0961798131465911,0,0,0
1937,69210.3537285916,2010-12-21 07:23:18,90.04520238285272,3,7,0.0,4.092808723449707,6.024838542241027,5.282967768335718,24.156989917550323,19.150682587413613,-0.0001618385285837,0.0961798131465911,0,0,0
1938,69240.32192074013,2010-12-21 07:23:48,120.01339453139155,3,7,0.0,4.088275909423828,6.024838542241027,5.282967768335718,24.156989917550323,19.150682587413613,-0.0001295089750783,0.0961798131465911,0,0,0
1939,69240.32579006303,2010-12-21 07:23:48,2.967384222e-06,4,7,1.0068774223327637,4.199814796447754,6.024838543070969,5.282967768335718,24.15698992103593,19.150682587413613,0.0,0.0961798131465911,0,0,0
1940,69241.0914663841,2010-12-21 07:23:49,0.765679413771963,4,7,0.9566680788993835,4.199814796447754,6.025045953954138,5.282967768335718,24.15786100014452,19.150682587413613,0.0,0.0961798131465911,0,0,0
1941,69242.9507551176,2010-12-21 07:23:51,2.624968062062131,4,7,0.9066393375396729,4.199491024017334,6.025526060086972,5.282967768335718,24.15987733824665,19.150682587413613,-6.47544875391759e-05,0.0961798131465911,0,0,0
1942,69245.82567551645,2010-12-21 07:23:54,5.499888455888306,4,7,0.856429934501648,4.199814796447754,6.026228852621752,5.282967768335718,24.16282891663651,19.150682587413613,0.0,0.0961798131465911,0,0,0
1943,69249.79437149374,2010-12-21 07:23:58,9.468584438198132,4,7,0.8064011931419373,4.199653148651123,6.027144047859752,5.282967768335718,24.16667253946404,19.150682587413613,-3.23295607813634e-05,0.0961798131465911,0,0,0
1944,69255.01300758895,2010-12-21 07:24:03,14.68722053340428,4,7,0.7563723921775818,4.199653148651123,6.028275245580138,5.282967768335718,24.17142334101816,19.150682587413613,-3.23295607813634e-05,0.0961798131465911,0,0,0
1945,69261.85666310748,2010-12-21 07:24:10,21.53087605194465,4,7,0.7063436508178711,4.199814796447754,6.029663530039436,5.282967768335718,24.17725385594241,19.150682587413613,0.0,0.0961798131465911,0,0,0
1946,69270.95020745283,2010-12-21 07:24:19,30.624420387271403,4,7,0.6561342477798462,4.199653148651123,6.031381239448208,5.282967768335718,24.184467907614422,19.150682587413613,-3.23295607813634e-05,0.0961798131465911,0,0,0
1947,69283.55935832481,2010-12-21 07:24:31,43.23357126426145,4,7,0.6061055064201355,4.199814796447754,6.033586531522518,5.282967768335718,24.19372971166582,19.150682587413613,3.23295607813634e-05,0.0961798131465911,0,0,0
1948,69302.49650704606,2010-12-21 07:24:50,62.17071996545249,4,7,0.55607670545578,4.199814796447754,6.03663327419279,5.282967768335718,24.20652544815357,19.150682587413613,3.23295607813634e-05,0.0961798131465911,0,0,0
1949,69334.68341453739,2010-12-21 07:25:22,94.35762748184908,4,7,0.5060479640960693,4.199814796447754,6.041360328459062,5.282967768335718,24.22637817246689,19.150682587413613,0.0,0.0961798131465911,0,0,0
1950,69394.9166649143,2010-12-21 07:26:23,154.59087786376097,4,7,0.4558385610580444,4.199814796447754,6.049367980580128,5.282967768335718,24.26000880941488,19.150682587413613,0.0,0.0961798131465911,0,0,0
1951,69490.97754123538,2010-12-21 07:27:59,250.65175418483688,4,7,0.4058097898960113,4.199653148651123,6.060834783648823,5.282967768335718,24.30816722434506,19.150682587413613,-3.23295607813634e-05,0.0961798131465911,0,0,0
1952,69613.75632578846,2010-12-21 07:30:02,373.4305387329238,4,7,0.3557810187339782,4.199653148651123,6.073806317771682,5.282967768335718,24.36264529492084,19.150682587413613,0.0,0.0961798131465911,0,0,0
1953,69761.06624812444,2010-12-21 07:32:29,520.7404611240279,4,7,0.3057522773742676,4.199653148651123,6.087323624197438,5.282967768335718,24.419415434968645,19.150682587413613,0.0,0.0961798131465911,0,0,0
1954,69937.46904224287,2010-12-21 07:35:25,697.1432551873315,4,7,0.2557235062122345,4.199814796447754,6.101053458413142,5.282967768335718,24.47707816730063,19.150682587413613,0.0,0.0961798131465911,0,0,0
1955,70156.12127372622,2010-12-21 07:39:04,915.7954867408514,4,7,0.2056947201490402,4.199653148651123,6.11502250474491,5.282967768335718,24.535745574474884,19.150682587413613,-6.47544875391759e-05,0.0961798131465911,0,0,0
1956,70442.17844089953,2010-12-21 07:43:50,1201.852653899126,4,7,0.1556659489870071,4.199653148651123,6.12929562041869,5.282967768335718,24.59569005416454,19.150682587413613,0.0,0.0961798131465911,0,0,0
1957,70869.60782356872,2010-12-21 07:50:57,1629.2820365131693,4,7,0.1056371852755546,4.199653148651123,6.144603171830421,5.282967768335718,24.65997887635173,19.150682587413613,-3.23295607813634e-05,0.0961798131465911,0,0,0
1958,71690.28006586936,2010-12-21 08:04:38,2449.9542788689546,4,7,0.0556084141135215,4.199814796447754,6.162297836399484,5.282967768335718,24.73429326807496,19.150682587413613,0.0,0.0961798131465911,0,0,0
1959,71856.41744802997,2010-12-21 08:07:24,2616.0916609694123,4,7,0.0498289167881011,4.199653148651123,6.164750922580263,5.282967768335718,24.744595777642317,19.150682587413613,-3.23295607813634e-05,0.0961798131465911,0,0,0
1960,71886.43078372403,2010-12-21 08:07:54,30.015173214113585,5,7,0.0,4.191558837890625,6.164750922580263,5.282967768335718,24.744595777642317,19.150682587413613,-3.24249267578125e-05,0.0961798131465911,0,0,0
1961,71916.43013740687,2010-12-21 08:08:24,60.01452689693198,5,7,0.0,4.190263748168945,6.164750922580263,5.282967768335718,24.744595777642317,19.150682587413613,0.0,0.0961798131465911,0,0,0
1962,71916.61703471068,2010-12-21 08:08:25,0.187654094997937,6,7,-1.9243103452026844e-05,4.190263748168945,6.164750922580263,5.282967769338787,24.744595777642317,19.150682591616736,0.0,0.0986045151948928,0,0,0
1963,71921.44493229814,2010-12-21 08:08:30,5.015551687468431,6,7,0.0008838032954372,4.1901021003723145,6.164751993191222,5.28296776950502,24.744600263748804,19.1506825923133,-6.47544875391759e-05,0.0986045151948928,0,0,0
1964,71951.45938904813,2010-12-21 08:09:00,30.01508899954888,7,7,-1.099568486213684,4.003609657287598,6.164751993191222,5.29213599349226,24.744600263748804,19.18760597902224,-0.0010360718006268,0.0986045151948928,0,0,0
1965,71981.47441623386,2010-12-21 08:09:30,60.03011613013923,7,7,-1.099568486213684,3.973498821258545,6.164751993191222,5.301304107010595,24.744600263748804,19.224163885394784,-0.0006799221155233,0.0986045151948928,0,0,0
1966,72011.48952522817,2010-12-21 08:10:00,90.04522512444429,7,7,-1.099568486213684,3.95277738571167,6.164751993191222,5.31047214780663,24.744600263748804,19.260492666507417,-0.0004856586456298,0.0986045151948928,0,0,0
1967,72041.50456107545,2010-12-21 08:10:30,120.06026095668838,7,7,-1.099568486213684,3.936264991760254,6.164751993191222,5.319640185109799,24.744600263748804,19.29665377547403,-0.0004209041653666,0.0986045151948928,0,0,0
1968,72071.51960461187,2010-12-21 08:11:00,150.0753045081414,7,7,-1.099929690361023,3.922666549682617,6.164751993191222,5.3288082459844,24.744600263748804,19.33267902726784,-0.0003885269106831,0.0986045151948928,0,0,0
1969,72101.5346897518,2010-12-21 08:11:30,180.09038963806088,7,7,-1.099929690361023,3.910201549530029,6.164751993191222,5.337976299031905,24.744600263748804,19.36858573008618,-0.0003561496851034,0.0986045151948928,0,0,0
1970,72131.5498142948,2010-12-21 08:12:00,210.10551418105825,7,7,-1.0993878841400146,3.899031400680542,6.164751993191222,5.347144378897275,24.744600263748804,19.40438368608078,-0.0002913951757363,0.0986045151948928,0,0,0
1971,72161.56478075944,2010-12-21 08:12:30,240.12048064568367,7,7,-1.099568486213684,3.8881850242614746,6.164751993191222,5.356312376852342,24.744600263748804,19.44007896681905,-0.0002590179501567,0.0986045151948928,0,0,0
1972,72191.5799779031,2010-12-21 08:13:00,270.1356777743076,7,7,-1.0997490882873535,3.877500534057617,6.164751993191222,5.365480465677977,24.744600263748804,19.47567637601129,-0.0002913951757363,0.0986045151948928,0,0,0
1973,72221.59491884922,2010-12-21 08:13:30,300.1506187454936,7,7,-1.0997490882873535,3.86713981628418,6.164751993191222,5.374648442962755,24.744600263748804,19.511177657914093,-0.0002913951757363,0.0986045151948928,0,0,0
1974,72251.6100992863,2010-12-21 08:14:00,330.1657991825812,7,7,-1.099568486213684,3.856940984725952,6.164751993191222,5.383816483243471,24.744600263748804,19.54658625664262,-0.0003237724304199,0.0986045151948928,0,0,0
1975,72281.6251755291,2010-12-21 08:14:30,360.1808754805227,7,7,-1.099568486213684,3.847389698028565,6.164751993191222,5.392984542846312,24.744600263748804,19.58190406090289,-0.0002590179501567,0.0986045151948928,0,0,0
1976,72311.64008058593,2010-12-21 08:15:00,390.1957804571376,7,7,-1.099568486213684,3.8378384113311768,6.164751993191222,5.402152537230247,24.744600263748804,19.617132909931104,-0.0002590179501567,0.0986045151948928,0,0,0
1977,72341.658378606,2010-12-21 08:15:30,420.2140785924975,7,7,-1.099568486213684,3.828449249267578,6.164751993191222,5.411321593473761,24.744600263748804,19.652279079343376,-0.0002590179501567,0.0986045151948928,0,0,0
1978,72371.67023212918,2010-12-21 08:16:00,450.2259320054134,7,7,-1.0997490882873535,3.8192217350006095,6.164751993191222,5.420488704541117,24.744600263748804,19.687332460629275,-0.0002266406954731,0.0986045151948928,0,0,0
1979,72401.6852823322,2010-12-21 08:16:30,480.24098222846845,7,7,-1.0997490882873535,3.810156106948853,6.164751993191222,5.429656768903939,24.744600263748804,19.72230558358958,-0.0002590179501567,0.0986045151948928,0,0,0
1980,72431.70051965585,2010-12-21 08:17:00,510.2562196323158,7,7,-1.099568486213684,3.801414251327514,6.164751993191222,5.438824817216073,24.744600263748804,19.757196592733777,-0.0002590179501567,0.0986045151948928,0,0,0
1981,72461.71539618165,2010-12-21 08:17:30,540.2710960779324,7,7,-1.0997490882873535,3.7928342819213863,6.164751993191222,5.44799281537367,24.744600263748804,19.792008091129105,-0.0001942634553415,0.0986045151948928,0,0,0
1982,72491.73059019753,2010-12-21 08:18:00,570.2862900787729,7,7,-1.0997490882873535,3.7844161987304688,6.164751993191222,5.457160940838054,24.744600263748804,19.82674261044121,-0.0002266406954731,0.0986045151948928,0,0,0
1983,72521.74552464248,2010-12-21 08:18:30,600.3012245136937,7,7,-1.0997490882873535,3.7763218879699703,6.164751993191222,5.466328924246707,24.744600263748804,19.86140109931592,-0.0002266406954731,0.0986045151948928,0,0,0
1984,72551.76059046436,2010-12-21 08:19:00,630.3162903606282,7,7,-1.0997490882873535,3.7683894634246826,6.164751993191222,5.475496912689486,24.744600263748804,19.89598626091558,-0.0002266406954731,0.0986045151948928,0,0,0
1985,72581.77576666088,2010-12-21 08:19:30,660.331466542126,7,7,-1.0997490882873535,3.7607808113098153,6.164751993191222,5.48466499463462,24.744600263748804,19.93050041352017,-0.0001942634553415,0.0986045151948928,0,0,0
1986,72611.7907268549,2010-12-21 08:20:00,690.3464267361472,7,7,-1.0997490882873535,3.7531721591949454,6.164751993191222,5.493833049041021,24.744600263748804,19.964944411365547,-0.0001942634553415,0.0986045151948928,0,0,0
1987,72641.80578256161,2010-12-21 08:20:30,720.361482462898,7,7,-1.099568486213684,3.745887517929077,6.164751993191222,5.503001106665778,24.744600263748804,19.999319473193868,-0.0001618862152099,0.0986045151948928,0,0,0
1988,72671.82083631847,2010-12-21 08:21:00,750.3765362197468,7,7,-1.0997490882873535,3.738440752029419,6.164751993191222,5.512169138273984,24.744600263748804,20.03362694893971,-0.0001942634553415,0.0986045151948928,0,0,0
1989,72701.83591468654,2010-12-21 08:21:30,780.3916146379645,7,7,-1.0997490882873535,3.7311558723449703,6.164751993191222,5.521337241698552,24.744600263748804,20.067868792512385,-0.0002590179501567,0.0986045151948928,0,0,0
1990,72731.85150273799,2010-12-21 08:22:00,810.4072027094346,7,7,-1.0997490882873535,3.7245185375213614,6.164751993191222,5.530505379105724,24.744600263748804,20.10204669699288,-0.0001942634553415,0.0986045151948928,0,0,0
1991,72761.86614224898,2010-12-21 08:22:30,840.4218422154362,7,7,-1.099568486213684,3.717557430267334,6.164751993191222,5.539673293234382,24.744600263748804,20.13616077768259,-0.0001942634553415,0.0986045151948928,0,0,0
1992,72791.88107582678,2010-12-21 08:23:00,870.4367757230493,7,7,-1.0997490882873535,3.7109200954437256,6.164751993191222,5.548841376255528,24.744600263748804,20.170213535674343,-0.0002266406954731,0.0986045151948928,0,0,0
1993,72821.89613361866,2010-12-21 08:23:30,900.4518334999018,7,7,-1.0993878841400146,3.704444646835327,6.164751993191222,5.558009464241321,24.744600263748804,20.20420546005245,-0.0001618862152099,0.0986045151948928,0,0,0
1994,72851.91122006686,2010-12-21 08:24:00,930.466919963139,7,7,-1.0997490882873535,3.6979691982269287,6.164751993191222,5.567177611323099,24.744600263748804,20.23813805226851,-0.0002266406954731,0.0986045151948928,0,0,0
1995,72881.92646810718,2010-12-21 08:24:30,960.482168058592,7,7,-1.099568486213684,3.69181752204895,6.164751993191222,5.576345759756869,24.744600263748804,20.27201214570908,-0.0001295089750783,0.0986045151948928,0,0,0
1996,72911.94130871362,2010-12-21 08:25:00,990.4970085948496,7,7,-1.099568486213684,3.6855039596557617,6.164751993191222,5.585513742871707,24.744600263748804,20.305828343590058,-0.0001295089750783,0.0986045151948928,0,0,0
1997,72941.95636969343,2010-12-21 08:25:30,1020.5120695897098,7,7,-1.099568486213684,3.679352283477783,6.164751993191222,5.59468183529562,24.744600263748804,20.339588682704385,-0.0001618862152099,0.0986045151948928,0,0,0
1998,72971.97148877784,2010-12-21 08:26:00,1050.5271887643482,7,7,-1.099568486213684,3.673362493515015,6.164751993191222,5.603849959975235,24.744600263748804,20.3732935252232,-0.0001618862152099,0.0986045151948928,0,0,0
1999,73001.98652959248,2010-12-21 08:26:30,1080.5422294737289,7,7,-1.099568486213684,3.667372941970825,6.164751993191222,5.613018055251482,24.744600263748804,20.40694355765861,-0.0001618862152099,0.0986045151948928,0,0,0
2000,73032.00154560542,2010-12-21 08:27:00,1110.5572455016909,7,7,-1.099568486213684,3.6615450382232666,6.164751993191222,5.622186144326028,24.744600263748804,20.440539282426343,-0.0001618862152099,0.0986045151948928,0,0,0
2001,73062.0166679379,2010-12-21 08:27:30,1140.57236781915,7,7,-1.0997490882873535,3.655717134475708,6.164751993191222,5.631354253892114,24.744600263748804,20.47408164757521,-0.0001618862152099,0.0986045151948928,0,0,0
2002,73092.03181689164,2010-12-21 08:28:00,1170.587516777905,7,7,-1.099568486213684,3.649889230728149,6.164751993191222,5.640522361521567,24.744600263748804,20.50757051272354,-0.0001618862152099,0.0986045151948928,0,0,0
2003,73122.04673355736,2010-12-21 08:28:30,1200.6024334536328,7,7,-1.0997490882873535,3.644223213195801,6.164751993191222,5.649690294577682,24.744600263748804,20.54100620989917,-0.0001295089750783,0.0986045151948928,0,0,0
2004,73152.0619979233,2010-12-21 08:29:00,1230.6176978897488,7,7,-1.0997490882873535,3.638557195663452,6.164751993191222,5.658858299025786,24.744600263748804,20.574391364290687,-0.0002266406954731,0.0986045151948928,0,0,0
2005,73182.07685122131,2010-12-21 08:29:30,1260.6325511025514,7,7,-1.0997490882873535,3.633214950561523,6.164751993191222,5.668026173182537,24.744600263748804,20.6077262618214,-0.0001942634553415,0.0986045151948928,0,0,0
2006,73212.09193129365,2010-12-21 08:30:00,1290.6476311899223,7,7,-1.099568486213684,3.628196477890015,6.164751993191222,5.677194241336038,24.744600263748804,20.641013374661476,-0.0001295089750783,0.0986045151948928,0,0,0
2007,73242.106981236,2010-12-21 08:30:30,1320.6626811272668,7,7,-1.099568486213684,3.623016119003296,6.164751993191222,5.686362318371449,24.744600263748804,20.67425309395284,-0.0001295089750783,0.0986045151948928,0,0,0
2008,73272.1221124105,2010-12-21 08:31:00,1350.677812381966,7,7,-1.0993878841400146,3.617997646331787,6.164751993191222,5.695530421879674,24.744600263748804,20.707446168068053,-9.713172767078504e-05,0.0986045151948928,0,0,0
2009,73302.13730208058,2010-12-21 08:31:30,1380.693002047017,7,7,-1.099568486213684,3.6129791736602783,6.164751993191222,5.704698552149409,24.744600263748804,20.740593460076305,-0.0001618862152099,0.0986045151948928,0,0,0
2010,73332.15225283109,2010-12-21 08:32:00,1410.7079527123265,7,7,-1.099568486213684,3.60812258720398,6.164751993191222,5.713866580009468,24.744600263748804,20.77369568372753,-9.713172767078504e-05,0.0986045151948928,0,0,0
2011,73362.16721516543,2010-12-21 08:32:30,1440.7229150466735,7,7,-1.099568486213684,3.60342788696289,6.164751993191222,5.723034601824191,24.744600263748804,20.806754092347852,-0.0001618862152099,0.0986045151948928,0,0,0
2012,73392.18227200495,2010-12-21 08:33:00,1470.7379719062435,7,7,-1.099568486213684,3.598895072937012,6.164751993191222,5.732202666409643,24.744600263748804,20.83977011348158,-0.0001295089750783,0.0986045151948928,0,0,0
2013,73422.1973280926,2010-12-21 08:33:30,1500.75302798888,7,7,-1.099568486213684,3.594362258911133,6.164751993191222,5.741370727404967,24.744600263748804,20.872743784539303,-0.0001295089750783,0.0986045151948928,0,0,0
2014,73452.21239553852,2010-12-21 08:34:00,1530.768095419756,7,7,-1.0997490882873535,3.589991569519043,6.164751993191222,5.750538851907667,24.744600263748804,20.90567726091274,-9.713172767078504e-05,0.0986045151948928,0,0,0
2015,73482.2274828288,2010-12-21 08:34:30,1560.7831827100515,7,7,-1.0997490882873535,3.585782527923584,6.164751993191222,5.759706917488444,24.744600263748804,20.938571242543755,-0.0001295089750783,0.0986045151948928,0,0,0
2016,73512.24250503715,2010-12-21 08:35:00,1590.7982049334305,7,7,-1.099568486213684,3.581573486328125,6.164751993191222,5.768875011329291,24.744600263748804,20.971426748650916,-0.0001295089750783,0.0986045151948928,0,0,0
2017,73542.25758775607,2010-12-21 08:35:30,1620.8132876523505,7,7,-1.0997490882873535,3.577688217163086,6.164751993191222,5.778043159917542,24.744600263748804,21.00424505278947,-9.713172767078504e-05,0.0986045151948928,0,0,0
2018,73572.27264336754,2010-12-21 08:36:00,1650.8283432487767,7,7,-1.099568486213684,3.573641061782837,6.164751993191222,5.787211317965102,24.744600263748804,21.037026507256083,-9.713172767078504e-05,0.0986045151948928,0,0,0
2019,73602.28769321466,2010-12-21 08:36:30,1680.8433931109337,7,7,-1.099568486213684,3.569755792617798,6.164751993191222,5.796379334884658,24.744600263748804,21.069771425777088,-9.713172767078504e-05,0.0986045151948928,0,0,0
2020,73632.30274637,2010-12-21 08:37:00,1710.8584462662857,7,7,-1.099568486213684,3.5660324096679688,6.164751993191222,5.805547438460658,24.744600263748804,21.102480985052,-6.47544875391759e-05,0.0986045151948928,0,0,0
2021,73662.31779890883,2010-12-21 08:37:30,1740.8734988051033,7,7,-1.099568486213684,3.5621471405029297,6.164751993191222,5.814715489561098,24.744600263748804,21.135155807822738,-9.713172767078504e-05,0.0986045151948928,0,0,0
2022,73692.3329029508,2010-12-21 08:38:01,1770.8886028320476,7,7,-1.0993878841400146,3.5584237575531006,6.164751993191222,5.823883578369467,24.744600263748804,21.167796944014704,-6.47544875391759e-05,0.0986045151948928,0,0,0
2023,73722.34805339326,2010-12-21 08:38:31,1800.9037533597066,7,7,-1.0997490882873535,3.5547003746032715,6.164751993191222,5.8330517284177,24.744600263748804,21.20040364690309,-9.713172767078504e-05,0.0986045151948928,0,0,0
2024,73752.36297785837,2010-12-21 08:39:01,1830.9186777396053,7,7,-1.0997490882873535,3.5509769916534424,6.164751993191222,5.842219824506423,24.744600263748804,21.232976120168328,-6.47544875391759e-05,0.0986045151948928,0,0,0
2025,73782.37804065271,2010-12-21 08:39:31,1860.9337405489816,7,7,-1.0997490882873535,3.5474154949188232,6.164751993191222,5.851388402283269,24.744600263748804,21.265516354019585,-6.47544875391759e-05,0.0986045151948928,0,0,0
2026,73812.39312747183,2010-12-21 08:40:01,1890.9488273681045,7,7,-1.0997490882873535,3.543692111968994,6.164751993191222,5.860557319481505,24.744600263748804,21.29802393467593,-6.47544875391759e-05,0.0986045151948928,0,0,0
2027,73842.40815160997,2010-12-21 08:40:31,1920.9638515062484,7,7,-1.099568486213684,3.540130615234375,6.164751993191222,5.869726159810361,24.744600263748804,21.33049825981461,-9.713172767078504e-05,0.0986045151948928,0,0,0
2028,73872.42320797332,2010-12-21 08:41:01,1950.9789078695835,7,7,-1.0997490882873535,3.536569118499756,6.164751993191222,5.878895029722468,24.744600263748804,21.36294009295602,-6.47544875391759e-05,0.0986045151948928,0,0,0
2029,73902.43829208068,2010-12-21 08:41:31,1980.993991976958,7,7,-1.099568486213684,3.5330076217651367,6.164751993191222,5.888063468310251,24.744600263748804,21.39534751636928,-6.47544875391759e-05,0.0986045151948928,0,0,0
2030,73932.45346799653,2010-12-21 08:42:01,2011.0091678677325,7,7,-1.0997490882873535,3.5291223526000977,6.164751993191222,5.897231532158934,24.744600263748804,21.42772060363588,-0.0001295089750783,0.0986045151948928,0,0,0
2031,73962.4683915995,2010-12-21 08:42:31,2041.0240914957608,7,7,-1.099568486213684,3.5255608558654785,6.164751993191222,5.906399562698482,24.744600263748804,21.46005962665957,-6.47544875391759e-05,0.0986045151948928,0,0,0
2032,73992.48346511049,2010-12-21 08:43:01,2071.039165006767,7,7,-1.0997490882873535,3.5216755867004395,6.164751993191222,5.91556759423816,24.744600263748804,21.492363978046345,-9.713172767078504e-05,0.0986045151948928,0,0,0
2033,74022.49852378458,2010-12-21 08:43:31,2101.054223685864,7,7,-1.0993878841400146,3.5181140899658203,6.164751993191222,5.924735522103626,24.744600263748804,21.52463388206299,-9.713172767078504e-05,0.0986045151948928,0,0,0
2034,74052.513572549,2010-12-21 08:44:01,2131.069272420215,7,7,-1.099568486213684,3.5140669345855717,6.164751993191222,5.933903497146392,24.744600263748804,21.556868929985782,-9.713172767078504e-05,0.0986045151948928,0,0,0
2035,74082.52862115804,2010-12-21 08:44:31,2161.084321054316,7,7,-1.099568486213684,3.5101819038391118,6.164751993191222,5.943071468309651,24.744600263748804,21.58906762289624,-6.47544875391759e-05,0.0986045151948928,0,0,0
2036,74112.5437145786,2010-12-21 08:45:01,2191.0994144748665,7,7,-1.0997490882873535,3.5058109760284424,6.164751993191222,5.952239542443723,24.744600263748804,21.62122877310592,-0.0001295089750783,0.0986045151948928,0,0,0
2037,74142.55874379938,2010-12-21 08:45:31,2221.1144436756085,7,7,-1.099568486213684,3.5016019344329834,6.164751993191222,5.961407670148844,24.744600263748804,21.65335129036312,-0.0001295089750783,0.0986045151948928,0,0,0
2038,74172.57390370537,2010-12-21 08:46:01,2251.1296035866176,7,7,-1.0997490882873535,3.4970691204071045,6.164751993191222,5.97057579489213,24.744600263748804,21.685433450233635,-0.0001295089750783,0.0986045151948928,0,0,0
2039,74202.58894323683,2010-12-21 08:46:31,2281.144643203279,7,7,-1.099568486213684,3.4925363063812256,6.164751993191222,5.979743879070745,24.744600263748804,21.71747414772693,-0.0001295089750783,0.0986045151948928,0,0,0
2040,74232.60391941061,2010-12-21 08:47:01,2311.159619311903,7,7,-1.0997490882873535,3.4876797199249268,6.164751993191222,5.988912033958048,24.744600263748804,21.74947202420148,-0.0001618862152099,0.0986045151948928,0,0,0
2041,74262.62208903619,2010-12-21 08:47:31,2341.177789022683,7,7,-1.0997490882873535,3.482337474822998,6.164751993191222,5.998081136877613,24.744600263748804,21.781426836090876,-0.0001618862152099,0.0986045151948928,0,0,0
2042,74292.63410212145,2010-12-21 08:48:01,2371.1898020828758,7,7,-1.0997490882873535,3.4765095710754395,6.164751993191222,6.007248271437026,24.744600263748804,21.81332414891991,-0.0001942634553415,0.0986045151948928,0,0,0
2043,74322.64913206904,2010-12-21 08:48:31,2401.204831960302,7,7,-1.0997490882873535,3.470357894897461,6.164751993191222,6.016416340107774,24.744600263748804,21.845169881596338,-0.0001942634553415,0.0986045151948928,0,0,0
2044,74352.66415185634,2010-12-21 08:49:01,2431.219851737593,7,7,-1.0997490882873535,3.4632349014282227,6.164751993191222,6.025584474411867,24.744600263748804,21.87695480047187,-0.0002266406954731,0.0986045151948928,0,0,0
2045,74382.67944140497,2010-12-21 08:49:31,2461.2351413062506,7,7,-1.099568486213684,3.4554643630981445,6.164751993191222,6.03475264905912,24.744600263748804,21.908671770984544,-0.0001942634553415,0.0986045151948928,0,0,0
2046,74412.6944125011,2010-12-21 08:50:01,2491.2501123823517,7,7,-1.0997490882873535,3.4462368488311768,6.164751993191222,6.043920803124602,24.744600263748804,21.94031019391113,-0.0002590179501567,0.0986045151948928,0,0,0
2047,74442.70946376174,2010-12-21 08:50:31,2521.2651636429887,7,7,-1.0997490882873535,3.43555235862732,6.164751993191222,6.05308889985705,24.744600263748804,21.971857900923133,-0.0003237724304199,0.0986045151948928,0,0,0
2048,74472.72479774593,2010-12-21 08:51:01,2551.280497647222,7,7,-1.099568486213684,3.4226016998291016,6.164751993191222,6.062257140574391,24.744600263748804,22.00329839171261,-0.0003561496851034,0.0986045151948928,0,0,0
2049,74502.73946237445,2010-12-21 08:51:31,2581.295162250677,7,7,-1.0997490882873535,3.4067368507385254,6.164751993191222,6.071425156156197,24.744600263748804,22.03460722985496,-0.0004856586456298,0.0986045151948928,0,0,0
2050,74532.75462828038,2010-12-21 08:52:01,2611.3103282468296,7,7,-1.099568486213684,3.38763427734375,6.164751993191222,6.080593336027404,24.744600263748804,22.06575663919488,-0.0005827903514727,0.0986045151948928,0,0,0
2051,74562.76957540688,2010-12-21 08:52:31,2641.3252753031584,7,7,-1.099568486213684,3.363027572631836,6.164751993191222,6.089761469171976,24.744600263748804,22.096707566907995,-0.0007770538213662,0.0986045151948928,0,0,0
2052,74592.78463468247,2010-12-21 08:53:01,2671.34033457874,7,7,-1.0997490882873535,3.3311362266540527,6.164751993191222,6.098929567991626,24.744600263748804,22.12740166862805,-0.0009389400365762,0.0986045151948928,0,0,0
2053,74622.7996859381,2010-12-21 08:53:31,2701.355385834365,7,7,-1.099568486213684,3.289207696914673,6.164751993191222,6.108097656082579,24.744600263748804,22.157759505897744,-0.0012950897216796,0.0986045151948928,0,0,0
2054,74652.81475994534,2010-12-21 08:54:01,2731.3704598416057,7,7,-1.099568486213684,3.2330334186553955,6.164751993191222,6.117265731558236,24.744600263748804,22.187669680889886,-0.0016512393485754,0.0986045151948928,0,0,0
2055,74682.82992495903,2010-12-21 08:54:31,2761.385624840276,7,7,-1.099568486213684,3.156137704849243,6.164751993191222,6.126433950082443,24.744600263748804,22.21697523837157,-0.0023311614058911,0.0986045151948928,0,0,0
2056,74712.84485581506,2010-12-21 08:55:01,2791.4005558015524,7,7,-1.099568486213684,3.045407772064209,6.164751993191222,6.135602021001894,24.744600263748804,22.24543404863076,-0.0034967423416674,0.0986045151948928,0,0,0
2057,74742.85994389732,2010-12-21 08:55:31,2821.4156437885817,7,7,-1.099568486213684,2.86976170539856,6.164751993191222,6.144770117059046,24.744600263748804,22.272615937828345,-0.0056983949616551,0.0986045151948928,0,0,0
2058,74763.37518600826,2010-12-21 08:55:52,2841.930885974714,7,7,-1.099568486213684,2.699781894683838,6.164751993191222,6.151036547889973,24.744600263748804,22.290080597231636,-0.006961059756577,0.0986045151948928,0,0,0
2059,74823.38797932082,2010-12-21 08:56:52,60.01460549251407,8,7,0.0,3.449312686920166,6.164751993191222,6.151036547889973,24.744600263748804,22.290080597231636,0.0013922214275225,0.0986045151948928,0,0,0
2060,74823.57474381618,2010-12-21 08:56:52,0.187544923328437,9,7,-1.9243103452026844e-05,3.449474573135376,6.164751993191222,6.151036548892458,24.744600263748804,22.29008060068968,0.0,0.0977081730961799,0,0,0
2061,74828.40268531292,2010-12-21 08:56:57,5.015486515289972,9,7,0.0003419754502829,3.457730770111084,6.164753013390486,6.151036548975606,24.74460378777011,22.29008060097649,0.0011655807029455,0.0977081730961799,0,0,0
