Data_Point,Test_Time(s),Date_Time,Step_Time(s),Step_Index,Cycle_Index,Current(A),Voltage(V),Charge_Capacity(Ah),Discharge_Capacity(Ah),Charge_Energy(Wh),Discharge_Energy(Wh),dV/dt(V/s),Internal_Resistance(Ohm),Is_FC_Data,AC_Impedance(Ohm),ACI_Phase_Angle(Deg)
295,10822.377674088832,2010-12-20 15:10:03,30.015156963674997,1,2,0.0,3.4632349014282227,0.880125689705061,0.883817862583682,3.542432058895495,3.203886050567256,0.0008741855854168,0.0962666198611259,0,0,0
296,10852.392738727762,2010-12-20 15:10:33,60.0302216226533,1,2,0.0,3.490593671798706,0.880125689705061,0.883817862583682,3.542432058895495,3.203886050567256,0.0006151676061563,0.0962666198611259,0,0,0
297,10882.408252649711,2010-12-20 15:11:03,90.04573561477986,1,2,0.0,3.511153221130371,0.880125689705061,0.883817862583682,3.542432058895495,3.203886050567256,0.0004856586456298,0.0962666198611259,0,0,0
298,10912.375864439053,2010-12-20 15:11:33,120.013347338955,1,2,0.0,3.527179718017578,0.880125689705061,0.883817862583682,3.542432058895495,3.203886050567256,0.0003885269106831,0.0962666198611259,0,0,0
299,10942.390865955313,2010-12-20 15:12:03,30.015060363288644,2,2,0.550297200679779,3.672229528427124,0.884713000291815,0.883817862583682,3.559142314293102,3.203886050567256,0.0012627125252038,0.0962666198611259,0,0,0
300,10972.405940894872,2010-12-20 15:12:33,60.030135302849786,2,2,0.5501165986061096,3.709463119506836,0.889300266228302,0.883817862583682,3.576079550647482,3.203886050567256,0.0007770538213662,0.0962666198611259,0,0,0
301,11002.421001002524,2010-12-20 15:13:03,90.04519539045238,2,2,0.5501165986061096,3.73585057258606,0.893887536560587,0.883817862583682,3.593159901557555,3.203886050567256,0.0006151676061563,0.0962666198611259,0,0,0
302,11032.436180557415,2010-12-20 15:13:33,120.06037495536972,2,2,0.550297200679779,3.755600452423096,0.898474797011051,0.883817862583682,3.610344608040139,3.203886050567256,0.0004532813909463,0.0962666198611259,0,0,0
303,11062.45113383924,2010-12-20 15:14:03,150.07532823217775,2,2,0.550297200679779,3.7700083255767822,0.903062026053866,0.883817862583682,3.627607522963912,3.203886050567256,0.0003885269106831,0.0962666198611259,0,0,0
304,11092.466272758007,2010-12-20 15:14:33,180.09046722112333,2,2,0.5501165986061096,3.77955961227417,0.907649240422436,0.883817862583682,3.644924863310555,3.203886050567256,0.0002266406954731,0.0962666198611259,0,0,0
305,11122.48125506706,2010-12-20 15:15:04,210.10544947503985,2,2,0.5504778623580933,3.7861969470977774,0.91223647747704,0.883817862583682,3.662278473620157,3.203886050567256,0.0001618862152099,0.0962666198611259,0,0,0
306,11152.496429830027,2010-12-20 15:15:34,240.12062429815737,2,2,0.5501165986061096,3.791377305984497,0.916823769267201,0.883817862583682,3.679659222807936,3.203886050567256,9.713172767078504e-05,0.0962666198611259,0,0,0
307,11182.511363929116,2010-12-20 15:16:04,270.1355583370927,2,2,0.5501165986061096,3.796395778656006,0.92141099220183,0.883817862583682,3.69706285027032,3.203886050567256,0.0001295089750783,0.0962666198611259,0,0,0
308,11212.52642266836,2010-12-20 15:16:34,300.15061708135244,2,2,0.5501165986061096,3.8009285926818848,0.925998300675961,0.883817862583682,3.71448834142636,3.203886050567256,0.0001295089750783,0.0962666198611259,0,0,0
309,11242.541492159366,2010-12-20 15:17:04,330.1656865573176,2,2,0.5501165986061096,3.805137634277344,0.930585589666113,0.883817862583682,3.731934153660789,3.203886050567256,6.47544875391759e-05,0.0962666198611259,0,0,0
310,11272.55672345802,2010-12-20 15:17:34,360.1809179211345,2,2,0.5501165986061096,3.8095085620880127,0.935172892419425,0.883817862583682,3.749399581930119,3.203886050567256,0.0001295089750783,0.0962666198611259,0,0,0
311,11302.571149994052,2010-12-20 15:18:04,390.1953443869938,2,2,0.550297200679779,3.8135557174682617,0.939757766500185,0.883817862583682,3.76687475642335,3.203886050567256,9.713172767078504e-05,0.0962666198611259,0,0,0
312,11332.571170140342,2010-12-20 15:18:34,420.195364618493,2,2,0.550297200679779,3.817602872848511,0.944345003739037,0.883817862583682,3.784377720835635,3.203886050567256,9.713172767078504e-05,0.0962666198611259,0,0,0
313,11362.586106655435,2010-12-20 15:19:04,450.2103010383531,2,2,0.5504778623580933,3.82165002822876,0.94893215897372,0.883817862583682,3.801898287898582,3.203886050567256,0.0001618862152099,0.0962666198611259,0,0,0
314,11392.601329568224,2010-12-20 15:19:34,480.2255240313396,2,2,0.550297200679779,3.825211524963379,0.953519412140223,0.883817862583682,3.819436672844028,3.203886050567256,9.713172767078504e-05,0.0962666198611259,0,0,0
315,11422.616393846254,2010-12-20 15:20:04,510.24058832440727,2,2,0.550297200679779,3.828934907913208,0.958106566876728,0.883817862583682,3.836991827408481,3.203886050567256,0.0001295089750783,0.0962666198611259,0,0,0
316,11452.63131309338,2010-12-20 15:20:34,540.2555075063716,2,2,0.5499359965324402,3.832496404647827,0.962693804431801,0.883817862583682,3.854564363905434,3.203886050567256,6.47544875391759e-05,0.0962666198611259,0,0,0
317,11482.64650301407,2010-12-20 15:21:04,570.2706974220464,2,2,0.5501165986061096,3.836219549179077,0.967281065398427,0.883817862583682,3.872153775914345,3.203886050567256,9.713172767078504e-05,0.0962666198611259,0,0,0
318,11512.66184226636,2010-12-20 15:21:34,600.2860367645641,2,2,0.550297200679779,3.839942932128906,0.971868361538543,0.883817862583682,3.889760275095579,3.203886050567256,0.0001295089750783,0.0962666198611259,0,0,0
319,11542.676617149244,2010-12-20 15:22:04,630.3008115421839,2,2,0.5501165986061096,3.843666315078736,0.976455578802173,0.883817862583682,3.907383442132098,3.203886050567256,9.713172767078504e-05,0.0962666198611259,0,0,0
320,11572.691665718185,2010-12-20 15:22:34,660.3158601311726,2,2,0.5501165986061096,3.847389698028565,0.981042770298709,0.883817862583682,3.925023450244577,3.203886050567256,9.713172767078504e-05,0.0962666198611259,0,0,0
321,11602.706601957592,2010-12-20 15:23:04,690.3307963505339,2,2,0.550297200679779,3.8511130809783936,0.985630006451308,0.883817862583682,3.94268059739152,3.203886050567256,0.0001295089750783,0.0962666198611259,0,0,0
322,11632.7217033179,2010-12-20 15:23:34,720.345897796054,2,2,0.550297200679779,3.854836463928223,0.990217302499639,0.883817862583682,3.960354831103059,3.203886050567256,0.0001295089750783,0.0962666198611259,0,0,0
323,11662.73674762624,2010-12-20 15:24:04,750.3609420392283,2,2,0.550297200679779,3.858397960662842,0.994804535633114,0.883817862583682,3.978045650779531,3.203886050567256,9.713172767078504e-05,0.0962666198611259,0,0,0
324,11692.751968940043,2010-12-20 15:24:34,780.3761633329863,2,2,0.550297200679779,3.861959457397461,0.999391810410786,0.883817862583682,3.995753118679354,3.203886050567256,9.713172767078504e-05,0.0962666198611259,0,0,0
325,11722.769858333268,2010-12-20 15:25:04,810.3940528164317,2,2,0.550297200679779,3.86535906791687,1.003979532096356,0.883817862583682,4.013478534285957,3.203886050567256,9.713172767078504e-05,0.0962666198611259,0,0,0
326,11752.781909533369,2010-12-20 15:25:34,840.4061039363339,2,2,0.5501165986061096,3.8687586784362793,1.008566294365297,0.883817862583682,4.031216093060246,3.203886050567256,9.713172767078504e-05,0.0962666198611259,0,0,0
327,11782.797076697429,2010-12-20 15:26:04,870.4212711104171,2,2,0.5501165986061096,3.8719964027404794,1.013153540608022,0.883817862583682,4.048970904476125,3.203886050567256,6.47544875391759e-05,0.0962666198611259,0,0,0
328,11812.812114248953,2010-12-20 15:26:34,900.436308656927,2,2,0.5501165986061096,3.8752341270446777,1.017740830717285,0.883817862583682,4.066740804787558,3.203886050567256,9.713172767078504e-05,0.0962666198611259,0,0,0
329,11842.827049931975,2010-12-20 15:27:04,930.4512443399536,2,2,0.5501165986061096,3.878471851348877,1.022328033321539,0.883817862583682,4.084524702311954,3.203886050567256,9.713172767078504e-05,0.0962666198611259,0,0,0
330,11872.842268925007,2010-12-20 15:27:34,960.4664633179488,2,2,0.550297200679779,3.881385803222656,1.026915354453362,0.883817862583682,4.102322884694668,3.203886050567256,9.713172767078504e-05,0.0962666198611259,0,0,0
331,11902.857171565813,2010-12-20 15:28:04,990.4813659737888,2,2,0.5501165986061096,3.8841378688812256,1.031502640998328,0.883817862583682,4.120134167886151,3.203886050567256,0.0001295089750783,0.0962666198611259,0,0,0
332,11932.87226409414,2010-12-20 15:28:34,1020.4964585021188,2,2,0.5501165986061096,3.886566162109375,1.036089898425036,0.883817862583682,4.137957891420818,3.203886050567256,3.237724376958795e-05,0.0962666198611259,0,0,0
333,11962.887324713069,2010-12-20 15:29:04,1050.511519106006,2,2,0.550297200679779,3.889318227767944,1.040677203964429,0.883817862583682,4.155793757714901,3.203886050567256,3.237724376958795e-05,0.0962666198611259,0,0,0
334,11992.902353973956,2010-12-20 15:29:34,1080.526548457122,2,2,0.5501165986061096,3.8917465209960938,1.045264531801341,0.883817862583682,4.173641053257263,3.203886050567256,3.237724376958795e-05,0.0962666198611259,0,0,0
335,12022.917386628294,2010-12-20 15:30:04,1110.5415810412835,2,2,0.550297200679779,3.894012928009033,1.04985177954873,0.883817862583682,4.191498751734592,3.203886050567256,6.47544875391759e-05,0.0962666198611259,0,0,0
336,12052.93236308779,2010-12-20 15:30:34,1140.5565574957684,2,2,0.5501165986061096,3.8961174488067623,1.054439036777991,0.883817862583682,4.20936638812712,3.203886050567256,6.47544875391759e-05,0.0962666198611259,0,0,0
337,12082.947522467475,2010-12-20 15:31:04,1170.571716880468,2,2,0.550297200679779,3.898221969604492,1.059026374866534,0.883817862583682,4.227244045527601,3.203886050567256,3.237724376958795e-05,0.0962666198611259,0,0,0
338,12112.962576825825,2010-12-20 15:31:34,1200.5867712338013,2,2,0.5501165986061096,3.900164604187012,1.063613720544932,0.883817862583682,4.245131083451184,3.203886050567256,3.237724376958795e-05,0.0962666198611259,0,0,0
339,12142.977764320474,2010-12-20 15:32:04,1230.6019587986257,2,2,0.5501165986061096,3.902269124984741,1.068201062174722,0.883817862583682,4.263027044698119,3.203886050567256,9.713172767078504e-05,0.0962666198611259,0,0,0
340,12172.992702173902,2010-12-20 15:32:34,1260.6168965668412,2,2,0.550297200679779,3.903887987136841,1.072788371681868,0.883817862583682,4.280931564905306,3.203886050567256,3.237724376958795e-05,0.0962666198611259,0,0,0
341,12203.007759910652,2010-12-20 15:33:04,1290.6319543086065,2,2,0.550297200679779,3.90583062171936,1.077375719846674,0.883817862583682,4.298844588065268,3.203886050567256,9.713172767078504e-05,0.0962666198611259,0,0,0
342,12233.022832940464,2010-12-20 15:33:34,1320.6470273334028,2,2,0.550297200679779,3.90761137008667,1.08196304155743,0.883817862583682,4.316765729768663,3.203886050567256,6.47544875391759e-05,0.0962666198611259,0,0,0
343,12263.038106509306,2010-12-20 15:34:04,1350.6623009924697,2,2,0.550297200679779,3.9092302322387695,1.086550389593941,0.883817862583682,4.334694941767975,3.203886050567256,0.0,0.0962666198611259,0,0,0
344,12293.053027014565,2010-12-20 15:34:34,1380.67722142254,2,2,0.550297200679779,3.911172866821289,1.091137745382714,0.883817862583682,4.352632121284807,3.203886050567256,6.47544875391759e-05,0.0962666198611259,0,0,0
345,12323.067997083155,2010-12-20 15:35:04,1410.6921914760965,2,2,0.5501165986061096,3.9126298427581783,1.095725056824185,0.883817862583682,4.370576955900275,3.203886050567256,3.237724376958795e-05,0.0962666198611259,0,0,0
346,12353.083202352038,2010-12-20 15:35:34,1440.7073967600145,2,2,0.550297200679779,3.914410352706909,1.100312490087277,0.883817862583682,4.388530059615285,3.203886050567256,6.47544875391759e-05,0.0962666198611259,0,0,0
347,12383.098381551044,2010-12-20 15:36:04,1470.7225760342085,2,2,0.5501165986061096,3.916029214859009,1.104899896374774,0.883817862583682,4.406490713620197,3.203886050567256,3.237724376958795e-05,0.0962666198611259,0,0,0
348,12413.113191260589,2010-12-20 15:36:34,1500.7373856685676,2,2,0.5501165986061096,3.917648077011109,1.109487210414657,0.883817862583682,4.424458636524495,3.203886050567256,3.237724376958795e-05,0.0962666198611259,0,0,0
349,12443.12824814021,2010-12-20 15:37:04,1530.7524425531997,2,2,0.550297200679779,3.919428825378418,1.114074595152984,0.883817862583682,4.442434533355886,3.203886050567256,6.47544875391759e-05,0.0962666198611259,0,0,0
350,12473.143323626133,2010-12-20 15:37:34,1560.767518034108,2,2,0.5501165986061096,3.9210476875305176,1.118661958551022,0.883817862583682,4.460417969149799,3.203886050567256,6.47544875391759e-05,0.0962666198611259,0,0,0
351,12503.158392144713,2010-12-20 15:38:04,1590.7825865526906,2,2,0.550297200679779,3.922666549682617,1.123249295686339,0.883817862583682,4.478408890535174,3.203886050567256,3.237724376958795e-05,0.0962666198611259,0,0,0
352,12533.173438011929,2010-12-20 15:38:34,1620.7976324199064,2,2,0.550297200679779,3.924447298049927,1.127836657145309,0.883817862583682,4.496407530143856,3.203886050567256,6.47544875391759e-05,0.0962666198611259,0,0,0
353,12563.188568504733,2010-12-20 15:39:04,1650.8127629678468,2,2,0.5501165986061096,3.925904273986816,1.132424028425686,0.883817862583682,4.514413801444095,3.203886050567256,3.237724376958795e-05,0.0962666198611259,0,0,0
354,12593.203699468708,2010-12-20 15:39:34,1680.8278938766855,2,2,0.5501165986061096,3.927685022354126,1.137011391326352,0.883817862583682,4.532427570691628,3.203886050567256,6.47544875391759e-05,0.0962666198611259,0,0,0
355,12623.218692143557,2010-12-20 15:40:04,1710.842886551534,2,2,0.5501165986061096,3.929465770721436,1.141598759445279,0.883817862583682,4.550449032928776,3.203886050567256,6.47544875391759e-05,0.0962666198611259,0,0,0
356,12653.233691033873,2010-12-20 15:40:34,1740.8578854418497,2,2,0.550297200679779,3.931084632873535,1.146186056817001,0.883817862583682,4.568477890528299,3.203886050567256,9.713172767078504e-05,0.0962666198611259,0,0,0
357,12683.248783261452,2010-12-20 15:41:04,1770.8729776744435,2,2,0.550297200679779,3.9327034950256343,1.150773430080335,0.883817862583682,4.586514643456177,3.203886050567256,6.47544875391759e-05,0.0962666198611259,0,0,0
358,12713.263844336514,2010-12-20 15:41:34,1800.8880387294537,2,2,0.550297200679779,3.934160470962525,1.155360853291783,0.883817862583682,4.604559309838905,3.203886050567256,0.0,0.0962666198611259,0,0,0
359,12743.279005310167,2010-12-20 15:42:04,1830.9031997181448,2,2,0.5501165986061096,3.935779333114624,1.159948286153916,0.883817862583682,4.622611693207597,3.203886050567256,0.0,0.0962666198611259,0,0,0
360,12773.29408846016,2010-12-20 15:42:34,1860.9182828430755,2,2,0.5504778623580933,3.9378838539123535,1.164535720116728,0.883817862583682,4.640671665132625,3.203886050567256,9.713172767078504e-05,0.0962666198611259,0,0,0
361,12803.309020589342,2010-12-20 15:43:04,1890.9332150273951,2,2,0.550297200679779,3.939340829849243,1.169123060565259,0.883817862583682,4.658739134026098,3.203886050567256,6.47544875391759e-05,0.0962666198611259,0,0,0
362,12833.32416357824,2010-12-20 15:43:34,1920.9483579862192,2,2,0.550297200679779,3.9412834644317623,1.173710497905569,0.883817862583682,4.676814731454921,3.203886050567256,6.47544875391759e-05,0.0962666198611259,0,0,0
363,12863.33913416312,2010-12-20 15:44:04,1950.9633285610728,2,2,0.550297200679779,3.9425785541534415,1.178297912811997,0.883817862583682,4.694897968571135,3.203886050567256,-3.237724376958795e-05,0.0962666198611259,0,0,0
364,12893.354187278374,2010-12-20 15:44:34,1980.9783816913628,2,2,0.550297200679779,3.944359302520752,1.182885337095415,0.883817862583682,4.712989057105073,3.203886050567256,3.237724376958795e-05,0.0962666198611259,0,0,0
365,12923.369271661437,2010-12-20 15:45:04,2010.993466074424,2,2,0.5501165986061096,3.9461400508880615,1.187472789640612,0.883817862583682,4.731088111716693,3.203886050567256,3.237724376958795e-05,0.0962666198611259,0,0,0
366,12953.384329939534,2010-12-20 15:45:34,2041.0085243525232,2,2,0.5501165986061096,3.947758913040161,1.192060223020883,0.883817862583682,4.749194843403015,3.203886050567256,0.0,0.0962666198611259,0,0,0
367,12983.399504792726,2010-12-20 15:46:04,2071.023699185666,2,2,0.550297200679779,3.9497015476226807,1.196647573633439,0.883817862583682,4.767309106260375,3.203886050567256,9.713172767078504e-05,0.0962666198611259,0,0,0
368,13013.414568178536,2010-12-20 15:46:34,2101.038762571476,2,2,0.5501165986061096,3.95132040977478,1.201234931070154,0.883817862583682,4.785431338761696,3.203886050567256,3.237724376958795e-05,0.0962666198611259,0,0,0
369,13043.42950046812,2010-12-20 15:47:04,2131.053694881108,2,2,0.550297200679779,3.95310115814209,1.205822315241745,0.883817862583682,4.803561545062609,3.203886050567256,6.47544875391759e-05,0.0962666198611259,0,0,0
370,13073.44457889636,2010-12-20 15:47:35,2161.0687732893007,2,2,0.550297200679779,3.9548819065094,1.210409687791821,0.883817862583682,4.821699691410436,3.203886050567256,9.713172767078504e-05,0.0962666198611259,0,0,0
371,13103.45975629589,2010-12-20 15:48:05,2191.0839506888296,2,2,0.550297200679779,3.956662654876709,1.214997110412466,0.883817862583682,4.839846115281487,3.203886050567256,6.47544875391759e-05,0.0962666198611259,0,0,0
372,13133.47470779327,2010-12-20 15:48:35,2221.098902186209,2,2,0.5501165986061096,3.9582815170288086,1.219584470168982,0.883817862583682,4.858000194104455,3.203886050567256,3.237724376958795e-05,0.0962666198611259,0,0,0
373,13163.489973853426,2010-12-20 15:49:05,2251.114168341604,2,2,0.5504778623580933,3.960224151611328,1.224171855579019,0.883817862583682,4.876162555890716,3.203886050567256,9.713172767078504e-05,0.0962666198611259,0,0,0
374,13193.504841091128,2010-12-20 15:49:35,2281.1290354840694,2,2,0.5506584644317627,3.9620048999786377,1.22875915389404,0.883817862583682,4.894332694197288,3.203886050567256,9.713172767078504e-05,0.0962666198611259,0,0,0
375,13223.519881655147,2010-12-20 15:50:05,2311.1440760631262,2,2,0.550297200679779,3.963623762130737,1.233346573536769,0.883817862583682,4.912511414596711,3.203886050567256,6.47544875391759e-05,0.0962666198611259,0,0,0
376,13253.534942264048,2010-12-20 15:50:35,2341.159136672026,2,2,0.550297200679779,3.965404510498047,1.237933938369437,0.883817862583682,4.930698194395006,3.203886050567256,6.47544875391759e-05,0.0962666198611259,0,0,0
377,13283.550000837884,2010-12-20 15:51:05,2371.174195245862,2,2,0.5501165986061096,3.967185258865357,1.242521291165527,0.883817862583682,4.94889331840664,3.203886050567256,3.237724376958795e-05,0.0962666198611259,0,0,0
378,13313.565069657216,2010-12-20 15:51:35,2401.189264070206,2,2,0.550297200679779,3.969289779663086,1.247108687645038,0.883817862583682,4.967096942191908,3.203886050567256,6.47544875391759e-05,0.0962666198611259,0,0,0
379,13343.580173774384,2010-12-20 15:52:05,2431.2043682525364,2,2,0.5501165986061096,3.9709086418151855,1.251696097387019,0.883817862583682,4.9853091305563,3.203886050567256,3.237724376958795e-05,0.0962666198611259,0,0,0
380,13373.595185732218,2010-12-20 15:52:35,2461.219380140195,2,2,0.550297200679779,3.972689390182495,1.256283482041461,0.883817862583682,5.003529731568367,3.203886050567256,3.237724376958795e-05,0.0962666198611259,0,0,0
381,13403.610267298269,2010-12-20 15:53:05,2491.2344617764206,2,2,0.5501165986061096,3.974632024765015,1.260870882554089,0.883817862583682,5.021758940425307,3.203886050567256,3.237724376958795e-05,0.0962666198611259,0,0,0
382,13433.62533479932,2010-12-20 15:53:35,2521.249529192259,2,2,0.550297200679779,3.976574659347534,1.265458240645804,0.883817862583682,5.039996651197607,3.203886050567256,6.47544875391759e-05,0.0962666198611259,0,0,0
383,13463.640509512164,2010-12-20 15:54:05,2551.264703905102,2,2,0.5499359965324402,3.978193521499634,1.270045716144064,0.883817862583682,5.058243210183282,3.203886050567256,6.47544875391759e-05,0.0962666198611259,0,0,0
384,13493.655702259884,2010-12-20 15:54:35,2581.2798967580866,2,2,0.550297200679779,3.980459928512573,1.274633004522112,0.883817862583682,5.076498294901835,3.203886050567256,6.47544875391759e-05,0.0962666198611259,0,0,0
385,13523.6704987365,2010-12-20 15:55:05,2611.294693144479,2,2,0.5501165986061096,3.9824025630950928,1.279220308323677,0.883817862583682,5.09476246160045,3.203886050567256,6.47544875391759e-05,0.0962666198611259,0,0,0
386,13553.685585420288,2010-12-20 15:55:35,2641.3097798282647,2,2,0.5499359965324402,3.984345197677612,1.283807617929128,0.883817862583682,5.113035658247497,3.203886050567256,6.47544875391759e-05,0.0962666198611259,0,0,0
387,13583.700622891613,2010-12-20 15:56:05,2671.3248172795384,2,2,0.550297200679779,3.986287832260132,1.288394966767299,0.883817862583682,5.131318175251018,3.203886050567256,0.0,0.0962666198611259,0,0,0
388,13613.715707254622,2010-12-20 15:56:35,2701.3399016676112,2,2,0.5501165986061096,3.988392353057861,1.292982326898716,0.883817862583682,5.149609953913092,3.203886050567256,6.47544875391759e-05,0.0962666198611259,0,0,0
389,13643.733842730207,2010-12-20 15:57:05,2731.3580372284105,2,2,0.5501165986061096,3.990496873855591,1.297570076883854,0.883817862583682,5.167912526341221,3.203886050567256,6.47544875391759e-05,0.0962666198611259,0,0,0
390,13673.745848301767,2010-12-20 15:57:35,2761.3700426947057,2,2,0.550297200679779,3.9927632808685294,1.302156868990408,0.883817862583682,5.186220725173777,3.203886050567256,6.47544875391759e-05,0.0962666198611259,0,0,0
391,13703.760886389622,2010-12-20 15:58:05,2791.385080782563,2,2,0.550297200679779,3.9945437908172607,1.306744147926388,0.883817862583682,5.204540385893515,3.203886050567256,0.0,0.0962666198611259,0,0,0
392,13733.776059318025,2010-12-20 15:58:35,2821.400253715978,2,2,0.5501165986061096,3.9966483116149902,1.311331498777692,0.883817862583682,5.222870009768609,3.203886050567256,3.237724376958795e-05,0.0962666198611259,0,0,0
393,13763.791097029947,2010-12-20 15:59:05,2851.415291437924,2,2,0.550297200679779,3.99875283241272,1.315918771181638,0.883817862583682,5.241209026585898,3.203886050567256,3.237724376958795e-05,0.0962666198611259,0,0,0
394,13793.806195392795,2010-12-20 15:59:35,2881.430389805786,2,2,0.5501165986061096,4.001019477844238,1.320506105511015,0.883817862583682,5.259558117640396,3.203886050567256,6.47544875391759e-05,0.0962666198611259,0,0,0
395,13823.821125005716,2010-12-20 16:00:05,2911.445319413695,2,2,0.550297200679779,4.003285884857178,1.325093376856013,0.883817862583682,5.277916913602528,3.203886050567256,6.47544875391759e-05,0.0962666198611259,0,0,0
396,13853.83617899314,2010-12-20 16:00:35,2941.4603734061297,2,2,0.550297200679779,4.005390167236328,1.329680686614966,0.883817862583682,5.296285864947298,3.203886050567256,6.47544875391759e-05,0.0962666198611259,0,0,0
397,13883.851246840051,2010-12-20 16:01:05,2971.475441232991,2,2,0.5501165986061096,4.007656574249268,1.33426797000293,0.883817862583682,5.314664879102026,3.203886050567256,3.23295607813634e-05,0.0962666198611259,0,0,0
398,13913.866326446228,2010-12-20 16:01:35,3001.490520844178,2,2,0.550297200679779,4.009922981262207,1.33885535568298,0.883817862583682,5.333054562667252,3.203886050567256,6.47544875391759e-05,0.0962666198611259,0,0,0
399,13943.881368759598,2010-12-20 16:02:05,3031.505563167575,2,2,0.5501165986061096,4.012027740478516,1.343442657898798,0.883817862583682,5.351454339824376,3.203886050567256,3.24249267578125e-05,0.0962666198611259,0,0,0
400,13973.896452992283,2010-12-20 16:02:35,3061.520647400261,2,2,0.550297200679779,4.014617919921875,1.34803005210855,0.883817862583682,5.369865099795425,3.203886050567256,9.71794142969884e-05,0.0962666198611259,0,0,0
401,14003.911495686603,2010-12-20 16:03:05,3091.535690094581,2,2,0.550297200679779,4.016884326934815,1.35261740532416,0.883817862583682,5.38828637856057,3.203886050567256,6.47544875391759e-05,0.0962666198611259,0,0,0
402,14033.926568280329,2010-12-20 16:03:35,3121.5507626933177,2,2,0.550297200679779,4.019150733947754,1.357204782376102,0.883817862583682,5.406718632378849,3.203886050567256,6.47544875391759e-05,0.0962666198611259,0,0,0
403,14063.941867076948,2010-12-20 16:04:05,3151.566061540063,2,2,0.550297200679779,4.021578788757324,1.361792165278565,0.883817862583682,5.425161714256904,3.203886050567256,6.47544875391759e-05,0.0962666198611259,0,0,0
404,14093.956700114546,2010-12-20 16:04:35,3181.5808946027228,2,2,0.550297200679779,4.024168968200684,1.366379538557644,0.883817862583682,5.443615905622719,3.203886050567256,6.47544875391759e-05,0.0962666198611259,0,0,0
405,14123.971739560782,2010-12-20 16:05:05,3211.5959339537235,2,2,0.550297200679779,4.026597499847412,1.370966876067529,0.883817862583682,5.462081077622708,3.203886050567256,0.0001295089750783,0.0962666198611259,0,0,0
406,14153.986838515104,2010-12-20 16:05:35,3241.611033013306,2,2,0.5501165986061096,4.028863906860352,1.375554224831271,0.883817862583682,5.480557552311741,3.203886050567256,3.24249267578125e-05,0.0962666198611259,0,0,0
407,14184.002105061472,2010-12-20 16:06:05,3271.6262995496486,2,2,0.550297200679779,4.031454086303711,1.380141577252851,0.883817862583682,5.499045355717845,3.203886050567256,6.47544875391759e-05,0.0962666198611259,0,0,0
408,14214.016985010809,2010-12-20 16:06:35,3301.641179509009,2,2,0.550297200679779,4.03404426574707,1.384728857890995,0.883817862583682,5.517544317976403,3.203886050567256,9.71794142969884e-05,0.0962666198611259,0,0,0
409,14244.031983585335,2010-12-20 16:07:05,3331.656177978277,2,2,0.550297200679779,4.036472320556641,1.38931615618744,0.883817862583682,5.536054894184744,3.203886050567256,9.71794142969884e-05,0.0962666198611259,0,0,0
410,14274.04714350637,2010-12-20 16:07:35,3361.671337899311,2,2,0.550297200679779,4.0390625,1.393903476311429,0.883817862583682,5.554577161479848,3.203886050567256,0.0001295089750783,0.0962666198611259,0,0,0
411,14304.06210845723,2010-12-20 16:08:05,3391.68630287022,2,2,0.5499359965324402,4.04149055480957,1.398490751192212,0.883817862583682,5.573110940202315,3.203886050567256,6.47544875391759e-05,0.0962666198611259,0,0,0
412,14334.07716636942,2010-12-20 16:08:35,3421.7013607723834,2,2,0.550297200679779,4.044242858886719,1.403078014366108,0.883817862583682,5.591656625148974,3.203886050567256,9.71794142969884e-05,0.0962666198611259,0,0,0
413,14364.092437156338,2010-12-20 16:09:05,3451.716631619453,2,2,0.550297200679779,4.046833038330078,1.407665345478457,0.883817862583682,5.610214602425623,3.203886050567256,9.71794142969884e-05,0.0962666198611259,0,0,0
414,14394.107318143257,2010-12-20 16:09:35,3481.731512556245,2,2,0.5501165986061096,4.0494232177734375,1.412252578401368,0.883817862583682,5.628784342004592,3.203886050567256,6.47544875391759e-05,0.0962666198611259,0,0,0
415,14424.12247703172,2010-12-20 16:10:05,3511.7466714447105,2,2,0.5501165986061096,4.052013397216797,1.416839916487359,0.883817862583682,5.647366683902433,3.203886050567256,3.24249267578125e-05,0.0962666198611259,0,0,0
416,14454.137537259672,2010-12-20 16:10:35,3541.7617316526125,2,2,0.550297200679779,4.054927349090576,1.42142726198439,0.883817862583682,5.665961392305038,3.203886050567256,9.71794142969884e-05,0.0962666198611259,0,0,0
417,14484.1524727021,2010-12-20 16:11:05,3571.7766671100776,2,2,0.550297200679779,4.057517528533936,1.42601457447905,0.883817862583682,5.684568420950572,3.203886050567256,3.24249267578125e-05,0.0962666198611259,0,0,0
418,14514.167551050145,2010-12-20 16:11:35,3601.791745458121,2,2,0.550297200679779,4.060269355773926,1.430601926276338,0.883817862583682,5.703188138000917,3.203886050567256,9.70840483205393e-05,0.0962666198611259,0,0,0
419,14544.182613207897,2010-12-20 16:12:05,3631.806807615874,2,2,0.550297200679779,4.063183307647705,1.435189269418493,0.883817862583682,5.721819973917763,3.203886050567256,0.0001295089750783,0.0962666198611259,0,0,0
420,14574.197757971211,2010-12-20 16:12:35,3661.8219524994897,2,2,0.5501165986061096,4.0657734870910645,1.439776594991758,0.883817862583682,5.740464623783572,3.203886050567256,6.47544875391759e-05,0.0962666198611259,0,0,0
421,14604.214456270442,2010-12-20 16:13:05,3691.8386507586174,2,2,0.5501165986061096,4.068525791168213,1.444364138803685,0.883817862583682,5.759123043828931,3.203886050567256,6.47544875391759e-05,0.0962666198611259,0,0,0
422,14634.227872492347,2010-12-20 16:13:35,3721.8520669554623,2,2,0.5504778623580933,4.071601390838623,1.448951271632899,0.883817862583682,5.777792792898215,3.203886050567256,0.0001295089750783,0.0962666198611259,0,0,0
423,14664.242850405462,2010-12-20 16:14:05,3751.867044798402,2,2,0.5501165986061096,4.074353694915772,1.453538639083295,0.883817862583682,5.796476553239604,3.203886050567256,9.71794142969884e-05,0.0962666198611259,0,0,0
424,14694.257913921596,2010-12-20 16:14:35,3781.8821083295743,2,2,0.550297200679779,4.077105522155762,1.458125973286131,0.883817862583682,5.815173371017672,3.203886050567256,6.47544875391759e-05,0.0962666198611259,0,0,0
425,14724.27297032503,2010-12-20 16:15:05,3811.897164717971,2,2,0.5501165986061096,4.080019474029541,1.462713329238851,0.883817862583682,5.833883555492656,3.203886050567256,3.23295607813634e-05,0.0962666198611259,0,0,0
426,14754.288049219433,2010-12-20 16:15:35,3841.9122436173866,2,2,0.5501165986061096,4.083095550537109,1.467300722432743,0.883817862583682,5.852607341066195,3.203886050567256,6.47544875391759e-05,0.0962666198611259,0,0,0
427,14784.303094099192,2010-12-20 16:16:05,3871.9272885071696,2,2,0.5501165986061096,4.08617115020752,1.471888058796577,0.883817862583682,5.871344629117597,3.203886050567256,9.70840483205393e-05,0.0962666198611259,0,0,0
428,14814.318176788038,2010-12-20 16:16:35,3901.9423711809777,2,2,0.550297200679779,4.089085102081299,1.476475380154477,0.883817862583682,5.890095728292782,3.203886050567256,9.70840483205393e-05,0.0962666198611259,0,0,0
429,14844.333213687938,2010-12-20 16:17:05,3931.957408095916,2,2,0.550297200679779,4.092161178588867,1.481062733888201,0.883817862583682,5.90886099275064,3.203886050567256,9.71794142969884e-05,0.0962666198611259,0,0,0
430,14874.348297865488,2010-12-20 16:17:35,3961.9724922734654,2,2,0.5501165986061096,4.095236778259277,1.485650038716686,0.883817862583682,5.927640159317143,3.203886050567256,6.47544875391759e-05,0.0962666198611259,0,0,0
431,14904.363476989309,2010-12-20 16:18:05,3991.9876713822473,2,2,0.550297200679779,4.098312854766846,1.4902373777486,0.883817862583682,5.94643366085707,3.203886050567256,9.71794142969884e-05,0.0962666198611259,0,0,0
432,14934.37851835532,2010-12-20 16:18:35,4022.0027127632993,2,2,0.550297200679779,4.101550579071045,1.494824686242609,0.883817862583682,5.965241318389467,3.203886050567256,9.71794142969884e-05,0.0962666198611259,0,0,0
433,14964.393450945652,2010-12-20 16:19:05,4052.017645353631,2,2,0.5501165986061096,4.104464530944824,1.49941198463777,0.883817862583682,5.98406313408915,3.203886050567256,6.47544875391759e-05,0.0962666198611259,0,0,0
434,14994.408529479157,2010-12-20 16:19:36,4082.032723887135,2,2,0.550297200679779,4.107863903045654,1.503999299919835,0.883817862583682,6.002899525509043,3.203886050567256,0.0001295089750783,0.0962666198611259,0,0,0
435,15024.423712171858,2010-12-20 16:20:06,4112.047906634973,2,2,0.5501165986061096,4.110939979553223,1.508586644849351,0.883817862583682,6.021750607769741,3.203886050567256,6.47544875391759e-05,0.0962666198611259,0,0,0
436,15054.438628120775,2010-12-20 16:20:36,4142.062822513717,2,2,0.5501165986061096,4.114015579223633,1.513173983892565,0.883817862583682,6.040616258498367,3.203886050567256,6.47544875391759e-05,0.0962666198611259,0,0,0
437,15084.453825745635,2010-12-20 16:21:06,4172.078020208751,2,2,0.550297200679779,4.117414951324463,1.517761344109948,0.883817862583682,6.059496722231234,3.203886050567256,9.70840483205393e-05,0.0962666198611259,0,0,0
438,15114.468756406164,2010-12-20 16:21:36,4202.092950799104,2,2,0.5501165986061096,4.120652675628662,1.522348709430071,0.883817862583682,6.078391990502741,3.203886050567256,9.70840483205393e-05,0.0962666198611259,0,0,0
439,15144.483824984896,2010-12-20 16:22:06,4232.108019392874,2,2,0.5499359965324402,4.123890399932861,1.52693606190965,0.883817862583682,6.097302109537502,3.203886050567256,9.70840483205393e-05,0.0962666198611259,0,0,0
440,15174.498902044734,2010-12-20 16:22:36,4262.123096442687,2,2,0.550297200679779,4.12729024887085,1.531523391540494,0.883817862583682,6.116227220925638,3.203886050567256,9.71794142969884e-05,0.0962666198611259,0,0,0
441,15204.513935746678,2010-12-20 16:23:06,4292.138130139616,2,2,0.5501165986061096,4.13036584854126,1.536110655344276,0.883817862583682,6.135167249400653,3.203886050567256,6.47544875391759e-05,0.0962666198611259,0,0,0
442,15234.529252081942,2010-12-20 16:23:36,4322.153446545056,2,2,0.550297200679779,4.134089469909668,1.540698061523559,0.883817862583682,6.154123178769288,3.203886050567256,0.0001295089750783,0.0962666198611259,0,0,0
443,15264.5440452002,2010-12-20 16:24:06,4352.168239608179,2,2,0.550297200679779,4.137327194213867,1.545285339184236,0.883817862583682,6.173094049393897,3.203886050567256,9.71794142969884e-05,0.0962666198611259,0,0,0
444,15294.559228714948,2010-12-20 16:24:36,4382.183423122925,2,2,0.5501165986061096,4.140726566314697,1.549872751983806,0.883817862583682,6.192081146813404,3.203886050567256,9.70840483205393e-05,0.0962666198611259,0,0,0
445,15324.574313519057,2010-12-20 16:25:06,4412.198507911996,2,2,0.550297200679779,4.144288063049316,1.554460109458693,0.883817862583682,6.211083707360759,3.203886050567256,0.0001295089750783,0.0962666198611259,0,0,0
446,15354.589230921592,2010-12-20 16:25:36,4442.213425314532,2,2,0.550297200679779,4.147687911987305,1.559047370433756,0.883817862583682,6.230102092316768,3.203886050567256,9.71794142969884e-05,0.0962666198611259,0,0,0
447,15384.604293680844,2010-12-20 16:26:06,4472.228488073784,2,2,0.550297200679779,4.151087284088135,1.563634665561728,0.883817862583682,6.24913646998531,3.203886050567256,6.47544875391759e-05,0.0962666198611259,0,0,0
448,15414.619343768562,2010-12-20 16:26:36,4502.243538161502,2,2,0.550297200679779,4.154648780822754,1.56822201642763,0.883817862583682,6.268187028555493,3.203886050567256,0.0001295089750783,0.0962666198611259,0,0,0
449,15444.634449650122,2010-12-20 16:27:06,4532.258644088173,2,2,0.5499359965324402,4.157886505126953,1.572809397336114,0.883817862583682,6.28725377382803,3.203886050567256,9.70840483205393e-05,0.0962666198611259,0,0,0
450,15474.649594518698,2010-12-20 16:27:36,4562.273788926675,2,2,0.5501165986061096,4.161610126495361,1.577396752821887,0.883817862583682,6.306336587483956,3.203886050567256,9.71794142969884e-05,0.0962666198611259,0,0,0
451,15504.66454139458,2010-12-20 16:28:06,4592.288735862705,2,2,0.5499359965324402,4.165009498596191,1.581984102799856,0.883817862583682,6.325435653833176,3.203886050567256,6.47544875391759e-05,0.0962666198611259,0,0,0
452,15534.679593106335,2010-12-20 16:28:36,4622.303787584489,2,2,0.550297200679779,4.168894767761231,1.586571430937584,0.883817862583682,6.344551014211906,3.203886050567256,0.0001295089750783,0.0962666198611259,0,0,0
453,15564.69770259225,2010-12-20 16:29:06,4652.321897090452,2,2,0.550297200679779,4.17245626449585,1.591159188714185,0.883817862583682,6.363684674372407,3.203886050567256,9.70840483205393e-05,0.0962666198611259,0,0,0
454,15594.709746654593,2010-12-20 16:29:36,4682.333941117705,2,2,0.5501165986061096,4.176017761230469,1.595746035450764,0.883817862583682,6.382831169965053,3.203886050567256,0.0001295089750783,0.0962666198611259,0,0,0
455,15624.72475734928,2010-12-20 16:30:06,4712.34895176227,2,2,0.5501165986061096,4.179579257965088,1.600333385803465,0.883817862583682,6.401996424209109,3.203886050567256,9.70840483205393e-05,0.0962666198611259,0,0,0
456,15654.739837256202,2010-12-20 16:30:36,4742.364031669192,2,2,0.550297200679779,4.183464527130127,1.604920724378031,0.883817862583682,6.421178408719739,3.203886050567256,0.0001618385285837,0.0962666198611259,0,0,0
457,15684.754869890488,2010-12-20 16:31:06,4772.379064298466,2,2,0.550297200679779,4.187188148498535,1.609508108014188,0.883817862583682,6.440377470939668,3.203886050567256,0.0001295089750783,0.0962666198611259,0,0,0
458,15714.770590942877,2010-12-20 16:31:36,4802.394785451103,2,2,0.550297200679779,4.190749645233154,1.614095517492485,0.883817862583682,6.459593770399709,3.203886050567256,9.71794142969884e-05,0.0962666198611259,0,0,0
459,15744.784965790284,2010-12-20 16:32:06,4832.409160198263,2,2,0.5499359965324402,4.194472789764404,1.618682689535925,0.883817862583682,6.478826200703303,3.203886050567256,9.70840483205393e-05,0.0962666198611259,0,0,0
460,15774.8000280934,2010-12-20 16:32:36,4862.424222501379,2,2,0.5501165986061096,4.198195934295654,1.623269968112464,0.883817862583682,6.498076220749403,3.203886050567256,9.70840483205393e-05,0.0962666198611259,0,0,0
461,15787.627938860964,2010-12-20 16:32:49,4875.252133258918,2,2,0.5504778623580933,4.200138568878174,1.625230531132666,0.883817862583682,6.506308813401168,3.203886050567256,0.0001295089750783,0.0962666198611259,0,0,0
462,15817.643700982666,2010-12-20 16:33:19,30.01502399779451,3,2,0.0,4.111263751983643,1.625230531132666,0.883817862583682,6.506308813401168,3.203886050567256,-0.0004208564641885,0.0962666198611259,0,0,0
463,15847.658877234338,2010-12-20 16:33:49,60.030200224404574,3,2,0.0,4.100417137145996,1.625230531132666,0.883817862583682,6.506308813401168,3.203886050567256,-0.0002266883820993,0.0962666198611259,0,0,0
464,15877.673814897293,2010-12-20 16:34:19,90.04513791242053,3,2,0.0,4.093780040740967,1.625230531132666,0.883817862583682,6.506308813401168,3.203886050567256,-9.70840483205393e-05,0.0962666198611259,0,0,0
465,15907.64206008281,2010-12-20 16:34:49,120.01338309793988,3,2,0.0,4.089570999145508,1.625230531132666,0.883817862583682,6.506308813401168,3.203886050567256,-9.70840483205393e-05,0.0962666198611259,0,0,0
466,15907.642116497032,2010-12-20 16:34:49,2.606486141e-06,4,2,1.0094059705734253,4.199814796447754,1.6252305318635,0.883817862583682,6.506308816470535,3.203886050567256,0.0,0.0962666198611259,0,0,0
467,15908.235819940215,2010-12-20 16:34:50,0.593706089769542,4,2,0.9590160250663756,4.199653148651123,1.625391361648352,0.883817862583682,6.506984265264443,3.203886050567256,-3.23295607813634e-05,0.0962666198611259,0,0,0
468,15910.032677786858,2010-12-20 16:34:51,2.390563936410992,4,2,0.908445417881012,4.199653148651123,1.625856298080127,0.883817862583682,6.508936874766194,3.203886050567256,-3.23295607813634e-05,0.0962666198611259,0,0,0
469,15912.845252220157,2010-12-20 16:34:54,5.203138369712323,4,2,0.8582360148429871,4.199814796447754,1.626545289592991,0.883817862583682,6.511830455822907,3.203886050567256,0.0,0.0962666198611259,0,0,0
470,15916.782669301125,2010-12-20 16:34:58,9.140555450679193,4,2,0.8080266714096069,4.199814796447754,1.627455133152447,0.883817862583682,6.515651559573671,3.203886050567256,0.0,0.0962666198611259,0,0,0
471,15922.001308313587,2010-12-20 16:35:03,14.359194463144826,4,2,0.757817268371582,4.199814796447754,1.628588382106063,0.883817862583682,6.520410912422627,3.203886050567256,6.47544875391759e-05,0.0962666198611259,0,0,0
472,15928.813682655124,2010-12-20 16:35:10,21.171568804679332,4,2,0.7077885270118713,4.199814796447754,1.629972719515561,0.883817862583682,6.526224767529405,3.203886050567256,3.23295607813634e-05,0.0962666198611259,0,0,0
473,15937.797760517344,2010-12-20 16:35:19,30.15564666689801,4,2,0.6577597260475159,4.199653148651123,1.631673333200995,0.883817862583682,6.533366921013434,3.203886050567256,-3.23295607813634e-05,0.0962666198611259,0,0,0
474,15950.37578099754,2010-12-20 16:35:32,42.73366714709296,4,2,0.6077309846878052,4.199814796447754,1.63387872685725,0.883817862583682,6.54262902980343,3.203886050567256,0.0,0.0962666198611259,0,0,0
475,15969.031572196403,2010-12-20 16:35:50,61.38945834596091,4,2,0.5577021837234497,4.199653148651123,1.636888846591527,0.883817862583682,6.555270807322601,3.203886050567256,0.0,0.0962666198611259,0,0,0
476,16000.9996994365,2010-12-20 16:36:22,93.35758558605453,4,2,0.507673442363739,4.199653148651123,1.641599140584164,0.883817862583682,6.575052892511399,3.203886050567256,0.0,0.0962666198611259,0,0,0
477,16060.326854840912,2010-12-20 16:37:22,152.68474099046472,4,2,0.4576446712017059,4.199653148651123,1.649518867074848,0.883817862583682,6.60831434197484,3.203886050567256,-3.23295607813634e-05,0.0962666198611259,0,0,0
478,16156.199904838404,2010-12-20 16:38:58,248.5577909679086,4,2,0.4076159000396728,4.199653148651123,1.661013834153704,0.883817862583682,6.656591286936693,3.203886050567256,-3.23295607813634e-05,0.0962666198611259,0,0,0
479,16279.27573001567,2010-12-20 16:41:01,371.63361616522656,4,2,0.3575871288776397,4.199814796447754,1.674073211396775,0.883817862583682,6.711438428808921,3.203886050567256,0.0,0.0962666198611259,0,0,0
480,16426.33557466794,2010-12-20 16:43:28,518.6934608174959,4,2,0.3075583577156067,4.199814796447754,1.687639994307635,0.883817862583682,6.768416647696254,3.203886050567256,-3.24249267578125e-05,0.0962666198611259,0,0,0
481,16604.70709535172,2010-12-20 16:46:26,697.0649815012742,4,2,0.2573489844799042,4.199814796447754,1.701614675378506,0.883817862583682,6.827107938476984,3.203886050567256,0.0,0.0962666198611259,0,0,0
482,16824.859850174686,2010-12-20 16:50:06,917.2177363944122,4,2,0.2073202133178711,4.199814796447754,1.715800060432555,0.883817862583682,6.886684093848999,3.203886050567256,0.0,0.0962666198611259,0,0,0
483,17113.947510012433,2010-12-20 16:54:55,1206.3053961670005,4,2,0.1571108251810073,4.199814796447754,1.730367849644668,0.883817862583682,6.947866286503845,3.203886050567256,0.0,0.0962666198611259,0,0,0
484,17532.736618381336,2010-12-20 17:01:54,1625.094504505828,4,2,0.1070820614695549,4.199653148651123,1.74556152752332,0.883817862583682,7.011677085153071,3.203886050567256,-3.23295607813634e-05,0.0962666198611259,0,0,0
485,18332.15890547576,2010-12-20 17:15:14,2424.516791625314,4,2,0.0570532865822315,4.199814796447754,1.763117303246482,0.883817862583682,7.085408241688004,3.203886050567256,0.0,0.0962666198611259,0,0,0
486,18523.45217819248,2010-12-20 17:18:25,2615.8100643470484,4,2,0.0496483072638511,4.199653148651123,1.765974009760102,0.883817862583682,7.097405895897541,3.203886050567256,-3.23295607813634e-05,0.0962666198611259,0,0,0
487,18553.467612775115,2010-12-20 17:18:55,30.0148597440554,5,2,0.0,4.191558837890625,1.765974009760102,0.883817862583682,7.097405895897541,3.203886050567256,-3.24249267578125e-05,0.0962666198611259,0,0,0
488,18583.467273020808,2010-12-20 17:19:25,60.01452006994328,5,2,0.0,4.1901021003723145,1.765974009760102,0.883817862583682,7.097405895897541,3.203886050567256,0.0,0.0962666198611259,0,0,0
489,18583.65398927708,2010-12-20 17:19:25,0.187186005174415,6,2,-1.9243103452026844e-05,4.190263748168945,1.765974009760102,0.883817863584249,7.097405895897541,3.203886054759894,0.0,0.0955438911914825,0,0,0
490,18588.482093644103,2010-12-20 17:19:30,5.015290251896064,6,2,0.0010644125286489,4.1901021003723145,1.765975114463248,0.883817863669584,7.097410524957369,3.203886055117468,-6.47544875391759e-05,0.0955438911914825,0,0,0
491,18618.496961989465,2010-12-20 17:20:00,30.015157329585545,7,2,-1.099568486213684,4.006199836730957,1.765975114463248,0.892985994490549,7.097410524957369,3.240828192792469,-0.0010360718006268,0.0955438911914825,0,0,0
492,18648.51214016592,2010-12-20 17:20:30,60.03033550604774,7,2,-1.0997490882873535,3.977222204208374,1.765975114463248,0.902154072128414,7.097410524957369,3.277415073233484,-0.0006151676061563,0.0955438911914825,0,0,0
493,18678.52696134902,2010-12-20 17:21:00,90.0451566841332,7,2,-1.0997490882873535,3.956986427307129,1.765975114463248,0.911322012627437,7.097410524957369,3.313780775491958,-0.0005180359003134,0.0955438911914825,0,0,0
494,18708.54214076356,2010-12-20 17:21:30,120.06033611872624,7,2,-1.0993878841400146,3.9414453506469727,1.765975114463248,0.920490063061416,7.097410524957369,3.349985200915274,-0.0003561496851034,0.0955438911914825,0,0,0
495,18738.557080526745,2010-12-20 17:22:00,150.07527593704333,7,2,-1.099568486213684,3.928332567214966,1.765975114463248,0.929657994099137,7.097410524957369,3.386057870480782,-0.0002913951757363,0.0955438911914825,0,0,0
496,18768.57234262204,2010-12-20 17:22:30,180.09053796717217,7,2,-1.0993878841400146,3.916514873504639,1.765975114463248,0.938826079177413,7.097410524957369,3.422016451079477,-0.0002590179501567,0.0955438911914825,0,0,0
497,18798.58720715801,2010-12-20 17:23:00,210.105402513177,7,2,-1.0993878841400146,3.905183076858521,1.765975114463248,0.947994068929139,7.097410524957369,3.457869066359219,-0.0002590179501567,0.0955438911914825,0,0,0
498,18828.60224367195,2010-12-20 17:23:30,240.12043900706755,7,2,-1.099568486213684,3.894498586654663,1.765975114463248,0.957162022117317,7.097410524957369,3.493621736863341,-0.0002590179501567,0.0955438911914825,0,0,0
499,18858.61730170945,2010-12-20 17:24:00,270.1354970495811,7,2,-1.099568486213684,3.8841378688812256,1.765975114463248,0.966330042765907,7.097410524957369,3.529279205848989,-0.0002590179501567,0.0955438911914825,0,0,0
500,18888.63235883469,2010-12-20 17:24:30,300.15055419486185,7,2,-1.099568486213684,3.874262809753418,1.765975114463248,0.975498021705939,7.097410524957369,3.56484380522733,-0.0002590179501567,0.0955438911914825,0,0,0
501,18918.64743570405,2010-12-20 17:25:00,330.16563103415035,7,2,-1.099568486213684,3.86454963684082,1.765975114463248,0.984666051023133,7.097410524957369,3.600318158578828,-0.0002590179501567,0.0955438911914825,0,0,0
502,18948.66260040197,2010-12-20 17:25:30,360.1807957621466,7,2,-1.099568486213684,3.8549983501434326,1.765975114463248,0.99383406764897,7.097410524957369,3.63570382301446,-0.0002266406954731,0.0955438911914825,0,0,0
503,18978.67759726224,2010-12-20 17:26:00,390.195792597348,7,2,-1.099568486213684,3.845447063446045,1.765975114463248,1.003002053289864,7.097410524957369,3.671002168256282,-0.0002590179501567,0.0955438911914825,0,0,0
504,19008.69261583653,2010-12-20 17:26:30,420.21081119670873,7,2,-1.099568486213684,3.836219549179077,1.765975114463248,1.012170019979656,7.097410524957369,3.706215120633088,-0.0002590179501567,0.0955438911914825,0,0,0
505,19038.70766009976,2010-12-20 17:27:01,450.2258554298581,7,2,-1.099568486213684,3.827316045761109,1.765975114463248,1.021338049031076,7.097410524957369,3.741344323317011,-0.0002266406954731,0.0955438911914825,0,0,0
506,19068.72284605557,2010-12-20 17:27:31,480.2410414157538,7,2,-1.0993878841400146,3.818412303924561,1.765975114463248,1.030506107803748,7.097410524957369,3.776391284521521,-0.0002266406954731,0.0955438911914825,0,0,0
507,19098.737766530765,2010-12-20 17:28:01,510.2559618708864,7,2,-1.099568486213684,3.8095085620880127,1.765975114463248,1.039674081163455,7.097410524957369,3.811356907571251,-0.0002266406954731,0.0955438911914825,0,0,0
508,19128.752825821382,2010-12-20 17:28:31,540.2710211815557,7,2,-1.0997490882873535,3.8009285926818848,1.765975114463248,1.048842077790663,7.097410524957369,3.846243819242935,-0.0002590179501567,0.0955438911914825,0,0,0
509,19158.76789003926,2010-12-20 17:29:01,570.2860853944238,7,2,-1.099568486213684,3.7928342819213863,1.765975114463248,1.058010093625112,7.097410524957369,3.881054292679269,-0.0001942634553415,0.0955438911914825,0,0,0
510,19188.782940031742,2010-12-20 17:29:31,600.3011353919176,7,2,-1.099568486213684,3.7847399711608887,1.765975114463248,1.067178113258873,7.097410524957369,3.915789653443215,-0.0001942634553415,0.0955438911914825,0,0,0
511,19218.798031151568,2010-12-20 17:30:01,630.3162265017177,7,2,-1.0997490882873535,3.7768075466156006,1.765975114463248,1.076346170156512,7.097410524957369,3.950451455741801,-0.0001942634553415,0.0955438911914825,0,0,0
512,19248.813054618044,2010-12-20 17:30:31,660.3312499782149,7,2,-1.0997490882873535,3.7690370082855225,1.765975114463248,1.085514191976525,7.097410524957369,3.985041386903213,-0.0001942634553415,0.0955438911914825,0,0,0
513,19278.828255460907,2010-12-20 17:31:01,690.3464508010318,7,2,-1.0993878841400146,3.7614283561706543,1.765975114463248,1.094682300147372,7.097410524957369,4.019561609300896,-0.0002266406954731,0.0955438911914825,0,0,0
514,19308.843250992864,2010-12-20 17:31:31,720.3614464182023,7,2,-1.0997490882873535,3.754143476486206,1.765975114463248,1.103850349538483,7.097410524957369,4.054013167939458,-0.0001618862152099,0.0955438911914825,0,0,0
515,19338.85823147738,2010-12-20 17:32:01,750.376426812491,7,2,-1.0997490882873535,3.746858835220337,1.765975114463248,1.113018433199722,7.097410524957369,4.088397957965514,-0.0002266406954731,0.0955438911914825,0,0,0
516,19368.873312978267,2010-12-20 17:32:31,780.3915083183923,7,2,-1.099568486213684,3.7398977279663086,1.765975114463248,1.122186580956969,7.097410524957369,4.122717237055995,-0.0001618862152099,0.0955438911914825,0,0,0
517,19398.888363401824,2010-12-20 17:33:01,810.4065587469587,7,2,-1.099568486213684,3.7327747344970703,1.765975114463248,1.131354693069963,7.097410524957369,4.156971660650876,-0.0001942634553415,0.0955438911914825,0,0,0
518,19428.90350534311,2010-12-20 17:33:31,840.421700783488,7,2,-1.099568486213684,3.726137399673462,1.765975114463248,1.140522767762226,7.097410524957369,4.19116265952251,-0.0001618862152099,0.0955438911914825,0,0,0
519,19458.91846002341,2010-12-20 17:34:01,870.4366553685519,7,2,-1.0997490882873535,3.719338178634644,1.765975114463248,1.149690758984405,7.097410524957369,4.225291639056088,-0.0001618862152099,0.0955438911914825,0,0,0
520,19488.933520717528,2010-12-20 17:34:31,900.4517160576512,7,2,-1.099568486213684,3.712538957595825,1.765975114463248,1.158858823340659,7.097410524957369,4.259360093749979,-0.0002266406954731,0.0955438911914825,0,0,0
521,19518.948619461324,2010-12-20 17:35:01,930.466814821498,7,2,-1.0997490882873535,3.7062253952026367,1.765975114463248,1.168026931990152,7.097410524957369,4.293369012639293,-0.0001618862152099,0.0955438911914825,0,0,0
522,19548.96366867186,2010-12-20 17:35:31,960.4818640019588,7,2,-1.0997490882873535,3.699911832809448,1.765975114463248,1.177195069212124,7.097410524957369,4.327319391806222,-0.0001618862152099,0.0955438911914825,0,0,0
523,19578.978708819843,2010-12-20 17:36:01,990.4969041599674,7,2,-1.0993878841400146,3.69359827041626,1.765975114463248,1.186363159554444,7.097410524957369,4.361211663999195,-0.0001942634553415,0.0955438911914825,0,0,0
524,19608.996872996853,2010-12-20 17:36:31,1020.515068442239,7,2,-1.0997490882873535,3.687446594238281,1.765975114463248,1.195532201771543,7.097410524957369,4.395050166516537,-0.0001942634553415,0.0955438911914825,0,0,0
525,19639.00886957603,2010-12-20 17:37:01,1050.5270649612687,7,2,-1.099568486213684,3.6814568042755127,1.765975114463248,1.204699279414298,7.097410524957369,4.428825487375316,-0.0001618862152099,0.0955438911914825,0,0,0
526,19669.02400719657,2010-12-20 17:37:31,1080.542202536697,7,2,-1.0993878841400146,3.675467014312744,1.765975114463248,1.213867407265384,7.097410524957369,4.462549763268902,-0.0001618862152099,0.0955438911914825,0,0,0
527,19699.038937481164,2010-12-20 17:38:01,1110.5571328363274,7,2,-1.0997490882873535,3.6696393489837646,1.765975114463248,1.22303549398825,7.097410524957369,4.496220120812096,-0.0001618862152099,0.0955438911914825,0,0,0
528,19729.05399214026,2010-12-20 17:38:31,1140.5721874954213,7,2,-1.099568486213684,3.663811445236206,1.765975114463248,1.23220364309489,7.097410524957369,4.529837397144269,-0.0001295089750783,0.0955438911914825,0,0,0
529,19759.06918579524,2010-12-20 17:39:01,1170.5873811504011,7,2,-1.0997490882873535,3.6583073139190674,1.765975114463248,1.241371808137219,7.097410524957369,4.563402041023831,-0.0001295089750783,0.0955438911914825,0,0,0
530,19789.084115473324,2010-12-20 17:39:31,1200.6023108284849,7,2,-1.099568486213684,3.652641296386719,1.765975114463248,1.250539833054494,7.097410524957369,4.596914878163654,-0.0001295089750783,0.0955438911914825,0,0,0
531,19819.09917351584,2010-12-20 17:40:01,1230.6173688709982,7,2,-1.0997490882873535,3.64697527885437,1.765975114463248,1.259707889127953,7.097410524957369,4.63037709815225,-0.0001618862152099,0.0955438911914825,0,0,0
532,19849.114247763675,2010-12-20 17:40:31,1260.6324431138255,7,2,-1.0997490882873535,3.6416330337524414,1.765975114463248,1.268875889608179,7.097410524957369,4.663788571738879,-0.0001295089750783,0.0955438911914825,0,0,0
533,19879.129399534428,2010-12-20 17:41:01,1290.6475949798153,7,2,-1.099568486213684,3.6362907886505127,1.765975114463248,1.278043896261154,7.097410524957369,4.697150312030234,-0.0001295089750783,0.0955438911914825,0,0,0
534,19909.144421396908,2010-12-20 17:41:31,1320.6626168222465,7,2,-1.099568486213684,3.631110429763794,1.765975114463248,1.287211949442319,7.097410524957369,4.730463559309653,-0.0001295089750783,0.0955438911914825,0,0,0
535,19939.159548506297,2010-12-20 17:42:01,1350.6777439165924,7,2,-1.099568486213684,3.6256062984466553,1.765975114463248,1.296379949167065,7.097410524957369,4.763728995532314,-0.0001942634553415,0.0955438911914825,0,0,0
536,19969.17445909688,2010-12-20 17:42:31,1380.6926544370033,7,2,-1.099568486213684,3.620749711990357,1.765975114463248,1.30554793499711,7.097410524957369,4.796947651566994,-0.0001295089750783,0.0955438911914825,0,0,0
537,19999.189649433603,2010-12-20 17:43:01,1410.7078447737254,7,2,-1.099929690361023,3.615731239318848,1.765975114463248,1.314716046638421,7.097410524957369,4.830121050977135,-0.0001295089750783,0.0955438911914825,0,0,0
538,20029.2046986291,2010-12-20 17:43:31,1440.7228939591985,7,2,-1.099568486213684,3.6111984252929688,1.765975114463248,1.323884134277259,7.097410524957369,4.863249422485619,-9.713172767078504e-05,0.0955438911914825,0,0,0
539,20059.219667915742,2010-12-20 17:44:01,1470.7378632658963,7,2,-1.099568486213684,3.60634183883667,1.765975114463248,1.33305211251208,7.097410524957369,4.896334074520891,-0.0001295089750783,0.0955438911914825,0,0,0
540,20089.23469204888,2010-12-20 17:44:31,1500.7528874591774,7,2,-1.099568486213684,3.601809024810791,1.765975114463248,1.342220072306385,7.097410524957369,4.929376234360811,-0.0001295089750783,0.0955438911914825,0,0,0
541,20119.24976911373,2010-12-20 17:45:01,1530.76796446889,7,2,-1.0997490882873535,3.597438097000122,1.765975114463248,1.351388112915739,7.097410524957369,4.962377828228836,-0.0001295089750783,0.0955438911914825,0,0,0
542,20149.265032672665,2010-12-20 17:45:31,1560.7832281080225,7,2,-1.099568486213684,3.593067169189453,1.765975114463248,1.36055621837353,7.097410524957369,4.99533951024302,-9.713172767078504e-05,0.0955438911914825,0,0,0
543,20179.280009092057,2010-12-20 17:46:01,1590.7982045424576,7,2,-1.0997490882873535,3.588858366012573,1.765975114463248,1.36972429034478,7.097410524957369,5.028261499175818,-9.713172767078504e-05,0.0955438911914825,0,0,0
544,20209.294895342075,2010-12-20 17:46:31,1620.8130906972349,7,2,-1.099568486213684,3.5844874382019043,1.765975114463248,1.378892278840205,7.097410524957369,5.061144465298663,-0.0001618862152099,0.0955438911914825,0,0,0
545,20239.310089217604,2010-12-20 17:47:01,1650.8282845577262,7,2,-1.099568486213684,3.580602169036865,1.765975114463248,1.3880603377827,7.097410524957369,5.093989772904266,-9.713172767078504e-05,0.0955438911914825,0,0,0
546,20269.325074990276,2010-12-20 17:47:31,1680.843270340424,7,2,-1.0997490882873535,3.5763931274414062,1.765975114463248,1.397228410706872,7.097410524957369,5.126798294553416,-0.0001618862152099,0.0955438911914825,0,0,0
547,20299.340369822028,2010-12-20 17:48:01,1710.8585652624029,7,2,-1.099568486213684,3.572831630706787,1.765975114463248,1.406396507676195,7.097410524957369,5.159571324123466,-0.0001295089750783,0.0955438911914825,0,0,0
548,20329.355297054022,2010-12-20 17:48:31,1740.8734923991626,7,2,-1.099568486213684,3.569108247756958,1.765975114463248,1.415564510637312,7.097410524957369,5.192309408215316,-9.713172767078504e-05,0.0955438911914825,0,0,0
549,20359.3702143914,2010-12-20 17:49:01,1770.8884097465616,7,2,-1.099568486213684,3.565222978591919,1.765975114463248,1.424732581559129,7.097410524957369,5.225013239896587,-9.713172767078504e-05,0.0955438911914825,0,0,0
550,20389.3852690104,2010-12-20 17:49:31,1800.9034643705684,7,2,-1.099568486213684,3.5616614818573,1.765975114463248,1.433900513724551,7.097410524957369,5.257683190549955,-9.713172767078504e-05,0.0955438911914825,0,0,0
551,20419.400368882,2010-12-20 17:50:01,1830.918564242172,7,2,-1.0993878841400146,3.5580999851226807,1.765975114463248,1.443068463655072,7.097410524957369,5.290320292694563,-9.713172767078504e-05,0.0955438911914825,0,0,0
552,20449.41542327543,2010-12-20 17:50:31,1860.933618725829,7,2,-1.0997490882873535,3.554376602172852,1.765975114463248,1.452236489528245,7.097410524957369,5.322924904100777,-0.0001295089750783,0.0955438911914825,0,0,0
553,20479.430630534265,2010-12-20 17:51:01,1890.948825944562,7,2,-1.099568486213684,3.5509769916534424,1.765975114463248,1.461404565879098,7.097410524957369,5.355497062416321,-0.0001295089750783,0.0955438911914825,0,0,0
554,20509.445626226618,2010-12-20 17:51:31,1920.9638215617329,7,2,-1.0997490882873535,3.5474154949188232,1.765975114463248,1.470572545733595,7.097410524957369,5.388036765376985,-0.0001295089750783,0.0955438911914825,0,0,0
555,20539.460595623543,2010-12-20 17:52:01,1950.9787909787049,7,2,-1.099568486213684,3.544015884399414,1.765975114463248,1.479740600125163,7.097410524957369,5.420544620398693,-9.713172767078504e-05,0.0955438911914825,0,0,0
556,20569.475858992,2010-12-20 17:52:31,1980.9940544173385,7,2,-1.0997490882873535,3.540454387664795,1.765975114463248,1.488908865405328,7.097410524957369,5.453021368982065,-9.713172767078504e-05,0.0955438911914825,0,0,0
557,20599.490727959008,2010-12-20 17:53:01,2011.0089233793328,7,2,-1.0997490882873535,3.5370547771453857,1.765975114463248,1.498077684411026,7.097410524957369,5.485467632001582,-9.713172767078504e-05,0.0955438911914825,0,0,0
558,20629.50577003679,2010-12-20 17:53:31,2041.023965391956,7,2,-1.099568486213684,3.5333313941955566,1.765975114463248,1.507246572165541,7.097410524957369,5.517881763911364,-0.0001295089750783,0.0955438911914825,0,0,0
559,20659.52079881148,2010-12-20 17:54:01,2071.0389941666376,7,2,-1.0997490882873535,3.5296080112457275,1.765975114463248,1.516415371319912,7.097410524957369,5.550261720973725,-0.0001295089750783,0.0955438911914825,0,0,0
560,20689.535879395084,2010-12-20 17:54:31,2101.054074750244,7,2,-1.0997490882873535,3.5258846282958984,1.765975114463248,1.525584124803865,7.097410524957369,5.582607671864931,-0.0001295089750783,0.0955438911914825,0,0,0
561,20719.550965813207,2010-12-20 17:55:01,2131.0691611733814,7,2,-1.0997490882873535,3.5223231315612797,1.765975114463248,1.534752232617518,7.097410524957369,5.614917466184072,-9.713172767078504e-05,0.0955438911914825,0,0,0
562,20749.566024397067,2010-12-20 17:55:31,2161.084219847467,7,2,-1.099568486213684,3.51843786239624,1.765975114463248,1.543920383311496,7.097410524957369,5.647192688057688,-9.713172767078504e-05,0.0955438911914825,0,0,0
563,20779.581077236635,2010-12-20 17:56:01,2191.0992725767583,7,2,-1.099568486213684,3.514552593231201,1.765975114463248,1.553088579315585,7.097410524957369,5.679432854344986,-9.713172767078504e-05,0.0955438911914825,0,0,0
564,20809.59616367982,2010-12-20 17:56:31,2221.114359019946,7,2,-1.099568486213684,3.5105056762695312,1.765975114463248,1.562256742119015,7.097410524957369,5.711636589329985,-6.47544875391759e-05,0.0955438911914825,0,0,0
565,20839.61123707554,2010-12-20 17:57:01,2251.129432435715,7,2,-1.0997490882873535,3.5061347484588623,1.765975114463248,1.571424955760522,7.097410524957369,5.743802165475473,-0.0001295089750783,0.0955438911914825,0,0,0
566,20869.62627753429,2010-12-20 17:57:31,2281.14447288946,7,2,-1.099568486213684,3.5019257068634038,1.765975114463248,1.58059315129896,7.097410524957369,5.775928375633991,-9.713172767078504e-05,0.0955438911914825,0,0,0
567,20899.64135902516,2010-12-20 17:58:01,2311.1595543853355,7,2,-1.0997490882873535,3.4970691204071045,1.765975114463248,1.589761284491602,7.097410524957369,5.80801260978039,-0.0001942634553415,0.0955438911914825,0,0,0
568,20929.656387779796,2010-12-20 17:58:31,2341.174583139968,7,2,-1.099568486213684,3.4922125339508057,1.765975114463248,1.598929409081809,7.097410524957369,5.84005283524507,-0.0001295089750783,0.0955438911914825,0,0,0
569,20959.671458794583,2010-12-20 17:59:02,2371.189654154762,7,2,-1.099568486213684,3.487032175064087,1.765975114463248,1.608097609260362,7.097410524957369,5.872046788667602,-0.0001618862152099,0.0955438911914825,0,0,0
570,20989.6866885895,2010-12-20 17:59:32,2401.204883994787,7,2,-1.099568486213684,3.4813661575317383,1.765975114463248,1.61726586469292,7.097410524957369,5.903991166660882,-0.0001618862152099,0.0955438911914825,0,0,0
571,21019.70156625816,2010-12-20 18:00:02,2431.219761618335,7,2,-1.099568486213684,3.47505259513855,1.765975114463248,1.626433915873988,7.097410524957369,5.935879361417323,-0.0001295089750783,0.0955438911914825,0,0,0
572,21049.71663530305,2010-12-20 18:00:32,2461.2348306582157,7,2,-1.099568486213684,3.4682533740997314,1.765975114463248,1.635602012325468,7.097410524957369,5.967707510809167,-0.0001618862152099,0.0955438911914825,0,0,0
573,21079.73169018771,2010-12-20 18:01:02,2491.2498855428694,7,2,-1.0997490882873535,3.460320949554444,1.765975114463248,1.644770185810726,7.097410524957369,5.999468959867251,-0.0002266406954731,0.0955438911914825,0,0,0
574,21109.746778510573,2010-12-20 18:01:32,2521.264973850698,7,2,-1.099568486213684,3.4514172077178955,1.765975114463248,1.653938347722698,7.097410524957369,6.031153310639104,-0.0001942634553415,0.0955438911914825,0,0,0
575,21139.76178980676,2010-12-20 18:02:02,2551.2799851669347,7,2,-1.099568486213684,3.440732717514038,1.765975114463248,1.663106477450047,7.097410524957369,6.06274849665421,-0.0003237724304199,0.0955438911914825,0,0,0
576,21169.77688896158,2010-12-20 18:02:32,2581.2950844069665,7,2,-1.099568486213684,3.42842960357666,1.765975114463248,1.672274616081417,7.097410524957369,6.094239196778172,-0.0003561496851034,0.0955438911914825,0,0,0
577,21199.79192404195,2010-12-20 18:03:02,2611.310119397115,7,2,-1.099568486213684,3.413374185562134,1.765975114463248,1.681442825358135,7.097410524957369,6.125604192330746,-0.0004209041653666,0.0955438911914825,0,0,0
578,21229.80697145301,2010-12-20 18:03:32,2641.3251668081725,7,2,-1.099929690361023,3.3944334983825684,1.765975114463248,1.690611037488293,7.097410524957369,6.156814925644816,-0.0006151676061563,0.0955438911914825,0,0,0
579,21259.82202132017,2010-12-20 18:04:02,2671.3402166653173,7,2,-1.0997490882873535,3.370959997177124,1.765975114463248,1.699779216190169,7.097410524957369,6.187833656703759,-0.0007122993702068,0.0955438911914825,0,0,0
580,21289.83709428984,2010-12-20 18:04:32,2701.355289619939,7,2,-1.099568486213684,3.3405256271362305,1.765975114463248,1.708947468106908,7.097410524957369,6.218605976384806,-0.0008741855854168,0.0955438911914825,0,0,0
581,21319.85215855784,2010-12-20 18:05:02,2731.3703539430817,7,2,-1.0997490882873535,3.30086350440979,1.765975114463248,1.71811559760298,7.097410524957369,6.249058916540053,-0.0011979580158367,0.0955438911914825,0,0,0
582,21349.86719517705,2010-12-20 18:05:32,2761.3853905372216,7,2,-1.099568486213684,3.248574495315552,1.765975114463248,1.727283750495996,7.097410524957369,6.279093248606219,-0.0015541076427325,0.0955438911914825,0,0,0
583,21379.882255675675,2010-12-20 18:06:02,2791.400451005772,7,2,-1.099568486213684,3.177182912826538,1.765975114463248,1.736451928669943,7.097410524957369,6.308565906552622,-0.0021692751906812,0.0955438911914825,0,0,0
584,21409.897308871125,2010-12-20 18:06:32,2821.415504211249,7,2,-1.0997490882873535,3.0766518115997314,1.765975114463248,1.745620111813828,7.097410524957369,6.337263061354562,-0.0031729699112474,0.0955438911914825,0,0,0
585,21439.912548445373,2010-12-20 18:07:02,2851.430743860684,7,2,-1.0997490882873535,2.916708707809448,1.765975114463248,1.754788335803033,7.097410524957369,6.364805236360573,-0.0053746225312352,0.0955438911914825,0,0,0
586,21464.740029752706,2010-12-20 18:07:27,2876.2582251078643,7,2,-1.0997490882873535,2.7166178226470947,1.765975114463248,1.762371967528657,7.097410524957369,6.386195400105227,-0.0069287298247218,0.0955438911914825,0,0,0
587,21466.66189212329,2010-12-20 18:07:29,2878.1800874634187,7,2,-1.0997490882873535,2.699943780899048,1.765975114463248,1.762959004240292,7.097410524957369,6.387785321831614,-0.0069286823272705,0.0955438911914825,0,0,0
588,21526.677791851343,2010-12-20 18:08:29,60.01451972408263,8,2,0.0,3.4268107414245605,1.765975114463248,1.762959004240292,7.097410524957369,6.387785321831614,0.0015217304462566,0.0955438911914825,0,0,0
589,21526.86599941744,2010-12-20 18:08:29,0.187650375742714,9,2,-1.9243103452026844e-05,3.4268107414245605,1.765975114463248,1.762959005243341,7.097410524957369,6.387785325268872,0.0,0.0953715816140174,0,0,0
590,21531.678353084448,2010-12-20 18:08:34,5.000004127964589,9,2,0.0005225847125984,3.43555235862732,1.765976129629152,1.762959005409577,7.097414008934843,6.387785325838531,0.0012626647949218,0.0953715816140174,0,0,0
