Data_Point,Test_Time(s),Date_Time,Step_Time(s),Step_Index,Cycle_Index,Current(A),Voltage(V),Charge_Capacity(Ah),Discharge_Capacity(Ah),Charge_Energy(Wh),Discharge_Energy(Wh),dV/dt(V/s),Internal_Resistance(Ohm),Is_FC_Data,AC_Impedance(Ohm),ACI_Phase_Angle(Deg)
3808,138399.08281749598,2010-12-22 02:36:35,30.01510973113864,1,14,0.0,3.458378314971924,11.378484303349891,11.374087244711664,45.67897935501767,41.20661881995728,0.0008418083307333,0.0931989923119545,0,0,0
3809,138429.0979551065,2010-12-22 02:37:05,60.03024736671641,1,14,0.0,3.483794450759888,11.378484303349891,11.374087244711664,45.67897935501767,41.20661881995728,0.0006475448608398,0.0931989923119545,0,0,0
3810,138459.11317544288,2010-12-22 02:37:35,90.04546774319171,1,14,0.0,3.502735137939453,11.378484303349891,11.374087244711664,45.67897935501767,41.20661881995728,0.0004209041653666,0.0931989923119545,0,0,0
3811,138489.08137165653,2010-12-22 02:38:05,120.0136638916843,1,14,0.0,3.5179522037506104,11.378484303349891,11.374087244711664,45.67897935501767,41.20661881995728,0.0003885269106831,0.0931989923119545,0,0,0
3812,138519.0956727267,2010-12-22 02:38:35,30.015181925792263,2,14,0.5497553944587708,3.662354469299317,11.38307110298255,11.374087244711664,45.69564220674203,41.20661881995728,0.0012303352123126,0.0931989923119545,0,0,0
3813,138549.11073546088,2010-12-22 02:39:05,60.030244554718855,2,14,0.5501165986061096,3.700559377670288,11.387657787141848,11.374087244711664,45.71253420183269,41.20661881995728,0.0008418083307333,0.0931989923119545,0,0,0
3814,138579.1258617482,2010-12-22 02:39:35,90.0453708370445,2,14,0.5501165986061096,3.727270603179932,11.39224448752411,11.374087244711664,45.72957213935402,41.20661881995728,0.0006151676061563,0.0931989923119545,0,0,0
3815,138609.14103027564,2010-12-22 02:40:05,120.06053943467012,2,14,0.5493941903114319,3.747344493865967,11.396831188819808,11.374087244711664,45.74671679162543,41.20661881995728,0.0004209041653666,0.0931989923119545,0,0,0
3816,138639.1561175058,2010-12-22 02:40:36,150.07562661970366,2,14,0.5501165986061096,3.762075901031494,11.401417885461887,11.374087244711664,45.76394091743047,41.20661881995728,0.0003237724304199,0.0931989923119545,0,0,0
3817,138669.17137608732,2010-12-22 02:41:06,180.0908852413506,2,14,0.5499359965324402,3.771627187728882,11.406004565677808,11.374087244711664,45.78122015248554,41.20661881995728,0.0001618862152099,0.0931989923119545,0,0,0
3818,138699.18638425577,2010-12-22 02:41:36,210.1058933496046,2,14,0.5501165986061096,3.77858829498291,11.410591279584835,11.374087244711664,45.79853667613298,41.20661881995728,0.0001295089750783,0.0931989923119545,0,0,0
3819,138729.20155079325,2010-12-22 02:42:06,240.12105988710368,2,14,0.5499359965324402,3.784092426300049,11.415177992933268,11.374087244711664,45.815881335530754,41.20661881995728,0.0001295089750783,0.0931989923119545,0,0,0
3820,138759.2166593264,2010-12-22 02:42:36,270.1361684804109,2,14,0.5501165986061096,3.789272785186768,11.4197646962658,11.374087244711664,45.8332503107122,41.20661881995728,0.0001295089750783,0.0931989923119545,0,0,0
3821,138789.23194412317,2010-12-22 02:43:06,300.15145332731834,2,14,0.5501165986061096,3.7941293716430655,11.424351385950166,11.374087244711664,45.85064164065296,41.20661881995728,0.0001295089750783,0.0931989923119545,0,0,0
3822,138819.24701968432,2010-12-22 02:43:36,330.16652879318923,2,14,0.5501165986061096,3.798338413238525,11.428938144198089,11.374087244711664,45.86805428905296,41.20661881995728,9.713172767078504e-05,0.0931989923119545,0,0,0
3823,138849.2622306674,2010-12-22 02:44:06,360.18173982641423,2,14,0.550297200679779,3.802871227264404,11.43352478350242,11.374087244711664,45.885486429409816,41.20661881995728,0.0001618862152099,0.0931989923119545,0,0,0
3824,138879.27728441425,2010-12-22 02:44:36,390.1967935080758,2,14,0.5501165986061096,3.806918382644653,11.438111455765975,11.374087244711664,45.90293798910793,41.20661881995728,0.0001295089750783,0.0931989923119545,0,0,0
3825,138909.29227186608,2010-12-22 02:45:06,420.2117809649397,2,14,0.5499359965324402,3.810803651809693,11.442698186020507,11.374087244711664,45.92040847415349,41.20661881995728,9.713172767078504e-05,0.0931989923119545,0,0,0
3826,138939.3074299676,2010-12-22 02:45:36,450.2269390814835,2,14,0.5499359965324402,3.814850807189941,11.447284896640452,11.374087244711664,45.937897292109874,41.20661881995728,9.713172767078504e-05,0.0931989923119545,0,0,0
3827,138969.32257403416,2010-12-22 02:46:06,480.24208314806464,2,14,0.550297200679779,3.8188979625701904,11.4518715493843,11.374087244711664,45.95540385744003,41.20661881995728,0.0001618862152099,0.0931989923119545,0,0,0
3828,138999.33767172034,2010-12-22 02:46:36,510.2571808091674,2,14,0.5499359965324402,3.8224594593048096,11.456458189205142,11.374087244711664,45.97292800044053,41.20661881995728,9.713172767078504e-05,0.0931989923119545,0,0,0
3829,139029.35279033857,2010-12-22 02:47:06,540.2722994524837,2,14,0.5501165986061096,3.8263447284698486,11.461044785797398,11.374087244711664,45.99046950698873,41.20661881995728,6.47544875391759e-05,0.0931989923119545,0,0,0
3830,139059.36792145294,2010-12-22 02:47:36,570.2874305718461,2,14,0.5501165986061096,3.830229997634888,11.465631425662956,11.374087244711664,46.00802869928015,41.20661881995728,0.0001295089750783,0.0931989923119545,0,0,0
3831,139089.38309860186,2010-12-22 02:48:06,600.3026077608511,2,14,0.5501165986061096,3.8339531421661377,11.47021813377081,11.374087244711664,46.02560565423323,41.20661881995728,6.47544875391759e-05,0.0931989923119545,0,0,0
3832,139119.39821447324,2010-12-22 02:48:36,630.3177236523194,2,14,0.5501165986061096,3.8378384113311768,11.474804772102296,11.374087244711664,46.0431999385171,41.20661881995728,9.713172767078504e-05,0.0931989923119545,0,0,0
3833,139149.41334600365,2010-12-22 02:49:06,660.3328551175425,2,14,0.5501165986061096,3.841885566711426,11.479391478909443,11.374087244711664,46.06081208927342,41.20661881995728,0.0001295089750783,0.0931989923119545,0,0,0
3834,139179.4284420758,2010-12-22 02:49:36,690.347951164629,2,14,0.5501165986061096,3.845447063446045,11.48397815356862,11.374087244711664,46.07844173862479,41.20661881995728,9.713172767078504e-05,0.0931989923119545,0,0,0
3835,139209.44361409193,2010-12-22 02:50:06,720.3631231907864,2,14,0.5501165986061096,3.849332332611084,11.488564855714934,11.374087244711664,46.096088910128415,41.20661881995728,9.713172767078504e-05,0.0931989923119545,0,0,0
3836,139239.4588259923,2010-12-22 02:50:36,750.3783350911693,2,14,0.5501165986061096,3.853055715560913,11.493151546176628,11.374087244711664,46.113753259191725,41.20661881995728,9.713172767078504e-05,0.0931989923119545,0,0,0
3837,139269.4738300254,2010-12-22 02:51:06,780.3933391142574,2,14,0.5501165986061096,3.856617212295532,11.497738183455096,11.374087244711664,46.13143425857024,41.20661881995728,3.237724376958795e-05,0.0931989923119545,0,0,0
3838,139299.4889530797,2010-12-22 02:51:36,810.4084621685503,2,14,0.5501165986061096,3.860340595245361,11.502324826495904,11.374087244711664,46.14913187215336,41.20661881995728,9.713172767078504e-05,0.0931989923119545,0,0,0
3839,139329.5042213203,2010-12-22 02:52:06,840.4237304392083,2,14,0.550297200679779,3.8637402057647705,11.50691149957724,11.374087244711664,46.16684560917708,41.20661881995728,0.0001295089750783,0.0931989923119545,0,0,0
3840,139359.51935166272,2010-12-22 02:52:36,870.4388607716123,2,14,0.5501165986061096,3.86713981628418,11.51149811190075,11.374087244711664,46.184574482456966,41.20661881995728,0.0001295089750783,0.0931989923119545,0,0,0
3841,139389.53434304937,2010-12-22 02:53:06,900.4538521432179,2,14,0.5501165986061096,3.870215654373169,11.516084720969696,11.374087244711664,46.20231834250054,41.20661881995728,9.713172767078504e-05,0.0931989923119545,0,0,0
3842,139419.54947735666,2010-12-22 02:53:36,930.4689864455008,2,14,0.5501165986061096,3.873291492462158,11.520671306110362,11.374087244711664,46.22007646332134,41.20661881995728,9.713172767078504e-05,0.0931989923119545,0,0,0
3843,139449.56463889673,2010-12-22 02:54:06,960.4841480808012,2,14,0.5497553944587708,3.876043558120728,11.525257988558886,11.374087244711664,46.23784855996183,41.20661881995728,9.713172767078504e-05,0.0931989923119545,0,0,0
3844,139479.57985880203,2010-12-22 02:54:36,990.4993678908668,2,14,0.5501165986061096,3.878957509994507,11.529844624722635,11.374087244711664,46.255633522860016,41.20661881995728,6.47544875391759e-05,0.0931989923119545,0,0,0
3845,139509.59486162712,2010-12-22 02:55:06,1020.5143707410364,2,14,0.5501165986061096,3.881547689437866,11.53443124336346,11.374087244711664,46.273430730567085,41.20661881995728,6.47544875391759e-05,0.0931989923119545,0,0,0
3846,139539.6099891325,2010-12-22 02:55:36,1050.5294982263556,2,14,0.550297200679779,3.8841378688812256,11.539017884784936,11.374087244711664,46.29123972842302,41.20661881995728,9.713172767078504e-05,0.0931989923119545,0,0,0
3847,139569.62513250735,2010-12-22 02:56:06,1080.544641621265,2,14,0.5501165986061096,3.886404275894165,11.543604555218453,11.374087244711664,46.30905986628416,41.20661881995728,6.47544875391759e-05,0.0931989923119545,0,0,0
3848,139599.64025991753,2010-12-22 02:56:36,1110.559769006335,2,14,0.5501165986061096,3.888670682907105,11.548191231444203,11.374087244711664,46.32689058864616,41.20661881995728,3.237724376958795e-05,0.0931989923119545,0,0,0
3849,139629.65549085024,2010-12-22 02:57:06,1140.5750000042412,2,14,0.550297200679779,3.890775203704834,11.552777973663288,11.374087244711664,46.34473158158918,41.20661881995728,3.237724376958795e-05,0.0931989923119545,0,0,0
3850,139659.67057864682,2010-12-22 02:57:36,1170.590087835884,2,14,0.5501165986061096,3.8927178382873535,11.557364687797236,11.374087244711664,46.36258205715684,41.20661881995728,6.47544875391759e-05,0.0931989923119545,0,0,0
3851,139689.6875873284,2010-12-22 02:58:06,1200.6070965124752,2,14,0.5501165986061096,3.894822359085083,11.561951724395362,11.374087244711664,46.38044305448581,41.20661881995728,6.47544875391759e-05,0.0931989923119545,0,0,0
3852,139719.70082054992,2010-12-22 02:58:36,1230.6203297289794,2,14,0.5501165986061096,3.8966031074523926,11.566538179609148,11.374087244711664,46.39831023059519,41.20661881995728,6.47544875391759e-05,0.0931989923119545,0,0,0
3853,139749.7161614463,2010-12-22 02:59:06,1260.6356706303764,2,14,0.5501165986061096,3.898545742034912,11.571124920672492,11.374087244711664,46.41618730367383,41.20661881995728,6.47544875391759e-05,0.0931989923119545,0,0,0
3854,139779.73105192182,2010-12-22 02:59:36,1290.6505610307188,2,14,0.5501165986061096,3.9003264904022217,11.575711601242062,11.374087244711664,46.434072612713976,41.20661881995728,6.47544875391759e-05,0.0931989923119545,0,0,0
3855,139809.74927947155,2010-12-22 03:00:06,1320.6687886506038,2,14,0.5499359965324402,3.9021072387695312,11.58029880379264,11.374087244711664,46.451968359669294,41.20661881995728,3.237724376958795e-05,0.0931989923119545,0,0,0
3856,139839.76141716688,2010-12-22 03:00:36,1350.6809263459456,2,14,0.5501165986061096,3.903887987136841,11.584885031035393,11.374087244711664,46.46986853297072,41.20661881995728,6.47544875391759e-05,0.0931989923119545,0,0,0
3857,139869.77640833298,2010-12-22 03:01:06,1380.6959174268277,2,14,0.550297200679779,3.9056687355041504,11.589471780358346,11.374087244711664,46.4877788815109,41.20661881995728,6.47544875391759e-05,0.0931989923119545,0,0,0
3858,139899.79153692606,2010-12-22 03:01:36,1410.7110460199033,2,14,0.5501165986061096,3.90744948387146,11.59405851801001,11.374087244711664,46.50569728647894,41.20661881995728,3.237724376958795e-05,0.0931989923119545,0,0,0
3859,139929.80667582477,2010-12-22 03:02:06,1440.7261849186243,2,14,0.5501165986061096,3.9092302322387695,11.59864526270607,11.374087244711664,46.52362377103316,41.20661881995728,6.47544875391759e-05,0.0931989923119545,0,0,0
3860,139959.82178845812,2010-12-22 03:02:36,1470.741297551985,2,14,0.5501165986061096,3.911010980606079,11.603232002703406,11.374087244711664,46.54155821244658,41.20661881995728,6.47544875391759e-05,0.0931989923119545,0,0,0
3861,139989.83696348677,2010-12-22 03:03:06,1500.756472610689,2,14,0.5501165986061096,3.9126298427581783,11.607818745765147,11.374087244711664,46.55950067056136,41.20661881995728,0.0,0.0931989923119545,0,0,0
3862,140019.85207500233,2010-12-22 03:03:36,1530.7715841012057,2,14,0.5501165986061096,3.914248466491699,11.612405421874453,11.374087244711664,46.57745080069581,41.20661881995728,0.0,0.0931989923119545,0,0,0
3863,140049.8672470285,2010-12-22 03:04:06,1560.7867561474131,2,14,0.550297200679779,3.916029214859009,11.6169921968096,11.374087244711664,46.595409244978605,41.20661881995728,3.237724376958795e-05,0.0931989923119545,0,0,0
3864,140079.8822839234,2010-12-22 03:04:36,1590.801793027264,2,14,0.5499359965324402,3.9178099632263184,11.621578926759287,11.374087244711664,46.61337545999744,41.20661881995728,3.237724376958795e-05,0.0931989923119545,0,0,0
3865,140109.89748206455,2010-12-22 03:05:06,1620.8169911583825,2,14,0.5501165986061096,3.919428825378418,11.626165652308927,11.374087244711664,46.63134954078664,41.20661881995728,0.0,0.0931989923119545,0,0,0
3866,140139.91253171617,2010-12-22 03:05:36,1650.832040805003,2,14,0.5501165986061096,3.921209573745728,11.63075233536377,11.374087244711664,46.64933132510063,41.20661881995728,3.237724376958795e-05,0.0931989923119545,0,0,0
3867,140169.92761430977,2010-12-22 03:06:06,1680.847123408636,2,14,0.5501165986061096,3.922990322113037,11.635339037620929,11.374087244711664,46.667321117322814,41.20661881995728,3.237724376958795e-05,0.0931989923119545,0,0,0
3868,140199.942809273,2010-12-22 03:06:36,1710.8623183869088,2,14,0.5499359965324402,3.9246091842651367,11.639925763199246,11.374087244711664,46.68531888604715,41.20661881995728,0.0,0.0931989923119545,0,0,0
3869,140229.95791445285,2010-12-22 03:07:06,1740.8774235366468,2,14,0.5501165986061096,3.9263899326324463,11.64451256177188,11.374087244711664,46.70332484039256,41.20661881995728,0.0,0.0931989923119545,0,0,0
3870,140259.9730421587,2010-12-22 03:07:36,1770.89255127259,2,14,0.550297200679779,3.928332567214966,11.649099347678908,11.374087244711664,46.72133866394432,41.20661881995728,6.47544875391759e-05,0.0931989923119545,0,0,0
3871,140289.98818673656,2010-12-22 03:08:06,1800.9076958253806,2,14,0.5501165986061096,3.9299514293670654,11.653685640461422,11.374087244711664,46.73935836537029,41.20661881995728,6.47544875391759e-05,0.0931989923119545,0,0,0
3872,140320.0033318056,2010-12-22 03:08:36,1830.922841014756,2,14,0.5499359965324402,3.931570291519165,11.658271540210356,11.374087244711664,46.75738439907098,41.20661881995728,0.0,0.0931989923119545,0,0,0
3873,140350.01856338998,2010-12-22 03:09:06,1860.9380725038843,2,14,0.5497553944587708,3.9333510398864746,11.662857435628128,11.374087244711664,46.7754183700238,41.20661881995728,6.47544875391759e-05,0.0931989923119545,0,0,0
3874,140380.03369845418,2010-12-22 03:09:36,1890.953207563051,2,14,0.550297200679779,3.935131788253784,11.667443309925286,11.374087244711664,46.79346016528151,41.20661881995728,9.713172767078504e-05,0.0931989923119545,0,0,0
3875,140410.04872504342,2010-12-22 03:10:06,1920.9682341573068,2,14,0.5501165986061096,3.9369125366210938,11.672029685352372,11.374087244711664,46.811511905037655,41.20661881995728,6.47544875391759e-05,0.0931989923119545,0,0,0
3876,140440.0638368196,2010-12-22 03:10:36,1950.9833459134848,2,14,0.5499359965324402,3.938369512557984,11.676616487755112,11.374087244711664,46.82957341058181,41.20661881995728,0.0,0.0931989923119545,0,0,0
3877,140470.07898198397,2010-12-22 03:11:06,1980.9984911730344,2,14,0.5501165986061096,3.940312147140503,11.681203276812738,11.374087244711664,46.8476428341876,41.20661881995728,3.237724376958795e-05,0.0931989923119545,0,0,0
3878,140500.09421773368,2010-12-22 03:11:36,2011.0137269127408,2,14,0.5501165986061096,3.942092895507813,11.68579014440794,11.374087244711664,46.86572058523987,41.20661881995728,6.47544875391759e-05,0.0931989923119545,0,0,0
3879,140530.10931746996,2010-12-22 03:12:06,2041.028826623945,2,14,0.5501165986061096,3.943873643875122,11.690377002058096,11.374087244711664,46.8838063456456,41.20661881995728,6.47544875391759e-05,0.0931989923119545,0,0,0
3880,140560.1244780476,2010-12-22 03:12:37,2071.043987146476,2,14,0.5501165986061096,3.945654392242432,11.69496389208639,11.374087244711664,46.90190029618287,41.20661881995728,6.47544875391759e-05,0.0931989923119545,0,0,0
3881,140590.1396287006,2010-12-22 03:13:07,2101.059137789422,2,14,0.5501165986061096,3.947435140609741,11.699550791061345,11.374087244711664,46.92000233112919,41.20661881995728,9.713172767078504e-05,0.0931989923119545,0,0,0
3882,140620.1547557899,2010-12-22 03:13:37,2131.0742648887813,2,14,0.5501165986061096,3.9493777751922607,11.704137608877122,11.374087244711664,46.93811219230166,41.20661881995728,9.713172767078504e-05,0.0931989923119545,0,0,0
3883,140650.1697482793,2010-12-22 03:14:07,2161.089257368143,2,14,0.5501165986061096,3.9508347511291504,11.708724430236373,11.374087244711664,46.95623025575503,41.20661881995728,3.237724376958795e-05,0.0931989923119545,0,0,0
3884,140680.18499809402,2010-12-22 03:14:37,2191.1045071828744,2,14,0.5501165986061096,3.95277738571167,11.713311309026324,11.374087244711664,46.97435676633068,41.20661881995728,3.237724376958795e-05,0.0931989923119545,0,0,0
3885,140710.20000118983,2010-12-22 03:15:07,2221.119510293692,2,14,0.5501165986061096,3.9543962478637695,11.717898168431915,11.374087244711664,46.99249145229119,41.20661881995728,3.237724376958795e-05,0.0931989923119545,0,0,0
3886,140740.21513079543,2010-12-22 03:15:37,2251.13463988425,2,14,0.5501165986061096,3.956338882446289,11.722485042043772,11.374087244711664,47.01063445353122,41.20661881995728,6.47544875391759e-05,0.0931989923119545,0,0,0
3887,140770.23060045225,2010-12-22 03:16:07,2281.1501095460626,2,14,0.5501165986061096,3.9582815170288086,11.727071940162418,11.374087244711664,47.02878579696178,41.20661881995728,6.47544875391759e-05,0.0931989923119545,0,0,0
3888,140800.2455175941,2010-12-22 03:16:37,2311.165026723038,2,14,0.5499359965324402,3.959900379180908,11.731658758271497,11.374087244711664,47.04694516013367,41.20661881995728,3.237724376958795e-05,0.0931989923119545,0,0,0
3889,140830.2605387498,2010-12-22 03:17:07,2341.1800478687346,2,14,0.550297200679779,3.961843013763428,11.736245596537902,11.374087244711664,47.065113094457374,41.20661881995728,6.47544875391759e-05,0.0931989923119545,0,0,0
3890,140860.275656531,2010-12-22 03:17:37,2371.195165619831,2,14,0.5501165986061096,3.963623762130737,11.740832417123691,11.374087244711664,47.083289372943455,41.20661881995728,6.47544875391759e-05,0.0931989923119545,0,0,0
3891,140890.29081063255,2010-12-22 03:18:07,2401.210319726396,2,14,0.550297200679779,3.965728282928467,11.745419241869335,11.374087244711664,47.10147426336275,41.20661881995728,6.47544875391759e-05,0.0931989923119545,0,0,0
3892,140920.30594937588,2010-12-22 03:18:37,2431.225458559955,2,14,0.5501165986061096,3.9673471450805664,11.750006081501477,11.374087244711664,47.11966792987041,41.20661881995728,6.47544875391759e-05,0.0931989923119545,0,0,0
3893,140950.32114681025,2010-12-22 03:19:07,2461.2406559191527,2,14,0.550297200679779,3.969289779663086,11.754592998418255,11.374087244711664,47.137870549480425,41.20661881995728,6.47544875391759e-05,0.0931989923119545,0,0,0
3894,140980.33630778894,2010-12-22 03:19:37,2491.2558168777687,2,14,0.5501165986061096,3.9712324142456055,11.759179872420896,11.374087244711664,47.15608180599944,41.20661881995728,3.237724376958795e-05,0.0931989923119545,0,0,0
3895,141010.35131756132,2010-12-22 03:20:07,2521.2708266802388,2,14,0.5501165986061096,3.973336935043335,11.76376673536712,11.374087244711664,47.174301965797646,41.20661881995728,6.47544875391759e-05,0.0931989923119545,0,0,0
3896,141040.3664539538,2010-12-22 03:20:37,2551.285963067711,2,14,0.5501165986061096,3.975117683410645,11.76835357145244,11.374087244711664,47.192530949609285,41.20661881995728,3.237724376958795e-05,0.0931989923119545,0,0,0
3897,141070.38156911347,2010-12-22 03:21:07,2581.301078207308,2,14,0.5501165986061096,3.977222204208374,11.7729404482464,11.374087244711664,47.21076915726708,41.20661881995728,9.713172767078504e-05,0.0931989923119545,0,0,0
3898,141100.39670324532,2010-12-22 03:21:37,2611.3162123341544,2,14,0.5501165986061096,3.9791648387908936,11.777527345463875,11.374087244711664,47.22901624341928,41.20661881995728,3.237724376958795e-05,0.0931989923119545,0,0,0
3899,141130.41192483983,2010-12-22 03:22:07,2641.331433933673,2,14,0.5501165986061096,3.981107473373413,11.782114158515022,11.374087244711664,47.24727263308587,41.20661881995728,0.0,0.0931989923119545,0,0,0
3900,141160.42695645156,2010-12-22 03:22:37,2671.346465545415,2,14,0.550297200679779,3.983211994171143,11.786700931646376,11.374087244711664,47.26553821883278,41.20661881995728,3.237724376958795e-05,0.0931989923119545,0,0,0
3901,141190.44209123004,2010-12-22 03:23:07,2701.3616003188704,2,14,0.5501165986061096,3.985316514968872,11.79128775828426,11.374087244711664,47.283813473505056,41.20661881995728,6.47544875391759e-05,0.0931989923119545,0,0,0
3902,141220.45763034467,2010-12-22 03:23:37,2731.377139498676,2,14,0.5501165986061096,3.9874210357666016,11.795874623547949,11.374087244711664,47.30209843119329,41.20661881995728,6.47544875391759e-05,0.0931989923119545,0,0,0
3903,141250.47238493204,2010-12-22 03:24:07,2761.3918940459525,2,14,0.5501165986061096,3.989525556564331,11.800461371154658,11.374087244711664,47.32039252688888,41.20661881995728,6.47544875391759e-05,0.0931989923119545,0,0,0
3904,141280.48760468696,2010-12-22 03:24:37,2791.407113775819,2,14,0.5501165986061096,3.991630077362061,11.805048102954244,11.374087244711664,47.33869637899664,41.20661881995728,6.47544875391759e-05,0.0931989923119545,0,0,0
3905,141310.50260882036,2010-12-22 03:25:07,2821.422117914194,2,14,0.5501165986061096,3.994058132171631,11.809634754276846,11.374087244711664,47.35700975954868,41.20661881995728,9.70840483205393e-05,0.0931989923119545,0,0,0
3906,141340.51786590318,2010-12-22 03:25:37,2851.4373750571613,2,14,0.5501165986061096,3.9960007667541504,11.81422157918775,11.374087244711664,47.375333846339686,41.20661881995728,6.47544875391759e-05,0.0931989923119545,0,0,0
3907,141370.5328992843,2010-12-22 03:26:07,2881.452408378156,2,14,0.5501165986061096,3.99826717376709,11.818808383738345,11.374087244711664,47.393667964569794,41.20661881995728,9.713172767078504e-05,0.0931989923119545,0,0,0
3908,141400.54801488004,2010-12-22 03:26:37,2911.4675239688763,2,14,0.5499359965324402,4.000533580780029,11.823395158054169,11.374087244711664,47.412012137235855,41.20661881995728,9.70840483205393e-05,0.0931989923119545,0,0,0
3909,141430.5631313429,2010-12-22 03:27:07,2941.482640441792,2,14,0.5501165986061096,4.002476215362549,11.82798187278924,11.374087244711664,47.43036643326415,41.20661881995728,3.23295607813634e-05,0.0931989923119545,0,0,0
3910,141460.5784116786,2010-12-22 03:27:37,2971.497920777473,2,14,0.5499359965324402,4.005066394805908,11.832568637556882,11.374087244711664,47.44873137897341,41.20661881995728,6.47544875391759e-05,0.0931989923119545,0,0,0
3911,141490.5935409283,2010-12-22 03:28:07,3001.513050017158,2,14,0.5501165986061096,4.007332801818848,11.83715539152882,11.374087244711664,47.46710688401063,41.20661881995728,6.47544875391759e-05,0.0931989923119545,0,0,0
3912,141520.60852058078,2010-12-22 03:28:37,3031.5280297648383,2,14,0.550297200679779,4.009761333465576,11.841742803252464,11.374087244711664,47.48549574971883,41.20661881995728,6.47544875391759e-05,0.0931989923119545,0,0,0
3913,141550.62372244618,2010-12-22 03:29:07,3061.543231630249,2,14,0.550297200679779,4.012027740478516,11.846330312236825,11.374087244711664,47.50389577675058,41.20661881995728,6.47544875391759e-05,0.0931989923119545,0,0,0
3914,141580.6387681931,2010-12-22 03:29:37,3091.5582772919533,2,14,0.550297200679779,4.014455795288086,11.850917695384146,11.374087244711664,47.52230620567274,41.20661881995728,6.47544875391759e-05,0.0931989923119545,0,0,0
3915,141610.6538881647,2010-12-22 03:30:07,3121.57339725355,2,14,0.550297200679779,4.017045974731445,11.855505257827083,11.374087244711664,47.54072839711368,41.20661881995728,9.70840483205393e-05,0.0931989923119545,0,0,0
3916,141640.6690074697,2010-12-22 03:30:37,3151.5885165835757,2,14,0.5499359965324402,4.019150733947754,11.860092777500848,11.374087244711664,47.55916153202308,41.20661881995728,6.47544875391759e-05,0.0931989923119545,0,0,0
3917,141670.68486117217,2010-12-22 03:31:07,3181.6043703762825,2,14,0.5501165986061096,4.021578788757324,11.864680391995936,11.374087244711664,47.577606196310114,41.20661881995728,0.0,0.0931989923119545,0,0,0
3918,141700.69928882597,2010-12-22 03:31:37,3211.618797919824,2,14,0.5501165986061096,4.024331092834473,11.869267350637706,11.374087244711664,47.596059669356364,41.20661881995728,9.71794142969884e-05,0.0931989923119545,0,0,0
3919,141730.71761286582,2010-12-22 03:32:07,3241.6371220448577,2,14,0.5501165986061096,4.026759147644043,11.87385478217288,11.374087244711664,47.614526578925535,41.20661881995728,6.47544875391759e-05,0.0931989923119545,0,0,0
3920,141760.72959212188,2010-12-22 03:32:37,3271.649101300929,2,14,0.5499359965324402,4.029349327087402,11.878441198669169,11.374087244711664,47.63300107430931,41.20661881995728,6.47544875391759e-05,0.0931989923119545,0,0,0
3921,141790.7448220772,2010-12-22 03:33:07,3301.664331261254,2,14,0.5501165986061096,4.031939506530762,11.88302811668482,11.374087244711664,47.65148926334314,41.20661881995728,6.47544875391759e-05,0.0931989923119545,0,0,0
3922,141820.75976713354,2010-12-22 03:33:37,3331.6792762524437,2,14,0.5501165986061096,4.034529685974121,11.88761500643182,11.374087244711664,47.66998917039468,41.20661881995728,6.47544875391759e-05,0.0931989923119545,0,0,0
3923,141850.77492679894,2010-12-22 03:34:07,3361.694435887767,2,14,0.550297200679779,4.037281513214111,11.892201862944132,11.374087244711664,47.68850084969763,41.20661881995728,9.70840483205393e-05,0.0931989923119545,0,0,0
3924,141880.79006665503,2010-12-22 03:34:37,3391.7095757739453,2,14,0.5501165986061096,4.03971004486084,11.896788739039891,11.374087244711664,47.70702473708775,41.20661881995728,9.71794142969884e-05,0.0931989923119545,0,0,0
3925,141910.80521336317,2010-12-22 03:35:07,3421.7247224570374,2,14,0.5501165986061096,4.042300224304199,11.90137559029108,11.374087244711664,47.725560559920666,41.20661881995728,0.0,0.0931989923119545,0,0,0
3926,141940.820390076,2010-12-22 03:35:37,3451.7398992300077,2,14,0.550297200679779,4.0450520515441895,11.905962517474112,11.374087244711664,47.74410896234852,41.20661881995728,3.23295607813634e-05,0.0931989923119545,0,0,0
3927,141970.83550961156,2010-12-22 03:36:07,3481.755018715419,2,14,0.550297200679779,4.047804355621338,11.91054946954826,11.374087244711664,47.7626697797056,41.20661881995728,9.71794142969884e-05,0.0931989923119545,0,0,0
3928,142000.8506078491,2010-12-22 03:36:37,3511.7701169379184,2,14,0.550297200679779,4.050556182861328,11.915136369226282,11.374087244711664,47.78124274272067,41.20661881995728,6.47544875391759e-05,0.0931989923119545,0,0,0
3929,142030.86577793042,2010-12-22 03:37:07,3541.7852871044483,2,14,0.5501165986061096,4.053308486938477,11.919723325896584,11.374087244711664,47.79982840368703,41.20661881995728,6.47544875391759e-05,0.0931989923119545,0,0,0
3930,142060.88095333497,2010-12-22 03:37:37,3571.8004625040003,2,14,0.5501165986061096,4.055898666381836,11.924310248315862,11.374087244711664,47.81842657918894,41.20661881995728,3.24249267578125e-05,0.0931989923119545,0,0,0
3931,142090.8960240841,2010-12-22 03:38:07,3601.8155331779467,2,14,0.550297200679779,4.058812618255615,11.928897156847178,11.374087244711664,47.83703747545245,41.20661881995728,6.47544875391759e-05,0.0931989923119545,0,0,0
3932,142120.91119809018,2010-12-22 03:38:37,3631.830707279268,2,14,0.5501165986061096,4.0615644454956055,11.93348413197787,11.374087244711664,47.855661302131416,41.20661881995728,6.47544875391759e-05,0.0931989923119545,0,0,0
3933,142150.92626628294,2010-12-22 03:39:07,3661.845775381816,2,14,0.550297200679779,4.064478397369385,11.938071021175825,11.374087244711664,47.87429763524814,41.20661881995728,9.70840483205393e-05,0.0931989923119545,0,0,0
3934,142180.94140891597,2010-12-22 03:39:37,3691.8609180148287,2,14,0.5501165986061096,4.067230701446533,11.942657938115005,11.374087244711664,47.892947108942494,41.20661881995728,9.71794142969884e-05,0.0931989923119545,0,0,0
3935,142210.95654663676,2010-12-22 03:40:07,3721.876055745644,2,14,0.5501165986061096,4.0701446533203125,11.947244900557342,11.374087244711664,47.91160996222973,41.20661881995728,6.47544875391759e-05,0.0931989923119545,0,0,0
3936,142240.9716562476,2010-12-22 03:40:37,3751.8911653464575,2,14,0.5501165986061096,4.073058605194092,11.951831805551492,11.374087244711664,47.93028583109358,41.20661881995728,9.71794142969884e-05,0.0931989923119545,0,0,0
3937,142270.98690920515,2010-12-22 03:41:07,3781.9064182939856,2,14,0.5501165986061096,4.075972557067871,11.956418773257742,11.374087244711664,47.94897544535668,41.20661881995728,6.47544875391759e-05,0.0931989923119545,0,0,0
3938,142301.00206930665,2010-12-22 03:41:37,3811.921578405495,2,14,0.5499359965324402,4.07888650894165,11.961005693047534,11.374087244711664,47.96767837700654,41.20661881995728,6.47544875391759e-05,0.0931989923119545,0,0,0
3939,142331.01705843763,2010-12-22 03:42:07,3841.936567531511,2,14,0.5501165986061096,4.0819621086120605,11.965592637231872,11.374087244711664,47.986395045090376,41.20661881995728,0.0001295089750783,0.0931989923119545,0,0,0
3940,142361.03219989274,2010-12-22 03:42:37,3871.951708981581,2,14,0.550297200679779,4.085038185119629,11.97017956232181,11.374087244711664,48.005125430974914,41.20661881995728,9.71794142969884e-05,0.0931989923119545,0,0,0
3941,142391.0473959186,2010-12-22 03:43:07,3901.96690512776,2,14,0.5501165986061096,4.087790012359619,11.974766466205589,11.374087244711664,48.02386961271857,41.20661881995728,3.23295607813634e-05,0.0931989923119545,0,0,0
3942,142421.06257926795,2010-12-22 03:43:37,3931.982088386871,2,14,0.5499359965324402,4.090866088867188,11.979353413688864,11.374087244711664,48.04262795821489,41.20661881995728,3.24249267578125e-05,0.0931989923119545,0,0,0
3943,142451.07771625192,2010-12-22 03:44:07,3961.9972253507767,2,14,0.5501165986061096,4.094103813171387,11.98394027863152,11.374087244711664,48.06139991730421,41.20661881995728,9.71794142969884e-05,0.0931989923119545,0,0,0
3944,142481.09270381404,2010-12-22 03:44:38,3992.01221292794,2,14,0.5501165986061096,4.097017765045166,11.988527122636066,11.374087244711664,48.08018596355408,41.20661881995728,3.24249267578125e-05,0.0931989923119545,0,0,0
3945,142511.1079783102,2010-12-22 03:45:08,4022.027487499277,2,14,0.550297200679779,4.100417137145996,11.99311405292668,11.374087244711664,48.09898678696724,41.20661881995728,9.70840483205393e-05,0.0931989923119545,0,0,0
3946,142541.1229777218,2010-12-22 03:45:38,4052.0424868106406,2,14,0.5501165986061096,4.103331089019775,11.997700916750585,11.374087244711664,48.11780169296079,41.20661881995728,6.47544875391759e-05,0.0931989923119545,0,0,0
3947,142571.13812901135,2010-12-22 03:46:08,4082.057638100195,2,14,0.5501165986061096,4.106730937957764,12.002287883355294,11.374087244711664,48.13663170567488,41.20661881995728,9.71794142969884e-05,0.0931989923119545,0,0,0
3948,142601.15323190548,2010-12-22 03:46:38,4112.07274099432,2,14,0.550297200679779,4.109968662261963,12.006874777046413,11.374087244711664,48.155476093105065,41.20661881995728,9.71794142969884e-05,0.0931989923119545,0,0,0
3949,142631.1683600023,2010-12-22 03:47:08,4142.087869091161,2,14,0.5501165986061096,4.113206386566162,12.011461695813589,11.374087244711664,48.174335308023295,41.20661881995728,9.71794142969884e-05,0.0931989923119545,0,0,0
3950,142661.18362673413,2010-12-22 03:47:38,4172.10313582299,2,14,0.5501165986061096,4.116443634033203,12.016048635545433,11.374087244711664,48.19320939864705,41.20661881995728,9.70840483205393e-05,0.0931989923119545,0,0,0
3951,142691.19896264814,2010-12-22 03:48:08,4202.118471802139,2,14,0.550297200679779,4.119681358337402,12.02063557426648,11.374087244711664,48.21209846681139,41.20661881995728,9.70840483205393e-05,0.0931989923119545,0,0,0
3952,142721.21382696356,2010-12-22 03:48:38,4232.133336202782,2,14,0.5501165986061096,4.122919082641602,12.02522249564691,11.374087244711664,48.23100257491024,41.20661881995728,6.47544875391759e-05,0.0931989923119545,0,0,0
3953,142751.22889893074,2010-12-22 03:49:08,4262.148408019571,2,14,0.5501165986061096,4.12631893157959,12.029809354775193,11.374087244711664,48.249921541185934,41.20661881995728,9.71794142969884e-05,0.0931989923119545,0,0,0
3954,142781.24402407525,2010-12-22 03:49:38,4292.163533164066,2,14,0.5501165986061096,4.129556655883789,12.034396239065773,11.374087244711664,48.26885595964314,41.20661881995728,6.47544875391759e-05,0.0931989923119545,0,0,0
3955,142811.25917820685,2010-12-22 03:50:08,4322.178687295694,2,14,0.550297200679779,4.133118152618408,12.038983183679308,11.374087244711664,48.28780606291529,41.20661881995728,0.0001295089750783,0.0931989923119545,0,0,0
3956,142841.27428117115,2010-12-22 03:50:38,4352.193790259993,2,14,0.5501165986061096,4.136355876922607,12.043570118855106,11.374087244711664,48.306771549980525,41.20661881995728,0.0001295089750783,0.0931989923119545,0,0,0
3957,142871.28940837577,2010-12-22 03:51:08,4382.208917474639,2,14,0.550297200679779,4.139917373657227,12.048157038156686,11.374087244711664,48.32575264531633,41.20661881995728,9.71794142969884e-05,0.0931989923119545,0,0,0
3958,142901.30454177078,2010-12-22 03:51:38,4412.224050869664,2,14,0.5499359965324402,4.143155097961426,12.05274398298156,11.374087244711664,48.34474952485803,41.20661881995728,9.71794142969884e-05,0.0931989923119545,0,0,0
3959,142931.3198258207,2010-12-22 03:52:08,4442.239334914576,2,14,0.5499359965324402,4.146716594696045,12.05733086489974,11.374087244711664,48.3637620688338,41.20661881995728,9.71794142969884e-05,0.0931989923119545,0,0,0
3960,142961.33481134777,2010-12-22 03:52:38,4472.254320436625,2,14,0.5501165986061096,4.150278091430664,12.061917723978024,11.374087244711664,48.38279066285024,41.20661881995728,9.71794142969884e-05,0.0931989923119545,0,0,0
3961,142991.35001201025,2010-12-22 03:53:08,4502.269521159193,2,14,0.5501165986061096,4.153677463531494,12.066504597178067,11.374087244711664,48.40183543303628,41.20661881995728,3.23295607813634e-05,0.0931989923119545,0,0,0
3962,143021.36508360144,2010-12-22 03:53:38,4532.284592690271,2,14,0.5499359965324402,4.157401084899902,12.071091495005131,11.374087244711664,48.42089644664354,41.20661881995728,0.0001295089750783,0.0931989923119545,0,0,0
3963,143051.3802439385,2010-12-22 03:54:08,4562.299753097515,2,14,0.5501165986061096,4.160800457000732,12.075678342814252,11.374087244711664,48.439973537701725,41.20661881995728,9.70840483205393e-05,0.0931989923119545,0,0,0
3964,143081.39534455194,2010-12-22 03:54:38,4592.314853640791,2,14,0.550297200679779,4.164524078369141,12.080265267028668,11.374087244711664,48.45906739048378,41.20661881995728,0.0001295089750783,0.0931989923119545,0,0,0
3965,143111.4104798818,2010-12-22 03:55:08,4622.329988975644,2,14,0.5501165986061096,4.167923450469971,12.084852101968794,11.374087244711664,48.47817727622385,41.20661881995728,3.23295607813634e-05,0.0931989923119545,0,0,0
3966,143141.42569981216,2010-12-22 03:55:38,4652.345208926058,2,14,0.5501165986061096,4.17180871963501,12.08943844685838,11.374087244711664,48.4973016979468,41.20661881995728,0.0001295089750783,0.0931989923119545,0,0,0
3967,143171.4409428049,2010-12-22 03:56:08,4682.360451968938,2,14,0.550297200679779,4.175370216369629,12.09402457079357,11.374087244711664,48.51644181522863,41.20661881995728,0.0001295089750783,0.0931989923119545,0,0,0
3968,143201.45600806538,2010-12-22 03:56:38,4712.375517154226,2,14,0.5501165986061096,4.179093837738037,12.098611167831196,11.374087244711664,48.53560085266787,41.20661881995728,9.71794142969884e-05,0.0931989923119545,0,0,0
3969,143231.47102540662,2010-12-22 03:57:08,4742.390534500469,2,14,0.5501165986061096,4.182655334472656,12.103198024361037,11.374087244711664,48.5547779958844,41.20661881995728,9.71794142969884e-05,0.0931989923119545,0,0,0
3970,143261.4861553681,2010-12-22 03:57:38,4772.405664456937,2,14,0.5499359965324402,4.186378479003906,12.107784971269131,11.374087244711664,48.57397257632868,41.20661881995728,6.47544875391759e-05,0.0931989923119545,0,0,0
3971,143291.503338173,2010-12-22 03:58:08,4802.422847427251,2,14,0.5501165986061096,4.1901021003723145,12.112372177659276,11.374087244711664,48.593185494596,41.20661881995728,6.47544875391759e-05,0.0931989923119545,0,0,0
3972,143321.51646404236,2010-12-22 03:58:38,4832.435973226452,2,14,0.550297200679779,4.194149017333984,12.116958697289553,11.374087244711664,48.6124127785111,41.20661881995728,0.0001295089750783,0.0931989923119545,0,0,0
3973,143351.53157998397,2010-12-22 03:59:08,4862.451089102883,2,14,0.5501165986061096,4.197710514068604,12.121545572995352,11.374087244711664,48.63165895952028,41.20661881995728,9.71794142969884e-05,0.0931989923119545,0,0,0
3974,143367.87504668225,2010-12-22 03:59:24,4878.794555771092,2,14,0.5501165986061096,4.200138568878174,12.124043222604312,11.374087244711664,48.64214626500186,41.20661881995728,0.0001618385285837,0.0931989923119545,0,0,0
3975,143397.89169638485,2010-12-22 03:59:54,30.01521903313245,3,14,0.0,4.113691806793213,12.124043222604312,11.374087244711664,48.64214626500186,41.20661881995728,-0.0004532813909463,0.0931989923119545,0,0,0
3976,143427.9067674999,2010-12-22 04:00:24,60.03029018326374,3,14,0.0,4.1031694412231445,12.124043222604312,11.374087244711664,48.64214626500186,41.20661881995728,-0.0001942634553415,0.0931989923119545,0,0,0
3977,143457.92199603168,2010-12-22 04:00:54,90.0455186197962,3,14,0.0,4.096855640411377,12.124043222604312,11.374087244711664,48.64214626500186,41.20661881995728,-9.71794142969884e-05,0.0931989923119545,0,0,0
3978,143487.89013243647,2010-12-22 04:01:24,120.01365502461896,3,14,0.0,4.092484951019287,12.124043222604312,11.374087244711664,48.64214626500186,41.20661881995728,-9.70840483205393e-05,0.0931989923119545,0,0,0
3979,143487.8935526103,2010-12-22 04:01:25,2.771897761e-06,4,14,1.012837529182434,4.199814796447754,12.124043223384168,11.374087244711664,48.64214626827712,41.20661881995728,0.0,0.0931989923119545,0,0,0
3980,143488.48727242422,2010-12-22 04:01:25,0.593722600856747,4,14,0.9622669816017152,4.199814796447754,12.12420462562736,11.374087244711664,48.64282410993665,41.20661881995728,0.0,0.0931989923119545,0,0,0
3981,143490.1747859317,2010-12-22 04:01:27,2.281236108315694,4,14,0.9116963744163512,4.199653148651123,12.12464307069836,11.374087244711664,48.64466545323215,41.20661881995728,-3.23295607813634e-05,0.0931989923119545,0,0,0
3982,143492.8310724385,2010-12-22 04:01:30,4.937522685297645,4,14,0.8616676330566406,4.199653148651123,12.125296380904492,11.374087244711664,48.64740916550187,41.20661881995728,-3.23295607813634e-05,0.0931989923119545,0,0,0
3983,143496.58088055678,2010-12-22 04:01:33,8.687330728389492,4,14,0.8116388320922852,4.199653148651123,12.126166776421249,11.374087244711664,48.65106459598955,41.20661881995728,0.0,0.0931989923119545,0,0,0
3984,143501.56522988336,2010-12-22 04:01:38,13.671680160244918,4,14,0.7616100907325745,4.199814796447754,12.127254455917276,11.374087244711664,48.65563256044987,41.20661881995728,0.0,0.0931989923119545,0,0,0
3985,143508.03381966526,2010-12-22 04:01:45,20.14026983686327,4,14,0.711581289768219,4.199814796447754,12.128576068488767,11.374087244711664,48.6611829986931,41.20661881995728,0.0,0.0931989923119545,0,0,0
3986,143516.5805502155,2010-12-22 04:01:53,28.687000387117173,4,14,0.6615525484085083,4.199814796447754,12.130203432616392,11.374087244711664,48.6680175224574,41.20661881995728,3.23295607813634e-05,0.0931989923119545,0,0,0
3987,143528.3931285223,2010-12-22 04:02:05,40.499578794153145,4,14,0.611162543296814,4.199653148651123,12.13228761383382,11.374087244711664,48.676770548006246,41.20661881995728,0.0,0.0931989923119545,0,0,0
3988,143545.98634219787,2010-12-22 04:02:23,58.09279243964789,4,14,0.5611338019371033,4.199814796447754,12.135144596256623,11.374087244711664,48.688769153511366,41.20661881995728,3.23295607813634e-05,0.0931989923119545,0,0,0
3989,143575.07958486828,2010-12-22 04:02:52,87.1860350449002,4,14,0.5111050009727478,4.199653148651123,12.139459535695169,11.374087244711664,48.70689083967142,41.20661881995728,0.0,0.0931989923119545,0,0,0
3990,143628.3290075185,2010-12-22 04:03:45,140.4354577552602,4,14,0.4610762298107147,4.199814796447754,12.146614902524258,11.374087244711664,48.73694161813472,41.20661881995728,3.23295607813634e-05,0.0931989923119545,0,0,0
3991,143715.31175309536,2010-12-22 04:05:12,227.41820335720044,4,14,0.4108668565750122,4.199814796447754,12.15711910649166,11.374087244711664,48.781056671968365,41.20661881995728,0.0,0.0931989923119545,0,0,0
3992,143828.45043472812,2010-12-22 04:07:05,340.55688489973124,4,14,0.3608380854129791,4.199653148651123,12.169230826090192,11.374087244711664,48.83192300242434,41.20661881995728,0.0,0.0931989923119545,0,0,0
3993,143964.22949869654,2010-12-22 04:09:21,476.33594897340686,4,14,0.3106287121772766,4.199653148651123,12.181880364280348,11.374087244711664,48.88504804473647,41.20661881995728,-3.23295607813634e-05,0.0931989923119545,0,0,0
3994,144126.97682910875,2010-12-22 04:12:04,639.083279280363,4,14,0.2604193389415741,4.199814796447754,12.194769818038582,11.374087244711664,48.93918069054817,41.20661881995728,0.0,0.0931989923119545,0,0,0
3995,144326.36415734634,2010-12-22 04:15:23,838.4706075229514,4,14,0.210390567779541,4.199653148651123,12.207781055533896,11.374087244711664,48.99382470693351,41.20661881995728,-3.23295607813634e-05,0.0931989923119545,0,0,0
3996,144591.54736000177,2010-12-22 04:19:48,1103.65381026863,4,14,0.1603617966175079,4.199814796447754,12.22137437500612,11.374087244711664,49.05091338774281,41.20661881995728,3.23295607813634e-05,0.0931989923119545,0,0,0
3997,144985.38459949466,2010-12-22 04:26:22,1497.491049666285,4,14,0.1103330254554748,4.199653148651123,12.236016488001056,11.374087244711664,49.11240672027063,41.20661881995728,-3.23295607813634e-05,0.0931989923119545,0,0,0
3998,145709.5914873911,2010-12-22 04:38:26,2221.6979375627043,4,14,0.0603042542934417,4.199653148651123,12.252640405800808,11.374087244711664,49.18222312987125,41.20661881995728,0.0,0.0931989923119545,0,0,0
3999,145966.68115173775,2010-12-22 04:42:43,2478.787601909367,4,14,0.0498289167881011,4.199653148651123,12.256595686813178,11.374087244711664,49.19883432809224,41.20661881995728,0.0,0.0931989923119545,0,0,0
4000,145996.69320467394,2010-12-22 04:43:14,30.015011180900164,5,14,0.0,4.191720962524414,12.256595686813178,11.374087244711664,49.19883432809224,41.20661881995728,-6.47544875391759e-05,0.0931989923119545,0,0,0
4001,146026.69272092127,2010-12-22 04:43:44,60.01452743326663,5,14,0.0,4.190425872802734,12.256595686813178,11.374087244711664,49.19883432809224,41.20661881995728,-3.23295607813634e-05,0.0931989923119545,0,0,0
4002,146026.87849511622,2010-12-22 04:43:44,0.187636827027256,6,14,-1.9243103452026844e-05,4.190425872802734,12.256595709344532,11.374087244711664,49.19883442251367,41.20661881995728,-9.70840483205393e-05,0.0955438911914825,0,0,0
4003,146031.70642294394,2010-12-22 04:43:49,5.015564619649666,6,14,0.0007031940040178,4.190425872802734,12.256596521592956,11.37408724487897,49.19883782627644,41.20661882065835,-3.23295607813634e-05,0.0955438911914825,0,0,0
4004,146061.71981808817,2010-12-22 04:44:19,30.015170462265715,7,14,-1.0997490882873535,4.012027740478516,12.256596521592956,11.383256842079923,49.19883782627644,41.24361484853193,-0.0009388923645019,0.0955438911914825,0,0,0
4005,146091.7349781195,2010-12-22 04:44:49,60.03033048856192,7,14,-1.0997490882873535,3.9838595390319824,12.256596521592956,11.392426588263612,49.19883782627644,41.28026512073084,-0.0006151676061563,0.0955438911914825,0,0,0
4006,146121.75010028656,2010-12-22 04:45:19,90.04545265564694,7,14,-1.0997490882873535,3.964109420776367,12.256596521592956,11.401596231734471,49.19883782627644,41.31670084742762,-0.0004532813909463,0.0955438911914825,0,0,0
4007,146151.76523161147,2010-12-22 04:45:49,120.06058404568292,7,14,-1.0997490882873535,3.949054002761841,12.256596521592956,11.41076580371802,49.19883782627644,41.35297863316807,-0.0003561496851034,0.0955438911914825,0,0,0
4008,146181.78075753828,2010-12-22 04:46:19,150.07610991235885,7,14,-1.0997490882873535,3.935779333114624,12.256596521592956,11.419935503234976,49.19883782627644,41.3891276452549,-0.0003561496851034,0.0955438911914825,0,0,0
4009,146211.79549877744,2010-12-22 04:46:49,180.09085115653184,7,14,-1.0997490882873535,3.923961639404297,12.256596521592956,11.429104971088492,49.19883782627644,41.4251614693351,-0.0003237724304199,0.0955438911914825,0,0,0
4010,146241.81263179344,2010-12-22 04:47:19,210.1079842527366,7,14,-1.0997490882873535,3.9127917289733887,12.256596521592956,11.43827522452751,49.19883782627644,41.46109272064746,-0.0002589702489785,0.0955438911914825,0,0,0
4011,146271.82604551915,2010-12-22 04:47:49,240.12139801351825,7,14,-1.0997490882873535,3.901945352554321,12.256596521592956,11.447444317417231,49.19883782627644,41.49691944231315,-0.0003237724304199,0.0955438911914825,0,0,0
4012,146301.84091846604,2010-12-22 04:48:19,270.13627083511665,7,14,-1.099568486213684,3.891908407211304,12.256596521592956,11.456613892721805,49.19883782627644,41.53265204635002,-0.0002590179501567,0.0955438911914825,0,0,0
4013,146331.85603288386,2010-12-22 04:48:49,300.1513852529178,7,14,-1.0997490882873535,3.881709575653076,12.256596521592956,11.465783520285283,49.19883782627644,41.56829201774784,-0.0002913951757363,0.0955438911914825,0,0,0
4014,146361.87116887534,2010-12-22 04:49:19,330.16652124440435,7,14,-1.1001102924346924,3.8716726303100586,12.256596521592956,11.474953135382322,49.19883782627644,41.60384074529725,-0.0002913951757363,0.0955438911914825,0,0,0
4015,146391.88630705225,2010-12-22 04:49:49,360.1816594213292,7,14,-1.0997490882873535,3.862283229827881,12.256596521592956,11.48412277928142,49.19883782627644,41.639300721971296,-0.0002913951757363,0.0955438911914825,0,0,0
4016,146421.9014253046,2010-12-22 04:50:19,390.19677767367256,7,14,-1.099929690361023,3.852893829345703,12.256596521592956,11.493292487926286,49.19883782627644,41.67467369591784,-0.0002590179501567,0.0955438911914825,0,0,0
4017,146451.91657322075,2010-12-22 04:50:49,420.2119255898332,7,14,-1.0997490882873535,3.843666315078736,12.256596521592956,11.502462152801936,49.19883782627644,41.70996076504192,-0.0002266406954731,0.0955438911914825,0,0,0
4018,146481.93171746278,2010-12-22 04:51:19,450.2270698318508,7,14,-1.099929690361023,3.834438800811768,12.256596521592956,11.511631806577444,49.19883782627644,41.74516354821949,-0.0002266406954731,0.0955438911914825,0,0,0
4019,146511.9468498102,2010-12-22 04:51:49,480.24220220433153,7,14,-1.0997490882873535,3.8258590698242183,12.256596521592956,11.520801448747504,49.19883782627644,41.78028387612461,-0.0001942634553415,0.0955438911914825,0,0,0
4020,146541.96210106852,2010-12-22 04:52:19,510.2574534375928,7,14,-1.099929690361023,3.816955327987671,12.256596521592956,11.529971142939551,49.19883782627644,41.81532367895203,-0.0002266406954731,0.0955438911914825,0,0,0
4021,146571.97712091095,2010-12-22 04:52:49,540.2724732800468,7,14,-1.0997490882873535,3.808537244796753,12.256596521592956,11.539140694746324,49.19883782627644,41.85028360966658,-0.0001942634553415,0.0955438911914825,0,0,0
4022,146601.99232219995,2010-12-22 04:53:19,570.2876746792981,7,14,-1.0997490882873535,3.799957275390625,12.256596521592956,11.548310421072864,49.19883782627644,41.88516642753378,-0.0002266406954731,0.0955438911914825,0,0,0
4023,146632.00737904952,2010-12-22 04:53:49,600.3027314185686,7,14,-1.0997490882873535,3.791862964630127,12.256596521592956,11.557480076218756,49.19883782627644,41.91997364242047,-0.0002266406954731,0.0955438911914825,0,0,0
4024,146662.02291435466,2010-12-22 04:54:19,630.3182667487941,7,14,-1.0997490882873535,3.783768653869629,12.256596521592956,11.566649798676378,49.19883782627644,41.95470753368711,-0.0002266406954731,0.0955438911914825,0,0,0
4025,146692.03764448114,2010-12-22 04:54:49,660.3329968502388,7,14,-1.099929690361023,3.7761600017547607,12.256596521592956,11.575819311605262,49.19883782627644,41.98936865839213,-0.0001942634553415,0.0955438911914825,0,0,0
4026,146722.0530267906,2010-12-22 04:55:19,690.3483792549151,7,14,-1.0997490882873535,3.768713235855103,12.256596521592956,11.584989063848008,49.19883782627644,42.02396074440298,-0.0001942634553415,0.0955438911914825,0,0,0
4027,146752.0679608997,2010-12-22 04:55:49,720.3633133590126,7,14,-1.0997490882873535,3.761266469955444,12.256596521592956,11.594158686973447,49.19883782627644,42.05848422756033,-0.0001942634553415,0.0955438911914825,0,0,0
4028,146782.08304848074,2010-12-22 04:56:19,750.378400849807,7,14,-1.099929690361023,3.754143476486206,12.256596521592956,11.603328330789637,49.19883782627644,42.09294125447588,-0.0001942634553415,0.0955438911914825,0,0,0
4029,146812.09820109358,2010-12-22 04:56:49,780.3935534676676,7,14,-1.099929690361023,3.747020721435547,12.256596521592956,11.612498032610238,49.19883782627644,42.12733323361621,-0.0002266406954731,0.0955438911914825,0,0,0
4030,146842.11332971175,2010-12-22 04:57:19,810.4086820858057,7,14,-1.0997490882873535,3.740059614181519,12.256596521592956,11.621667731083644,49.19883782627644,42.161661467988736,-0.0001942634553415,0.0955438911914825,0,0,0
4031,146872.11485187573,2010-12-22 04:57:49,840.4102043500557,7,14,-1.099929690361023,3.73358416557312,12.256596521592956,11.63083338706362,49.19883782627644,42.19591221582303,-0.0001618862152099,0.0955438911914825,0,0,0
4032,146902.12811637507,2010-12-22 04:58:19,870.4234688694559,7,14,-1.099929690361023,3.726946830749512,12.256596521592956,11.640002476731928,49.19883782627644,42.23011487048402,-0.0001618862152099,0.0955438911914825,0,0,0
4033,146932.14308932584,2010-12-22 04:58:49,900.4384416949101,7,14,-1.099929690361023,3.720471382141113,12.256596521592956,11.649172197475371,49.19883782627644,42.26426042812404,-0.0001618862152099,0.0955438911914825,0,0,0
4034,146962.1582438334,2010-12-22 04:59:19,930.4535962074856,7,14,-1.0997490882873535,3.714157819747925,12.256596521592956,11.658341819217643,49.19883782627644,42.29834712232925,-0.0001942634553415,0.0955438911914825,0,0,0
4035,146992.17337679735,2010-12-22 04:59:49,960.4687291664256,7,14,-1.099929690361023,3.708168029785156,12.256596521592956,11.6675115245816,49.19883782627644,42.33237666022394,-0.0001295089750783,0.0955438911914825,0,0,0
4036,147022.1884932753,2010-12-22 05:00:19,990.4838456443534,7,14,-1.0997490882873535,3.701692581176758,12.256596521592956,11.67668124240463,49.19883782627644,42.36634951500181,-0.0001618862152099,0.0955438911914825,0,0,0
4037,147052.20363283565,2010-12-22 05:00:49,1020.498985204721,7,14,-1.099568486213684,3.6955409049987793,12.256596521592956,11.685850916665622,49.19883782627644,42.40026358883891,-0.0001295089750783,0.0955438911914825,0,0,0
4038,147082.21889634445,2010-12-22 05:01:19,1050.514248718542,7,14,-1.099929690361023,3.688741683959961,12.256596521592956,11.695020547794527,49.19883782627644,42.43411907395743,-0.0001942634553415,0.0955438911914825,0,0,0
4039,147112.23389027244,2010-12-22 05:01:49,1080.5292426465087,7,14,-1.099568486213684,3.6829137802124015,12.256596521592956,11.704189526950994,49.19883782627644,42.46791443052626,-0.0001295089750783,0.0955438911914825,0,0,0
4040,147142.24900783808,2010-12-22 05:02:19,1110.5443602121434,7,14,-1.099568486213684,3.676438331604004,12.256596521592956,11.713358580236749,49.19883782627644,42.501652871759575,-0.0001942634553415,0.0955438911914825,0,0,0
4041,147172.2641385915,2010-12-22 05:02:49,1140.5594909655952,7,14,-1.0997490882873535,3.670286893844605,12.256596521592956,11.722527614348424,49.19883782627644,42.53533462864943,-0.0001618862152099,0.0955438911914825,0,0,0
4042,147202.2793179459,2010-12-22 05:03:19,1170.5746703801383,7,14,-1.099929690361023,3.664297103881836,12.256596521592956,11.731696630820313,49.19883782627644,42.568961031363536,-0.0001618862152099,0.0955438911914825,0,0,0
4043,147232.29440990282,2010-12-22 05:03:49,1200.5897622768966,7,14,-1.099929690361023,3.658469200134277,12.256596521592956,11.740866227053967,49.19883782627644,42.60253474046207,-0.0001618862152099,0.0955438911914825,0,0,0
4044,147262.3095137493,2010-12-22 05:04:19,1230.6048661233915,7,14,-1.0997490882873535,3.652641296386719,12.256596521592956,11.75003578201336,49.19883782627644,42.63605486558844,-0.0001618862152099,0.0955438911914825,0,0,0
4045,147292.32465505903,2010-12-22 05:04:49,1260.6200074531623,7,14,-1.099929690361023,3.64713716506958,12.256596521592956,11.759205316607323,49.19883782627644,42.66952254585451,-0.0001295089750783,0.0955438911914825,0,0,0
4046,147322.33987287915,2010-12-22 05:05:19,1290.635225313376,7,14,-1.099929690361023,3.6413092613220215,12.256596521592956,11.768374771040978,49.19883782627644,42.70293814865401,-0.0001942634553415,0.0955438911914825,0,0,0
4047,147352.35487794483,2010-12-22 05:05:49,1320.6502303389589,7,14,-1.099929690361023,3.6359670162200928,12.256596521592956,11.777544198963945,49.19883782627644,42.73630361549487,-0.0001618862152099,0.0955438911914825,0,0,0
4048,147382.36998877372,2010-12-22 05:06:19,1350.6653411427667,7,14,-1.0997490882873535,3.630786657333374,12.256596521592956,11.786713604220177,49.19883782627644,42.76962021562585,-0.0001618862152099,0.0955438911914825,0,0,0
4049,147412.38508876058,2010-12-22 05:06:49,1380.6804411597325,7,14,-1.0997490882873535,3.6256062984466553,12.256596521592956,11.795883048463562,49.19883782627644,42.80288884812248,-9.713172767078504e-05,0.0955438911914825,0,0,0
4050,147442.40020613075,2010-12-22 05:07:19,1410.69555852988,7,14,-1.0997490882873535,3.6205878257751465,12.256596521592956,11.80505245478528,49.19883782627644,42.83611018427205,-0.0001295089750783,0.0955438911914825,0,0,0
4051,147472.41739732653,2010-12-22 05:07:49,1440.712749795838,7,14,-1.0997490882873535,3.6155693531036377,12.256596521592956,11.814222544886784,49.19883782627644,42.86928800153836,-0.0001295089750783,0.0955438911914825,0,0,0
4052,147502.43051101055,2010-12-22 05:08:20,1470.7258634899154,7,14,-1.0997490882873535,3.610712766647339,12.256596521592956,11.823391370461836,49.19883782627644,42.90241628839436,-0.0001618862152099,0.0955438911914825,0,0,0
4053,147532.4457082294,2010-12-22 05:08:50,1500.7410606987387,7,14,-1.0997490882873535,3.60601806640625,12.256596521592956,11.832560799137417,49.19883782627644,42.93550271042832,-0.0001295089750783,0.0955438911914825,0,0,0
4054,147562.46064329092,2010-12-22 05:09:20,1530.755995690044,7,14,-1.1001102924346924,3.601323366165161,12.256596521592956,11.841730143205728,49.19883782627644,42.96854671364418,-0.0001295089750783,0.0955438911914825,0,0,0
4055,147592.47576722238,2010-12-22 05:09:50,1560.7711196014698,7,14,-1.0997490882873535,3.596952438354492,12.256596521592956,11.85089955098703,49.19883782627644,43.001549511071495,-0.0001295089750783,0.0955438911914825,0,0,0
4056,147622.49084607165,2010-12-22 05:10:20,1590.7861984407352,7,14,-1.0997490882873535,3.592743396759033,12.256596521592956,11.860068955411345,49.19883782627644,43.03451192266633,-9.713172767078504e-05,0.0955438911914825,0,0,0
4057,147652.5059553617,2010-12-22 05:10:50,1620.8013077558387,7,14,-1.099929690361023,3.5885345935821533,12.256596521592956,11.86923828830588,49.19883782627644,43.06743539969381,-9.713172767078504e-05,0.0955438911914825,0,0,0
4058,147682.521083233,2010-12-22 05:11:20,1650.8164356872678,7,14,-1.099568486213684,3.5844874382019043,12.256596521592956,11.878407693783634,49.19883782627644,43.10032150746749,-6.47544875391759e-05,0.0955438911914825,0,0,0
4059,147712.53638935284,2010-12-22 05:11:50,1680.83174174195,7,14,-1.099929690361023,3.5804402828216557,12.256596521592956,11.887577188169947,49.19883782627644,43.13317062212069,-9.713172767078504e-05,0.0955438911914825,0,0,0
4060,147742.55127661536,2010-12-22 05:12:20,1710.8466289844343,7,14,-1.0997490882873535,3.5763931274414062,12.256596521592956,11.896746584571291,49.19883782627644,43.16598250375248,-0.0001618862152099,0.0955438911914825,0,0,0
4061,147772.56636691315,2010-12-22 05:12:50,1740.8617192872262,7,14,-1.099929690361023,3.572669744491577,12.256596521592956,11.9059160501522,49.19883782627644,43.19875847493448,-9.713172767078504e-05,0.0955438911914825,0,0,0
4062,147802.58149117042,2010-12-22 05:13:20,1770.8768435645625,7,14,-1.099929690361023,3.568622589111328,12.256596521592956,11.915085553938814,49.19883782627644,43.23149982896815,-0.0001618862152099,0.0955438911914825,0,0,0
4063,147832.59659683646,2010-12-22 05:13:50,1800.8919492255727,7,14,-1.0997490882873535,3.565061092376709,12.256596521592956,11.924254982188712,49.19883782627644,43.26420667706818,-9.713172767078504e-05,0.0955438911914825,0,0,0
4064,147862.61166055308,2010-12-22 05:14:20,1830.907012932181,7,14,-1.099568486213684,3.56149959564209,12.256596521592956,11.93342434504114,49.19883782627644,43.2968798050389,-9.713172767078504e-05,0.0955438911914825,0,0,0
4065,147892.62692132007,2010-12-22 05:14:50,1860.9222737793664,7,14,-1.099929690361023,3.5577762126922607,12.256596521592956,11.94259381522382,49.19883782627644,43.32952015866487,-0.0001295089750783,0.0955438911914825,0,0,0
4066,147922.64187105306,2010-12-22 05:15:20,1890.9372234471937,7,14,-1.099929690361023,3.554052829742432,12.256596521592956,11.951763181701246,49.19883782627644,43.36212656774105,-0.0001618862152099,0.0955438911914825,0,0,0
4067,147952.65696595228,2010-12-22 05:15:50,1920.952318346424,7,14,-1.0997490882873535,3.5504913330078125,12.256596521592956,11.960932608954556,49.19883782627644,43.39470014095386,-0.0001295089750783,0.0955438911914825,0,0,0
4068,147982.67205110725,2010-12-22 05:16:20,1950.967403481356,7,14,-1.099929690361023,3.5469298362731934,12.256596521592956,11.970102085451954,49.19883782627644,43.42724037935504,-6.47544875391759e-05,0.0955438911914825,0,0,0
4069,148012.68714940498,2010-12-22 05:16:50,1980.982501804105,7,14,-1.0997490882873535,3.543368339538574,12.256596521592956,11.9792715344015,49.19883782627644,43.45974683009175,-6.47544875391759e-05,0.0955438911914825,0,0,0
4070,148042.70238226253,2010-12-22 05:17:20,2010.9977346365763,7,14,-1.0997490882873535,3.539483070373535,12.256596521592956,11.988440976287333,49.19883782627644,43.49221881932343,-9.713172767078504e-05,0.0955438911914825,0,0,0
4071,148072.71741818998,2010-12-22 05:17:50,2041.012770584107,7,14,-1.099568486213684,3.535759687423706,12.256596521592956,11.997610443784284,49.19883782627644,43.52465608578184,-3.237724376958795e-05,0.0955438911914825,0,0,0
4072,148102.73247815226,2010-12-22 05:18:20,2071.027830666698,7,14,-1.0997490882873535,3.531874418258667,12.256596521592956,12.006779876081056,49.19883782627644,43.55705855852708,-9.713172767078504e-05,0.0955438911914825,0,0,0
4073,148132.7475590266,2010-12-22 05:18:50,2101.0429114307526,7,14,-1.099929690361023,3.527989149093628,12.256596521592956,12.015949300960806,49.19883782627644,43.589426309526175,-0.0001295089750783,0.0955438911914825,0,0,0
4074,148162.7626287181,2010-12-22 05:19:20,2131.057981117241,7,14,-1.099568486213684,3.524103879928589,12.256596521592956,12.025118740151798,49.19883782627644,43.62175846412183,-9.713172767078504e-05,0.0955438911914825,0,0,0
4075,148192.77773161724,2010-12-22 05:19:50,2161.0730839963294,7,14,-1.0997490882873535,3.52005672454834,12.256596521592956,12.03428809093156,49.19883782627644,43.6540533780331,-6.47544875391759e-05,0.0955438911914825,0,0,0
4076,148222.7930678721,2010-12-22 05:20:20,2191.088420251164,7,14,-1.0997490882873535,3.515685796737671,12.256596521592956,12.043457538740531,49.19883782627644,43.68631075852969,-0.0001295089750783,0.0955438911914825,0,0,0
4077,148252.80791320527,2010-12-22 05:20:50,2221.103265604408,7,14,-1.099568486213684,3.511476993560791,12.256596521592956,12.05262689165728,49.19883782627644,43.71852850271578,-0.0001294612884521,0.0955438911914825,0,0,0
4078,148282.82300916713,2010-12-22 05:21:20,2251.118361536207,7,14,-1.0997490882873535,3.506944179534912,12.256596521592956,12.061796306659264,49.19883782627644,43.75070612090767,-0.0001295089750783,0.0955438911914825,0,0,0
4079,148312.8381078658,2010-12-22 05:21:50,2281.133460234892,7,14,-1.0997490882873535,3.5022494792938232,12.256596521592956,12.070965689475743,49.19883782627644,43.782842263461845,-0.0001618862152099,0.0955438911914825,0,0,0
4080,148342.8533420316,2010-12-22 05:22:20,2311.148694410707,7,14,-1.099929690361023,3.4975547790527344,12.256596521592956,12.08013517000345,49.19883782627644,43.81493525404245,-0.0001618862152099,0.0955438911914825,0,0,0
4081,148372.86827719334,2010-12-22 05:22:50,2341.1636295674234,7,14,-1.0997490882873535,3.492374420166016,12.256596521592956,12.089304555870818,49.19883782627644,43.84698224936087,-0.0001295089750783,0.0955438911914825,0,0,0
4082,148402.88348338453,2010-12-22 05:23:20,2371.1788358237613,7,14,-1.0997490882873535,3.486870288848877,12.256596521592956,12.098474015111938,49.19883782627644,43.87898063949611,-0.0001618862152099,0.0955438911914825,0,0,0
4083,148432.898475904,2010-12-22 05:23:50,2401.193828298111,7,14,-1.099568486213684,3.4807186126708984,12.256596521592956,12.107643345820325,49.19883782627644,43.91092612246591,-0.0001942634553415,0.0955438911914825,0,0,0
4084,148462.91355095382,2010-12-22 05:24:20,2431.208903352959,7,14,-1.0997490882873535,3.4742431640625,12.256596521592956,12.116812665593237,49.19883782627644,43.94281322509381,-0.0001618862152099,0.0955438911914825,0,0,0
4085,148492.92878809702,2010-12-22 05:24:50,2461.224140491145,7,14,-1.0997490882873535,3.466958284378052,12.256596521592956,12.125982103076868,49.19883782627644,43.97463702967237,-0.0001942634553415,0.0955438911914825,0,0,0
4086,148522.9438616832,2010-12-22 05:25:20,2491.239214062301,7,14,-1.099929690361023,3.458540201187134,12.256596521592956,12.135151502830904,49.19883782627644,44.0063891206532,-0.0002266406954731,0.0955438911914825,0,0,0
4087,148552.95884979167,2010-12-22 05:25:50,2521.254202195849,7,14,-1.0997490882873535,3.448827028274536,12.256596521592956,12.144320885431789,49.19883782627644,44.038057981254,-0.0002590179501567,0.0955438911914825,0,0,0
4088,148582.97383347416,2010-12-22 05:26:20,2551.2691859635324,7,14,-1.0997490882873535,3.437333106994629,12.256596521592956,12.153490252992624,49.19883782627644,44.06962841114655,-0.0002590179501567,0.0955438911914825,0,0,0
4089,148612.98926381813,2010-12-22 05:26:50,2581.284616192217,7,14,-1.099929690361023,3.4232492446899414,12.256596521592956,12.16265971131069,49.19883782627644,44.10108311782686,-0.0004209041653666,0.0955438911914825,0,0,0
4090,148643.00337291422,2010-12-22 05:27:20,2611.2987253785386,7,14,-1.099929690361023,3.4062511920928955,12.256596521592956,12.171814682089574,49.19883782627644,44.13234802741141,-0.0004856586456298,0.0955438911914825,0,0,0
4091,148673.0035982762,2010-12-22 05:27:50,2641.2989507254592,7,14,-1.099929690361023,3.3852059841156006,12.256596521592956,12.180993734943508,49.19883782627644,44.16352167286458,-0.0006151676061563,0.0955438911914825,0,0,0
4092,148703.01891963396,2010-12-22 05:28:20,2671.3142721233226,7,14,-1.0997490882873535,3.358009099960327,12.256596521592956,12.190163298124489,49.19883782627644,44.19444277224862,-0.0008418083307333,0.0955438911914825,0,0,0
4093,148733.03390559208,2010-12-22 05:28:50,2701.329258076444,7,14,-1.0997490882873535,3.322070598602295,12.256596521592956,12.1993329559308,49.19883782627644,44.225077174601225,-0.0011008263099938,0.0955438911914825,0,0,0
4094,148763.04881552103,2010-12-22 05:29:20,2731.3441679201705,7,14,-1.0997490882873535,3.2739903926849365,12.256596521592956,12.208503021966395,49.19883782627644,44.25533104309295,-0.0014245987404137,0.0955438911914825,0,0,0
4095,148793.0638518946,2010-12-22 05:29:50,2761.3592042887494,7,14,-1.0997490882873535,3.208102941513061,12.256596521592956,12.217673030875751,49.19883782627644,44.28506669197819,-0.0020073889754712,0.0955438911914825,0,0,0
4096,148823.07902562,2010-12-22 05:30:20,2791.374377989073,7,14,-1.0997490882873535,3.115180492401123,12.256596521592956,12.226843244450944,49.19883782627644,44.31408504342848,-0.0028491974808275,0.0955438911914825,0,0,0
4097,148853.09412206308,2010-12-22 05:30:50,2821.3894744421696,7,14,-1.099929690361023,2.9743399620056152,12.256596521592956,12.23601340509856,49.19883782627644,44.34205879596964,-0.0046623228117823,0.0955438911914825,0,0,0
4098,148879.23434566913,2010-12-22 05:31:16,2847.529698103357,7,14,-1.0997490882873535,2.774249315261841,12.256596521592956,12.243999723558312,49.19883782627644,44.36507024066193,-0.0071229459717869,0.0955438911914825,0,0,0
4099,148887.23411441097,2010-12-22 05:31:24,2855.529466805088,7,14,-1.0997490882873535,2.699943780899048,12.256596521592956,12.246443799948294,49.19883782627644,44.37176021448623,-0.0074467184022068,0.0955438911914825,0,0,0
4100,148947.24862698335,2010-12-22 05:32:24,60.01447827594051,8,14,0.0,3.4340953826904297,12.256596521592956,12.246443799948294,49.19883782627644,44.37176021448623,0.0014245510101318,0.0955438911914825,0,0,0
4101,148947.43724270078,2010-12-22 05:32:25,0.187451997085054,9,14,-1.9243103452026844e-05,3.4344191551208496,12.256596521592956,12.24644380095028,49.19883782627644,44.37176021792747,0.0,0.0940094217658042,0,0,0
4102,148952.2650865796,2010-12-22 05:32:30,5.01529580070406,9,14,0.0007031940040178,3.442837238311768,12.256597312850388,12.246443801199671,49.19884054767101,44.37176021878454,0.0011655807029455,0.0940094217658042,0,0,0
