Data_Point,Test_Time(s),Date_Time,Step_Time(s),Step_Index,Cycle_Index,Current(A),Voltage(V),Charge_Capacity(Ah),Discharge_Capacity(Ah),Charge_Energy(Wh),Discharge_Energy(Wh),dV/dt(V/s),Internal_Resistance(Ohm),Is_FC_Data,AC_Impedance(Ohm),ACI_Phase_Angle(Deg)
3221,117229.35237525306,2010-12-21 20:43:43,30.015071922052183,1,12,0.0,3.495126485824585,9.633616326681087,9.618315699558709,38.67845332155612,34.829821957265374,0.0008094310760498,0.0986935049295425,0,0,0
3222,117259.3674222882,2010-12-21 20:44:13,60.030118982236566,1,12,0.0,3.51892352104187,9.633616326681087,9.618315699558709,38.67845332155612,34.829821957265374,0.0005180359003134,0.0986935049295425,0,0,0
3223,117289.38270273416,2010-12-21 20:44:43,90.04539944824236,1,12,0.0,3.536731004714966,9.633616326681087,9.618315699558709,38.67845332155612,34.829821957265374,0.0004209041653666,0.0986935049295425,0,0,0
3224,117319.35070928583,2010-12-21 20:45:13,120.0134059598308,1,12,0.0,3.5509769916534424,9.633616326681087,9.618315699558709,38.67845332155612,34.829821957265374,0.0003885269106831,0.0986935049295425,0,0,0
3225,117349.37000028606,2010-12-21 20:45:43,30.015023010337263,2,12,0.550297200679779,3.69246506690979,9.638203037527331,9.618315699558709,38.695265208763146,34.829821957265374,0.0012303352123126,0.0986935049295425,0,0,0
3226,117379.38491409966,2010-12-21 20:46:13,60.02993674875556,2,12,0.5501165986061096,3.726299285888672,9.642789766270557,9.618315699558709,38.71228410228171,34.829821957265374,0.0007446765666827,0.0986935049295425,0,0,0
3227,117409.40006810596,2010-12-21 20:46:43,90.04509085532074,2,12,0.5501165986061096,3.749610900878906,9.6473764875064,9.618315699558709,38.729432127299255,34.829821957265374,0.0005504131549969,0.0986935049295425,0,0,0
3228,117439.41513576744,2010-12-21 20:47:13,120.06015849672067,2,12,0.5501165986061096,3.766608715057373,9.651963159813391,9.618315699558709,38.74667192156987,34.829821957265374,0.0003885269106831,0.0986935049295425,0,0,0
3229,117469.43009130484,2010-12-21 20:47:43,150.07511393390476,2,12,0.5501165986061096,3.77826452255249,9.656549820420942,9.618315699558709,38.76397643596283,34.829821957265374,0.0002590179501567,0.0986935049295425,0,0,0
3230,117499.44514828472,2010-12-21 20:48:13,180.09017091377387,2,12,0.5501165986061096,3.786035060882568,9.661136462816748,9.618315699558709,38.78132482475513,34.829821957265374,0.0001942634553415,0.0986935049295425,0,0,0
3231,117529.46021926444,2010-12-21 20:48:43,210.1052418934811,2,12,0.5501165986061096,3.792348623275757,9.665723154695344,9.618315699558709,38.79870530435137,34.829821957265374,0.0001618862152099,0.0986935049295425,0,0,0
3232,117559.47528234948,2010-12-21 20:49:13,240.12030497854275,2,12,0.550297200679779,3.797852754592896,9.670309790476104,9.618315699558709,38.816112309344696,34.829821957265374,0.0001295089750783,0.0986935049295425,0,0,0
3233,117589.49038128376,2010-12-21 20:49:43,270.1354040281007,2,12,0.5501165986061096,3.803194999694824,9.674896499507076,9.618315699558709,38.833544114490856,34.829821957265374,0.0001942634553415,0.0986935049295425,0,0,0
3234,117619.5054755364,2010-12-21 20:50:13,300.150498210547,2,12,0.550297200679779,3.807889699935913,9.679483164065294,9.618315699558709,38.85099863512714,34.829821957265374,0.0001295089750783,0.0986935049295425,0,0,0
3235,117649.52047029644,2010-12-21 20:50:43,330.1654929505346,2,12,0.5501165986061096,3.812422513961792,9.68406988782242,9.618315699558709,38.86847514710824,34.829821957265374,9.713172767078504e-05,0.0986935049295425,0,0,0
3236,117679.53554889008,2010-12-21 20:51:13,360.1805715441888,2,12,0.550297200679779,3.817117214202881,9.688656436166577,9.618315699558709,38.885972003801335,34.829821957265374,0.0001295089750783,0.0986935049295425,0,0,0
3237,117709.55058720852,2010-12-21 20:51:43,390.19560984256987,2,12,0.5501165986061096,3.82116436958313,9.69324307517916,9.618315699558709,38.903489136814834,34.829821957265374,6.47544875391759e-05,0.0986935049295425,0,0,0
3238,117739.56578016675,2010-12-21 20:52:13,420.2108028008158,2,12,0.5501165986061096,3.825373411178589,9.697829715761786,9.618315699558709,38.92102546381274,34.829821957265374,0.0001295089750783,0.0986935049295425,0,0,0
3239,117769.5807262657,2010-12-21 20:52:43,450.2257488947496,2,12,0.5501165986061096,3.829420566558838,9.702416337730368,9.618315699558709,38.93858050455281,34.829821957265374,9.713172767078504e-05,0.0986935049295425,0,0,0
3240,117799.5958122678,2010-12-21 20:53:13,480.2408350121263,2,12,0.550297200679779,3.833467483520508,9.707002977187791,9.618315699558709,38.95615387728408,34.829821957265374,0.0001294612884521,0.0986935049295425,0,0,0
3241,117829.6108539947,2010-12-21 20:53:43,510.25587664881454,2,12,0.5501165986061096,3.837352752685547,9.71158958975046,9.618315699558709,38.97374514707669,34.829821957265374,0.0001295089750783,0.0986935049295425,0,0,0
3242,117859.62600105374,2010-12-21 20:54:13,540.2710237679919,2,12,0.5499359965324402,3.841076135635376,9.716176221982575,9.618315699558709,38.991354282160856,34.829821957265374,9.713172767078504e-05,0.0986935049295425,0,0,0
3243,117889.64098053072,2010-12-21 20:54:43,570.2860031647986,2,12,0.550297200679779,3.845123291015625,9.720762834954051,9.618315699558709,39.00898107929655,34.829821957265374,0.0001295089750783,0.0986935049295425,0,0,0
3244,117919.65605328987,2010-12-21 20:55:13,600.3010759439836,2,12,0.5501165986061096,3.848846673965454,9.725349521845953,9.618315699558709,39.026625701075744,34.829821957265374,9.713172767078504e-05,0.0986935049295425,0,0,0
3245,117949.6711934718,2010-12-21 20:55:43,630.316216201085,2,12,0.5499359965324402,3.852570056915283,9.729936170433604,9.618315699558709,39.044287645604335,34.829821957265374,9.713172767078504e-05,0.0986935049295425,0,0,0
3246,117979.68618032214,2010-12-21 20:56:13,660.3312029812649,2,12,0.5501165986061096,3.856455326080322,9.734522784632349,9.618315699558709,39.06196675154132,34.829821957265374,9.713172767078504e-05,0.0986935049295425,0,0,0
3247,118009.70125833937,2010-12-21 20:56:43,690.3462809984846,2,12,0.5501165986061096,3.860178709030152,9.739109461583444,9.618315699558709,39.079663391061416,34.829821957265374,6.47544875391759e-05,0.0986935049295425,0,0,0
3248,118039.71632939928,2010-12-21 20:57:13,720.3613520233041,2,12,0.5499359965324402,3.8637402057647705,9.743696185091236,9.618315699558709,39.09737716352991,34.829821957265374,9.713172767078504e-05,0.0986935049295425,0,0,0
3249,118069.73151629242,2010-12-21 20:57:44,750.3765389314949,2,12,0.5501165986061096,3.8674635887146,9.748282841017389,9.618315699558709,39.11510713062364,34.829821957265374,0.0001618862152099,0.0986935049295425,0,0,0
3250,118099.74647143888,2010-12-21 20:58:14,780.3914941330927,2,12,0.5501165986061096,3.8710250854492183,9.7528694942393,9.618315699558709,39.13285336700467,34.829821957265374,0.0001618862152099,0.0986935049295425,0,0,0
3251,118129.76144759764,2010-12-21 20:58:44,810.406470231692,2,12,0.550297200679779,3.874262809753418,9.757456086833477,9.618315699558709,39.15061505933458,34.829821957265374,6.47544875391759e-05,0.0986935049295425,0,0,0
3252,118159.77662478662,2010-12-21 20:59:14,840.4216474257092,2,12,0.5501165986061096,3.877500534057617,9.762042785286788,9.618315699558709,39.16839227282133,34.829821957265374,9.713172767078504e-05,0.0986935049295425,0,0,0
3253,118189.7916680975,2010-12-21 20:59:44,870.4366908518506,2,12,0.5501165986061096,3.8805763721466064,9.766629432775714,9.618315699558709,39.186183957607376,34.829821957265374,9.713172767078504e-05,0.0986935049295425,0,0,0
3254,118219.80679431466,2010-12-21 21:00:14,900.451816993827,2,12,0.550297200679779,3.8834903240203857,9.771216080079682,9.618315699558709,39.20398947716308,34.829821957265374,9.713172767078504e-05,0.0986935049295425,0,0,0
3255,118249.8217568946,2010-12-21 21:00:44,930.4667795236608,2,12,0.5501165986061096,3.886404275894165,9.775802752651636,9.618315699558709,39.22180816783371,34.829821957265374,9.713172767078504e-05,0.0986935049295425,0,0,0
3256,118279.83703991196,2010-12-21 21:01:14,960.482062566078,2,12,0.550297200679779,3.888994455337525,9.780389463385683,9.618315699558709,39.23963930183509,34.829821957265374,9.713172767078504e-05,0.0986935049295425,0,0,0
3257,118309.85189931518,2010-12-21 21:01:44,990.4969219492352,2,12,0.5501165986061096,3.891422748565674,9.784976144233555,9.618315699558709,39.25748194686922,34.829821957265374,9.713172767078504e-05,0.0986935049295425,0,0,0
3258,118339.8669632674,2010-12-21 21:02:14,1020.5119859215048,2,12,0.5499359965324402,3.8935272693634033,9.789562856858446,9.618315699558709,39.275335717227705,34.829821957265374,3.237724376958795e-05,0.0986935049295425,0,0,0
3259,118369.88203177595,2010-12-21 21:02:44,1050.5270544100126,2,12,0.5501165986061096,3.8959555625915527,9.794149498369292,9.618315699558709,39.29319938664085,34.829821957265374,6.47544875391759e-05,0.0986935049295425,0,0,0
3260,118399.89713137689,2010-12-21 21:03:14,1080.5421540309924,2,12,0.5499359965324402,3.8977363109588623,9.798736143097312,9.618315699558709,39.31107286081237,34.829821957265374,3.237724376958795e-05,0.0986935049295425,0,0,0
3261,118429.91219192062,2010-12-21 21:03:44,1110.5572145546805,2,12,0.5501165986061096,3.9000027179718018,9.803322829176803,9.618315699558709,39.32895593611824,34.829821957265374,9.713172767078504e-05,0.0986935049295425,0,0,0
3262,118459.92737940524,2010-12-21 21:04:14,1140.572402064368,2,12,0.5501165986061096,3.9017834663391113,9.807909550230416,9.618315699558709,39.346848072105615,34.829821957265374,6.47544875391759e-05,0.0986935049295425,0,0,0
3263,118489.94231754438,2010-12-21 21:04:44,1170.5873401734316,2,12,0.5499359965324402,3.903887987136841,9.812496206488282,9.618315699558709,39.36474864555103,34.829821957265374,9.713172767078504e-05,0.0986935049295425,0,0,0
3264,118519.95752860769,2010-12-21 21:05:14,1200.6025513269558,2,12,0.5501165986061096,3.9053449630737305,9.817082898115553,9.618315699558709,39.382657752532765,34.829821957265374,6.47544875391759e-05,0.0986935049295425,0,0,0
3265,118549.97255266564,2010-12-21 21:05:44,1230.6175753748753,2,12,0.5501165986061096,3.90712571144104,9.821669572611627,9.618315699558709,39.40057498658861,34.829821957265374,0.0,0.0986935049295425,0,0,0
3266,118579.98753983676,2010-12-21 21:06:14,1260.632562470841,2,12,0.5501165986061096,3.90906834602356,9.826256280378422,9.618315699558709,39.41850041969708,34.829821957265374,3.237724376958795e-05,0.0986935049295425,0,0,0
3267,118610.00263629992,2010-12-21 21:06:44,1290.6476589339627,2,12,0.550297200679779,3.910849094390869,9.830842975839133,9.618315699558709,39.43643373023574,34.829821957265374,9.713172767078504e-05,0.0986935049295425,0,0,0
3268,118640.01772380072,2010-12-21 21:07:14,1320.662746454832,2,12,0.550297200679779,3.9124679565429688,9.835429664779086,9.618315699558709,39.4543748548962,34.829821957265374,6.47544875391759e-05,0.0986935049295425,0,0,0
3269,118670.03278080064,2010-12-21 21:07:44,1350.6778034296883,2,12,0.5501165986061096,3.9139246940612793,9.84001630292548,9.618315699558709,39.47232348142371,34.829821957265374,3.237724376958795e-05,0.0986935049295425,0,0,0
3270,118700.04786083288,2010-12-21 21:08:14,1380.6928834619227,2,12,0.550297200679779,3.915705442428589,9.844602969099952,9.618315699558709,39.490279928288736,34.829821957265374,3.237724376958795e-05,0.0986935049295425,0,0,0
3271,118730.06302714982,2010-12-21 21:08:44,1410.7080498690973,2,12,0.5501165986061096,3.9174861907958975,9.849189658067564,9.618315699558709,39.50824400646937,34.829821957265374,3.237724376958795e-05,0.0986935049295425,0,0,0
3272,118760.07802649628,2010-12-21 21:09:14,1440.7230491353482,2,12,0.5499359965324402,3.918943166732788,9.85377631621107,9.618315699558709,39.52621565748774,34.829821957265374,0.0,0.0986935049295425,0,0,0
3273,118790.09325263707,2010-12-21 21:09:44,1470.7382753563677,2,12,0.5499359965324402,3.9207239151000977,9.858363012282132,9.618315699558709,39.54419508937941,34.829821957265374,6.47544875391759e-05,0.0986935049295425,0,0,0
3274,118820.10819306193,2010-12-21 21:10:14,1500.7532157210442,2,12,0.5501165986061096,3.922342777252197,9.86294964711374,9.618315699558709,39.56218180710838,34.829821957265374,3.237724376958795e-05,0.0986935049295425,0,0,0
3275,118850.12328793608,2010-12-21 21:10:44,1530.7683105901997,2,12,0.5501165986061096,3.924123525619507,9.86753635069925,9.618315699558709,39.58017646381362,34.829821957265374,6.47544875391759e-05,0.0986935049295425,0,0,0
3276,118880.13835742707,2010-12-21 21:11:14,1560.783380081202,2,12,0.5499359965324402,3.9257423877716064,9.872123034172828,9.618315699558709,39.598178683552014,34.829821957265374,6.47544875391759e-05,0.0986935049295425,0,0,0
3277,118910.15343847686,2010-12-21 21:11:44,1590.7984611309682,2,12,0.5501165986061096,3.927361249923706,9.87670980624528,9.618315699558709,39.61618870441735,34.829821957265374,9.713172767078504e-05,0.0986935049295425,0,0,0
3278,118940.16851772214,2010-12-21 21:12:14,1620.8135403561942,2,12,0.5501165986061096,3.9289801120758057,9.88129655976078,9.618315699558709,39.634206335869926,34.829821957265374,6.47544875391759e-05,0.0986935049295425,0,0,0
3279,118970.18359871174,2010-12-21 21:12:44,1650.8286213458107,2,12,0.5501165986061096,3.930598974227905,9.885883264555758,9.618315699558709,39.65223145567533,34.829821957265374,3.237724376958795e-05,0.0986935049295425,0,0,0
3280,119000.19869807208,2010-12-21 21:13:14,1680.8437207261918,2,12,0.5501165986061096,3.932217836380005,9.890469996812111,9.618315699558709,39.67026417803806,34.829821957265374,0.0,0.0986935049295425,0,0,0
3281,119030.2137762497,2010-12-21 21:13:44,1710.8587988837608,2,12,0.5501165986061096,3.9339985847473145,9.895056765829567,9.618315699558709,39.6883047303117,34.829821957265374,3.237724376958795e-05,0.0986935049295425,0,0,0
3282,119060.22902318726,2010-12-21 21:14:14,1740.8740458864943,2,12,0.5501165986061096,3.935779333114624,9.899643580486815,9.618315699558709,39.706353142967686,34.829821957265374,6.47544875391759e-05,0.0986935049295425,0,0,0
3283,119090.24392581804,2010-12-21 21:14:44,1770.888948457122,2,12,0.550297200679779,3.937398195266724,9.904230297573877,9.618315699558709,39.72440867885603,34.829821957265374,3.237724376958795e-05,0.0986935049295425,0,0,0
3284,119120.25915081102,2010-12-21 21:15:14,1800.9041734701352,2,12,0.5499359965324402,3.938855171203613,9.90881699307696,9.618315699558709,39.74247186000523,34.829821957265374,0.0,0.0986935049295425,0,0,0
3285,119150.27438170364,2010-12-21 21:15:44,1830.919404407892,2,12,0.5501165986061096,3.940635919570923,9.913403718509866,9.618315699558709,39.76054279835996,34.829821957265374,6.47544875391759e-05,0.0986935049295425,0,0,0
3286,119180.28951665256,2010-12-21 21:16:14,1860.934539376834,2,12,0.5501165986061096,3.9422547817230233,9.917990480235911,9.618315699558709,39.77862157124674,34.829821957265374,3.237724376958795e-05,0.0986935049295425,0,0,0
3287,119210.30433111892,2010-12-21 21:16:44,1890.9493537580056,2,12,0.5501165986061096,3.943873643875122,9.922577140187526,9.618315699558709,39.79670762897542,34.829821957265374,0.0,0.0986935049295425,0,0,0
3288,119240.31962654718,2010-12-21 21:17:14,1920.9646491912565,2,12,0.5501165986061096,3.945654392242432,9.927163864189144,9.618315699558709,39.81480159434438,34.829821957265374,3.237724376958795e-05,0.0986935049295425,0,0,0
3289,119270.3345795984,2010-12-21 21:17:44,1950.979602327716,2,12,0.5501165986061096,3.9472732543945312,9.931750595301748,9.618315699558709,39.832903267198354,34.829821957265374,6.47544875391759e-05,0.0986935049295425,0,0,0
3290,119300.34960167644,2010-12-21 21:18:14,1980.9946243104955,2,12,0.5501165986061096,3.949054002761841,9.936337307948644,9.618315699558709,39.85101262379213,34.829821957265374,3.237724376958795e-05,0.0986935049295425,0,0,0
3291,119330.36469183386,2010-12-21 21:18:44,2011.0097144729384,2,12,0.5499359965324402,3.950672864913941,9.940924643435412,9.618315699558709,39.8691322384224,34.829821957265374,3.237724376958795e-05,0.0986935049295425,0,0,0
3292,119360.3798010437,2010-12-21 21:19:14,2041.0248236777672,2,12,0.550297200679779,3.95245361328125,9.945512108031142,9.618315699558709,39.8872601731679,34.829821957265374,6.47544875391759e-05,0.0986935049295425,0,0,0
3293,119390.3949275115,2010-12-21 21:19:44,2071.0399502307664,2,12,0.550297200679779,3.9540724754333496,9.950098945172943,9.618315699558709,39.90539344991927,34.829821957265374,3.237724376958795e-05,0.0986935049295425,0,0,0
3294,119420.40999807016,2010-12-21 21:20:14,2101.055020704214,2,12,0.5501165986061096,3.955853223800659,9.954685622137935,9.618315699558709,39.92353392927257,34.829821957265374,3.237724376958795e-05,0.0986935049295425,0,0,0
3295,119450.42516408637,2010-12-21 21:20:44,2131.0701867905905,2,12,0.550297200679779,3.9576339721679688,9.959272395172132,9.618315699558709,39.941682631665934,34.829821957265374,3.237724376958795e-05,0.0986935049295425,0,0,0
3296,119480.44021219914,2010-12-21 21:21:14,2161.085234838232,2,12,0.5499359965324402,3.959252834320069,9.963859045946569,9.618315699558709,39.95983881158983,34.829821957265374,0.0,0.0986935049295425,0,0,0
3297,119510.4553441506,2010-12-21 21:21:44,2191.1003667896653,2,12,0.5501165986061096,3.961033582687378,9.968445748115776,9.618315699558709,39.978003174740174,34.829821957265374,3.237724376958795e-05,0.0986935049295425,0,0,0
3298,119540.4703546548,2010-12-21 21:22:14,2221.115377293881,2,12,0.550297200679779,3.9629762172698975,9.973032458317425,9.618315699558709,39.99617565235209,34.829821957265374,6.47544875391759e-05,0.0986935049295425,0,0,0
3299,119570.48545582964,2010-12-21 21:22:44,2251.130478468728,2,12,0.5501165986061096,3.964595079421997,9.977619128142129,9.618315699558709,40.014356092401975,34.829821957265374,3.237724376958795e-05,0.0986935049295425,0,0,0
3300,119600.50057409202,2010-12-21 21:23:14,2281.145596721072,2,12,0.5501165986061096,3.966375827789306,9.982205840662262,9.618315699558709,40.03254489750568,34.829821957265374,3.237724376958795e-05,0.0986935049295425,0,0,0
3301,119630.51564770329,2010-12-21 21:23:44,2311.1606704426013,2,12,0.5501165986061096,3.968318462371826,9.986792630289212,9.618315699558709,40.05074226624859,34.829821957265374,6.47544875391759e-05,0.0986935049295425,0,0,0
3302,119660.53087401453,2010-12-21 21:24:14,2341.175896653596,2,12,0.5501165986061096,3.970099210739136,9.991379422276786,9.618315699558709,40.068947945397085,34.829821957265374,6.47544875391759e-05,0.0986935049295425,0,0,0
3303,119690.54584906551,2010-12-21 21:24:44,2371.1908716995754,2,12,0.550297200679779,3.9720418453216553,9.995966153020136,9.618315699558709,40.08716184374915,34.829821957265374,6.47544875391759e-05,0.0986935049295425,0,0,0
3304,119720.5609398094,2010-12-21 21:25:14,2401.2059624384524,2,12,0.5501165986061096,3.973822593688965,10.000552926012574,9.618315699558709,40.10538440201216,34.829821957265374,6.47544875391759e-05,0.0986935049295425,0,0,0
3305,119750.57608635716,2010-12-21 21:25:44,2431.221109046357,2,12,0.550297200679779,3.975765228271485,10.00513967607661,9.618315699558709,40.123615438565146,34.829821957265374,9.713172767078504e-05,0.0986935049295425,0,0,0
3306,119780.59112390869,2010-12-21 21:26:14,2461.2361465377303,2,12,0.5499359965324402,3.977384090423584,10.009726494799612,9.618315699558709,40.14185547795362,34.829821957265374,3.237724376958795e-05,0.0986935049295425,0,0,0
3307,119810.60621059246,2010-12-21 21:26:44,2491.2512332215165,2,12,0.550297200679779,3.979650497436523,10.014313224595307,9.618315699558709,40.16010346637552,34.829821957265374,6.47544875391759e-05,0.0986935049295425,0,0,0
3308,119840.62132196268,2010-12-21 21:27:14,2521.266344621809,2,12,0.5501165986061096,3.981431245803833,10.018899895231732,9.618315699558709,40.17836053181262,34.829821957265374,6.47544875391759e-05,0.0986935049295425,0,0,0
3309,119870.63653518636,2010-12-21 21:27:44,2551.2815578204227,2,12,0.5501165986061096,3.9835357666015625,10.02348658131276,9.618315699558709,40.19662658676243,34.829821957265374,9.713172767078504e-05,0.0986935049295425,0,0,0
3310,119900.65151785631,2010-12-21 21:28:14,2581.296540510424,2,12,0.5501165986061096,3.985316514968872,10.02807316966802,9.618315699558709,40.21490129056962,34.829821957265374,0.0,0.0986935049295425,0,0,0
3311,119930.66660054016,2010-12-21 21:28:44,2611.311623169194,2,12,0.5501165986061096,3.9874210357666016,10.032659798339395,9.618315699558709,40.23318525584403,34.829821957265374,6.47544875391759e-05,0.0986935049295425,0,0,0
3312,119960.68172145911,2010-12-21 21:29:14,2641.3267441533358,2,12,0.5501165986061096,3.989363670349121,10.037246399373345,9.618315699558709,40.25147829618798,34.829821957265374,6.47544875391759e-05,0.0986935049295425,0,0,0
3313,119990.69682812763,2010-12-21 21:29:45,2671.341850851928,2,12,0.5501165986061096,3.9914681911468506,10.041833004338743,9.618315699558709,40.26978075018758,34.829821957265374,6.47544875391759e-05,0.0986935049295425,0,0,0
3314,120020.71201981272,2010-12-21 21:30:15,2701.3570424517934,2,12,0.5501165986061096,3.99341082572937,10.046419664302142,9.618315699558709,40.28809288892347,34.829821957265374,3.237724376958795e-05,0.0986935049295425,0,0,0
3315,120050.72713692224,2010-12-21 21:30:45,2731.372159561293,2,12,0.5501165986061096,3.995515108108521,10.051006312611108,9.618315699558709,40.306414522215405,34.829821957265374,6.47544875391759e-05,0.0986935049295425,0,0,0
3316,120080.74216052904,2010-12-21 21:31:15,2761.387183223252,2,12,0.5501165986061096,3.99778151512146,10.05559299512158,9.618315699558709,40.324746034343015,34.829821957265374,6.47544875391759e-05,0.0986935049295425,0,0,0
3317,120110.75720309305,2010-12-21 21:31:45,2791.402225757173,2,12,0.5501165986061096,3.9998860359191895,10.060179626236,9.618315699558709,40.34308704436232,34.829821957265374,6.47544875391759e-05,0.0986935049295425,0,0,0
3318,120140.77227864914,2010-12-21 21:32:15,2821.4173012831934,2,12,0.550297200679779,4.002152442932129,10.064766303052387,9.618315699558709,40.36143824911069,34.829821957265374,9.70840483205393e-05,0.0986935049295425,0,0,0
3319,120170.78737472129,2010-12-21 21:32:45,2851.432397355342,2,12,0.5501165986061096,4.0042572021484375,10.06935294586407,9.618315699558709,40.37979941474177,34.829821957265374,6.47544875391759e-05,0.0986935049295425,0,0,0
3320,120200.80269861037,2010-12-21 21:33:15,2881.4477213095665,2,12,0.5501165986061096,4.006523609161377,10.073939633773293,9.618315699558709,40.39817092916755,34.829821957265374,6.47544875391759e-05,0.0986935049295425,0,0,0
3321,120230.81761949151,2010-12-21 21:33:45,2911.4626422158217,2,12,0.5501165986061096,4.008627891540527,10.07852628754309,9.618315699558709,40.41655264865342,34.829821957265374,3.23295607813634e-05,0.0986935049295425,0,0,0
3322,120260.83266791512,2010-12-21 21:34:15,2941.4776905541867,2,12,0.5501165986061096,4.010894298553467,10.083112943402051,9.618315699558709,40.43494477758863,34.829821957265374,3.23295607813634e-05,0.0986935049295425,0,0,0
3323,120290.84777026788,2010-12-21 21:34:45,2971.4927929019523,2,12,0.5499359965324402,4.013322830200195,10.087699589456502,9.618315699558709,40.45334741785452,34.829821957265374,3.24249267578125e-05,0.0986935049295425,0,0,0
3324,120320.86290439976,2010-12-21 21:35:15,3001.5079270287983,2,12,0.5499359965324402,4.015589237213135,10.092286234798998,9.618315699558709,40.471760715903486,34.829821957265374,3.24249267578125e-05,0.0986935049295425,0,0,0
3325,120350.87797501856,2010-12-21 21:35:45,3031.522997647608,2,12,0.5499359965324402,4.018017292022705,10.096872949979955,9.618315699558709,40.490185099866096,34.829821957265374,3.23295607813634e-05,0.0986935049295425,0,0,0
3326,120380.89313727542,2010-12-21 21:36:15,3061.5381599445545,2,12,0.5501165986061096,4.020445823669434,10.101459637022712,9.618315699558709,40.5086202092096,34.829821957265374,6.47544875391759e-05,0.0986935049295425,0,0,0
3327,120410.9081701954,2010-12-21 21:36:45,3091.553192824452,2,12,0.5499359965324402,4.022873878479004,10.106046256246604,9.618315699558709,40.52706612646025,34.829821957265374,6.47544875391759e-05,0.0986935049295425,0,0,0
3328,120440.92331263292,2010-12-21 21:37:15,3121.5683352619785,2,12,0.5501165986061096,4.025140285491943,10.11063298261444,9.618315699558709,40.545523624413526,34.829821957265374,0.0,0.0986935049295425,0,0,0
3329,120470.93848395732,2010-12-21 21:37:45,3151.5835065964147,2,12,0.5501165986061096,4.027730464935303,10.115219656059866,9.618315699558709,40.5639921709437,34.829821957265374,6.47544875391759e-05,0.0986935049295425,0,0,0
3330,120500.95347041172,2010-12-21 21:38:15,3181.598493040759,2,12,0.550297200679779,4.030320644378662,10.119806343037924,9.618315699558709,40.58247214794591,34.829821957265374,6.47544875391759e-05,0.0986935049295425,0,0,0
3331,120530.96858942596,2010-12-21 21:38:45,3211.6136120750484,2,12,0.5499359965324402,4.032749176025391,10.12439297099805,9.618315699558709,40.6009633689921,34.829821957265374,6.47544875391759e-05,0.0986935049295425,0,0,0
3332,120560.98368124252,2010-12-21 21:39:15,3241.6287038715573,2,12,0.5504778623580933,4.035501003265381,10.128979669894685,9.618315699558709,40.61946650328014,34.829821957265374,9.71794142969884e-05,0.0986935049295425,0,0,0
3333,120590.9988192039,2010-12-21 21:39:45,3271.643841953245,2,12,0.550297200679779,4.03809118270874,10.13356636506706,9.618315699558709,40.63798133496604,34.829821957265374,9.71794142969884e-05,0.0986935049295425,0,0,0
3334,120621.0140152398,2010-12-21 21:40:15,3301.6590379440377,2,12,0.5499359965324402,4.04035758972168,10.13815312412258,9.618315699558709,40.656508192703775,34.829821957265374,6.47544875391759e-05,0.0986935049295425,0,0,0
3335,120651.0289751832,2010-12-21 21:40:45,3331.673997812248,2,12,0.5501165986061096,4.04310941696167,10.142739772997388,9.618315699558709,40.67504653992026,34.829821957265374,6.47544875391759e-05,0.0986935049295425,0,0,0
3336,120681.04416596102,2010-12-21 21:41:15,3361.689188660243,2,12,0.5501165986061096,4.045699596405029,10.14732649650094,9.618315699558709,40.693597270226384,34.829821957265374,6.47544875391759e-05,0.0986935049295425,0,0,0
3337,120711.059298133,2010-12-21 21:41:45,3391.7043207670627,2,12,0.5501165986061096,4.048451900482178,10.151913154555231,9.618315699558709,40.71215988628118,34.829821957265374,6.47544875391759e-05,0.0986935049295425,0,0,0
3338,120741.07433219584,2010-12-21 21:42:15,3421.7193549251406,2,12,0.5501165986061096,4.051203727722168,10.15649982805158,9.618315699558709,40.73073485103198,34.829821957265374,9.70840483205393e-05,0.0986935049295425,0,0,0
3339,120771.08949443763,2010-12-21 21:42:45,3451.7345170667004,2,12,0.550297200679779,4.053793907165527,10.161086561864392,9.618315699558709,40.74932243775015,34.829821957265374,6.47544875391759e-05,0.0986935049295425,0,0,0
3340,120801.1046204894,2010-12-21 21:43:15,3481.749643118452,2,12,0.5499359965324402,4.056546211242676,10.165673274056768,9.618315699558709,40.76792242200052,34.829821957265374,9.71794142969884e-05,0.0986935049295425,0,0,0
3341,120831.11959804664,2010-12-21 21:43:45,3511.764620685706,2,12,0.5499359965324402,4.059460163116455,10.170259905551942,9.618315699558709,40.78653472309293,34.829821957265374,9.71794142969884e-05,0.0986935049295425,0,0,0
3342,120861.13499875684,2010-12-21 21:44:15,3541.7800214761346,2,12,0.5501165986061096,4.062050342559815,10.174846715351254,9.618315699558709,40.80516027692492,34.829821957265374,6.47544875391759e-05,0.0986935049295425,0,0,0
3343,120891.14977544424,2010-12-21 21:44:45,3571.7947980732824,2,12,0.5501165986061096,4.064964294433594,10.179433299378124,9.618315699558709,40.82379769848557,34.829821957265374,6.47544875391759e-05,0.0986935049295425,0,0,0
3344,120921.16489684442,2010-12-21 21:45:15,3601.809919483484,2,12,0.5499359965324402,4.067554473876953,10.184019998137495,9.618315699558709,40.842448556753226,34.829821957265374,6.47544875391759e-05,0.0986935049295425,0,0,0
3345,120951.18000331245,2010-12-21 21:45:45,3631.8250259414776,2,12,0.5501165986061096,4.070468425750732,10.18860663666858,9.618315699558709,40.86111220523093,34.829821957265374,6.47544875391759e-05,0.0986935049295425,0,0,0
3346,120981.19521097728,2010-12-21 21:46:15,3661.8402336965446,2,12,0.5501165986061096,4.073382377624512,10.193193311976088,9.618315699558709,40.87978904984762,34.829821957265374,6.47544875391759e-05,0.0986935049295425,0,0,0
3347,121011.21017597824,2010-12-21 21:46:45,3691.855198617328,2,12,0.550297200679779,4.076457977294922,10.197779964506935,9.618315699558709,40.89847910856589,34.829821957265374,0.0001295089750783,0.0986935049295425,0,0,0
3348,121041.22531465642,2010-12-21 21:47:15,3721.870337285476,2,12,0.550297200679779,4.079371929168701,10.202366654124488,9.618315699558709,40.91718274772393,34.829821957265374,9.70840483205393e-05,0.0986935049295425,0,0,0
3349,121071.24038615744,2010-12-21 21:47:45,3751.885408791493,2,12,0.550297200679779,4.0822858810424805,10.20695335623856,9.618315699558709,40.93589996328635,34.829821957265374,9.70840483205393e-05,0.0986935049295425,0,0,0
3350,121101.25575354976,2010-12-21 21:48:15,3781.900776258999,2,12,0.5501165986061096,4.08519983291626,10.211540064635267,9.618315699558709,40.954630835411024,34.829821957265374,9.70840483205393e-05,0.0986935049295425,0,0,0
3351,121131.27057991074,2010-12-21 21:48:45,3811.915602564844,2,12,0.550297200679779,4.088275909423828,10.21612667744668,9.618315699558709,40.97337510355358,34.829821957265374,9.71794142969884e-05,0.0986935049295425,0,0,0
3352,121161.28589485754,2010-12-21 21:49:15,3841.930917591854,2,12,0.5501165986061096,4.091189861297607,10.220713367918432,9.618315699558709,40.99213360634878,34.829821957265374,3.24249267578125e-05,0.0986935049295425,0,0,0
3353,121191.30097069433,2010-12-21 21:49:45,3871.9459934085976,2,12,0.5499359965324402,4.094265460968018,10.225300021918612,9.618315699558709,41.01090585080863,34.829821957265374,9.70840483205393e-05,0.0986935049295425,0,0,0
3354,121221.31589545016,2010-12-21 21:50:15,3901.960918089245,2,12,0.5501165986061096,4.097341537475586,10.229886664581407,9.618315699558709,41.02969209597889,34.829821957265374,9.71794142969884e-05,0.0986935049295425,0,0,0
3355,121251.33100077033,2010-12-21 21:50:45,3931.9760233993834,2,12,0.5501165986061096,4.100417137145996,10.23447335328949,9.618315699558709,41.04849272873666,34.829821957265374,6.47544875391759e-05,0.0986935049295425,0,0,0
3356,121281.34619832502,2010-12-21 21:51:15,3961.991221014216,2,12,0.550297200679779,4.103654861450195,10.23906011979352,9.618315699558709,41.06730798628606,34.829821957265374,9.70840483205393e-05,0.0986935049295425,0,0,0
3357,121311.36119548102,2010-12-21 21:51:45,3992.0062181100666,2,12,0.5499359965324402,4.106730937957764,10.243646772181869,9.618315699558709,41.08613722126721,34.829821957265374,6.47544875391759e-05,0.0986935049295425,0,0,0
3358,121341.37630066584,2010-12-21 21:52:15,4022.0213232948913,2,12,0.550297200679779,4.109968662261963,10.248233408704388,9.618315699558709,41.1049808745951,34.829821957265374,9.71794142969884e-05,0.0986935049295425,0,0,0
3359,121371.39145358444,2010-12-21 21:52:45,4052.0364762385625,2,12,0.5501165986061096,4.113044261932373,10.252820058504048,9.618315699558709,41.12383926354232,34.829821957265374,9.70840483205393e-05,0.0986935049295425,0,0,0
3360,121401.40655303,2010-12-21 21:53:15,4082.0515757542807,2,12,0.5501165986061096,4.116443634033203,10.257406667159287,9.618315699558709,41.1427122251189,34.829821957265374,0.0001295089750783,0.0986935049295425,0,0,0
3361,121431.42174143191,2010-12-21 21:53:45,4112.066764040902,2,12,0.5501165986061096,4.119519710540772,10.261993366895144,9.618315699558709,41.1616004765172,34.829821957265374,6.47544875391759e-05,0.0986935049295425,0,0,0
3362,121461.436719736,2010-12-21 21:54:15,4142.081742365039,2,12,0.5501165986061096,4.122919082641602,10.266580031156536,9.618315699558709,41.1805035427851,34.829821957265374,9.70840483205393e-05,0.0986935049295425,0,0,0
3363,121491.45181194854,2010-12-21 21:54:45,4172.096834577584,2,12,0.5501165986061096,4.12631893157959,10.27116667816992,9.618315699558709,41.19942156399087,34.829821957265374,9.71794142969884e-05,0.0986935049295425,0,0,0
3364,121521.46692942394,2010-12-21 21:55:15,4202.111952052994,2,12,0.5501165986061096,4.129556655883789,10.275753383873262,9.618315699558709,41.21835505134867,34.829821957265374,6.47544875391759e-05,0.0986935049295425,0,0,0
3365,121551.48201772675,2010-12-21 21:55:45,4232.127040385883,2,12,0.5501165986061096,4.132956027984619,10.280340020282758,9.618315699558709,41.23730357536163,34.829821957265374,6.47544875391759e-05,0.0986935049295425,0,0,0
3366,121581.4972827794,2010-12-21 21:56:15,4262.142305408459,2,12,0.5501165986061096,4.136193752288818,10.284926734134654,9.618315699558709,41.25626776457944,34.829821957265374,9.70840483205393e-05,0.0986935049295425,0,0,0
3367,121611.5122257556,2010-12-21 21:56:45,4292.157248414709,2,12,0.5501165986061096,4.1397552490234375,10.289513352776163,9.618315699558709,41.27524710610557,34.829821957265374,9.70840483205393e-05,0.0986935049295425,0,0,0
3368,121641.52735556668,2010-12-21 21:57:15,4322.172378225816,2,12,0.5501165986061096,4.143155097961426,10.294100067372906,9.618315699558709,41.2942425506274,34.829821957265374,9.71794142969884e-05,0.0986935049295425,0,0,0
3369,121671.54244664642,2010-12-21 21:57:45,4352.187469280479,2,12,0.5501165986061096,4.146554470062256,10.298686738038922,9.618315699558709,41.31325369439946,34.829821957265374,6.47544875391759e-05,0.0986935049295425,0,0,0
3370,121701.55753824244,2010-12-21 21:58:15,4382.202560871477,2,12,0.550297200679779,4.150278091430664,10.303273357466315,9.618315699558709,41.33228066376179,34.829821957265374,0.0001295089750783,0.0986935049295425,0,0,0
3371,121731.57264106136,2010-12-21 21:58:45,4412.217663690414,2,12,0.5501165986061096,4.153677463531494,10.30786004133039,9.618315699558709,41.35132394223186,34.829821957265374,9.70840483205393e-05,0.0986935049295425,0,0,0
3372,121761.58775850672,2010-12-21 21:59:15,4442.232781135749,2,12,0.5501165986061096,4.157238960266113,10.312446737131758,9.618315699558709,41.37038330878418,34.829821957265374,0.0001295089750783,0.0986935049295425,0,0,0
3373,121791.60291604682,2010-12-21 21:59:45,4472.247938771096,2,12,0.5501165986061096,4.160638809204102,10.317033418168103,9.618315699558709,41.38945883711274,34.829821957265374,9.71794142969884e-05,0.0986935049295425,0,0,0
3374,121821.617969944,2010-12-21 22:00:15,4502.262992583082,2,12,0.550297200679779,4.164200305938721,10.321620068748055,9.618315699558709,41.40855060285858,34.829821957265374,6.47544875391759e-05,0.0986935049295425,0,0,0
3375,121851.6330920359,2010-12-21 22:00:45,4532.278114664955,2,12,0.5499359965324402,4.167599678039551,10.326206718489017,9.618315699558709,41.4276586540914,34.829821957265374,3.23295607813634e-05,0.0986935049295425,0,0,0
3376,121881.64824569137,2010-12-21 22:01:15,4562.293268380547,2,12,0.5501165986061096,4.17148494720459,10.330793326322803,9.618315699558709,41.44678310931341,34.829821957265374,0.0001295089750783,0.0986935049295425,0,0,0
3377,121911.66326308771,2010-12-21 22:01:46,4592.308285741827,2,12,0.5501165986061096,4.175208568572998,10.33537999436359,9.618315699558709,41.46592452693156,34.829821957265374,0.0001295089750783,0.0986935049295425,0,0,0
3378,121941.67849838133,2010-12-21 22:02:16,4622.32352109056,2,12,0.550297200679779,4.178931713104248,10.339966567790244,9.618315699558709,41.48508227651493,34.829821957265374,0.0001295089750783,0.0986935049295425,0,0,0
3379,121971.69360458366,2010-12-21 22:02:46,4652.338627212718,2,12,0.5501165986061096,4.182493209838867,10.344553205433485,9.618315699558709,41.50425718443078,34.829821957265374,9.70840483205393e-05,0.0986935049295425,0,0,0
3380,122001.7087302695,2010-12-21 22:03:16,4682.353752908583,2,12,0.5501165986061096,4.186216831207275,10.34913990849978,9.618315699558709,41.52344930338557,34.829821957265374,9.71794142969884e-05,0.0986935049295425,0,0,0
3381,122031.72370604232,2010-12-21 22:03:46,4712.36872867636,2,12,0.5501165986061096,4.189939975738525,10.353726550612668,9.618315699558709,41.5426583385554,34.829821957265374,6.47544875391759e-05,0.0986935049295425,0,0,0
3382,122061.7388900182,2010-12-21 22:04:16,4742.383912647242,2,12,0.5501165986061096,4.193663597106934,10.358313178501389,9.618315699558709,41.56188446595963,34.829821957265374,9.71794142969884e-05,0.0986935049295425,0,0,0
3383,122091.75387040748,2010-12-21 22:04:46,4772.398893036519,2,12,0.5499359965324402,4.197386741638184,10.362899735593473,9.618315699558709,41.58112763406938,34.829821957265374,9.71794142969884e-05,0.0986935049295425,0,0,0
3384,122110.58168281952,2010-12-21 22:05:04,4791.226705448558,2,12,0.550297200679779,4.200138568878174,10.365776776149552,9.618315699558709,41.59320734854479,34.829821957265374,0.0001618385285837,0.0986935049295425,0,0,0
3385,122140.6007332454,2010-12-21 22:05:35,30.01511052310943,3,12,0.0,4.112558841705322,10.365776776149552,9.618315699558709,41.59320734854479,34.829821957265374,-0.0003561019839253,0.0986935049295425,0,0,0
3386,122170.61603711966,2010-12-21 22:06:05,60.03041448759027,3,12,0.0,4.101550579071045,10.365776776149552,9.618315699558709,41.59320734854479,34.829821957265374,-0.0001942634553415,0.0986935049295425,0,0,0
3387,122200.63093446728,2010-12-21 22:06:35,90.04531173998373,3,12,0.0,4.094913005828857,10.365776776149552,9.618315699558709,41.59320734854479,34.829821957265374,-0.0001619339018361,0.0986935049295425,0,0,0
3388,122230.59913580368,2010-12-21 22:07:05,120.0135131014486,3,12,0.0,4.090866088867188,10.365776776149552,9.618315699558709,41.59320734854479,34.829821957265374,-9.70840483205393e-05,0.0986935049295425,0,0,0
3389,122230.61302203548,2010-12-21 22:07:05,0.015637277764283,4,12,1.0039876699447632,4.199653148651123,10.365781137159043,9.618315699558709,41.59322566327203,34.829821957265374,0.0,0.0986935049295425,0,0,0
3390,122231.44112790508,2010-12-21 22:07:06,0.843743172432939,4,12,0.9534171223640442,4.199814796447754,10.366004835415415,9.618315699558709,41.59416512142487,34.829821957265374,3.23295607813634e-05,0.0986935049295425,0,0,0
3391,122233.31611535425,2010-12-21 22:07:07,2.718730671709986,4,12,0.903207778930664,4.199653148651123,10.366487341907412,9.618315699558709,41.59619148757413,34.829821957265374,0.0,0.0986935049295425,0,0,0
3392,122236.20666260993,2010-12-21 22:07:10,5.609277852193728,4,12,0.8529983758926392,4.199653148651123,10.367191380217614,9.618315699558709,41.59914823128911,34.829821957265374,3.24249267578125e-05,0.0986935049295425,0,0,0
3393,122240.20663467656,2010-12-21 22:07:14,9.609250014073483,4,12,0.8029695749282837,4.199653148651123,10.368110113480052,9.618315699558709,41.60300663176643,34.829821957265374,0.0,0.0986935049295425,0,0,0
3394,122245.45652378869,2010-12-21 22:07:20,14.859139030973228,4,12,0.752940833568573,4.199653148651123,10.369243166038713,9.618315699558709,41.60776508619772,34.829821957265374,-3.23295607813634e-05,0.0986935049295425,0,0,0
3395,122252.33138790863,2010-12-21 22:07:26,21.734003175980227,4,12,0.7029120922088623,4.199653148651123,10.370631196647484,9.618315699558709,41.613594400500425,34.829821957265374,-3.23295607813634e-05,0.0986935049295425,0,0,0
3396,122261.42502064897,2010-12-21 22:07:36,30.82763589123704,4,12,0.6528832912445068,4.199491024017334,10.37234053026884,9.618315699558709,41.620773095950526,34.829821957265374,-6.47544875391759e-05,0.0986935049295425,0,0,0
3397,122274.22166328198,2010-12-21 22:07:48,43.624278524250734,4,12,0.6026738882064819,4.199491024017334,10.374567092524872,9.618315699558709,41.630124001539066,34.829821957265374,-6.47544875391759e-05,0.0986935049295425,0,0,0
3398,122293.42443975764,2010-12-21 22:08:08,62.82705503001701,4,12,0.5526451468467712,4.199653148651123,10.37763878724724,9.618315699558709,41.64302420562084,34.829821957265374,0.0,0.0986935049295425,0,0,0
3399,122326.31450936588,2010-12-21 22:08:40,95.71712460815954,4,12,0.5026163458824158,4.199653148651123,10.382438945512035,9.618315699558709,41.66318339162446,34.829821957265374,0.0,0.0986935049295425,0,0,0
3400,122386.7667253252,2010-12-21 22:09:41,156.16934056247663,4,12,0.4525876045227051,4.199653148651123,10.390420991916468,9.618315699558709,41.696705522024175,34.829821957265374,0.0,0.0986935049295425,0,0,0
3401,122481.09307347464,2010-12-21 22:11:15,250.4956887169225,4,12,0.402558833360672,4.199653148651123,10.401597738653557,9.618315699558709,41.74364511262447,34.829821957265374,-3.23295607813634e-05,0.0986935049295425,0,0,0
3402,122600.35663279497,2010-12-21 22:13:14,369.7592480422436,4,12,0.3525300621986389,4.199653148651123,10.414088603218072,9.618315699558709,41.79610381699907,34.829821957265374,0.0,0.0986935049295425,0,0,0
3403,122742.791680949,2010-12-21 22:15:37,512.1942961963039,4,12,0.3025012910366058,4.199814796447754,10.427027860639535,9.618315699558709,41.85044562610224,34.829821957265374,3.23295607813634e-05,0.0986935049295425,0,0,0
3404,122913.86686674906,2010-12-21 22:18:28,683.26948199134,4,12,0.2524725198745727,4.199814796447754,10.440185936075103,9.618315699558709,41.90570643886856,34.829821957265374,3.23295607813634e-05,0.0986935049295425,0,0,0
3405,123126.01943514078,2010-12-21 22:22:00,895.4220503830686,4,12,0.2024437636137008,4.199814796447754,10.453545809892088,9.618315699558709,41.96181475667796,34.829821957265374,0.0,0.0986935049295425,0,0,0
3406,123410.28021729908,2010-12-21 22:26:44,1179.6828325714373,4,12,0.1522343754768371,4.199814796447754,10.46746494579316,9.618315699558709,42.02027189956341,34.829821957265374,0.0,0.0986935049295425,0,0,0
3407,123842.4446311713,2010-12-21 22:33:57,1611.8472464135752,4,12,0.102205604314804,4.199653148651123,10.482534042735848,9.618315699558709,42.08355848815658,34.829821957265374,0.0,0.0986935049295425,0,0,0
3408,124688.82072852163,2010-12-21 22:48:03,2458.2233437639047,4,12,0.0519962273538112,4.199653148651123,10.49993350998908,9.618315699558709,42.15663209342657,34.829821957265374,0.0,0.0986935049295425,0,0,0
3409,124752.3355551047,2010-12-21 22:49:06,2521.7381704923405,4,12,0.0498289167881011,4.199653148651123,10.5008414668776,9.618315699558709,42.16044528739972,34.829821957265374,0.0,0.0986935049295425,0,0,0
3410,124782.35292508258,2010-12-21 22:49:37,30.015090763939497,5,12,0.0,4.191558837890625,10.5008414668776,9.618315699558709,42.16044528739972,34.829821957265374,-9.71794142969884e-05,0.0986935049295425,0,0,0
3411,124812.35239462872,2010-12-21 22:50:07,60.01456030506684,5,12,0.0,4.190425872802734,10.5008414668776,9.618315699558709,42.16044528739972,34.829821957265374,-3.23295607813634e-05,0.0986935049295425,0,0,0
3412,124812.54382664012,2010-12-21 22:50:07,0.187834513963594,6,12,-1.9243103452026844e-05,4.190263748168945,10.5008414668776,9.61831570056274,42.16044528739972,34.82982196147254,0.0,0.0970755815505981,0,0,0
3413,124817.37145763918,2010-12-21 22:50:12,5.015465492976754,6,12,0.0008838032954372,4.190425872802734,10.500842260626095,9.61831570072768,42.1604486135466,34.829821962163685,-3.23295607813634e-05,0.0970755815505981,0,0,0
3414,124847.39036491992,2010-12-21 22:50:42,30.015222742362727,7,12,-1.099929690361023,4.009599208831787,10.500842260626095,9.62748535619894,42.1604486135466,34.86680066116233,-0.0010037422180175,0.0970755815505981,0,0,0
3415,124877.405372161,2010-12-21 22:51:12,60.03022999849626,7,12,-1.0997490882873535,3.981269359588623,10.500842260626095,9.636654860292944,42.1604486135466,34.90342722230061,-0.0005827903514727,0.0970755815505981,0,0,0
3416,124907.42046694495,2010-12-21 22:51:42,90.04532476238948,7,12,-1.0997490882873535,3.961357355117798,10.500842260626095,9.645824295565731,42.1604486135466,34.93983554406953,-0.0004532813909463,0.0970755815505981,0,0,0
3417,124937.4360320994,2010-12-21 22:52:12,120.06088991181905,7,12,-1.099929690361023,3.945654392242432,10.500842260626095,9.65499392358604,42.1604486135466,34.97608455047287,-0.0003561496851034,0.0970755815505981,0,0,0
3418,124967.45082949327,2010-12-21 22:52:42,150.0756873207559,7,12,-1.099929690361023,3.932541608810425,10.500842260626095,9.664163323406957,42.1604486135466,35.01220203121032,-0.0002913951757363,0.0970755815505981,0,0,0
3419,124997.46626578206,2010-12-21 22:53:12,180.09112371478255,7,12,-1.099929690361023,3.9204001426696777,10.500842260626095,9.673332952411666,42.1604486135466,35.04820527362884,-0.0003237724304199,0.0970755815505981,0,0,0
3420,125027.48105593794,2010-12-21 22:53:42,210.10591379047088,7,12,-1.099929690361023,3.90906834602356,10.500842260626095,9.682502364481822,42.1604486135466,35.08410163506949,-0.0003237724304199,0.0970755815505981,0,0,0
3421,125057.49605824176,2010-12-21 22:54:12,240.12091605919343,7,12,-1.099929690361023,3.898545742034912,10.500842260626095,9.69167187994426,42.1604486135466,35.119897740130895,-0.0002590179501567,0.0970755815505981,0,0,0
3422,125087.49752276731,2010-12-21 22:54:42,270.1223806799998,7,12,-1.0997490882873535,3.8881850242614746,10.500842260626095,9.700837199885289,42.1604486135466,35.15558099886026,-0.0002590179501567,0.0970755815505981,0,0,0
3423,125117.5107078791,2010-12-21 22:55:12,300.13556674416725,7,12,-1.099929690361023,3.877986192703247,10.500842260626095,9.71000614134684,42.1604486135466,35.191184358409025,-0.0002913951757363,0.0970755815505981,0,0,0
3424,125147.525874572,2010-12-21 22:55:42,330.1507324546082,7,12,-1.099929690361023,3.86811113357544,10.500842260626095,9.719175632835498,42.1604486135466,35.226698424289694,-0.0002590179501567,0.0970755815505981,0,0,0
3425,125177.5408658584,2010-12-21 22:56:12,360.1657236758395,7,12,-1.099929690361023,3.858559846878052,10.500842260626095,9.728345130206034,42.1604486135466,35.262123255637974,-0.0002590179501567,0.0970755815505981,0,0,0
3426,125207.5561095078,2010-12-21 22:56:42,390.180967350291,7,12,-1.099929690361023,3.849008560180664,10.500842260626095,9.737514723170312,42.1604486135466,35.297461164713226,-0.0002590179501567,0.0970755815505981,0,0,0
3427,125237.57110649838,2010-12-21 22:57:12,420.19596433586656,7,12,-1.0997490882873535,3.839781045913696,10.500842260626095,9.746684227910002,42.1604486135466,35.33271313549962,-0.0002913951757363,0.0970755815505981,0,0,0
3428,125267.5864570187,2010-12-21 22:57:42,450.2113149313869,7,12,-1.099568486213684,3.8310394287109375,10.500842260626095,9.755853818942796,42.1604486135466,35.367881642719134,-0.0001942634553415,0.0970755815505981,0,0,0
3429,125297.60130893328,2010-12-21 22:58:12,480.2261668409466,7,12,-1.0997490882873535,3.82197380065918,10.500842260626095,9.765023320683344,42.1604486135466,35.402967640717655,-0.0002266406954731,0.0970755815505981,0,0,0
3430,125327.61663625088,2010-12-21 22:58:42,510.2414941435033,7,12,-1.0997490882873535,3.813231945037842,10.500842260626095,9.774192931828065,42.1604486135466,35.43797328611017,-0.0002590179501567,0.0970755815505981,0,0,0
3431,125357.63159235472,2010-12-21 22:59:12,540.2564502924586,7,12,-1.099929690361023,3.804813861846924,10.500842260626095,9.783362374767709,42.1604486135466,35.472899432784345,-0.0002266406954731,0.0970755815505981,0,0,0
3432,125387.64670631138,2010-12-21 22:59:42,570.2715641739251,7,12,-1.099929690361023,3.796557664871216,10.500842260626095,9.79253188979459,42.1604486135466,35.50774933791108,-0.0001942634553415,0.0970755815505981,0,0,0
3433,125417.66175698054,2010-12-21 23:00:12,600.2866148230404,7,12,-1.0997490882873535,3.7884633541107178,10.500842260626095,9.801701351592357,42.1604486135466,35.542524104046215,-0.0002266406954731,0.0970755815505981,0,0,0
3434,125447.67703259448,2010-12-21 23:00:42,630.3018904419845,7,12,-1.099929690361023,3.78036904335022,10.500842260626095,9.810870964203692,42.1604486135466,35.57722641294592,-0.0002590179501567,0.0970755815505981,0,0,0
3435,125477.69195837284,2010-12-21 23:01:12,660.3168161902888,7,12,-1.1001102924346924,3.772760391235352,10.500842260626095,9.82004044236376,42.1604486135466,35.611856822098964,-0.0002266406954731,0.0970755815505981,0,0,0
3436,125507.70707499614,2010-12-21 23:01:42,690.3319328386408,7,12,-1.099929690361023,3.7654755115509033,10.500842260626095,9.829210000480913,42.1604486135466,35.64641785721157,-0.0001618862152099,0.0970755815505981,0,0,0
3437,125537.72236804344,2010-12-21 23:02:12,720.3472259511168,7,12,-1.099929690361023,3.758028745651245,10.500842260626095,9.838379665241712,42.1604486135466,35.6809115211944,-0.0002266406954731,0.0970755815505981,0,0,0
3438,125567.7373856002,2010-12-21 23:02:42,750.3622434276836,7,12,-1.0997490882873535,3.750905990600586,10.500842260626095,9.847549292732946,42.1604486135466,35.715338604271416,-0.0001942634553415,0.0970755815505981,0,0,0
3439,125597.75245647466,2010-12-21 23:03:12,780.3773143021288,7,12,-1.099929690361023,3.743782997131348,10.500842260626095,9.856718921828952,42.1604486135466,35.74970086749225,-0.0002266406954731,0.0970755815505981,0,0,0
3440,125627.76761622028,2010-12-21 23:03:42,810.3924740377015,7,12,-1.099568486213684,3.7371456623077393,10.500842260626095,9.865888477101546,42.1604486135466,35.78399954700615,-0.0001942634553415,0.0970755815505981,0,0,0
3441,125657.7827728932,2010-12-21 23:04:12,840.4076307708027,7,12,-1.0997490882873535,3.730508327484131,10.500842260626095,9.875058117561633,42.1604486135466,35.81823670497016,-0.0001618862152099,0.0970755815505981,0,0,0
3442,125687.7978175474,2010-12-21 23:04:42,870.4226753648502,7,12,-1.0997490882873535,3.724032878875733,10.500842260626095,9.884227679654916,42.1604486135466,35.852413582068046,-0.0001942634553415,0.0970755815505981,0,0,0
3443,125717.81295330332,2010-12-21 23:05:12,900.437811210975,7,12,-1.0997490882873535,3.717557430267334,10.500842260626095,9.893397259828488,42.1604486135466,35.886531328323656,-0.0001942634553415,0.0970755815505981,0,0,0
3444,125747.82803222278,2010-12-21 23:05:42,930.4528900402156,7,12,-1.0997490882873535,3.711405754089356,10.500842260626095,9.90256688181906,42.1604486135466,35.9205905835302,-0.0001295089750783,0.0970755815505981,0,0,0
3445,125777.84314328224,2010-12-21 23:06:12,960.4680011096845,7,12,-1.099929690361023,3.705092191696167,10.500842260626095,9.911736499605771,42.1604486135466,35.95459202133147,-0.0001295089750783,0.0970755815505981,0,0,0
3446,125807.85826955954,2010-12-21 23:06:42,990.48312739201,7,12,-1.0997490882873535,3.6987786293029785,10.500842260626095,9.920906147161835,42.1604486135466,35.98853691386569,-0.0001942634553415,0.0970755815505981,0,0,0
3447,125837.87337005768,2010-12-21 23:07:12,1020.498227880148,7,12,-1.099929690361023,3.69278883934021,10.500842260626095,9.930075757869131,42.1604486135466,36.02242631437269,-0.0001618862152099,0.0970755815505981,0,0,0
3448,125867.88850459555,2010-12-21 23:07:42,1050.5133624230298,7,12,-1.0997490882873535,3.6869609355926514,10.500842260626095,9.939245412885349,42.1604486135466,36.05626148704593,-0.0001618862152099,0.0970755815505981,0,0,0
3449,125897.90359409637,2010-12-21 23:08:12,1080.5284519238255,7,12,-1.0997490882873535,3.6811330318450928,10.500842260626095,9.948415075644789,42.1604486135466,36.0900430927243,-0.0001618862152099,0.0970755815505981,0,0,0
3450,125927.91881649283,2010-12-21 23:08:42,1110.5436743353655,7,12,-1.099568486213684,3.675628900527954,10.500842260626095,9.957584386051249,42.1604486135466,36.12377082336842,-9.713172767078504e-05,0.0970755815505981,0,0,0
3451,125957.93392601347,2010-12-21 23:09:12,1140.55878385598,7,12,-1.0997490882873535,3.669801235198975,10.500842260626095,9.966753342831126,42.1604486135466,36.15744537335124,-0.0001618862152099,0.0970755815505981,0,0,0
3452,125987.94891000671,2010-12-21 23:09:42,1170.5737678542373,7,12,-1.099929690361023,3.664297103881836,10.500842260626095,9.975922397737891,42.1604486135466,36.1910693416223,-0.0001618862152099,0.0970755815505981,0,0,0
3453,126017.96415962095,2010-12-21 23:10:12,1200.5890175286197,7,12,-1.0997490882873535,3.6589548587799072,10.500842260626095,9.985091375536458,42.1604486135466,36.2246432803478,-0.0001618862152099,0.0970755815505981,0,0,0
3454,126047.97925764797,2010-12-21 23:10:42,1230.6041155857076,7,12,-1.0997490882873535,3.6536126136779785,10.500842260626095,9.99426031696416,42.1604486135466,36.25816779376879,-0.0001295089750783,0.0970755815505981,0,0,0
3455,126077.994272097,2010-12-21 23:11:13,1260.6191299144407,7,12,-1.099568486213684,3.64843225479126,10.500842260626095,10.003429204612656,42.1604486135466,36.29164372544752,-0.0001295089750783,0.0970755815505981,0,0,0
3456,126108.0094840826,2010-12-21 23:11:43,1290.634341900036,7,12,-1.0997490882873535,3.643413782119751,10.500842260626095,10.012598270545958,42.1604486135466,36.32507236866359,-0.0001295089750783,0.0970755815505981,0,0,0
3457,126138.02446060728,2010-12-21 23:12:13,1320.6493184447452,7,12,-1.1001102924346924,3.6380715370178223,10.500842260626095,10.021767602779349,42.1604486135466,36.358455225386,-0.0001295089750783,0.0970755815505981,0,0,0
3458,126168.03972021636,2010-12-21 23:12:43,1350.6645780638742,7,12,-1.0997490882873535,3.633376836776733,10.500842260626095,10.030937068276524,42.1604486135466,36.39179321927234,-0.0001295089750783,0.0970755815505981,0,0,0
3459,126198.05481543136,2010-12-21 23:13:13,1380.6796732688654,7,12,-1.099929690361023,3.6283583641052246,10.500842260626095,10.040106474659812,42.1604486135466,36.42508638405278,-0.0001295089750783,0.0970755815505981,0,0,0
3460,126228.06980884308,2010-12-21 23:13:43,1410.6946666604974,7,12,-1.0997490882873535,3.623663663864136,10.500842260626095,10.04927589037546,42.1604486135466,36.45833579918436,-0.0001295089750783,0.0970755815505981,0,0,0
3461,126258.08494362654,2010-12-21 23:14:13,1440.7098015743022,7,12,-1.0997490882873535,3.619130849838257,10.500842260626095,10.058445435072214,42.1604486135466,36.4915429202014,-0.0001295089750783,0.0970755815505981,0,0,0
3462,126288.10028619708,2010-12-21 23:14:43,1470.7251441097656,7,12,-1.0997490882873535,3.614598035812378,10.500842260626095,10.067615029563784,42.1604486135466,36.52470849723931,-9.713172767078504e-05,0.0970755815505981,0,0,0
3463,126318.11520815096,2010-12-21 23:15:13,1500.74006606864,7,12,-1.0997490882873535,3.610388994216919,10.500842260626095,10.076784454548608,42.1604486135466,36.55783308481809,-0.0001295089750783,0.0970755815505981,0,0,0
3464,126348.13027982738,2010-12-21 23:15:43,1530.7551376548563,7,12,-1.099929690361023,3.60601806640625,10.500842260626095,10.085953928377236,42.1604486135466,36.59091841263237,-0.0001295089750783,0.0970755815505981,0,0,0
3465,126378.14538314256,2010-12-21 23:16:13,1560.7702409600042,7,12,-1.099929690361023,3.601970911026001,10.500842260626095,10.095123389112551,42.1604486135466,36.62396544902706,-9.713172767078504e-05,0.0970755815505981,0,0,0
3466,126408.16053709376,2010-12-21 23:16:43,1590.7853949161952,7,12,-1.0997490882873535,3.597923755645752,10.500842260626095,10.104292914290555,42.1604486135466,36.65697542351152,-9.713172767078504e-05,0.0970755815505981,0,0,0
3467,126438.17573239782,2010-12-21 23:17:13,1620.8005902152663,7,12,-1.099929690361023,3.593876600265503,10.500842260626095,10.113462462481005,42.1604486135466,36.68994894986362,-0.0001295089750783,0.0970755815505981,0,0,0
3468,126468.19074089704,2010-12-21 23:17:43,1650.8155987295308,7,12,-1.0997490882873535,3.589991569519043,10.500842260626095,10.122631981408508,42.1604486135466,36.722886430169,-0.0001295089750783,0.0970755815505981,0,0,0
3469,126498.20605852052,2010-12-21 23:18:13,1680.8309164131513,7,12,-1.0997490882873535,3.586430072784424,10.500842260626095,10.13180151354703,42.1604486135466,36.755788727357455,-9.713172767078504e-05,0.0970755815505981,0,0,0
3470,126528.22096154728,2010-12-21 23:18:43,1710.8458193747515,7,12,-1.099929690361023,3.5827066898345947,10.500842260626095,10.140970998159148,42.1604486135466,36.788656896082585,-9.713172767078504e-05,0.0970755815505981,0,0,0
3471,126558.23608895742,2010-12-21 23:19:13,1740.860946850046,7,12,-1.099929690361023,3.579145193099976,10.500842260626095,10.150140485836944,42.1604486135466,36.82149225102218,-0.0001295089750783,0.0970755815505981,0,0,0
3472,126588.25125362026,2010-12-21 23:19:43,1770.8761114978429,7,12,-1.0997490882873535,3.5755836963653564,10.500842260626095,10.159310012701718,42.1604486135466,36.85429536192784,-9.713172767078504e-05,0.0970755815505981,0,0,0
3473,126618.26629863032,2010-12-21 23:20:13,1800.8911564527882,7,12,-1.099929690361023,3.5721840858459477,10.500842260626095,10.168479597027522,42.1604486135466,36.88706705990245,-9.713172767078504e-05,0.0970755815505981,0,0,0
3474,126648.28141175992,2010-12-21 23:20:43,1830.906269582384,7,12,-1.0997490882873535,3.568784475326538,10.500842260626095,10.177649156957973,42.1604486135466,36.91980728785824,-9.713172767078504e-05,0.0970755815505981,0,0,0
3475,126678.296500168,2010-12-21 23:21:13,1860.9213579854484,7,12,-1.099929690361023,3.565384864807129,10.500842260626095,10.186818692520507,42.1604486135466,36.95251645687462,-9.713172767078504e-05,0.0970755815505981,0,0,0
3476,126708.31162653051,2010-12-21 23:21:43,1890.936484363011,7,12,-1.0997490882873535,3.5621471405029297,10.500842260626095,10.195988178769811,42.1604486135466,36.985194619560296,-9.713172767078504e-05,0.0970755815505981,0,0,0
3477,126738.32677943911,2010-12-21 23:22:13,1920.9516372665823,7,12,-1.0997490882873535,3.5587475299835205,10.500842260626095,10.205157731184867,42.1604486135466,37.01784273425139,-9.713172767078504e-05,0.0970755815505981,0,0,0
3478,126768.34189371656,2010-12-21 23:22:43,1950.9667515390224,7,12,-1.0997490882873535,3.5555098056793213,10.500842260626095,10.214327236337478,42.1604486135466,37.05045968643682,-6.47544875391759e-05,0.0970755815505981,0,0,0
3479,126798.3571254062,2010-12-21 23:23:13,1980.9819832286496,7,12,-1.099929690361023,3.551948308944702,10.500842260626095,10.22349682421168,42.1604486135466,37.083045823256114,-9.713172767078504e-05,0.0970755815505981,0,0,0
3480,126828.37211836677,2010-12-21 23:23:43,2010.996976184197,7,12,-1.099929690361023,3.548548698425293,10.500842260626095,10.23266631789441,42.1604486135466,37.11560033953908,-9.713172767078504e-05,0.0970755815505981,0,0,0
3481,126858.38723407776,2010-12-21 23:24:13,2041.0120919102533,7,12,-1.0997490882873535,3.545149087905884,10.500842260626095,10.241835897109723,42.1604486135466,37.14812361339207,-9.713172767078504e-05,0.0970755815505981,0,0,0
3482,126888.40248228352,2010-12-21 23:24:43,2071.0273401009435,7,12,-1.0997490882873535,3.5415875911712646,10.500842260626095,10.25100545155178,42.1604486135466,37.18061455231901,-9.713172767078504e-05,0.0970755815505981,0,0,0
3483,126918.41765487108,2010-12-21 23:25:13,2101.0425128188226,7,12,-1.0997490882873535,3.538026094436645,10.500842260626095,10.260174978099824,42.1604486135466,37.21307281999333,-9.713172767078504e-05,0.0970755815505981,0,0,0
3484,126948.43258461932,2010-12-21 23:25:43,2131.0574424417687,7,12,-1.099929690361023,3.5344645977020264,10.500842260626095,10.269344482613043,42.1604486135466,37.24549751870333,-9.713172767078504e-05,0.0970755815505981,0,0,0
3485,126978.44769062116,2010-12-21 23:26:13,2161.072548443627,7,12,-1.099929690361023,3.5304174423217773,10.500842260626095,10.278514059496285,42.1604486135466,37.27788854471255,-9.713172767078504e-05,0.0970755815505981,0,0,0
3486,127008.46281511404,2010-12-21 23:26:43,2191.0876729314878,7,12,-1.099929690361023,3.526694059371948,10.500842260626095,10.287684343748492,42.1604486135466,37.310246643302975,-9.713172767078504e-05,0.0970755815505981,0,0,0
3487,127038.47791359216,2010-12-21 23:27:13,2221.102771414636,7,12,-1.099929690361023,3.522646903991699,10.500842260626095,10.296854712480284,42.1604486135466,37.34256887694906,-9.713172767078504e-05,0.0970755815505981,0,0,0
3488,127068.49315968264,2010-12-21 23:27:43,2251.118017530161,7,12,-1.099929690361023,3.51859974861145,10.500842260626095,10.30602508667348,42.1604486135466,37.37485376664269,-9.713172767078504e-05,0.0970755815505981,0,0,0
3489,127098.50815768576,2010-12-21 23:28:13,2281.1330155031947,7,12,-1.1002910137176514,3.5140669345855717,10.500842260626095,10.315195387667282,42.1604486135466,37.40709972537315,-0.0001295089750783,0.0970755815505981,0,0,0
3490,127128.523455931,2010-12-21 23:28:43,2311.1483138587178,7,12,-1.099568486213684,3.5098581314086914,10.500842260626095,10.324365052331652,42.1604486135466,37.43930329474022,-9.713172767078504e-05,0.0970755815505981,0,0,0
3491,127158.5385212466,2010-12-21 23:29:13,2341.163379164305,7,12,-1.0997490882873535,3.5050015449523926,10.500842260626095,10.333534620237248,42.1604486135466,37.47146402974749,-0.0001295089750783,0.0970755815505981,0,0,0
3492,127188.55382620858,2010-12-21 23:29:43,2371.178684081156,7,12,-1.0997490882873535,3.499983072280884,10.500842260626095,10.342704243080371,42.1604486135466,37.50358013787199,-9.713172767078504e-05,0.0970755815505981,0,0,0
3493,127218.5687384232,2010-12-21 23:30:13,2401.19359625067,7,12,-1.099929690361023,3.494478940963745,10.500842260626095,10.351873806497778,42.1604486135466,37.53564862343114,-0.0001618862152099,0.0970755815505981,0,0,0
3494,127248.58393505056,2010-12-21 23:30:43,2431.208792898097,7,12,-1.099929690361023,3.488489151000977,10.500842260626095,10.361043411383347,42.1604486135466,37.56766560032268,-0.0002266406954731,0.0970755815505981,0,0,0
3495,127278.59888899403,2010-12-21 23:31:13,2461.2237469618626,7,12,-1.0997490882873535,3.482175588607788,10.500842260626095,10.370212932552592,42.1604486135466,37.59962550241123,-0.0001618862152099,0.0970755815505981,0,0,0
3496,127308.6139581843,2010-12-21 23:31:43,2491.2388160067558,7,12,-1.0997490882873535,3.47472882270813,10.500842260626095,10.379382445076576,42.1604486135466,37.63152119254175,-0.0001618862152099,0.0970755815505981,0,0,0
3497,127338.62923139225,2010-12-21 23:32:13,2521.254089219712,7,12,-1.099568486213684,3.466310739517212,10.500842260626095,10.3885520432174,42.1604486135466,37.66334485389373,-0.0002266406954731,0.0970755815505981,0,0,0
3498,127368.64425748023,2010-12-21 23:32:43,2551.26911539292,7,12,-1.0997490882873535,3.4564356803894043,10.500842260626095,10.3977215481856,42.1604486135466,37.69508426701693,-0.0002913951757363,0.0970755815505981,0,0,0
3499,127398.65929719715,2010-12-21 23:33:13,2581.284155014594,7,12,-1.0997490882873535,3.444456100463867,10.500842260626095,10.406891108408471,42.1604486135466,37.7267246518928,-0.0003237724304199,0.0970755815505981,0,0,0
3500,127428.67441584548,2010-12-21 23:33:43,2611.299273662923,7,12,-1.099929690361023,3.43004846572876,10.500842260626095,10.416060684987327,42.1604486135466,37.758245939355085,-0.000453233718872,0.0970755815505981,0,0,0
3501,127458.68964840229,2010-12-21 23:34:13,2641.314506314945,7,12,-1.099568486213684,3.412564754486084,10.500842260626095,10.425230321075851,42.1604486135466,37.78962099172141,-0.0004532813909463,0.0970755815505981,0,0,0
3502,127488.70469426448,2010-12-21 23:34:43,2671.3295521771483,7,12,-1.099929690361023,3.389576911926269,10.500842260626095,10.43439991604207,42.1604486135466,37.82081053766618,-0.0006799221155233,0.0970755815505981,0,0,0
3503,127518.70638901294,2010-12-21 23:35:13,2701.331246920606,7,12,-1.0997490882873535,3.359142303466797,10.500842260626095,10.44356538341992,42.1604486135466,37.85174462109909,-0.0009389400365762,0.0970755815505981,0,0,0
3504,127548.71941299878,2010-12-21 23:35:43,2731.3442709164733,7,12,-1.099929690361023,3.318509101867676,10.500842260626095,10.452734357326223,42.1604486135466,37.88236776601016,-0.0012303352123126,0.0970755815505981,0,0,0
3505,127578.7344979332,2010-12-21 23:36:13,2761.359355755669,7,12,-1.0997490882873535,3.2628204822540283,10.500842260626095,10.46190385885006,42.1604486135466,37.91255496660495,-0.0017159462440758,0.0970755815505981,0,0,0
3506,127608.74950908906,2010-12-21 23:36:43,2791.3743669215314,7,12,-1.099929690361023,3.185924768447876,10.500842260626095,10.471073416306265,42.1604486135466,37.94214104476681,-0.0023634911049157,0.0970755815505981,0,0,0
3507,127638.76464055428,2010-12-21 23:37:13,2821.3894984769795,7,12,-1.099929690361023,3.074547290802002,10.500842260626095,10.4802430057793,42.1604486135466,37.97087725720736,-0.0035291195381432,0.0970755815505981,0,0,0
3508,127668.77976198951,2010-12-21 23:37:43,2851.404619897206,7,12,-1.0997490882873535,2.892263889312744,10.500842260626095,10.489412603487253,42.1604486135466,37.99831706499469,-0.006184053607285,0.0970755815505981,0,0,0
3509,127689.87310435572,2010-12-21 23:38:04,2872.497962173177,7,12,-1.0997490882873535,2.699620008468628,10.500842260626095,10.495856594134333,42.1604486135466,38.01635126946528,-0.0076086046174168,0.0970755815505981,0,0,0
3510,127749.88560922716,2010-12-21 23:39:05,60.01460099632547,8,12,0.0,3.4145073890686035,10.500842260626095,10.495856594134333,42.1604486135466,38.01635126946528,0.0014569759368896,0.0970755815505981,0,0,0
3511,127750.07182606772,2010-12-21 23:39:05,0.187416884709257,9,12,-1.9243103452026844e-05,3.4145073890686035,10.500842260626095,10.495856595136134,42.1604486135466,38.016351272885935,0.0,0.0940094217658042,0,0,0
3512,127754.89985172889,2010-12-21 23:39:10,5.015442540861297,9,12,0.0007031940040178,3.4230873584747314,10.5008430158516,10.49585659530371,42.1604511960775,38.01635127345837,0.0012303352123126,0.0940094217658042,0,0,0
