Data_Point,Test_Time(s),Date_Time,Step_Time(s),Step_Index,Cycle_Index,Current(A),Voltage(V),Charge_Capacity(Ah),Discharge_Capacity(Ah),Charge_Energy(Wh),Discharge_Energy(Wh),dV/dt(V/s),Internal_Resistance(Ohm),Is_FC_Data,AC_Impedance(Ohm),ACI_Phase_Angle(Deg)
4103,148982.29707721414,2010-12-22 05:33:00,30.01513550026412,1,15,0.0,3.478937864303589,12.256597312850388,12.246443801199671,49.19884054767101,44.37176021878454,0.0008094310760498,0.0940094217658042,0,0,0
4104,149012.31231073334,2010-12-22 05:33:30,60.03036912971896,1,15,0.0,3.503544569015503,12.256597312850388,12.246443801199671,49.19884054767101,44.37176021878454,0.0005504131549969,0.0940094217658042,0,0,0
4105,149042.3272114143,2010-12-22 05:34:00,90.04526971039472,1,15,0.0,3.5218374729156494,12.256597312850388,12.246443801199671,49.19884054767101,44.37176021878454,0.0004532813909463,0.0940094217658042,0,0,0
4106,149072.29545581283,2010-12-22 05:34:30,120.01351412399318,1,15,0.0,3.536245346069336,12.256597312850388,12.246443801199671,49.19884054767101,44.37176021878454,0.0003561496851034,0.0940094217658042,0,0,0
4107,149102.31421084236,2010-12-22 05:35:00,30.0153874923367,2,15,0.5501165986061096,3.680323600769043,12.261183967908416,12.246443801199671,49.21559062986525,44.37176021878454,0.0012303352123126,0.0940094217658042,0,0,0
4108,149132.3290264165,2010-12-22 05:35:30,60.03020305645202,2,15,0.5501165986061096,3.7162623405456543,12.2657706190641,12.246443801199671,49.23255891341935,44.37176021878454,0.0007770538213662,0.0940094217658042,0,0,0
4109,149162.344115391,2010-12-22 05:36:00,90.04529205600089,2,15,0.550297200679779,3.741516590118408,12.270357328681264,12.246443801199671,49.24966502482994,44.37176021878454,0.0006151676061563,0.0940094217658042,0,0,0
4110,149192.35929741702,2010-12-22 05:36:30,120.06047416725468,2,15,0.5501165986061096,3.7599713802337646,12.274943968947207,12.246443801199671,49.26687039947444,44.37176021878454,0.0004532813909463,0.0940094217658042,0,0,0
4111,149222.37430005666,2010-12-22 05:37:00,150.07547669662586,2,15,0.5501165986061096,3.7729222774505615,12.279530586093138,12.246443801199671,49.28414752606125,44.37176021878454,0.0002913951757363,0.0940094217658042,0,0,0
4112,149252.38938845473,2010-12-22 05:37:30,180.09056508966543,2,15,0.5501165986061096,3.7815022468566895,12.284117157071826,12.246443801199671,49.30147315499716,44.37176021878454,0.0001618862152099,0.0940094217658042,0,0,0
4113,149282.40446783532,2010-12-22 05:38:00,210.1056445003528,2,15,0.5501165986061096,3.788139581680298,12.288703781949875,12.246443801199671,49.31883295377292,44.37176021878454,0.0001942634553415,0.0940094217658042,0,0,0
4114,149312.41957358154,2010-12-22 05:38:30,240.1207502315377,2,15,0.5499359965324402,3.7934818267822266,12.293290429960322,12.246443801199671,49.33622006233458,44.37176021878454,0.0001295089750783,0.0940094217658042,0,0,0
4115,149342.43479424377,2010-12-22 05:39:00,270.1359709739236,2,15,0.550297200679779,3.798662185668945,12.297876998993084,12.246443801199671,49.35363120795331,44.37176021878454,0.0001295089750783,0.0940094217658042,0,0,0
4116,149372.44988632094,2010-12-22 05:39:30,300.1510630110313,2,15,0.5499359965324402,3.803356885910034,12.302463660380177,12.246443801199671,49.37106550164783,44.37176021878454,9.713172767078504e-05,0.0940094217658042,0,0,0
4117,149402.46481211437,2010-12-22 05:40:00,330.1659887643482,2,15,0.5499359965324402,3.808051586151123,12.307050337148851,12.246443801199671,49.3885214623721,44.37176021878454,0.0001295089750783,0.0940094217658042,0,0,0
4118,149432.48003510735,2010-12-22 05:40:30,360.18121175232216,2,15,0.5501165986061096,3.812422513961792,12.311636983679051,12.246443801199671,49.40599776710181,44.37176021878454,9.713172767078504e-05,0.0940094217658042,0,0,0
4119,149462.49504922057,2010-12-22 05:41:00,390.19622593068135,2,15,0.550297200679779,3.816631555557251,12.316223621732226,12.246443801199671,49.42349402059615,44.37176021878454,9.713172767078504e-05,0.0940094217658042,0,0,0
4120,149492.51035038807,2010-12-22 05:41:30,420.2115271182519,2,15,0.5501165986061096,3.8206787109375,12.32081031239368,12.246443801199671,49.44100937037419,44.37176021878454,9.713172767078504e-05,0.0940094217658042,0,0,0
4121,149522.52518105978,2010-12-22 05:42:00,450.226357789962,2,15,0.550297200679779,3.824725866317749,12.325396813506435,12.246443801199671,49.458542436888536,44.37176021878454,9.713172767078504e-05,0.0940094217658042,0,0,0
4122,149552.54045269382,2010-12-22 05:42:30,480.2416293337651,2,15,0.5501165986061096,3.828449249267578,12.329983382304864,12.246443801199671,49.476093822453706,44.37176021878454,9.713172767078504e-05,0.0940094217658042,0,0,0
4123,149582.55538174533,2010-12-22 05:43:00,510.2565584705016,2,15,0.550297200679779,3.832496404647827,12.334569953075675,12.246443801199671,49.49366288820541,44.37176021878454,9.713172767078504e-05,0.0940094217658042,0,0,0
4124,149612.57043063507,2010-12-22 05:43:30,540.2716072700142,2,15,0.5501165986061096,3.836381435394287,12.339156565274044,12.246443801199671,49.51124958427257,44.37176021878454,0.0001295089750783,0.0940094217658042,0,0,0
4125,149642.5855118653,2010-12-22 05:44:00,570.2866885052418,2,15,0.5501165986061096,3.840104818344116,12.343743221297116,12.246443801199671,49.52885401699327,44.37176021878454,9.713172767078504e-05,0.0940094217658042,0,0,0
4126,149672.60064206237,2010-12-22 05:44:30,600.3018187223591,2,15,0.5501165986061096,3.8439900875091553,12.3483298356307,12.246443801199671,49.54647570051934,44.37176021878454,0.0001295089750783,0.0940094217658042,0,0,0
4127,149702.61570386423,2010-12-22 05:45:00,630.3168805041777,2,15,0.5501165986061096,3.847713470458984,12.352916508594856,12.246443801199671,49.56411502382652,44.37176021878454,0.0001295089750783,0.0940094217658042,0,0,0
4128,149732.63078504932,2010-12-22 05:45:30,660.331961714343,2,15,0.5501165986061096,3.8514368534088135,12.35750308959882,12.246443801199671,49.58177133812212,44.37176021878454,9.713172767078504e-05,0.0940094217658042,0,0,0
4129,149762.64590530167,2010-12-22 05:46:00,690.3470819566382,2,15,0.5501165986061096,3.855322122573853,12.362089732400117,12.246443801199671,49.59944510733656,44.37176021878454,0.0001295089750783,0.0940094217658042,0,0,0
4130,149792.66097248692,2010-12-22 05:46:30,720.3621491469156,2,15,0.550297200679779,3.858883619308472,12.366676309792402,12.246443801199671,49.61713567837806,44.37176021878454,0.0001295089750783,0.0940094217658042,0,0,0
4131,149822.6760278678,2010-12-22 05:47:00,750.377204532818,2,15,0.5501165986061096,3.862445116043091,12.371262847554116,12.246443801199671,49.63484281629855,44.37176021878454,9.713172767078504e-05,0.0940094217658042,0,0,0
4132,149852.69110853664,2010-12-22 05:47:30,780.3922851715616,2,15,0.5501165986061096,3.86600661277771,12.375849449013517,12.246443801199671,49.6525665186319,44.37176021878454,9.713172767078504e-05,0.0940094217658042,0,0,0
4133,149882.7061935613,2010-12-22 05:48:00,810.4073701962191,2,15,0.5499359965324402,3.869244337081909,12.380436049908417,12.246443801199671,49.6703061761599,44.37176021878454,3.237724376958795e-05,0.0940094217658042,0,0,0
4134,149912.721295879,2010-12-22 05:48:30,840.4224725439844,2,15,0.5501165986061096,3.872805833816528,12.385022681254682,12.246443801199671,49.68806139413378,44.37176021878454,9.713172767078504e-05,0.0940094217658042,0,0,0
4135,149942.73641218647,2010-12-22 05:49:00,870.4375888414633,2,15,0.5501165986061096,3.8758816719055176,12.389609272294788,12.246443801199671,49.7058312904322,44.37176021878454,6.47544875391759e-05,0.0940094217658042,0,0,0
4136,149972.75147617378,2010-12-22 05:49:30,900.4526528688698,2,15,0.550297200679779,3.878957509994507,12.394195889155956,12.246443801199671,49.72361561403911,44.37176021878454,9.713172767078504e-05,0.0940094217658042,0,0,0
4137,150002.76653894305,2010-12-22 05:50:00,930.4677156080708,2,15,0.550297200679779,3.881871461868286,12.398782529176115,12.246443801199671,49.74141364562483,44.37176021878454,9.713172767078504e-05,0.0940094217658042,0,0,0
4138,150032.7816387796,2010-12-22 05:50:30,960.4828154445872,2,15,0.5499359965324402,3.8844616413116455,12.403369193586071,12.246443801199671,49.759224771152375,44.37176021878454,3.237724376958795e-05,0.0940094217658042,0,0,0
4139,150062.796714877,2010-12-22 05:51:00,990.4978915119548,2,15,0.5501165986061096,3.887051820755005,12.407955828240178,12.246443801199671,49.77704800450266,44.37176021878454,3.237724376958795e-05,0.0940094217658042,0,0,0
4140,150092.81178228784,2010-12-22 05:51:30,1020.5129589277934,2,15,0.5501165986061096,3.889642000198364,12.412542449241371,12.246443801199671,49.79488283196604,44.37176021878454,6.47544875391759e-05,0.0940094217658042,0,0,0
4141,150122.82686114716,2010-12-22 05:52:00,1050.5280378121713,2,15,0.5501165986061096,3.8920702934265137,12.417129101113286,12.246443801199671,49.81272878263544,44.37176021878454,9.713172767078504e-05,0.0940094217658042,0,0,0
4142,150152.84397098047,2010-12-22 05:52:30,1080.5451477006245,2,15,0.5501165986061096,3.894174814224243,12.421716115830929,12.246443801199671,49.8305867337086,44.37176021878454,6.47544875391759e-05,0.0940094217658042,0,0,0
4143,150182.8572388532,2010-12-22 05:53:00,1110.558415623494,2,15,0.5499359965324402,3.8961174488067623,12.426302575431295,12.246443801199671,49.84845212849638,44.37176021878454,3.237724376958795e-05,0.0940094217658042,0,0,0
4144,150212.87217973417,2010-12-22 05:53:30,1140.573356374131,2,15,0.5499359965324402,3.898221969604492,12.430889192510753,12.246443801199671,49.86632764636195,44.37176021878454,3.237724376958795e-05,0.0940094217658042,0,0,0
4145,150242.88726114985,2010-12-22 05:54:00,1170.5884377948205,2,15,0.5501165986061096,3.9003264904022217,12.435475840933863,12.246443801199671,49.884212372256286,44.37176021878454,6.47544875391759e-05,0.0940094217658042,0,0,0
4146,150272.9024171662,2010-12-22 05:54:30,1200.6035938662749,2,15,0.5501165986061096,3.902269124984741,12.44006250945419,12.246443801199671,49.90210599296882,44.37176021878454,6.47544875391759e-05,0.0940094217658042,0,0,0
4147,150302.91742807138,2010-12-22 05:55:01,1230.6186047263768,2,15,0.5501165986061096,3.904049873352051,12.444649216227358,12.246443801199671,49.92000829811112,44.37176021878454,6.47544875391759e-05,0.0940094217658042,0,0,0
4148,150332.9326333102,2010-12-22 05:55:31,1260.6338099551576,2,15,0.5501165986061096,3.9056687355041504,12.449235961493576,12.246443801199671,49.93791907951739,44.37176021878454,3.237724376958795e-05,0.0940094217658042,0,0,0
4149,150362.9476086469,2010-12-22 05:56:01,1290.6487853068984,2,15,0.5499359965324402,3.90744948387146,12.453822634812838,12.246443801199671,49.955837743165056,44.37176021878454,3.237724376958795e-05,0.0940094217658042,0,0,0
4150,150392.96268188723,2010-12-22 05:56:31,1320.6638585271812,2,15,0.550297200679779,3.90939211845398,12.458409226105308,12.246443801199671,49.97376415109004,44.37176021878454,9.713172767078504e-05,0.0940094217658042,0,0,0
4151,150422.97775694207,2010-12-22 05:57:01,1350.678933582029,2,15,0.5501165986061096,3.911010980606079,12.462995896492496,12.246443801199671,49.99169891853327,44.37176021878454,6.47544875391759e-05,0.0940094217658042,0,0,0
4152,150452.99291780044,2010-12-22 05:57:31,1380.6940945306203,2,15,0.5499359965324402,3.9126298427581783,12.467582465181234,12.246443801199671,50.00964125212614,44.37176021878454,3.237724376958795e-05,0.0940094217658042,0,0,0
4153,150483.00792926204,2010-12-22 05:58:01,1410.7091058969822,2,15,0.550297200679779,3.914572238922119,12.472169530474448,12.246443801199671,50.027593417069454,44.37176021878454,6.47544875391759e-05,0.0940094217658042,0,0,0
4154,150513.02321628938,2010-12-22 05:58:31,1440.7243929944902,2,15,0.550297200679779,3.9161911010742183,12.476757008754973,12.246443801199671,50.04555497842911,44.37176021878454,3.237724376958795e-05,0.0940094217658042,0,0,0
4155,150543.0382780361,2010-12-22 05:59:01,1470.7394547863337,2,15,0.5501165986061096,3.917971849441528,12.481343890608231,12.246443801199671,50.06352201256687,44.37176021878454,6.47544875391759e-05,0.0940094217658042,0,0,0
4156,150573.05322020527,2010-12-22 05:59:31,1500.7543968452264,2,15,0.5501165986061096,3.919590711593628,12.485930444397908,12.246443801199671,50.08149551552355,44.37176021878454,6.47544875391759e-05,0.0940094217658042,0,0,0
4157,150603.06828340562,2010-12-22 06:00:01,1530.7694600405623,2,15,0.5501165986061096,3.9213714599609375,12.490517024056302,12.246443801199671,50.09947690025698,44.37176021878454,6.47544875391759e-05,0.0940094217658042,0,0,0
4158,150633.08340627947,2010-12-22 06:00:31,1560.7845829144062,2,15,0.5501165986061096,3.922990322113037,12.49510352188352,12.246443801199671,50.11746570744049,44.37176021878454,3.237724376958795e-05,0.0940094217658042,0,0,0
4159,150663.0984546529,2010-12-22 06:01:01,1590.7996312878586,2,15,0.550297200679779,3.9247710704803462,12.499690054266852,12.246443801199671,50.13546244604392,44.37176021878454,6.47544875391759e-05,0.0940094217658042,0,0,0
4160,150693.11356160714,2010-12-22 06:01:31,1620.8147383072492,2,15,0.5501165986061096,3.9263899326324463,12.50427664689692,12.246443801199671,50.15346721732405,44.37176021878454,6.47544875391759e-05,0.0940094217658042,0,0,0
4161,150723.12863881738,2010-12-22 06:02:01,1650.8298155224734,2,15,0.550297200679779,3.928170680999756,12.508863201180544,12.246443801199671,50.17147962850445,44.37176021878454,6.47544875391759e-05,0.0940094217658042,0,0,0
4162,150753.14371601754,2010-12-22 06:02:31,1680.8448926374476,2,15,0.5499359965324402,3.9299514293670654,12.513449735307676,12.246443801199671,50.18949973114257,44.37176021878454,9.713172767078504e-05,0.0940094217658042,0,0,0
4163,150783.1588454778,2010-12-22 06:03:01,1710.8600222580808,2,15,0.5501165986061096,3.931408405303955,12.518036400972198,12.246443801199671,50.20752817710336,44.37176021878454,6.47544875391759e-05,0.0940094217658042,0,0,0
4164,150813.17387721984,2010-12-22 06:03:31,1740.8750538547847,2,15,0.5499359965324402,3.9331891536712646,12.522622977407062,12.246443801199671,50.2255640070479,44.37176021878454,0.0,0.0940094217658042,0,0,0
4165,150843.18898927676,2010-12-22 06:04:01,1770.8901659818855,2,15,0.5499359965324402,3.934808015823364,12.527209557074412,12.246443801199671,50.24360765895439,44.37176021878454,3.237724376958795e-05,0.0940094217658042,0,0,0
4166,150873.20405906852,2010-12-22 06:04:31,1800.9052357084747,2,15,0.5501165986061096,3.936426877975464,12.531796203886866,12.246443801199671,50.26165937992747,44.37176021878454,3.237724376958795e-05,0.0940094217658042,0,0,0
4167,150903.21912707083,2010-12-22 06:05:01,1830.9203037107727,2,15,0.5501165986061096,3.938207626342773,12.536382839456008,12.246443801199671,50.27971889565468,44.37176021878454,6.47544875391759e-05,0.0940094217658042,0,0,0
4168,150933.23421202027,2010-12-22 06:05:31,1860.935388660243,2,15,0.5501165986061096,3.939988374710083,12.540969441161682,12.246443801199671,50.29778619015493,44.37176021878454,3.237724376958795e-05,0.0940094217658042,0,0,0
4169,150963.24941716884,2010-12-22 06:06:01,1890.950593803812,2,15,0.5499359965324402,3.941607236862183,12.54555607844228,12.246443801199671,50.31586154198615,44.37176021878454,3.237724376958795e-05,0.0940094217658042,0,0,0
4170,150993.26439785887,2010-12-22 06:06:31,1920.9655745188995,2,15,0.5499359965324402,3.943387985229492,12.550142647179264,12.246443801199671,50.33394448470818,44.37176021878454,3.237724376958795e-05,0.0940094217658042,0,0,0
4171,151023.27958792495,2010-12-22 06:07:01,1950.9807645648984,2,15,0.5499359965324402,3.945006847381592,12.554729224385753,12.246443801199671,50.352035487364304,44.37176021878454,-3.237724376958795e-05,0.0940094217658042,0,0,0
4172,151053.29456612878,2010-12-22 06:07:31,1980.995742768736,2,15,0.5501165986061096,3.946787595748901,12.559315782429966,12.246443801199671,50.37013433402781,44.37176021878454,3.237724376958795e-05,0.0940094217658042,0,0,0
4173,151083.309644547,2010-12-22 06:08:01,2011.0108211869533,2,15,0.5501165986061096,3.948568344116211,12.563902361997968,12.246443801199671,50.38824117033722,44.37176021878454,3.237724376958795e-05,0.0940094217658042,0,0,0
4174,151113.32472109556,2010-12-22 06:08:31,2041.0258977305064,2,15,0.5501165986061096,3.9505109786987305,12.568488967054368,12.246443801199671,50.40635612307445,44.37176021878454,6.47544875391759e-05,0.0940094217658042,0,0,0
4175,151143.3398635782,2010-12-22 06:09:01,2071.0410402732955,2,15,0.5501165986061096,3.95229172706604,12.57307558047708,12.246443801199671,50.42447919695929,44.37176021878454,6.47544875391759e-05,0.0940094217658042,0,0,0
4176,151173.35487208745,2010-12-22 06:09:31,2101.056048722397,2,15,0.5501165986061096,3.9540724754333496,12.577662179477548,12.246443801199671,50.44261028147935,44.37176021878454,9.713172767078504e-05,0.0940094217658042,0,0,0
4177,151203.37010972187,2010-12-22 06:10:01,2131.0712863618314,2,15,0.5501165986061096,3.955853223800659,12.58224880440878,12.246443801199671,50.46074961969716,44.37176021878454,6.47544875391759e-05,0.0940094217658042,0,0,0
4178,151233.38506040722,2010-12-22 06:10:31,2161.086237042178,2,15,0.550297200679779,3.9576339721679688,12.586835447873115,12.246443801199671,50.478897165088746,44.37176021878454,9.713172767078504e-05,0.0940094217658042,0,0,0
4179,151263.40012642962,2010-12-22 06:11:01,2191.101303064549,2,15,0.550297200679779,3.959252834320069,12.591422043255848,12.246443801199671,50.49705273835355,44.37176021878454,6.47544875391759e-05,0.0940094217658042,0,0,0
4180,151293.41534442012,2010-12-22 06:11:31,2221.116521130274,2,15,0.5501165986061096,3.961033582687378,12.596008644604025,12.246443801199671,50.51521654323752,44.37176021878454,3.237724376958795e-05,0.0940094217658042,0,0,0
4181,151323.43028615823,2010-12-22 06:12:01,2251.131462798194,2,15,0.5501165986061096,3.9629762172698975,12.600595270660396,12.246443801199671,50.53338882114458,44.37176021878454,6.47544875391759e-05,0.0940094217658042,0,0,0
4182,151353.4455071663,2010-12-22 06:12:31,2281.146683801229,2,15,0.5501165986061096,3.964756965637207,12.605181912164918,12.246443801199671,50.55156956791626,44.37176021878454,6.47544875391759e-05,0.0940094217658042,0,0,0
4183,151383.4604848388,2010-12-22 06:13:01,2311.1616615689813,2,15,0.5499359965324402,3.9665377140045166,12.609768553449888,12.246443801199671,50.56975875222431,44.37176021878454,3.237724376958795e-05,0.0940094217658042,0,0,0
4184,151413.47583681275,2010-12-22 06:13:31,2341.1770135679944,2,15,0.5501165986061096,3.968480348587036,12.614355255638468,12.246443801199671,50.58795664015562,44.37176021878454,3.237724376958795e-05,0.0940094217658042,0,0,0
4185,151443.49063167538,2010-12-22 06:14:01,2371.1918083854825,2,15,0.5499359965324402,3.9702610969543457,12.618941822604992,12.246443801199671,50.60616251279997,44.37176021878454,3.237724376958795e-05,0.0940094217658042,0,0,0
4186,151473.50591767512,2010-12-22 06:14:31,2401.2070944053085,2,15,0.550297200679779,3.972365617752075,12.623528531271193,12.246443801199671,50.62437762275976,44.37176021878454,6.47544875391759e-05,0.0940094217658042,0,0,0
4187,151503.52082750382,2010-12-22 06:15:01,2431.222004228985,2,15,0.5501165986061096,3.9741463661193848,12.628115211855754,12.246443801199671,50.64260129608634,44.37176021878454,6.47544875391759e-05,0.0940094217658042,0,0,0
4188,151533.53586618818,2010-12-22 06:15:31,2461.2370428231025,2,15,0.550297200679779,3.976089000701904,12.632701833425347,12.246443801199671,50.66083357914631,44.37176021878454,3.237724376958795e-05,0.0940094217658042,0,0,0
4189,151563.55100433502,2010-12-22 06:16:01,2491.252181060177,2,15,0.5501165986061096,3.977869749069214,12.63728847919665,12.246443801199671,50.679074759073806,44.37176021878454,3.237724376958795e-05,0.0940094217658042,0,0,0
4190,151593.56601411742,2010-12-22 06:16:31,2521.267190782447,2,15,0.5501165986061096,3.979974269866944,12.641875107568834,12.246443801199671,50.69732466681872,44.37176021878454,3.237724376958795e-05,0.0940094217658042,0,0,0
4191,151623.5811026859,2010-12-22 06:17:01,2551.282279315836,2,15,0.5501165986061096,3.982078790664673,12.6464616886483,12.246443801199671,50.71558377727261,44.37176021878454,3.237724376958795e-05,0.0940094217658042,0,0,0
4192,151653.59616294393,2010-12-22 06:17:31,2581.297339603938,2,15,0.5499359965324402,3.984021425247192,12.651048322227432,12.246443801199671,50.73385229122576,44.37176021878454,6.47544875391759e-05,0.0940094217658042,0,0,0
4193,151683.61151127884,2010-12-22 06:18:01,2611.312687943845,2,15,0.550297200679779,3.986125946044922,12.655634942544696,12.246443801199671,50.75213003769841,44.37176021878454,6.47544875391759e-05,0.0940094217658042,0,0,0
4194,151713.62634059717,2010-12-22 06:18:31,2641.3275172321123,2,15,0.5501165986061096,3.987906694412232,12.660221526603806,12.246443801199671,50.77041705581177,44.37176021878454,3.237724376958795e-05,0.0940094217658042,0,0,0
4195,151743.64149050828,2010-12-22 06:19:01,2671.3426672033866,2,15,0.550297200679779,3.990173101425171,12.664808133028384,12.246443801199671,50.788713466944,44.37176021878454,6.47544875391759e-05,0.0940094217658042,0,0,0
4196,151773.6564978246,2010-12-22 06:19:31,2701.357674464533,2,15,0.550297200679779,3.992277622222901,12.669394676050112,12.246443801199671,50.80701921940225,44.37176021878454,9.713172767078504e-05,0.0940094217658042,0,0,0
4197,151803.6715775561,2010-12-22 06:20:01,2731.3727541910066,2,15,0.550297200679779,3.994381904602051,12.67398131253333,12.246443801199671,50.82533504368768,44.37176021878454,6.47544875391759e-05,0.0940094217658042,0,0,0
4198,151833.68669436983,2010-12-22 06:20:31,2761.387871009782,2,15,0.5499359965324402,3.99648642539978,12.67856798328468,12.246443801199671,50.84366081251651,44.37176021878454,6.47544875391759e-05,0.0940094217658042,0,0,0
4199,151863.7017503823,2010-12-22 06:21:01,2791.4029270172314,2,15,0.5499359965324402,3.9985909461975098,12.683154644051156,12.246443801199671,50.86199643226054,44.37176021878454,3.237724376958795e-05,0.0940094217658042,0,0,0
4200,151893.71694495453,2010-12-22 06:21:31,2821.4181216797188,2,15,0.5499359965324402,4.000857353210449,12.687741258523944,12.246443801199671,50.88034178726336,44.37176021878454,6.47544875391759e-05,0.0940094217658042,0,0,0
4201,151923.73190593053,2010-12-22 06:22:01,2851.4330825654606,2,15,0.550297200679779,4.003123760223389,12.69232795812772,12.246443801199671,50.898697786194006,44.37176021878454,3.23295607813634e-05,0.0940094217658042,0,0,0
4202,151953.74698478985,2010-12-22 06:22:31,2881.448161424776,2,15,0.550297200679779,4.005390167236328,12.696914587404011,12.246443801199671,50.91706379317562,44.37176021878454,6.47544875391759e-05,0.0940094217658042,0,0,0
4203,151983.7483770305,2010-12-22 06:23:01,2911.4495536905297,2,15,0.550297200679779,4.007656574249268,12.701499169005842,12.246443801199671,50.93543207629567,44.37176021878454,6.47544875391759e-05,0.0940094217658042,0,0,0
4204,152013.7616081919,2010-12-22 06:23:31,2941.462784917082,2,15,0.5501165986061096,4.010085105895996,12.706085568354638,12.246443801199671,50.95381817907232,44.37176021878454,9.71794142969884e-05,0.0940094217658042,0,0,0
4205,152043.77660830028,2010-12-22 06:24:01,2971.4777849352045,2,15,0.5501165986061096,4.012351512908936,12.71067223079428,12.246443801199671,50.97221596523428,44.37176021878454,3.24249267578125e-05,0.0940094217658042,0,0,0
4206,152073.7916867686,2010-12-22 06:24:31,3001.492863408559,2,15,0.5501165986061096,4.014779567718506,12.715258910401792,12.246443801199671,50.99062456053418,44.37176021878454,9.70840483205393e-05,0.0940094217658042,0,0,0
4207,152103.806819898,2010-12-22 06:25:01,3031.507996623135,2,15,0.5501165986061096,4.017045974731445,12.71984560595217,12.246443801199671,51.00904406347727,44.37176021878454,6.47544875391759e-05,0.0940094217658042,0,0,0
4208,152133.82185059245,2010-12-22 06:25:31,3061.523027232382,2,15,0.550297200679779,4.019474506378174,12.72443230822036,12.246443801199671,51.027474577809926,44.37176021878454,9.71794142969884e-05,0.0940094217658042,0,0,0
4209,152163.8369320482,2010-12-22 06:26:01,3091.5381087082083,2,15,0.5501165986061096,4.021902561187744,12.729018948484253,12.246443801199671,51.04591593568896,44.37176021878454,6.47544875391759e-05,0.0940094217658042,0,0,0
4210,152193.85203990468,2010-12-22 06:26:31,3121.5532166498942,2,15,0.5499359965324402,4.024331092834473,12.733605631531146,12.246443801199671,51.06436881717696,44.37176021878454,3.24249267578125e-05,0.0940094217658042,0,0,0
4211,152223.86715507435,2010-12-22 06:27:01,3151.568331739367,2,15,0.5501165986061096,4.026921272277832,12.738192340571793,12.246443801199671,51.08283318727748,44.37176021878454,6.47544875391759e-05,0.0940094217658042,0,0,0
4212,152253.88221889123,2010-12-22 06:27:32,3181.5833955361995,2,15,0.5499359965324402,4.029187679290772,12.74277905174672,12.246443801199671,51.10130902660611,44.37176021878454,3.24249267578125e-05,0.0940094217658042,0,0,0
4213,152283.89738517307,2010-12-22 06:28:02,3211.5985618782124,2,15,0.5501165986061096,4.031939506530762,12.747365712844973,12.246443801199671,51.1197961407574,44.37176021878454,6.47544875391759e-05,0.0940094217658042,0,0,0
4214,152313.91234304634,2010-12-22 06:28:32,3241.6135196913087,2,15,0.5501165986061096,4.034529685974121,12.751952341045747,12.246443801199671,51.138294824834375,44.37176021878454,0.0001295089750783,0.0940094217658042,0,0,0
4215,152343.92742869255,2010-12-22 06:29:02,3271.628605327488,2,15,0.5501165986061096,4.036957740783691,12.756538885763458,12.246443801199671,51.156804949017584,44.37176021878454,6.47544875391759e-05,0.0940094217658042,0,0,0
4216,152373.9424954718,2010-12-22 06:29:32,3301.643672111755,2,15,0.5501165986061096,4.03971004486084,12.761125529172064,12.246443801199671,51.17532741373172,44.37176021878454,9.71794142969884e-05,0.0940094217658042,0,0,0
4217,152403.9577229259,2010-12-22 06:30:02,3331.65889956083,2,15,0.5499359965324402,4.042300224304199,12.76571220283313,12.246443801199671,51.19386193741588,44.37176021878454,6.47544875391759e-05,0.0940094217658042,0,0,0
4218,152433.97267948085,2010-12-22 06:30:32,3361.673856115796,2,15,0.550297200679779,4.044890403747559,12.770298859674105,12.246443801199671,51.21240854532946,44.37176021878454,6.47544875391759e-05,0.0940094217658042,0,0,0
4219,152463.98794631794,2010-12-22 06:31:02,3391.6891230531364,2,15,0.5501165986061096,4.047480583190918,12.77488559783196,12.246443801199671,51.23096764292151,44.37176021878454,3.24249267578125e-05,0.0940094217658042,0,0,0
4220,152494.00282115457,2010-12-22 06:31:32,3421.703997789499,2,15,0.5499359965324402,4.050232410430908,12.779472245379896,12.246443801199671,51.24953872299164,44.37176021878454,6.47544875391759e-05,0.0940094217658042,0,0,0
4221,152524.01789668057,2010-12-22 06:32:02,3451.71907331552,2,15,0.5501165986061096,4.053146362304688,12.784058888076611,12.246443801199671,51.26812213294493,44.37176021878454,9.70840483205393e-05,0.0940094217658042,0,0,0
4222,152554.03298218144,2010-12-22 06:32:32,3481.734158816362,2,15,0.5501165986061096,4.055574893951416,12.788645540693238,12.246443801199671,51.28671814541976,44.37176021878454,3.24249267578125e-05,0.0940094217658042,0,0,0
4223,152584.04811140607,2010-12-22 06:33:02,3511.749288066072,2,15,0.5501165986061096,4.058650493621826,12.793232274649116,12.246443801199671,51.3053271932404,44.37176021878454,9.70840483205393e-05,0.0940094217658042,0,0,0
4224,152614.0633420882,2010-12-22 06:33:32,3541.764518833405,2,15,0.5501165986061096,4.061079025268555,12.797818907765024,12.246443801199671,51.32394846153034,44.37176021878454,6.47544875391759e-05,0.0940094217658042,0,0,0
4225,152644.07822711015,2010-12-22 06:34:02,3571.7794037450885,2,15,0.550297200679779,4.064316749572754,12.802405508472951,12.246443801199671,51.34258238233498,44.37176021878454,0.0001295089750783,0.0940094217658042,0,0,0
4226,152674.09360875795,2010-12-22 06:34:32,3601.794785523206,2,15,0.550297200679779,4.067068576812744,12.80699218784922,12.246443801199671,51.36122962087069,44.37176021878454,9.70840483205393e-05,0.0940094217658042,0,0,0
4227,152704.10840551023,2010-12-22 06:35:02,3631.809582145184,2,15,0.550297200679779,4.069820880889893,12.81157872198728,12.246443801199671,51.37988944847919,44.37176021878454,6.47544875391759e-05,0.0940094217658042,0,0,0
4228,152734.12346916672,2010-12-22 06:35:32,3661.824645806681,2,15,0.5501165986061096,4.072734832763672,12.816165338626366,12.246443801199671,51.39856281769319,44.37176021878454,9.71794142969884e-05,0.0940094217658042,0,0,0
4229,152764.13854835686,2010-12-22 06:36:02,3691.8397250168687,2,15,0.5501165986061096,4.075486660003662,12.820751994217348,12.246443801199671,51.41724968372974,44.37176021878454,3.23295607813634e-05,0.0940094217658042,0,0,0
4230,152794.1536438526,2010-12-22 06:36:32,3721.854820512583,2,15,0.5499359965324402,4.078562736511231,12.825338674128574,12.246443801199671,51.4359500783572,44.37176021878454,9.71794142969884e-05,0.0940094217658042,0,0,0
4231,152824.1687300752,2010-12-22 06:37:02,3751.869906715172,2,15,0.5501165986061096,4.08147668838501,12.829925410463805,12.246443801199671,51.45466427730671,44.37176021878454,6.47544875391759e-05,0.0940094217658042,0,0,0
4232,152854.18381118512,2010-12-22 06:37:32,3781.8849878852375,2,15,0.5501165986061096,4.08455228805542,12.834512039254657,12.246443801199671,51.47339158896556,44.37176021878454,6.47544875391759e-05,0.0940094217658042,0,0,0
4233,152884.19886917752,2010-12-22 06:38:02,3811.900045812464,2,15,0.5499359965324402,4.087466239929199,12.839098685313328,12.246443801199671,51.49213281300911,44.37176021878454,6.47544875391759e-05,0.0940094217658042,0,0,0
4234,152914.2140760504,2010-12-22 06:38:32,3841.915252685336,2,15,0.5499359965324402,4.0903801918029785,12.843685374346434,12.246443801199671,51.51088808122891,44.37176021878454,6.47544875391759e-05,0.0940094217658042,0,0,0
4235,152944.22904230448,2010-12-22 06:39:02,3871.9302189394375,2,15,0.5501165986061096,4.093617916107178,12.848272006969015,12.246443801199671,51.5296570296312,44.37176021878454,6.47544875391759e-05,0.0940094217658042,0,0,0
4236,152974.24435283028,2010-12-22 06:39:32,3901.945529465246,2,15,0.5501165986061096,4.096693992614746,12.852858702085918,12.246443801199671,51.54844038020627,44.37176021878454,6.47544875391759e-05,0.0940094217658042,0,0,0
4237,153004.25918283034,2010-12-22 06:40:02,3931.9603594702967,2,15,0.5501165986061096,4.099931716918945,12.857445323000356,12.246443801199671,51.56723765063548,44.37176021878454,9.71794142969884e-05,0.0940094217658042,0,0,0
4238,153034.27429916794,2010-12-22 06:40:32,3961.975475822913,2,15,0.5501165986061096,4.103007316589356,12.86203203133579,12.246443801199671,51.58604966051078,44.37176021878454,0.0001295089750783,0.0940094217658042,0,0,0
4239,153064.28935790717,2010-12-22 06:41:02,3991.9905345721854,2,15,0.5501165986061096,4.106245040893555,12.866618712903737,12.246443801199671,51.604876104658985,44.37176021878454,9.70840483205393e-05,0.0940094217658042,0,0,0
4240,153094.30444247066,2010-12-22 06:41:32,4022.00561910562,2,15,0.5501165986061096,4.109482765197754,12.871205410701002,12.246443801199671,51.62371719401341,44.37176021878454,9.70840483205393e-05,0.0940094217658042,0,0,0
4241,153124.3195078113,2010-12-22 06:42:02,4052.0206844713575,2,15,0.5501165986061096,4.112558841705322,12.875792087863267,12.246443801199671,51.642572902754,44.37176021878454,9.71794142969884e-05,0.0940094217658042,0,0,0
4242,153154.33461670543,2010-12-22 06:42:32,4082.035793435588,2,15,0.5501165986061096,4.115796089172363,12.880378823464897,12.246443801199671,51.66144365165903,44.37176021878454,6.47544875391759e-05,0.0940094217658042,0,0,0
4243,153184.34980498202,2010-12-22 06:43:02,4112.050981616947,2,15,0.5501165986061096,4.119195938110352,12.88496555962819,12.246443801199671,51.68032935475724,44.37176021878454,9.71794142969884e-05,0.0940094217658042,0,0,0
4244,153214.36481090484,2010-12-22 06:43:32,4142.065987650037,2,15,0.5501165986061096,4.122433662414551,12.889552309673512,12.246443801199671,51.69923020168703,44.37176021878454,9.71794142969884e-05,0.0940094217658042,0,0,0
4245,153244.3799540491,2010-12-22 06:44:02,4172.081130759236,2,15,0.5501165986061096,4.12567138671875,12.894138913180877,12.246443801199671,51.71814549088426,44.37176021878454,9.71794142969884e-05,0.0940094217658042,0,0,0
4246,153274.39490831838,2010-12-22 06:44:32,4202.096084958338,2,15,0.550297200679779,4.128909111022949,12.898725594172282,12.246443801199671,51.7370763804804,44.37176021878454,6.47544875391759e-05,0.0940094217658042,0,0,0
4247,153304.41000545316,2010-12-22 06:45:02,4232.111182118194,2,15,0.5501165986061096,4.132470607757568,12.903312274339354,12.246443801199671,51.75602268594913,44.37176021878454,9.71794142969884e-05,0.0940094217658042,0,0,0
4248,153334.42507797675,2010-12-22 06:45:32,4262.126254611669,2,15,0.550297200679779,4.135869979858398,12.90789896267458,12.246443801199671,51.77498451624316,44.37176021878454,0.0001295089750783,0.0940094217658042,0,0,0
4249,153364.4404171739,2010-12-22 06:46:02,4292.141593904062,2,15,0.5499359965324402,4.139269828796387,12.912485691970124,12.246443801199671,51.79396218591684,44.37176021878454,9.71794142969884e-05,0.0940094217658042,0,0,0
4250,153394.45525228162,2010-12-22 06:46:32,4322.156428936623,2,15,0.5501165986061096,4.142669200897217,12.91707242706533,12.246443801199671,51.81295572351405,44.37176021878454,6.47544875391759e-05,0.0940094217658042,0,0,0
4251,153424.4706744803,2010-12-22 06:47:02,4352.171851180437,2,15,0.550297200679779,4.146230697631836,12.92165921969728,12.246443801199671,51.83196550198146,44.37176021878454,9.70840483205393e-05,0.0940094217658042,0,0,0
4252,153454.48546170894,2010-12-22 06:47:32,4382.186638444128,2,15,0.550297200679779,4.149792194366455,12.926245831140664,12.246443801199671,51.85099078433901,44.37176021878454,9.70840483205393e-05,0.0940094217658042,0,0,0
4253,153484.50053533525,2010-12-22 06:48:02,4412.201712030322,2,15,0.5501165986061096,4.153353691101074,12.930832117796704,12.246443801199671,51.87003077547283,44.37176021878454,0.0001295089750783,0.0940094217658042,0,0,0
4254,153514.5155756787,2010-12-22 06:48:32,4442.216752323667,2,15,0.5499359965324402,4.156753540039063,12.935417795425227,12.246443801199671,51.88908426645182,44.37176021878454,9.71794142969884e-05,0.0940094217658042,0,0,0
4255,153544.53064792155,2010-12-22 06:49:02,4472.2318245715305,2,15,0.5499359965324402,4.160315036773682,12.9400035266792,12.246443801199671,51.90815435254211,44.37176021878454,9.71794142969884e-05,0.0940094217658042,0,0,0
4256,153574.5458366994,2010-12-22 06:49:32,4502.247013369423,2,15,0.5499359965324402,4.164038181304932,12.94458930498874,12.246443801199671,51.927241110013405,44.37176021878454,9.70840483205393e-05,0.0940094217658042,0,0,0
4257,153604.560782267,2010-12-22 06:50:02,4532.261958911985,2,15,0.5499359965324402,4.16743803024292,12.949175435999576,12.246443801199671,51.946345872598656,44.37176021878454,9.71794142969884e-05,0.0940094217658042,0,0,0
4258,153634.57587280538,2010-12-22 06:50:32,4562.2770494403385,2,15,0.5501165986061096,4.171323299407959,12.95376208664713,12.246443801199671,51.965469489072575,44.37176021878454,0.0001295089750783,0.0940094217658042,0,0,0
4259,153664.59097286745,2010-12-22 06:51:02,4592.292149527478,2,15,0.550297200679779,4.174884796142578,12.9583487277677,12.246443801199671,51.98460975529229,44.37176021878454,9.71794142969884e-05,0.0940094217658042,0,0,0
4260,153694.6060231256,2010-12-22 06:51:32,4622.307199765571,2,15,0.550297200679779,4.178607940673828,12.962935406252262,12.246443801199671,52.003766958939465,44.37176021878454,0.0001295089750783,0.0940094217658042,0,0,0
4261,153724.6211035839,2010-12-22 06:52:02,4652.322280228877,2,15,0.5501165986061096,4.182331562042236,12.967522066123308,12.246443801199671,52.02294110908535,44.37176021878454,0.0001295089750783,0.0940094217658042,0,0,0
4262,153754.63618908473,2010-12-22 06:52:32,4682.33736572972,2,15,0.5501165986061096,4.185893058776856,12.972108784934266,12.246443801199671,52.04213256158079,44.37176021878454,9.71794142969884e-05,0.0940094217658042,0,0,0
4263,153784.65332468218,2010-12-22 06:53:02,4712.354501407349,2,15,0.5501165986061096,4.189778327941895,12.97669567729225,12.246443801199671,52.06134190621125,44.37176021878454,9.71794142969884e-05,0.0940094217658042,0,0,0
4264,153814.66651228018,2010-12-22 06:53:32,4742.367689035407,2,15,0.5501165986061096,4.193663597106934,12.98128202103652,12.246443801199671,52.08056623278815,44.37176021878454,0.0001295089750783,0.0940094217658042,0,0,0
4265,153844.6818313823,2010-12-22 06:54:02,4772.383008047333,2,15,0.5495747923851013,4.197386741638184,12.985868649373558,12.246443801199671,52.099809230871465,44.37176021878454,0.0001295089750783,0.0940094217658042,0,0,0
4266,153864.6342036383,2010-12-22 06:54:22,4792.33538027823,2,15,0.550297200679779,4.200138568878174,12.988917552093127,12.246443801199671,52.11261046550919,44.37176021878454,0.0001618385285837,0.0940094217658042,0,0,0
4267,153894.6453745601,2010-12-22 06:54:52,30.015054959842377,3,15,0.0,4.111263751983643,12.988917552093127,12.246443801199671,52.11261046550919,44.37176021878454,-0.0003885269106831,0.0940094217658042,0,0,0
4268,153924.66046421125,2010-12-22 06:55:22,60.03014460098784,3,15,0.0,4.099931716918945,12.988917552093127,12.246443801199671,52.11261046550919,44.37176021878454,-0.0002590179501567,0.0940094217658042,0,0,0
4269,153954.67554285005,2010-12-22 06:55:52,90.04522324476679,3,15,0.0,4.093456268310547,12.988917552093127,12.246443801199671,52.11261046550919,44.37176021878454,-0.0001618385285837,0.0940094217658042,0,0,0
4270,153984.64387354837,2010-12-22 06:56:22,120.01355400323112,3,15,0.0,4.089247226715088,12.988917552093127,12.246443801199671,52.11261046550919,44.37176021878454,-9.70840483205393e-05,0.0940094217658042,0,0,0
4271,153984.6578238222,2010-12-22 06:56:23,0.015761942988899,4,15,1.0112121105194092,4.199814796447754,12.98892197950084,12.246443801199671,52.11262905980161,44.37176021878454,0.0,0.0940094217658042,0,0,0
4272,153985.34529813056,2010-12-22 06:56:23,0.703236196226764,4,15,0.9608221054077148,4.199653148651123,12.989108784545904,12.246443801199671,52.11341358817085,44.37176021878454,-3.23295607813634e-05,0.0940094217658042,0,0,0
4273,153987.15776312,2010-12-22 06:56:25,2.515701175617787,4,15,0.9104321002960204,4.199814796447754,12.989578778168577,12.246443801199671,52.115387453050886,44.37176021878454,0.0,0.0940094217658042,0,0,0
4274,153989.93910044094,2010-12-22 06:56:28,5.297038501578929,4,15,0.8602227568626404,4.199653148651123,12.990261684881416,12.246443801199671,52.118255487284216,44.37176021878454,-3.23295607813634e-05,0.0940094217658042,0,0,0
4275,153993.81376893946,2010-12-22 06:56:32,9.171706995099342,4,15,0.8100133538246155,4.199814796447754,12.99115938240298,12.246443801199671,52.12202558801605,44.37176021878454,3.23295607813634e-05,0.0940094217658042,0,0,0
4276,153998.9388165032,2010-12-22 06:56:37,14.296754563856982,4,15,0.7599846124649048,4.199814796447754,12.992275502597872,12.246443801199671,52.12671302355107,44.37176021878454,0.0,0.0940094217658042,0,0,0
4277,154005.56356415295,2010-12-22 06:56:44,20.92150220857287,4,15,0.7097752094268799,4.199653148651123,12.993626217921069,12.246443801199671,52.13238572477432,44.37176021878454,-3.23295607813634e-05,0.0940094217658042,0,0,0
4278,154014.39152071832,2010-12-22 06:56:52,29.74945877394902,4,15,0.659565806388855,4.199653148651123,12.995302938243242,12.246443801199671,52.13942755134785,44.37176021878454,0.0,0.0940094217658042,0,0,0
4279,154026.61005711622,2010-12-22 06:57:05,41.96799517183144,4,15,0.6095370650291443,4.199814796447754,12.997452076200045,12.246443801199671,52.14845343589734,44.37176021878454,0.0,0.0940094217658042,0,0,0
4280,154044.76596090948,2010-12-22 06:57:23,60.12389896511704,4,15,0.5595083236694336,4.199814796447754,13.000390592240333,12.246443801199671,52.1607945264976,44.37176021878454,0.0,0.0940094217658042,0,0,0
4281,154075.3124430354,2010-12-22 06:57:53,90.67038118124718,4,15,0.5094795227050781,4.199653148651123,13.004905920364022,12.246443801199671,52.17975789855454,44.37176021878454,-3.23295607813634e-05,0.0940094217658042,0,0,0
4282,154132.1238776504,2010-12-22 06:58:50,147.48181572605677,4,15,0.459450751543045,4.199814796447754,13.01251174178554,12.246443801199671,52.21170061442911,44.37176021878454,-3.24249267578125e-05,0.0940094217658042,0,0,0
4283,154224.2158769787,2010-12-22 07:00:22,239.57381509448516,4,15,0.4092413783073425,4.199814796447754,13.023591990391326,12.246443801199671,52.25823507926087,44.37176021878454,0.0,0.0940094217658042,0,0,0
4284,154343.26066009284,2010-12-22 07:02:21,358.6185981434569,4,15,0.3592126071453094,4.199653148651123,13.03628541675187,12.246443801199671,52.31154463080292,44.37176021878454,-3.23295607813634e-05,0.0940094217658042,0,0,0
4285,154485.30498162875,2010-12-22 07:04:43,500.66291978461794,4,15,0.3091838359832763,4.199814796447754,13.049455080313145,12.246443801199671,52.36685433142189,44.37176021878454,0.0,0.0940094217658042,0,0,0
4286,154655.3173475825,2010-12-22 07:07:33,670.6752856481321,4,15,0.2591550648212433,4.199653148651123,13.062854716271382,12.246443801199671,52.42312984197366,44.37176021878454,0.0,0.0940094217658042,0,0,0
4287,154866.32919483853,2010-12-22 07:11:04,881.6871329543131,4,15,0.2091262936592102,4.199814796447754,13.07654275968077,12.246443801199671,52.480616550766925,44.37176021878454,0.0,0.0940094217658042,0,0,0
4288,155142.80850066227,2010-12-22 07:15:41,1158.166438742949,4,15,0.1589169204235077,4.199653148651123,13.090608983147632,12.246443801199671,52.53969165185571,44.37176021878454,0.0,0.0940094217658042,0,0,0
4289,155557.2698348716,2010-12-22 07:22:35,1572.6277730074455,4,15,0.1088881492614746,4.199653148651123,13.105847663185846,12.246443801199671,52.60369074893378,44.37176021878454,0.0,0.0940094217658042,0,0,0
4290,156325.4119261819,2010-12-22 07:35:23,2340.769864237545,4,15,0.0588593818247318,4.199653148651123,13.123144576824822,12.246443801199671,52.67633396780839,44.37176021878454,-3.23295607813634e-05,0.0940094217658042,0,0,0
4291,156559.45439239245,2010-12-22 07:39:17,2574.812330473139,4,15,0.0498289167881011,4.199653148651123,13.126696815512007,12.246443801199671,52.69125252081916,44.37176021878454,-6.47544875391759e-05,0.0940094217658042,0,0,0
4292,156589.46796896696,2010-12-22 07:39:48,30.01509002209344,5,15,0.0,4.191397190093994,13.126696815512007,12.246443801199671,52.69125252081916,44.37176021878454,-6.47544875391759e-05,0.0940094217658042,0,0,0
4293,156619.46742224263,2010-12-22 07:40:18,60.01454329774477,5,15,0.0,4.190263748168945,13.126696815512007,12.246443801199671,52.69125252081916,44.37176021878454,0.0,0.0940094217658042,0,0,0
4294,156619.65455913494,2010-12-22 07:40:18,0.187564146163723,6,15,-1.9243103452026844e-05,4.189939975738525,13.126696815512007,12.24644380220226,52.69125252081916,44.37176022298531,0.0,0.0955438911914825,0,0,0
4295,156624.4824661709,2010-12-22 07:40:23,5.015471121984323,6,15,0.0008838032954372,4.1901021003723145,13.126697609225108,12.246443802285306,52.69125584665304,44.37176022333326,-3.23295607813634e-05,0.0955438911914825,0,0,0
4296,156654.49731609097,2010-12-22 07:40:53,30.01516714400836,7,15,-1.0997490882873535,4.005552291870117,13.126697609225108,12.255612971880604,52.69125584665304,44.40870424695076,-0.0010360718006268,0.0955438911914825,0,0,0
4297,156684.51237822365,2010-12-22 07:41:23,60.03022932181236,7,15,-1.099568486213684,3.9759271144866943,13.126697609225108,12.264782084635751,52.69125584665304,44.445286491110174,-0.0006475448608398,0.0955438911914825,0,0,0
4298,156714.5273420918,2010-12-22 07:41:53,90.0451930746897,7,15,-1.0997490882873535,3.9552056789398193,13.126697609225108,12.27395106396567,52.69125584665304,44.481642010958886,-0.0004856586456298,0.0955438911914825,0,0,0
4299,156744.54243268032,2010-12-22 07:42:23,120.06028366820512,7,15,-1.0997490882873535,3.939178943634033,13.126697609225108,12.283120128178805,52.69125584665304,44.51783172794554,-0.0003885269106831,0.0955438911914825,0,0,0
4300,156774.5576887055,2010-12-22 07:42:53,150.07553977860292,7,15,-1.0997490882873535,3.9254186153411865,13.126697609225108,12.292289177021408,52.69125584665304,44.55388588481651,-0.0003237724304199,0.0955438911914825,0,0,0
4301,156804.572557878,2010-12-22 07:43:23,180.09040886089616,7,15,-1.0997490882873535,3.9131155014038086,13.126697609225108,12.301458219835132,52.69125584665304,44.58982129493408,-0.0003237247583456,0.0955438911914825,0,0,0
4302,156834.58764980987,2010-12-22 07:43:53,210.10550081279183,7,15,-1.099568486213684,3.9014596939086914,13.126697609225108,12.31062728025028,52.69125584665304,44.62564742809215,-0.0003237724304199,0.0955438911914825,0,0,0
4303,156864.60271788735,2010-12-22 07:44:23,240.12056887022703,7,15,-1.0997490882873535,3.890451431274414,13.126697609225108,12.319796299026429,52.69125584665304,44.66137003352653,-0.0003237724304199,0.0955438911914825,0,0,0
4304,156894.6041025592,2010-12-22 07:44:53,270.12195363732053,7,15,-1.0997490882873535,3.8797669410705566,13.126697609225108,12.328961219862906,52.69125584665304,44.69697749704274,-0.0002913951757363,0.0955438911914825,0,0,0
4305,156924.6172578468,2010-12-22 07:45:23,300.1351088346771,7,15,-1.0997490882873535,3.869406223297119,13.126697609225108,12.338129705858156,52.69125584665304,44.73250205752339,-0.0002913951757363,0.0955438911914825,0,0,0
4306,156954.63230151852,2010-12-22 07:45:53,330.150152501417,7,15,-1.0997490882873535,3.859207391738892,13.126697609225108,12.347298735282251,52.69125584665304,44.7679342004322,-0.0002590179501567,0.0955438911914825,0,0,0
4307,156984.64761256063,2010-12-22 07:46:23,360.1654636086724,7,15,-1.0997490882873535,3.849494218826294,13.126697609225108,12.356467882803967,52.69125584665304,44.803275287685786,-0.0002590179501567,0.0955438911914825,0,0,0
4308,157014.66246474086,2010-12-22 07:46:53,390.1803157889056,7,15,-1.0997490882873535,3.839781045913696,13.126697609225108,12.365636947691105,52.69125584665304,44.83852689988313,-0.0002590179501567,0.0955438911914825,0,0,0
4309,157044.67747736032,2010-12-22 07:47:23,420.1953283582607,7,15,-1.0997490882873535,3.830553770065308,13.126697609225108,12.374805585711304,52.69125584665304,44.873689640241885,-0.0002590179501567,0.0955438911914825,0,0,0
4310,157074.69268927077,2010-12-22 07:47:53,450.2105403488681,7,15,-1.099568486213684,3.82100248336792,13.126697609225108,12.38397402572123,52.69125584665304,44.90876608899429,-0.0002590179501567,0.0955438911914825,0,0,0
4311,157104.70764222174,2010-12-22 07:48:23,480.2254932096409,7,15,-1.0997490882873535,3.811936855316162,13.126697609225108,12.393142538165971,52.69125584665304,44.94375867814495,-0.0002913951757363,0.0955438911914825,0,0,0
4312,157134.7227321185,2010-12-22 07:48:53,510.2405831014101,7,15,-1.0993878841400146,3.803194999694824,13.126697609225108,12.402310884096002,52.69125584665304,44.97866796752164,-0.0002266406954731,0.0955438911914825,0,0,0
4313,157164.73790756823,2010-12-22 07:49:23,540.2557585510867,7,15,-1.0997490882873535,3.794615030288696,13.126697609225108,12.411479360521072,52.69125584665304,45.01349730543527,-0.0002266406954731,0.0955438911914825,0,0,0
4314,157194.75315532784,2010-12-22 07:49:53,570.2710064009285,7,15,-1.0997490882873535,3.786035060882568,13.126697609225108,12.420647799823508,52.69125584665304,45.04824804125557,-0.0002266406954731,0.0955438911914825,0,0,0
4315,157224.76793693745,2010-12-22 07:50:23,600.2857879854869,7,15,-1.099568486213684,3.777778863906861,13.126697609225108,12.429816418800938,52.69125584665304,45.08292295358391,-0.0002266406954731,0.0955438911914825,0,0,0
4316,157254.7832221302,2010-12-22 07:50:53,630.3010731381553,7,15,-1.0997490882873535,3.7696845531463614,13.126697609225108,12.438985489482995,52.69125584665304,45.11752494203622,-0.0002266406954731,0.0955438911914825,0,0,0
4317,157284.7981352972,2010-12-22 07:51:23,660.3159863703138,7,15,-1.099568486213684,3.761914014816284,13.126697609225108,12.448154510611204,52.69125584665304,45.15205378701455,-0.0002266406954731,0.0955438911914825,0,0,0
4318,157314.81318733477,2010-12-22 07:51:53,690.3310384279341,7,15,-1.0997490882873535,3.754467248916626,13.126697609225108,12.457323541244634,52.69125584665304,45.18651235180562,-0.0001942634553415,0.0955438911914825,0,0,0
4319,157344.828389526,2010-12-22 07:52:23,720.3462405138943,7,15,-1.0997490882873535,3.746858835220337,13.126697609225108,12.466492620797126,52.69125584665304,45.220902073673535,-0.0001942634553415,0.0955438911914825,0,0,0
4320,157374.8433018158,2010-12-22 07:52:53,750.3611527986952,7,15,-1.0993878841400146,3.739412069320679,13.126697609225108,12.475661289902195,52.69125584665304,45.25522173723069,-0.0002266406954731,0.0955438911914825,0,0,0
4321,157404.85838113126,2010-12-22 07:53:23,780.3762321091331,7,15,-1.0997490882873535,3.73228907585144,13.126697609225108,12.484830036829395,52.69125584665304,45.289474256744064,-0.0001942634553415,0.0955438911914825,0,0,0
4322,157434.8734637399,2010-12-22 07:53:53,810.3913147278033,7,15,-1.0997490882873535,3.725327968597412,13.126697609225108,12.493998933907228,52.69125584665304,45.32366258926409,-0.0001618862152099,0.0955438911914825,0,0,0
4323,157464.88858202234,2010-12-22 07:54:23,840.4064331004463,7,15,-1.0997490882873535,3.718366861343384,13.126697609225108,12.50316787973284,52.69125584665304,45.35778738252269,-0.0001618862152099,0.0955438911914825,0,0,0
4324,157494.90363086193,2010-12-22 07:54:53,870.4214818498339,7,15,-1.0997490882873535,3.711729526519776,13.126697609225108,12.512336860135076,52.69125584665304,45.391850097698494,-0.0001618862152099,0.0955438911914825,0,0,0
4325,157524.91874651783,2010-12-22 07:55:23,900.4365975909282,7,15,-1.099568486213684,3.705254077911377,13.126697609225108,12.521505864963546,52.69125584665304,45.42585204488597,-0.0001295089750783,0.0955438911914825,0,0,0
4326,157554.9337679743,2010-12-22 07:55:53,930.4516189621868,7,15,-1.0997490882873535,3.698454856872559,13.126697609225108,12.530674876419532,52.69125584665304,45.45979406386444,-0.0001942634553415,0.0955438911914825,0,0,0
4327,157584.9488356157,2010-12-22 07:56:23,960.466686608599,7,15,-1.099568486213684,3.69214129447937,13.126697609225108,12.539843910289363,52.69125584665304,45.49367647487964,-0.0001618862152099,0.0955438911914825,0,0,0
4328,157614.9639358081,2010-12-22 07:56:53,990.4817867959885,7,15,-1.099929690361023,3.685665845870972,13.126697609225108,12.5490129517398,52.69125584665304,45.527500654505445,-0.0002266406954731,0.0955438911914825,0,0,0
4329,157644.97921230423,2010-12-22 07:57:23,1020.4970633773274,7,15,-1.0997490882873535,3.679514169692993,13.126697609225108,12.558182050171556,52.69125584665304,45.56126785035493,-0.0001942634553415,0.0955438911914825,0,0,0
4330,157674.9940512816,2010-12-22 07:57:53,1050.5119022644813,7,15,-1.099568486213684,3.6736862659454346,13.126697609225108,12.567351013947928,52.69125584665304,45.59497824131834,-0.0001618862152099,0.0955438911914825,0,0,0
4331,157705.00912753443,2010-12-22 07:58:23,1080.526978522323,7,15,-1.0997490882873535,3.667534828186035,13.126697609225108,12.576520108670566,52.69125584665304,45.628633444534046,-0.0001618862152099,0.0955438911914825,0,0,0
4332,157735.02420867945,2010-12-22 07:58:53,1110.5420596673262,7,15,-1.0997490882873535,3.661706924438477,13.126697609225108,12.5856891220305,52.69125584665304,45.66223417200377,-0.0001618862152099,0.0955438911914825,0,0,0
4333,157765.03926180972,2010-12-22 07:59:23,1140.557112802628,7,15,-1.099568486213684,3.656040906906128,13.126697609225108,12.594858114401466,52.69125584665304,45.69578150913906,-9.713172767078504e-05,0.0955438911914825,0,0,0
4334,157795.05460130764,2010-12-22 07:59:53,1170.572452400782,7,15,-1.0997490882873535,3.6503748893737793,13.126697609225108,12.604027256171078,52.69125584665304,45.7292771209511,-9.713172767078504e-05,0.0955438911914825,0,0,0
4335,157825.06943636024,2010-12-22 08:00:23,1200.5872873681817,7,15,-1.099568486213684,3.6445469856262207,13.126697609225108,12.61319620229512,52.69125584665304,45.76271991051803,-0.0001618862152099,0.0955438911914825,0,0,0
4336,157855.0845010192,2010-12-22 08:00:53,1230.6023520020976,7,15,-1.099568486213684,3.639204740524292,13.126697609225108,12.622365185029352,52.69125584665304,45.79611188449911,-0.0001295089750783,0.0955438911914825,0,0,0
4337,157885.09968340115,2010-12-22 08:01:23,1260.6175343840248,7,15,-1.0997490882873535,3.6338624954223633,13.126697609225108,12.631534190686116,52.69125584665304,45.8294543746472,-9.713172767078504e-05,0.0955438911914825,0,0,0
4338,157915.1147093538,2010-12-22 08:01:53,1290.6325604068586,7,15,-1.0997490882873535,3.6285202503204346,13.126697609225108,12.640703228186633,52.69125584665304,45.8627487910643,-0.0001295089750783,0.0955438911914825,0,0,0
4339,157945.1296988357,2010-12-22 08:02:23,1320.647549823599,7,15,-1.0997490882873535,3.623339891433716,13.126697609225108,12.64987223533508,52.69125584665304,45.89599570065903,-0.0001618862152099,0.0955438911914825,0,0,0
4340,157975.14513511947,2010-12-22 08:02:53,1350.6629861023391,7,15,-1.0997490882873535,3.618483304977417,13.126697609225108,12.659041362239432,52.69125584665304,45.92919638425841,-9.713172767078504e-05,0.0955438911914825,0,0,0
4341,158005.15984522112,2010-12-22 08:03:24,1380.6776962140402,7,15,-1.0997490882873535,3.613464832305908,13.126697609225108,12.668210362456758,52.69125584665304,45.96235105797111,-0.0001295089750783,0.0955438911914825,0,0,0
4342,158035.17506545727,2010-12-22 08:03:54,1410.6929165053034,7,15,-1.0997490882873535,3.60860824584961,13.126697609225108,12.677379486998714,52.69125584665304,45.99546126248307,-0.0001295089750783,0.0955438911914825,0,0,0
4343,158065.19000376182,2010-12-22 08:04:24,1440.7078547446915,7,15,-1.099568486213684,3.603913545608521,13.126697609225108,12.68654845382406,52.69125584665304,46.02852690304656,-0.0001618862152099,0.0955438911914825,0,0,0
4344,158095.20507829034,2010-12-22 08:04:54,1470.72292927323,7,15,-1.099929690361023,3.599218845367432,13.126697609225108,12.695717526127758,52.69125584665304,46.06155031546641,-0.0001295089750783,0.0955438911914825,0,0,0
4345,158125.22017538507,2010-12-22 08:05:24,1500.7380264631604,7,15,-1.099929690361023,3.5946860313415527,13.126697609225108,12.704886612961474,52.69125584665304,46.09453211426641,-0.0001295089750783,0.0955438911914825,0,0,0
4346,158155.23520431513,2010-12-22 08:05:54,1530.7530552979915,7,15,-1.099929690361023,3.590477228164673,13.126697609225108,12.714055688481812,52.69125584665304,46.12747335733605,-0.0001295089750783,0.0955438911914825,0,0,0
4347,158185.25027643266,2010-12-22 08:06:24,1560.7681274255551,7,15,-1.0997490882873535,3.586106300354004,13.126697609225108,12.723224731259078,52.69125584665304,46.16037505424334,-0.0001295089750783,0.0955438911914825,0,0,0
4348,158215.26557818163,2010-12-22 08:06:54,1590.7834292597347,7,15,-1.0997490882873535,3.582059144973755,13.126697609225108,12.732393827056024,52.69125584665304,46.1932389452459,-0.0001295089750783,0.0955438911914825,0,0,0
4349,158245.28052318285,2010-12-22 08:07:24,1620.798374225862,7,15,-1.0997490882873535,3.578173875808716,13.126697609225108,12.741562864669945,52.69125584665304,46.22606547679136,-9.713172767078504e-05,0.0955438911914825,0,0,0
4350,158275.29561716478,2010-12-22 08:07:54,1650.8134681476597,7,15,-1.0997490882873535,3.574126720428467,13.126697609225108,12.750731936797498,52.69125584665304,46.25885557704402,-0.0001295089750783,0.0955438911914825,0,0,0
4351,158305.31070697136,2010-12-22 08:08:24,1680.8285579542169,7,15,-1.0997490882873535,3.570241451263428,13.126697609225108,12.75990096478183,52.69125584665304,46.29160955379725,-0.0001295089750783,0.0955438911914825,0,0,0
4352,158335.3256697969,2010-12-22 08:08:54,1710.8435207797866,7,15,-1.0997490882873535,3.5663561820983887,13.126697609225108,12.769069990676767,52.69125584665304,46.32432750943192,-9.713172767078504e-05,0.0955438911914825,0,0,0
4353,158365.3408306653,2010-12-22 08:09:24,1740.8586816481782,7,15,-1.0997490882873535,3.562794685363769,13.126697609225108,12.778239049327016,52.69125584665304,46.35701077766486,-6.47544875391759e-05,0.0955438911914825,0,0,0
4354,158395.35577833315,2010-12-22 08:09:54,1770.8736293160289,7,15,-1.0997490882873535,3.5590713024139404,13.126697609225108,12.787408039439407,52.69125584665304,46.38966056776603,-6.47544875391759e-05,0.0955438911914825,0,0,0
4355,158425.37085352835,2010-12-22 08:10:24,1800.888704511226,7,15,-1.0997490882873535,3.5555098056793213,13.126697609225108,12.796577019476056,52.69125584665304,46.42227750770506,-9.713172767078504e-05,0.0955438911914825,0,0,0
4356,158455.38592729,2010-12-22 08:10:54,1830.9037782828807,7,15,-1.0997490882873535,3.551948308944702,13.126697609225108,12.805746055643551,52.69125584665304,46.45486164642916,-9.713172767078504e-05,0.0955438911914825,0,0,0
4357,158485.40098613952,2010-12-22 08:11:24,1860.9188371324024,7,15,-1.099568486213684,3.548224925994873,13.126697609225108,12.814915122798528,52.69125584665304,46.48741241402957,-6.47544875391759e-05,0.0955438911914825,0,0,0
4358,158515.4160860412,2010-12-22 08:11:54,1890.9339370491184,7,15,-1.0997490882873535,3.544663429260254,13.126697609225108,12.824084194896978,52.69125584665304,46.519929347461385,-9.713172767078504e-05,0.0955438911914825,0,0,0
4359,158545.4312612703,2010-12-22 08:12:24,1920.949112248171,7,15,-1.099568486213684,3.540940046310425,13.126697609225108,12.833253293513197,52.69125584665304,46.55241313428037,-6.47544875391759e-05,0.0955438911914825,0,0,0
4360,158575.44629287705,2010-12-22 08:12:54,1950.9641439200625,7,15,-1.0997490882873535,3.5373785495758057,13.126697609225108,12.842422342281806,52.69125584665304,46.58486380166634,-0.0001295089750783,0.0955438911914825,0,0,0
4361,158605.4612845544,2010-12-22 08:13:24,1980.9791355372795,7,15,-1.0997490882873535,3.5338170528411865,13.126697609225108,12.851591344543309,52.69125584665304,46.61728135355773,-9.713172767078504e-05,0.0955438911914825,0,0,0
4362,158635.476375579,2010-12-22 08:13:54,2010.9942266821668,7,15,-1.0997490882873535,3.5300936698913574,13.126697609225108,12.860760445485331,52.69125584665304,46.64966553516787,-9.713172767078504e-05,0.0955438911914825,0,0,0
4363,158665.49158259723,2010-12-22 08:14:24,2041.0094336101763,7,15,-1.0997490882873535,3.5263702869415283,13.126697609225108,12.869929549036009,52.69125584665304,46.68201604314699,-3.237724376958795e-05,0.0955438911914825,0,0,0
4364,158695.50663814854,2010-12-22 08:14:54,2071.0244891414404,7,15,-1.0997490882873535,3.5223231315612797,13.126697609225108,12.879098570077764,52.69125584665304,46.71433180127728,-0.0001295089750783,0.0955438911914825,0,0,0
4365,158725.5217239752,2010-12-22 08:15:24,2101.0395750533057,7,15,-1.0997490882873535,3.51859974861145,13.126697609225108,12.888267588927269,52.69125584665304,46.74661201057025,-9.713172767078504e-05,0.0955438911914825,0,0,0
4366,158755.53664898165,2010-12-22 08:15:54,2131.054499964527,7,15,-1.0997490882873535,3.514714479446411,13.126697609225108,12.897436604401484,52.69125584665304,46.77885596154169,-9.713172767078504e-05,0.0955438911914825,0,0,0
4367,158785.55171131986,2010-12-22 08:16:24,2161.06956230273,7,15,-1.0997490882873535,3.5105056762695312,13.126697609225108,12.9066056490629,52.69125584665304,46.8110625435952,-0.0001295089750783,0.0955438911914825,0,0,0
4368,158815.56679114158,2010-12-22 08:16:54,2191.0846421294527,7,15,-1.0997490882873535,3.5062966346740723,13.126697609225108,12.915774653642693,52.69125584665304,46.84323118076323,-0.0001295089750783,0.0955438911914825,0,0,0
4369,158845.58186225162,2010-12-22 08:17:24,2221.099713224447,7,15,-1.0997490882873535,3.5019257068634038,13.126697609225108,12.924943697265116,52.69125584665304,46.87536128174024,-0.0001295089750783,0.0955438911914825,0,0,0
4370,158875.59710035217,2010-12-22 08:17:54,2251.11495145034,7,15,-1.0997490882873535,3.4975547790527344,13.126697609225108,12.934112806506834,52.69125584665304,46.90745054021376,-9.713172767078504e-05,0.0955438911914825,0,0,0
4371,158905.6121053928,2010-12-22 08:18:24,2281.129956435823,7,15,-1.0997490882873535,3.4926981925964355,13.126697609225108,12.94328186767113,52.69125584665304,46.93949685705656,-0.0001295089750783,0.0955438911914825,0,0,0
4372,158935.62720391105,2010-12-22 08:18:54,2311.145054903934,7,15,-1.099929690361023,3.487517833709717,13.126697609225108,12.9524508946243,52.69125584665304,46.97149755738895,-0.0001618862152099,0.0955438911914825,0,0,0
4373,158965.64214365417,2010-12-22 08:19:24,2341.159994637039,7,15,-1.0997490882873535,3.481851816177368,13.126697609225108,12.961619853869546,52.69125584665304,47.0034499472389,-0.0001942634553415,0.0955438911914825,0,0,0
4374,158995.65733716878,2010-12-22 08:19:54,2371.175188161695,7,15,-1.0997490882873535,3.4760239124298096,13.126697609225108,12.970788872938051,52.69125584665304,47.03534907403251,-0.0001618862152099,0.0955438911914825,0,0,0
4375,159025.67228832535,2010-12-22 08:20:24,2401.190139313214,7,15,-1.099929690361023,3.469386577606201,13.126697609225108,12.979957774160948,52.69125584665304,47.06719103015002,-0.0001942634553415,0.0955438911914825,0,0,0
4376,159055.6873803474,2010-12-22 08:20:54,2431.205231335284,7,15,-1.099929690361023,3.461939811706543,13.126697609225108,12.989126753018006,52.69125584665304,47.09896976751856,-0.0002590179501567,0.0955438911914825,0,0,0
4377,159085.70244305153,2010-12-22 08:21:24,2461.220294054436,7,15,-1.099568486213684,3.453845500946045,13.126697609225108,12.99829578715231,52.69125584665304,47.13067740602006,-0.0002266406954731,0.0955438911914825,0,0,0
4378,159115.71777637905,2010-12-22 08:21:54,2491.2356275022844,7,15,-1.0997490882873535,3.4439704418182373,13.126697609225108,13.007464914469995,52.69125584665304,47.16230246698031,-0.0002913951757363,0.0955438911914825,0,0,0
4379,159145.73256932187,2010-12-22 08:22:24,2521.250420374933,7,15,-1.099568486213684,3.43263840675354,13.126697609225108,13.016633836040093,52.69125584665304,47.19382993483979,-0.0003561496851034,0.0955438911914825,0,0,0
4380,159175.74785617378,2010-12-22 08:22:54,2551.2657072318425,7,15,-1.0997490882873535,3.4188783168792725,13.126697609225108,13.025802936518335,52.69125584665304,47.22524299878428,-0.0003885269106831,0.0955438911914825,0,0,0
4381,159205.762760183,2010-12-22 08:23:24,2581.280611256087,7,15,-1.0997490882873535,3.4020421504974365,13.126697609225108,13.034971964232932,52.69125584665304,47.25651611970794,-0.0005180359003134,0.0955438911914825,0,0,0
4382,159235.77791874064,2010-12-22 08:23:54,2611.295769733529,7,15,-1.0997490882873535,3.3814826011657715,13.126697609225108,13.044141049793966,52.69125584665304,47.28761965053572,-0.0005827903514727,0.0955438911914825,0,0,0
4383,159265.79286374684,2010-12-22 08:24:24,2641.310714729731,7,15,-1.0997490882873535,3.355095148086548,13.126697609225108,13.053310027798608,52.69125584665304,47.31850879687984,-0.0007770538213662,0.0955438911914825,0,0,0
4384,159295.8079674079,2010-12-22 08:24:54,2671.325818410815,7,15,-1.099568486213684,3.3204517364501958,13.126697609225108,13.062479108883643,52.69125584665304,47.349120045754646,-0.0010036944877356,0.0955438911914825,0,0,0
4385,159325.82303114457,2010-12-22 08:25:24,2701.34088225276,7,15,-1.099568486213684,3.2743141651153564,13.126697609225108,13.07164808086098,52.69125584665304,47.37936326821069,-0.0013922214275225,0.0955438911914825,0,0,0
4386,159355.83806779384,2010-12-22 08:25:54,2731.3559187817377,7,15,-1.0997490882873535,3.2116644382476807,13.126697609225108,13.080817070569683,52.69125584665304,47.40911266135304,-0.0019102573860436,0.0955438911914825,0,0,0
4387,159385.85314392138,2010-12-22 08:26:24,2761.3709949042423,7,15,-1.099929690361023,3.1247317790985107,13.126697609225108,13.089986096105672,52.69125584665304,47.438185367581895,-0.0027196884620934,0.0955438911914825,0,0,0
4388,159415.86825557728,2010-12-22 08:26:54,2791.386106615308,7,15,-1.0997490882873535,2.9952232837677,13.126697609225108,13.099155155227743,52.69125584665304,47.46628591653809,-0.0041119097732007,0.0955438911914825,0,0,0
4389,159444.49269091367,2010-12-22 08:27:23,2820.010541896566,7,15,-1.1001102924346924,2.7949705123901367,13.126697609225108,13.107899373183148,52.69125584665304,47.49166937736919,-0.0067020892165601,0.0955438911914825,0,0,0
4390,159455.33622697112,2010-12-22 08:27:34,2830.8540779539853,7,15,-1.0997490882873535,2.699781894683838,13.126697609225108,13.111211891864787,52.69125584665304,47.50077245352451,-0.0071553229354321,0.0955438911914825,0,0,0
4391,159515.35570075043,2010-12-22 08:28:34,60.01451446599808,8,15,0.0,3.4509315490722656,13.126697609225108,13.111211891864787,52.69125584665304,47.50077245352451,0.0013598442310467,0.0955438911914825,0,0,0
4392,159515.54925368784,2010-12-22 08:28:34,0.187489660809784,9,15,-0.0016447266098111,3.451255321502685,13.126697609225108,13.11121197752291,52.69125584665304,47.50077274915256,0.0,0.0949916243553161,0,0,0
4393,159520.3773202057,2010-12-22 08:28:39,5.015556173632077,9,15,0.0003419754502829,3.4591877460479736,13.126698445922242,13.111211978786327,52.691258738114094,47.50077275351898,0.0011979580158367,0.0949916243553161,0,0,0
