Data_Point,Test_Time(s),Date_Time,Step_Time(s),Step_Index,Cycle_Index,Current(A),Voltage(V),Charge_Capacity(Ah),Discharge_Capacity(Ah),Charge_Energy(Wh),Discharge_Energy(Wh),dV/dt(V/s),Internal_Resistance(Ohm),Is_FC_Data,AC_Impedance(Ohm),ACI_Phase_Angle(Deg)
5841,212246.48699770492,2010-12-22 23:07:32,30.01523465701187,1,21,0.0,3.467282056808472,17.444426846159207,17.436102055666368,70.03274479922459,63.16109583356642,0.0008094310760498,0.0962666198611259,0,0,0
5842,212276.50213672905,2010-12-22 23:08:02,60.03037375623185,1,21,0.0,3.492374420166016,17.444426846159207,17.436102055666368,70.03274479922459,63.16109583356642,0.0005180359003134,0.0962666198611259,0,0,0
5843,212306.51713355412,2010-12-22 23:08:32,90.04537051123371,1,21,0.0,3.511476993560791,17.444426846159207,17.436102055666368,70.03274479922459,63.16109583356642,0.0004856586456298,0.0962666198611259,0,0,0
5844,212336.48537899036,2010-12-22 23:09:02,120.01361594737676,1,21,0.0,3.5263702869415283,17.444426846159207,17.436102055666368,70.03274479922459,63.16109583356642,0.0003885269106831,0.0962666198611259,0,0,0
5845,212366.5054270032,2010-12-22 23:09:32,30.015226972890236,2,21,0.5501165986061096,3.6693155765533447,17.449013614042066,17.436102055666368,70.04944242108331,63.16109583356642,0.0012627125252038,0.0962666198611259,0,0,0
5846,212396.52071282253,2010-12-22 23:10:02,60.03051288745455,2,21,0.550297200679779,3.7065491676330566,17.453600311607683,17.436102055666368,70.06636413203204,63.16109583356642,0.0008418083307333,0.0962666198611259,0,0,0
5847,212426.53566667577,2010-12-22 23:10:32,90.04546675573447,2,21,0.5499359965324402,3.7324509620666495,17.458186997490674,17.436102055666368,70.08342761510085,63.16109583356642,0.0006151676061563,0.0962666198611259,0,0,0
5848,212456.55068936537,2010-12-22 23:11:02,120.0604893400115,2,21,0.5499359965324402,3.7518773078918457,17.462773587689764,17.436102055666368,70.10059384314039,63.16109583356642,0.0004856586456298,0.0962666198611259,0,0,0
5849,212486.56579571805,2010-12-22 23:11:32,150.0755956927431,2,21,0.5501165986061096,3.7654755115509033,17.467360181494968,17.436102055666368,70.11783557563619,63.16109583356642,0.0002913951757363,0.0962666198611259,0,0,0
5850,212516.58103212944,2010-12-22 23:12:02,180.09083209910818,2,21,0.5501165986061096,3.774541139602661,17.47194686761622,17.436102055666368,70.13512912871123,63.16109583356642,0.0001942634553415,0.0962666198611259,0,0,0
5851,212546.5960340924,2010-12-22 23:12:32,210.10583406206985,2,21,0.5499359965324402,3.7811784744262695,17.47653354123686,17.436102055666368,70.1524577088687,63.16109583356642,0.0001618862152099,0.0962666198611259,0,0,0
5852,212576.6111390266,2010-12-22 23:13:02,240.12093900128392,2,21,0.550297200679779,3.786844491958618,17.48112018613995,17.436102055666368,70.16981363027104,63.16109583356642,0.0001295089750783,0.0962666198611259,0,0,0
5853,212606.62625861223,2010-12-22 23:13:32,270.1360586120076,2,21,0.5501165986061096,3.791701078414917,17.48570684914118,17.436102055666368,70.18719388010122,63.16109583356642,9.713172767078504e-05,0.0962666198611259,0,0,0
5854,212636.64137944105,2010-12-22 23:14:02,300.15117941068735,2,21,0.550297200679779,3.796557664871216,17.4902934433942,17.436102055666368,70.20459631358594,63.16109583356642,0.0001295089750783,0.0962666198611259,0,0,0
5855,212666.65652660027,2010-12-22 23:14:32,330.1663265950269,2,21,0.550297200679779,3.8012523651123047,17.494880157096,17.436102055666368,70.22202044560053,63.16109583356642,0.0001618862152099,0.0962666198611259,0,0,0
5856,212696.6716233842,2010-12-22 23:15:02,360.1814233538845,2,21,0.550297200679779,3.805461406707764,17.499466823129637,17.436102055666368,70.23946463565768,63.16109583356642,9.713172767078504e-05,0.0962666198611259,0,0,0
5857,212726.68673885465,2010-12-22 23:15:32,390.1965388243051,2,21,0.5501165986061096,3.8095085620880127,17.504053474946524,17.436102055666368,70.25692827950081,63.16109583356642,9.713172767078504e-05,0.0962666198611259,0,0,0
5858,212756.70188518183,2010-12-22 23:16:02,420.2116851515116,2,21,0.550297200679779,3.8138794898986816,17.50864020920183,17.436102055666368,70.27441119236222,63.16109583356642,0.0001618862152099,0.0962666198611259,0,0,0
5859,212786.71701939387,2010-12-22 23:16:32,450.226819488882,2,21,0.5501165986061096,3.8177647590637207,17.51322696024485,17.436102055666368,70.29191286769388,63.16109583356642,0.0001295089750783,0.0962666198611259,0,0,0
5860,212816.7323186567,2010-12-22 23:17:02,480.2421187266005,2,21,0.5501165986061096,3.82148814201355,17.51781375155052,17.436102055666368,70.30943279329051,63.16109583356642,6.47544875391759e-05,0.0962666198611259,0,0,0
5861,212846.74721766845,2010-12-22 23:17:32,510.25701764313504,2,21,0.5501165986061096,3.825697183609009,17.522400381106806,17.436102055666368,70.32696988225099,63.16109583356642,0.0001618862152099,0.0962666198611259,0,0,0
5862,212876.76243714264,2010-12-22 23:18:02,540.2722371725023,2,21,0.550297200679779,3.829420566558838,17.5269870679987,17.436102055666368,70.34452491807815,63.16109583356642,9.713172767078504e-05,0.0962666198611259,0,0,0
5863,212906.77759992584,2010-12-22 23:18:32,570.2873998955092,2,21,0.5501165986061096,3.833143949508667,17.531573766331107,17.436102055666368,70.36209762515804,63.16109583356642,9.713172767078504e-05,0.0962666198611259,0,0,0
5864,212936.7927339374,2010-12-22 23:19:02,600.3025339070688,2,21,0.5501165986061096,3.837028980255127,17.536160445253394,17.436102055666368,70.37968794657243,63.16109583356642,9.713172767078504e-05,0.0962666198611259,0,0,0
5865,212966.8077030737,2010-12-22 23:19:32,630.3175030433425,2,21,0.5501165986061096,3.840914249420166,17.54074701647019,17.436102055666368,70.39729548586031,63.16109583356642,0.0001295089750783,0.0962666198611259,0,0,0
5866,212996.82319631416,2010-12-22 23:20:02,660.3329963740539,2,21,0.550297200679779,3.844799518585205,17.545333722668744,17.436102055666368,70.41492123048829,63.16109583356642,0.0001295089750783,0.0962666198611259,0,0,0
5867,213026.8380795867,2010-12-22 23:20:32,690.3478795564347,2,21,0.550297200679779,3.848684787750244,17.54992034104572,17.436102055666368,70.43256424826966,63.16109583356642,0.0001295089750783,0.0962666198611259,0,0,0
5868,213056.8530776099,2010-12-22 23:21:02,720.3628775795922,2,21,0.5499359965324402,3.8522462844848633,17.55450687332259,17.436102055666368,70.45022438062001,63.16109583356642,9.713172767078504e-05,0.0962666198611259,0,0,0
5869,213086.86833161005,2010-12-22 23:21:32,750.3781315797389,2,21,0.5501165986061096,3.855969667434693,17.55909353414613,17.436102055666368,70.46790217018952,63.16109583356642,6.47544875391759e-05,0.0962666198611259,0,0,0
5870,213116.8833772968,2010-12-22 23:22:02,780.3931773266552,2,21,0.5501165986061096,3.8596930503845215,17.563680178679054,17.436102055666368,70.48559677437626,63.16109583356642,9.713172767078504e-05,0.0962666198611259,0,0,0
5871,213146.8984422465,2010-12-22 23:22:32,810.4082422162072,2,21,0.550297200679779,3.8632545471191406,17.568266808700855,17.436102055666368,70.50330773699693,63.16109583356642,6.47544875391759e-05,0.0962666198611259,0,0,0
5872,213176.9136102978,2010-12-22 23:23:02,840.4234103526853,2,21,0.5501165986061096,3.86665415763855,17.572853398361,17.436102055666368,70.52103431554151,63.16109583356642,9.713172767078504e-05,0.0962666198611259,0,0,0
5873,213206.92894238725,2010-12-22 23:23:32,870.4387424822539,2,21,0.550297200679779,3.869891881942749,17.577440099436334,17.436102055666368,70.53877672640822,63.16109583356642,9.713172767078504e-05,0.0962666198611259,0,0,0
5874,213236.9439285008,2010-12-22 23:24:02,900.4537284754756,2,21,0.5501165986061096,3.8729677200317374,17.582026840981463,17.436102055666368,70.55653399480082,63.16109583356642,6.47544875391759e-05,0.0962666198611259,0,0,0
5875,213266.9619137475,2010-12-22 23:24:32,930.471713807436,2,21,0.5499359965324402,3.876043558120728,17.58661399360059,17.436102055666368,70.57430683868371,63.16109583356642,9.713172767078504e-05,0.0962666198611259,0,0,0
5876,213296.97406144772,2010-12-22 23:25:02,960.4838614224628,2,21,0.5501165986061096,3.878795623779297,17.591200186594527,17.436102055666368,70.59208941200775,63.16109583356642,6.47544875391759e-05,0.0962666198611259,0,0,0
5877,213326.98915744977,2010-12-22 23:25:32,990.4989574194244,2,21,0.5501165986061096,3.881547689437866,17.595786911792143,17.436102055666368,70.60988676473383,63.16109583356642,9.713172767078504e-05,0.0962666198611259,0,0,0
5878,213357.00427800784,2010-12-22 23:26:02,1020.5140779775056,2,21,0.550297200679779,3.8841378688812256,17.60037357987518,17.436102055666368,70.62769597493876,63.16109583356642,6.47544875391759e-05,0.0962666198611259,0,0,0
5879,213387.019404626,2010-12-22 23:26:32,1050.529204595667,2,21,0.5501165986061096,3.886404275894165,17.604960314491258,17.436102055666368,70.64551686993873,63.16109583356642,3.237724376958795e-05,0.0962666198611259,0,0,0
5880,213417.0346488468,2010-12-22 23:27:02,1080.544448816478,2,21,0.550297200679779,3.888994455337525,17.609547000816328,17.436102055666368,70.66334845597403,63.16109583356642,9.713172767078504e-05,0.0962666198611259,0,0,0
5881,213447.04962628876,2010-12-22 23:27:32,1110.559426268445,2,21,0.5499359965324402,3.891098976135254,17.614133739986492,17.436102055666368,70.6811906063826,63.16109583356642,6.47544875391759e-05,0.0962666198611259,0,0,0
5882,213477.0647596788,2010-12-22 23:28:02,1140.5745596484328,2,21,0.5501165986061096,3.893203496932984,17.618720490112146,17.436102055666368,70.69904279917647,63.16109583356642,6.47544875391759e-05,0.0962666198611259,0,0,0
5883,213507.07994071732,2010-12-22 23:28:32,1170.5897407521793,2,21,0.5501165986061096,3.894984245300293,17.623307242612043,17.436102055666368,70.71690439604973,63.16109583356642,0.0,0.0962666198611259,0,0,0
5884,213537.0949966045,2010-12-22 23:29:02,1200.6047965741673,2,21,0.5501165986061096,3.8970887660980233,17.627893931437022,17.436102055666368,70.73477459562541,63.16109583356642,6.47544875391759e-05,0.0962666198611259,0,0,0
5885,213567.1101209019,2010-12-22 23:29:32,1230.6199208715534,2,21,0.5501165986061096,3.898869514465332,17.632480617893954,17.436102055666368,70.75265376444402,63.16109583356642,3.237724376958795e-05,0.0962666198611259,0,0,0
5886,213597.1252417708,2010-12-22 23:30:02,1260.6350417654703,2,21,0.5501165986061096,3.9009740352630615,17.637067312590172,17.436102055666368,70.77054168650506,63.16109583356642,6.47544875391759e-05,0.0962666198611259,0,0,0
5887,213627.1403717673,2010-12-22 23:30:32,1290.650171736976,2,21,0.5499359965324402,3.902754783630371,17.64165391121371,17.436102055666368,70.78843776825244,63.16109583356642,3.237724376958795e-05,0.0962666198611259,0,0,0
5888,213657.1554875736,2010-12-22 23:31:02,1320.6652875432326,2,21,0.550297200679779,3.90469741821289,17.646240566104407,17.436102055666368,70.80634252205941,63.16109583356642,6.47544875391759e-05,0.0962666198611259,0,0,0
5889,213687.170602653,2010-12-22 23:31:32,1350.6804026276927,2,21,0.5501165986061096,3.9063162803649902,17.650827257102332,17.436102055666368,70.82425564636124,63.16109583356642,6.47544875391759e-05,0.0962666198611259,0,0,0
5890,213717.18575678463,2010-12-22 23:32:02,1380.6955567793702,2,21,0.5501165986061096,3.9080970287323,17.655413926131256,17.436102055666368,70.84217690051204,63.16109583356642,3.237724376958795e-05,0.0962666198611259,0,0,0
5891,213747.2009154877,2010-12-22 23:32:32,1410.7107155224733,2,21,0.550297200679779,3.9100396633148193,17.660000615112295,17.436102055666368,70.86010644757789,63.16109583356642,9.713172767078504e-05,0.0962666198611259,0,0,0
5892,213777.215970648,2010-12-22 23:33:02,1440.7257706176524,2,21,0.5501165986061096,3.911658525466919,17.664587294770953,17.436102055666368,70.87804404568162,63.16109583356642,3.237724376958795e-05,0.0962666198611259,0,0,0
5893,213807.2311286292,2010-12-22 23:33:32,1470.7409285988597,2,21,0.5501165986061096,3.913439273834229,17.669174043767907,17.436102055666368,70.89599001127846,63.16109583356642,6.47544875391759e-05,0.0962666198611259,0,0,0
5894,213837.2462142002,2010-12-22 23:34:02,1500.7560141698764,2,21,0.5501165986061096,3.915219783782959,17.67376075946046,17.436102055666368,70.9139439314626,63.16109583356642,3.237724376958795e-05,0.0962666198611259,0,0,0
5895,213867.261478496,2010-12-22 23:34:32,1530.7712784756682,2,21,0.5501165986061096,3.9168386459350586,17.67834750597506,17.436102055666368,70.9319058334959,63.16109583356642,3.237724376958795e-05,0.0962666198611259,0,0,0
5896,213897.27659402156,2010-12-22 23:35:02,1560.7863940012262,2,21,0.5501165986061096,3.918619394302368,17.68293412499865,17.436102055666368,70.9498753102466,63.16109583356642,6.47544875391759e-05,0.0962666198611259,0,0,0
5897,213927.2915448322,2010-12-22 23:35:32,1590.8013448319473,2,21,0.5501165986061096,3.920562028884888,17.687520724483665,17.436102055666368,70.96785274963847,63.16109583356642,9.713172767078504e-05,0.0962666198611259,0,0,0
5898,213957.30667430247,2010-12-22 23:36:02,1620.816474282156,2,21,0.5499359965324402,3.9221808910369873,17.692107395576752,17.436102055666368,70.98583843431037,63.16109583356642,6.47544875391759e-05,0.0962666198611259,0,0,0
5899,213987.32190678903,2010-12-22 23:36:32,1650.8317067787918,2,21,0.5499359965324402,3.923961639404297,17.69669397737958,17.436102055666368,71.00383178405639,63.16109583356642,6.47544875391759e-05,0.0962666198611259,0,0,0
5900,214017.3369313984,2010-12-22 23:37:03,1680.846731388108,2,21,0.5501165986061096,3.925580501556397,17.701280356861535,17.436102055666368,71.02183229764462,63.16109583356642,3.237724376958795e-05,0.0962666198611259,0,0,0
5901,214047.3522339694,2010-12-22 23:37:33,1710.8620339641338,2,21,0.5499359965324402,3.927361249923706,17.705866812662645,17.436102055666368,71.03984100157676,63.16109583356642,6.47544875391759e-05,0.0962666198611259,0,0,0
5902,214077.36722330595,2010-12-22 23:38:03,1740.8770232856375,2,21,0.5501165986061096,3.9289801120758057,17.710453217930233,17.436102055666368,71.0578574824888,63.16109583356642,3.237724376958795e-05,0.0962666198611259,0,0,0
5903,214107.3823575832,2010-12-22 23:38:33,1770.8921575528334,2,21,0.5501165986061096,3.9307608604431152,17.715039783745038,17.436102055666368,71.07588262645743,63.16109583356642,6.47544875391759e-05,0.0962666198611259,0,0,0
5904,214137.39761144292,2010-12-22 23:39:03,1800.9074114126306,2,21,0.550297200679779,3.9327034950256343,17.719626433301077,17.436102055666368,71.09391599808018,63.16109583356642,9.713172767078504e-05,0.0962666198611259,0,0,0
5905,214167.4125812108,2010-12-22 23:39:33,1830.922381180476,2,21,0.5501165986061096,3.934484243392944,17.724213016721983,17.436102055666368,71.1119571785845,63.16109583356642,3.237724376958795e-05,0.0962666198611259,0,0,0
5906,214197.42783561195,2010-12-22 23:40:03,1860.9376355816205,2,21,0.5501165986061096,3.936103105545044,17.728799658306524,17.436102055666368,71.130006595817,63.16109583356642,3.237724376958795e-05,0.0962666198611259,0,0,0
5907,214227.44306225903,2010-12-22 23:40:33,1890.9528622287,2,21,0.5499359965324402,3.937721967697144,17.73338623463669,17.436102055666368,71.1480636489902,63.16109583356642,3.237724376958795e-05,0.0962666198611259,0,0,0
5908,214257.45797986703,2010-12-22 23:41:03,1920.96777984176,2,21,0.5501165986061096,3.939664602279663,17.73797283399621,17.436102055666368,71.1661289596675,63.16109583356642,6.47544875391759e-05,0.0962666198611259,0,0,0
5909,214287.4732008651,2010-12-22 23:41:33,1950.9830008347697,2,21,0.550297200679779,3.9414453506469727,17.742559471592536,17.436102055666368,71.18420251355036,63.16109583356642,6.47544875391759e-05,0.0962666198611259,0,0,0
5910,214317.4882039208,2010-12-22 23:42:03,1980.9980038904505,2,21,0.5501165986061096,3.943064212799072,17.74714607642083,17.436102055666368,71.20228391769662,63.16109583356642,3.237724376958795e-05,0.0962666198611259,0,0,0
5911,214347.50336232805,2010-12-22 23:42:33,2011.0131623077427,2,21,0.5501165986061096,3.944844961166382,17.75173266833264,17.436102055666368,71.22037338063157,63.16109583356642,6.47544875391759e-05,0.0962666198611259,0,0,0
5912,214377.5184653024,2010-12-22 23:43:03,2041.0282652720423,2,21,0.5499359965324402,3.9464638233184814,17.756319237719453,17.436102055666368,71.23847089762666,63.16109583356642,3.237724376958795e-05,0.0962666198611259,0,0,0
5913,214407.5335860359,2010-12-22 23:43:33,2071.0433860105727,2,21,0.5501165986061096,3.948406457901001,17.760905808671946,17.436102055666368,71.25657639751236,63.16109583356642,6.47544875391759e-05,0.0962666198611259,0,0,0
5914,214437.54882257257,2010-12-22 23:44:03,2101.0586226074115,2,21,0.550297200679779,3.950187206268311,17.7654924041172,17.436102055666368,71.27469018661088,63.16109583356642,3.237724376958795e-05,0.0962666198611259,0,0,0
5915,214467.56382543777,2010-12-22 23:44:33,2131.0736254174813,2,21,0.550297200679779,3.95196795463562,17.77007895809249,17.436102055666368,71.29281201057765,63.16109583356642,6.47544875391759e-05,0.0962666198611259,0,0,0
5916,214497.57893828664,2010-12-22 23:45:03,2161.0887382563533,2,21,0.5499359965324402,3.95358681678772,17.774665569443535,17.436102055666368,71.31094227732699,63.16109583356642,0.0,0.0962666198611259,0,0,0
5917,214527.59419153497,2010-12-22 23:45:33,2191.103991519666,2,21,0.5501165986061096,3.9555294513702393,17.779252129032358,17.436102055666368,71.32908062952157,63.16109583356642,3.237724376958795e-05,0.0962666198611259,0,0,0
5918,214557.60920791377,2010-12-22 23:46:03,2221.119007903514,2,21,0.550297200679779,3.957310199737549,17.7838387806635,17.436102055666368,71.34722763831795,63.16109583356642,6.47544875391759e-05,0.0962666198611259,0,0,0
5919,214587.62431322897,2010-12-22 23:46:33,2251.134113198613,2,21,0.5501165986061096,3.959252834320069,17.78842537360899,17.436102055666368,71.3653827558645,63.16109583356642,6.47544875391759e-05,0.0962666198611259,0,0,0
5920,214617.63957418132,2010-12-22 23:47:03,2281.149374241285,2,21,0.550297200679779,3.961033582687378,17.793011990216865,17.436102055666368,71.3835463348993,63.16109583356642,3.237724376958795e-05,0.0962666198611259,0,0,0
5921,214647.65455403432,2010-12-22 23:47:33,2311.1643540040022,2,21,0.550297200679779,3.9629762172698975,17.79759865274539,17.436102055666368,71.40171855747033,63.16109583356642,9.713172767078504e-05,0.0962666198611259,0,0,0
5922,214677.66979935285,2010-12-22 23:48:03,2341.179599342595,2,21,0.5501165986061096,3.964756965637207,17.802185274480863,17.436102055666368,71.41989914413999,63.16109583356642,3.237724376958795e-05,0.0962666198611259,0,0,0
5923,214707.68479929585,2010-12-22 23:48:33,2371.1945992755045,2,21,0.5501165986061096,3.9665377140045166,17.80677191015255,17.436102055666368,71.43808837535694,63.16109583356642,0.0,0.0962666198611259,0,0,0
5924,214737.7000413061,2010-12-22 23:49:03,2401.209841285815,2,21,0.5497553944587708,3.968480348587036,17.81135856699898,17.436102055666368,71.45628634145318,63.16109583356642,3.237724376958795e-05,0.0962666198611259,0,0,0
5925,214767.71520846515,2010-12-22 23:49:33,2431.2250084498733,2,21,0.5501165986061096,3.970422983169556,17.81594518652033,17.436102055666368,71.47449289492928,63.16109583356642,3.237724376958795e-05,0.0962666198611259,0,0,0
5926,214797.7301922629,2010-12-22 23:50:03,2461.2399923278317,2,21,0.5501165986061096,3.972365617752075,17.820531723980295,17.436102055666368,71.49270792678382,63.16109583356642,6.47544875391759e-05,0.0962666198611259,0,0,0
5927,214827.74543118052,2010-12-22 23:50:33,2491.2552311502086,2,21,0.5501165986061096,3.9741463661193848,17.82511831216213,17.436102055666368,71.51093197313655,63.16109583356642,0.0,0.0962666198611259,0,0,0
5928,214857.7606186652,2010-12-22 23:51:03,2521.270418644858,2,21,0.5501165986061096,3.976412773132324,17.82970491031911,17.436102055666368,71.5291650904392,63.16109583356642,9.713172767078504e-05,0.0962666198611259,0,0,0
5929,214887.7755290803,2010-12-22 23:51:33,2551.285329060007,2,21,0.5501165986061096,3.977869749069214,17.834291481334965,17.436102055666368,71.54740693669761,63.16109583356642,3.237724376958795e-05,0.0962666198611259,0,0,0
5930,214917.790766419,2010-12-22 23:52:03,2581.300566478892,2,21,0.5499359965324402,3.980136156082153,17.838877984911484,17.436102055666368,71.56565781552985,63.16109583356642,0.0,0.0962666198611259,0,0,0
5931,214947.80574552505,2010-12-22 23:52:33,2611.315545499763,2,21,0.5499359965324402,3.9824025630950928,17.84346394934874,17.436102055666368,71.58391584737444,63.16109583356642,3.237724376958795e-05,0.0962666198611259,0,0,0
5932,214977.8208822033,2010-12-22 23:53:03,2641.330682182971,2,21,0.5501165986061096,3.984345197677612,17.8480497138679,17.436102055666368,71.60218239069974,63.16109583356642,6.47544875391759e-05,0.0962666198611259,0,0,0
5933,215007.83613035383,2010-12-22 23:53:33,2671.345930403736,2,21,0.5501165986061096,3.986449718475342,17.852635663338166,17.436102055666368,71.62045921041889,63.16109583356642,6.47544875391759e-05,0.0962666198611259,0,0,0
5934,215037.85113738943,2010-12-22 23:54:03,2701.3609374543576,2,21,0.5501165986061096,3.9885542392730713,17.85722140931569,17.436102055666368,71.63874476681154,63.16109583356642,6.47544875391759e-05,0.0962666198611259,0,0,0
5935,215067.86626058407,2010-12-22 23:54:33,2731.376060563787,2,21,0.5499359965324402,3.990658760070801,17.861807108585,17.436102055666368,71.65703983410452,63.16109583356642,3.237724376958795e-05,0.0962666198611259,0,0,0
5936,215097.88136877137,2010-12-22 23:55:03,2761.391168751084,2,21,0.5499359965324402,3.9927632808685294,17.86639280540568,17.436102055666368,71.67534466187357,63.16109583356642,3.237724376958795e-05,0.0962666198611259,0,0,0
5937,215127.8968965679,2010-12-22 23:55:33,2791.406696617737,2,21,0.5501165986061096,3.99502944946289,17.870979049779603,17.436102055666368,71.69366166140131,63.16109583356642,6.47544875391759e-05,0.0962666198611259,0,0,0
5938,215157.91174843733,2010-12-22 23:56:03,2821.421548477172,2,21,0.550297200679779,3.99729585647583,17.875565646060235,17.436102055666368,71.71199012434441,63.16109583356642,9.713172767078504e-05,0.0962666198611259,0,0,0
5939,215187.92953343075,2010-12-22 23:56:33,2851.4393335006725,2,21,0.5501165986061096,3.99940037727356,17.88015269900149,17.436102055666368,71.73033041774978,63.16109583356642,6.47544875391759e-05,0.0962666198611259,0,0,0
5940,215217.9418664271,2010-12-22 23:57:03,2881.4516664218263,2,21,0.5499359965324402,4.001667022705078,17.884738920764605,17.436102055666368,71.74867765976181,63.16109583356642,6.47544875391759e-05,0.0962666198611259,0,0,0
5941,215247.95713829168,2010-12-22 23:57:33,2911.466938261366,2,21,0.550297200679779,4.003933429718018,17.889325576435013,17.436102055666368,71.7670370003903,63.16109583356642,9.71794142969884e-05,0.0962666198611259,0,0,0
5942,215277.9721224704,2010-12-22 23:58:03,2941.4819224450844,2,21,0.5501165986061096,4.006199836730957,17.893912153724596,17.436102055666368,71.78540649177292,63.16109583356642,9.71794142969884e-05,0.0962666198611259,0,0,0
5943,215307.98724574523,2010-12-22 23:58:33,2971.497045719926,2,21,0.5501165986061096,4.0084662437438965,17.898498782162815,17.436102055666368,71.80378678795272,63.16109583356642,6.47544875391759e-05,0.0962666198611259,0,0,0
5944,215338.00235382223,2010-12-22 23:59:03,3001.5121537919363,2,21,0.5501165986061096,4.010894298553467,17.903085422664244,17.436102055666368,71.8221777286535,63.16109583356642,6.47544875391759e-05,0.0962666198611259,0,0,0
5945,215368.01747731265,2010-12-22 23:59:33,3031.527277282314,2,21,0.5501165986061096,4.013322830200195,17.907672078874278,17.436102055666368,71.84057954618078,63.16109583356642,6.47544875391759e-05,0.0962666198611259,0,0,0
5946,215398.0327694527,2010-12-23 00:00:03,3061.5425694223704,2,21,0.5501165986061096,4.015589237213135,17.91225883210862,17.436102055666368,71.85899265193328,63.16109583356642,9.71794142969884e-05,0.0962666198611259,0,0,0
5947,215428.0477300828,2010-12-23 00:00:33,3091.557530062502,2,21,0.5499359965324402,4.017855644226074,17.916845501868462,17.436102055666368,71.8774164579772,63.16109583356642,3.24249267578125e-05,0.0962666198611259,0,0,0
5948,215458.0628444705,2010-12-23 00:01:03,3121.5726444502284,2,21,0.550297200679779,4.0206074714660645,17.921432139329752,17.436102055666368,71.8958511500222,63.16109583356642,0.0001295089750783,0.0962666198611259,0,0,0
5949,215488.0781064004,2010-12-23 00:01:33,3151.587906375095,2,21,0.5501165986061096,4.022873878479004,17.926018792107445,17.436102055666368,71.91429722832744,63.16109583356642,3.23295607813634e-05,0.0962666198611259,0,0,0
5950,215518.0931197968,2010-12-23 00:02:03,3181.6029197715084,2,21,0.5501165986061096,4.025464057922363,17.93060544085639,17.436102055666368,71.93275469075654,63.16109583356642,6.47544875391759e-05,0.0962666198611259,0,0,0
5951,215548.1082377885,2010-12-23 00:02:33,3211.6180377581904,2,21,0.550297200679779,4.027892589569092,17.9351920393126,17.436102055666368,71.95122338946025,63.16109583356642,6.47544875391759e-05,0.0962666198611259,0,0,0
5952,215578.1234736034,2010-12-23 00:03:03,3241.633273573084,2,21,0.550297200679779,4.030482769012451,17.93977865974844,17.436102055666368,71.96970370049553,63.16109583356642,9.71794142969884e-05,0.0962666198611259,0,0,0
5953,215608.13848411263,2010-12-23 00:03:33,3271.6482841023626,2,21,0.5499359965324402,4.0330729484558105,17.944365210371917,17.436102055666368,71.98819541243218,63.16109583356642,6.47544875391759e-05,0.0962666198611259,0,0,0
5954,215638.15360719705,2010-12-23 00:04:03,3301.6634071666804,2,21,0.5501165986061096,4.035662651062012,17.948951812678427,17.436102055666368,72.00669920269753,63.16109583356642,6.47544875391759e-05,0.0962666198611259,0,0,0
5955,215668.16873175,2010-12-23 00:04:33,3331.6785317197023,2,21,0.5501165986061096,4.038252830505371,17.953538514778543,17.436102055666368,72.0252153637138,63.16109583356642,6.47544875391759e-05,0.0962666198611259,0,0,0
5956,215698.18384915023,2010-12-23 00:05:03,3361.6936491249376,2,21,0.5501165986061096,4.0408430099487305,17.958125179216946,17.436102055666368,72.04374332792825,63.16109583356642,9.70840483205393e-05,0.0962666198611259,0,0,0
5957,215728.19910674932,2010-12-23 00:05:33,3391.708906834315,2,21,0.5501165986061096,4.04343318939209,17.962711851317767,17.436102055666368,72.06228342224067,63.16109583356642,6.47544875391759e-05,0.0962666198611259,0,0,0
5958,215758.2141722504,2010-12-23 00:06:03,3421.723972310326,2,21,0.5501165986061096,4.046185493469238,17.967298424822005,17.436102055666368,72.08083530762005,63.16109583356642,9.71794142969884e-05,0.0962666198611259,0,0,0
5959,215788.22940771445,2010-12-23 00:06:33,3451.739207684121,2,21,0.5501165986061096,4.048775672912598,17.971885130140056,17.436102055666368,72.09940006594901,63.16109583356642,3.24249267578125e-05,0.0962666198611259,0,0,0
5960,215818.2445009746,2010-12-23 00:07:03,3481.7543009643227,2,21,0.5501165986061096,4.051527500152588,17.976471849236333,17.436102055666368,72.1179773620261,63.16109583356642,6.47544875391759e-05,0.0962666198611259,0,0,0
5961,215848.25946768984,2010-12-23 00:07:33,3511.769267659522,2,21,0.5501165986061096,4.054279804229736,17.981058501279424,17.436102055666368,72.13656697656984,63.16109583356642,6.47544875391759e-05,0.0962666198611259,0,0,0
5962,215878.2745915612,2010-12-23 00:08:03,3541.784391530848,2,21,0.5501165986061096,4.057031631469727,17.98564518732755,17.436102055666368,72.15516937247638,63.16109583356642,3.23295607813634e-05,0.0962666198611259,0,0,0
5963,215908.2897267808,2010-12-23 00:08:33,3571.799526755426,2,21,0.550297200679779,4.059945583343506,17.99023187780367,17.436102055666368,72.17378460629406,63.16109583356642,9.70840483205393e-05,0.0962666198611259,0,0,0
5964,215938.30483195552,2010-12-23 00:09:04,3601.8146319302264,2,21,0.5499359965324402,4.062535762786865,17.994818539363255,17.436102055666368,72.19241221747296,63.16109583356642,6.47544875391759e-05,0.0962666198611259,0,0,0
5965,215968.32009192053,2010-12-23 00:09:34,3631.8298919152658,2,21,0.550297200679779,4.065611839294434,17.999405207504118,17.436102055666368,72.21105289085678,63.16109583356642,9.71794142969884e-05,0.0962666198611259,0,0,0
5966,215998.33508545253,2010-12-23 00:10:04,3661.844885427198,2,21,0.5501165986061096,4.068363666534424,18.00399183311739,17.436102055666368,72.22970646834698,63.16109583356642,6.47544875391759e-05,0.0962666198611259,0,0,0
5967,216028.3503604549,2010-12-23 00:10:34,3691.860160424595,2,21,0.5501165986061096,4.071115970611572,18.00857846042608,17.436102055666368,72.24837323432465,63.16109583356642,6.47544875391759e-05,0.0962666198611259,0,0,0
5968,216058.365454878,2010-12-23 00:11:04,3721.87525484764,2,21,0.5499359965324402,4.074029922485352,18.01316511104755,17.436102055666368,72.26705340810132,63.16109583356642,3.24249267578125e-05,0.0962666198611259,0,0,0
5969,216088.38044869565,2010-12-23 00:11:34,3751.890248665333,2,21,0.550297200679779,4.077105522155762,18.017751745730983,17.436102055666368,72.28574696804544,63.16109583356642,6.47544875391759e-05,0.0962666198611259,0,0,0
5970,216118.3955834942,2010-12-23 00:12:04,3781.9053834638494,2,21,0.5501165986061096,4.08018159866333,18.022338427902064,17.436102055666368,72.30445422440664,63.16109583356642,9.71794142969884e-05,0.0962666198611259,0,0,0
5971,216148.4109242903,2010-12-23 00:12:34,3811.920724325147,2,21,0.5501165986061096,4.083095550537109,18.02692511588621,17.436102055666368,72.32317511806352,63.16109583356642,9.71794142969884e-05,0.0962666198611259,0,0,0
5972,216178.42595426296,2010-12-23 00:13:04,3841.935754232648,2,21,0.5501165986061096,4.08617115020752,18.031511735297386,17.436102055666368,72.34190948653287,63.16109583356642,6.47544875391759e-05,0.0962666198611259,0,0,0
5973,216208.4409476446,2010-12-23 00:13:34,3871.950747614256,2,21,0.5499359965324402,4.089085102081299,18.03609835825094,17.436102055666368,72.36065776338003,63.16109583356642,6.47544875391759e-05,0.0962666198611259,0,0,0
5974,216238.4561164878,2010-12-23 00:14:04,3901.965916462505,2,21,0.5501165986061096,4.091999053955078,18.0406850182041,17.436102055666368,72.37942017654966,63.16109583356642,6.47544875391759e-05,0.0962666198611259,0,0,0
5975,216268.47124779763,2010-12-23 00:14:34,3931.981047772341,2,21,0.5499359965324402,4.095236778259277,18.04527169729885,17.436102055666368,72.39819679748106,63.16109583356642,6.47544875391759e-05,0.0962666198611259,0,0,0
5976,216298.4863272334,2010-12-23 00:15:04,3961.9961272030782,2,21,0.5499359965324402,4.098312854766846,18.049858304570485,17.436102055666368,72.41698736694055,63.16109583356642,6.47544875391759e-05,0.0962666198611259,0,0,0
5977,216328.50144966115,2010-12-23 00:15:34,3992.011249630812,2,21,0.5499359965324402,4.101388454437256,18.05444500921606,17.436102055666368,72.43579266620169,63.16109583356642,6.47544875391759e-05,0.0962666198611259,0,0,0
5978,216358.51670755097,2010-12-23 00:16:04,4022.026507515626,2,21,0.5501165986061096,4.104626178741455,18.059031690786323,17.436102055666368,72.45461227414884,63.16109583356642,6.47544875391759e-05,0.0962666198611259,0,0,0
5979,216388.53172146867,2010-12-23 00:16:34,4052.041521438349,2,21,0.550297200679779,4.107863903045654,18.063618334496635,17.436102055666368,72.47344635548932,63.16109583356642,9.70840483205393e-05,0.0962666198611259,0,0,0
5980,216418.54687886345,2010-12-23 00:17:04,4082.056678833096,2,21,0.550297200679779,4.1111016273498535,18.06820498350947,17.436102055666368,72.4922951338268,63.16109583356642,6.47544875391759e-05,0.0962666198611259,0,0,0
5981,216448.56197548693,2010-12-23 00:17:34,4112.071775476667,2,21,0.5504778623580933,4.114501476287842,18.072791624690183,17.436102055666368,72.51115867721543,63.16109583356642,0.0001295089750783,0.0962666198611259,0,0,0
5982,216478.57707551392,2010-12-23 00:18:04,4142.08687548862,2,21,0.5499359965324402,4.117577075958252,18.077378247377624,17.436102055666368,72.53003706618334,63.16109583356642,6.47544875391759e-05,0.0962666198611259,0,0,0
5983,216508.59220598167,2010-12-23 00:18:34,4172.1020059513485,2,21,0.5501165986061096,4.120814800262451,18.08196490007369,17.436102055666368,72.5489305832471,63.16109583356642,9.71794142969884e-05,0.0962666198611259,0,0,0
5984,216538.60734198825,2010-12-23 00:19:04,4202.1171419628845,2,21,0.5499359965324402,4.124214172363281,18.08655155702884,17.436102055666368,72.56783928071148,63.16109583356642,6.47544875391759e-05,0.0962666198611259,0,0,0
5985,216568.62245215545,2010-12-23 00:19:34,4232.132252125096,2,21,0.5501165986061096,4.1276140213012695,18.09113821279232,17.436102055666368,72.58676322715284,63.16109583356642,9.71794142969884e-05,0.0962666198611259,0,0,0
5986,216598.63761918413,2010-12-23 00:20:04,4262.147419153817,2,21,0.5499359965324402,4.130851745605469,18.095724962066583,17.436102055666368,72.60570291449494,63.16109583356642,9.71794142969884e-05,0.0962666198611259,0,0,0
5987,216628.65271516104,2010-12-23 00:20:34,4292.162515160804,2,21,0.5499359965324402,4.134089469909668,18.1003117029911,17.436102055666368,72.62465803759366,63.16109583356642,3.24249267578125e-05,0.0962666198611259,0,0,0
5988,216658.6679657126,2010-12-23 00:21:04,4322.177765687306,2,21,0.5501165986061096,4.137812614440918,18.104898377597685,17.436102055666368,72.64362835948262,63.16109583356642,9.70840483205393e-05,0.0962666198611259,0,0,0
5989,216688.68294818208,2010-12-23 00:21:34,4352.192748151747,2,21,0.5499359965324402,4.141050338745117,18.109485089016445,17.436102055666368,72.66261455110775,63.16109583356642,6.47544875391759e-05,0.0962666198611259,0,0,0
5990,216718.6980737376,2010-12-23 00:22:04,4382.207873707263,2,21,0.550297200679779,4.144773960113525,18.114071793730904,17.436102055666368,72.6816164496651,63.16109583356642,0.0001619339018361,0.0962666198611259,0,0,0
5991,216748.71324063092,2010-12-23 00:22:34,4412.223040615686,2,21,0.5501165986061096,4.148173332214356,18.11865847242056,17.436102055666368,72.70063445968616,63.16109583356642,9.70840483205393e-05,0.0962666198611259,0,0,0
5992,216778.72836792585,2010-12-23 00:23:04,4442.238167990731,2,21,0.5501165986061096,4.151734828948975,18.12324512973635,17.436102055666368,72.71966836979531,63.16109583356642,9.70840483205393e-05,0.0962666198611259,0,0,0
5993,216808.74345054952,2010-12-23 00:23:34,4472.253250519177,2,21,0.550297200679779,4.155296325683594,18.12783176058276,17.436102055666368,72.73871830249011,63.16109583356642,0.0001295089750783,0.0962666198611259,0,0,0
5994,216838.760463211,2010-12-23 00:24:04,4502.270263275921,2,21,0.550297200679779,4.158857822418213,18.132418715395115,17.436102055666368,72.75778582984267,63.16109583356642,9.70840483205393e-05,0.0962666198611259,0,0,0
5995,216868.7738705107,2010-12-23 00:24:34,4532.28367050545,2,21,0.5501165986061096,4.162257671356201,18.13700515328037,17.436102055666368,72.77686750498768,63.16109583356642,0.0001295089750783,0.0962666198611259,0,0,0
5996,216898.78882251435,2010-12-23 00:25:04,4562.298622484027,2,21,0.550297200679779,4.16581916809082,18.141591805257693,17.436102055666368,72.7959664594393,63.16109583356642,9.71794142969884e-05,0.0962666198611259,0,0,0
5997,216928.80404904112,2010-12-23 00:25:34,4592.313849085995,2,21,0.5499359965324402,4.16938066482544,18.146178456957905,17.436102055666368,72.81508199734972,63.16109583356642,9.71794142969884e-05,0.0962666198611259,0,0,0
5998,216958.8190299868,2010-12-23 00:26:04,4622.328829956468,2,21,0.5501165986061096,4.1731038093566895,18.1507651641676,17.436102055666368,72.83421439474151,63.16109583356642,0.0001295089750783,0.0962666198611259,0,0,0
5999,216988.83416214876,2010-12-23 00:26:34,4652.343962143488,2,21,0.550297200679779,4.176827430725098,18.155351896581276,17.436102055666368,72.85336368551351,63.16109583356642,0.0001295089750783,0.0962666198611259,0,0,0
6000,217018.84928413035,2010-12-23 00:27:04,4682.359084105062,2,21,0.5499359965324402,4.180550575256348,18.15993856541911,17.436102055666368,72.87252955015707,63.16109583356642,9.70840483205393e-05,0.0962666198611259,0,0,0
6001,217048.8646791364,2010-12-23 00:27:34,4712.374479216358,2,21,0.5501165986061096,4.184274196624756,18.164525313440247,17.436102055666368,72.89171277154503,63.16109583356642,0.0001619339018361,0.0962666198611259,0,0,0
6002,217078.8795607048,2010-12-23 00:28:04,4742.38936069951,2,21,0.5501165986061096,4.187997341156006,18.169111959027664,17.436102055666368,72.91091261483542,63.16109583356642,9.70840483205393e-05,0.0962666198611259,0,0,0
6003,217108.8977280196,2010-12-23 00:28:34,4772.4075280794905,2,21,0.5499359965324402,4.191558837890625,18.17369916041616,17.436102055666368,72.93013208003848,63.16109583356642,6.47544875391759e-05,0.0962666198611259,0,0,0
6004,217138.90983901848,2010-12-23 00:29:04,4802.419639093437,2,21,0.550297200679779,4.195444107055664,18.17828537524491,17.436102055666368,72.9493647200922,63.16109583356642,9.71794142969884e-05,0.0962666198611259,0,0,0
6005,217168.92492819848,2010-12-23 00:29:34,4832.434728168173,2,21,0.5501165986061096,4.199329376220703,18.182872070955177,17.436102055666368,72.96861674235052,63.16109583356642,0.0001295089750783,0.0962666198611259,0,0,0
6006,217173.9404712745,2010-12-23 00:29:39,4837.450271254237,2,21,0.550297200679779,4.200138568878174,18.18363851551097,17.436102055666368,72.97183550707283,63.16109583356642,0.0001618385285837,0.0962666198611259,0,0,0
6007,217203.96325310424,2010-12-23 00:30:09,30.015120247307724,3,21,0.0,4.113206386566162,18.18363851551097,17.436102055666368,72.97183550707283,63.16109583356642,-0.0003884315374307,0.0962666198611259,0,0,0
6008,217233.9783946395,2010-12-23 00:30:39,60.03026180263964,3,21,0.0,4.102359771728516,18.18363851551097,17.436102055666368,72.97183550707283,63.16109583356642,-0.0002914428769145,0.0962666198611259,0,0,0
6009,217263.99350647588,2010-12-23 00:31:09,90.0453736189672,3,21,0.0,4.096208095550537,18.18363851551097,17.436102055666368,72.97183550707283,63.16109583356642,-9.71794142969884e-05,0.0962666198611259,0,0,0
6010,217293.96175546583,2010-12-23 00:31:39,120.01362261396628,3,21,0.0,4.092161178588867,18.18363851551097,17.436102055666368,72.97183550707283,63.16109583356642,-6.47544875391759e-05,0.0962666198611259,0,0,0
6011,217293.97141557912,2010-12-23 00:31:39,0.015610731705436,4,21,1.0016398429870603,4.199653148651123,18.1836428796938,17.436102055666368,72.97185383547868,63.16109583356642,-3.23295607813634e-05,0.0962666198611259,0,0,0
6012,217294.8620275778,2010-12-23 00:31:40,0.906222730409905,4,21,0.9512498378753662,4.199814796447754,18.18388324163845,17.436102055666368,72.97286328492824,63.16109583356642,0.0,0.0962666198611259,0,0,0
6013,217296.7838658835,2010-12-23 00:31:42,2.828061036116798,4,21,0.9010404348373412,4.199814796447754,18.184376708258657,17.436102055666368,72.97493570339935,63.16109583356642,0.0,0.0962666198611259,0,0,0
6014,217299.7056936896,2010-12-23 00:31:45,5.749888867296696,4,21,0.8508310317993164,4.199814796447754,18.185086501759656,17.436102055666368,72.97791664236759,63.16109583356642,3.23295607813634e-05,0.0962666198611259,0,0,0
6015,217303.7368801771,2010-12-23 00:31:49,9.781075329762912,4,21,0.8004410862922668,4.199653148651123,18.18600969377159,17.436102055666368,72.9817937866581,63.16109583356642,-3.23295607813634e-05,0.0962666198611259,0,0,0
6016,217309.04935161292,2010-12-23 00:31:55,15.093546860842173,4,21,0.7500510811805725,4.199814796447754,18.18715237724282,17.436102055666368,72.98659274324284,63.16109583356642,3.23295607813634e-05,0.0962666198611259,0,0,0
6017,217315.9867035665,2010-12-23 00:32:01,22.030898749195117,4,21,0.6998416781425476,4.199653148651123,18.188547526394704,17.436102055666368,72.99245201112343,63.16109583356642,-3.23295607813634e-05,0.0962666198611259,0,0,0
6018,217325.2052132834,2010-12-23 00:32:11,31.24940843599264,4,21,0.6498129367828369,4.199814796447754,18.190272631470982,17.436102055666368,72.9996970132159,63.16109583356642,0.0,0.0962666198611259,0,0,0
6019,217338.08002460617,2010-12-23 00:32:24,44.12421977382178,4,21,0.5997841358184814,4.199653148651123,18.19250177568811,17.436102055666368,73.00905886261975,63.16109583356642,0.0,0.0962666198611259,0,0,0
6020,217357.50173168725,2010-12-23 00:32:43,63.54592686994174,4,21,0.5497553944587708,4.199653148651123,18.19559269716869,17.436102055666368,73.02203996967931,63.16109583356642,-3.23295607813634e-05,0.0962666198611259,0,0,0
6021,217390.90733788843,2010-12-23 00:33:16,96.95153308617984,4,21,0.4997266232967376,4.199653148651123,18.20044036059814,17.436102055666368,73.04239897112033,63.16109583356642,0.0,0.0962666198611259,0,0,0
6022,217451.7031398684,2010-12-23 00:34:17,157.74733502600702,4,21,0.4496978521347046,4.199653148651123,18.208420608190224,17.436102055666368,73.07591401741864,63.16109583356642,-3.23295607813634e-05,0.0962666198611259,0,0,0
6023,217545.12348439769,2010-12-23 00:35:51,251.16767957031536,4,21,0.3996690809726715,4.199653148651123,18.21941633025864,17.436102055666368,73.12209328982837,63.16109583356642,-3.23295607813634e-05,0.0962666198611259,0,0,0
6024,217663.66840294804,2010-12-23 00:37:49,369.71259810065817,4,21,0.3496403098106384,4.199653148651123,18.231739503235996,17.436102055666368,73.173847454557,63.16109583356642,0.0,0.0962666198611259,0,0,0
6025,217803.77543248737,2010-12-23 00:40:09,509.8196276499598,4,21,0.2996115386486053,4.199491024017334,18.244355914997247,17.436102055666368,73.22683321610204,63.16109583356642,-6.47544875391759e-05,0.0962666198611259,0,0,0
6026,217973.97573594635,2010-12-23 00:42:59,680.0199311089519,4,21,0.2495827823877334,4.199814796447754,18.257312388647257,17.436102055666368,73.28124715703649,63.16109583356642,0.0,0.0962666198611259,0,0,0
6027,218183.86294193083,2010-12-23 00:46:29,889.9071372087463,4,21,0.1995540112257003,4.199653148651123,18.27036083620451,17.436102055666368,73.33604739949166,63.16109583356642,-3.23295607813634e-05,0.0962666198611259,0,0,0
6028,218470.87371975256,2010-12-23 00:51:16,1176.9179149101803,4,21,0.1495252400636673,4.199814796447754,18.284187953922324,17.436102055666368,73.39411788554688,63.16109583356642,0.0,0.0962666198611259,0,0,0
6029,218913.33503208053,2010-12-23 00:58:39,1619.3792272582157,4,21,0.0993158593773841,4.199653148651123,18.299271390790818,17.436102055666368,73.45746475127986,63.16109583356642,0.0,0.0962666198611259,0,0,0
6030,219775.32092160333,2010-12-23 01:13:01,2481.3651167910148,4,21,0.0498289167881011,4.199814796447754,18.31639054142251,17.436102055666368,73.52936096932791,63.16109583356642,3.23295607813634e-05,0.0962666198611259,0,0,0
6031,219805.33985502596,2010-12-23 01:13:31,30.01501667457095,5,21,0.0,4.191720962524414,18.31639054142251,17.436102055666368,73.52936096932791,63.16109583356642,-3.23295607813634e-05,0.0962666198611259,0,0,0
6032,219835.33936386483,2010-12-23 01:14:01,60.01452549845192,5,21,0.0,4.190263748168945,18.31639054142251,17.436102055666368,73.52936096932791,63.16109583356642,-9.71794142969884e-05,0.0962666198611259,0,0,0
6033,219835.54766016448,2010-12-23 01:14:01,0.203263754034077,6,21,0.0017868496943265,4.190911293029785,18.31639064231189,17.436102055666368,73.52936139214636,63.16109583356642,0.0,0.0970755815505981,0,0,0
6034,219840.3599499525,2010-12-23 01:14:06,5.01555354208357,6,21,0.0007031940040178,4.190263748168945,18.316391505273263,17.436102055666368,73.52936500841246,63.16109583356642,-9.71794142969884e-05,0.0970755815505981,0,0,0
6035,219870.380194916,2010-12-23 01:14:36,30.015141084159428,7,21,-1.099568486213684,4.011218070983887,18.316391505273263,17.44527154727032,73.52936500841246,63.19808408781319,-0.0009389877086505,0.0970755815505981,0,0,0
6036,219900.3953029028,2010-12-23 01:15:06,60.03024906093239,7,21,-1.0997490882873535,3.9827263355255127,18.316391505273263,17.454441072019513,73.52936500841246,63.23472450342641,-0.0006475448608398,0.0970755815505981,0,0,0
6037,219930.41042155115,2010-12-23 01:15:36,90.04536770926111,7,21,-1.099929690361023,3.9631381034851074,18.316391505273263,17.463610509806564,73.52936500841246,63.27114952903328,-0.0004532813909463,0.0970755815505981,0,0,0
6038,219960.4255704698,2010-12-23 01:16:06,120.06051663292888,7,21,-1.0997490882873535,3.947597026824951,18.316391505273263,17.472779847651633,73.52936500841246,63.307415645066826,-0.0004209041653666,0.0970755815505981,0,0,0
6039,219990.4408227908,2010-12-23 01:16:36,150.0757689589093,7,21,-1.0997490882873535,3.934484243392944,18.316391505273263,17.481949245742875,73.52936500841246,63.343551583909935,-0.0003237724304199,0.0970755815505981,0,0,0
6040,220020.45593639155,2010-12-23 01:17:06,180.09088255967734,7,21,-1.099929690361023,3.9221808910369873,18.316391505273263,17.49111862693932,73.52936500841246,63.37957166281236,-0.0003561496851034,0.0970755815505981,0,0,0
6041,220050.4709280188,2010-12-23 01:17:36,210.10587417689405,7,21,-1.099568486213684,3.911010980606079,18.316391505273263,17.50028797677857,73.52936500841246,63.41548442536404,-0.0002913951757363,0.0970755815505981,0,0,0
6042,220080.4860700052,2010-12-23 01:18:06,240.1210161833486,7,21,-1.099929690361023,3.900164604187012,18.316391505273263,17.509457411794997,73.52936500841246,63.45129598153946,-0.0002913951757363,0.0970755815505981,0,0,0
6043,220110.50117870377,2010-12-23 01:18:36,270.1361248618678,7,21,-1.099929690361023,3.889642000198364,18.316391505273263,17.518626778788946,73.52936500841246,63.48701033190185,-0.0002913951757363,0.0970755815505981,0,0,0
6044,220140.51631171783,2010-12-23 01:19:06,300.15125787594513,7,21,-1.0997490882873535,3.8796050548553462,18.316391505273263,17.52779616818494,73.52936500841246,63.522629920977685,-0.0002266406954731,0.0970755815505981,0,0,0
6045,220170.53166943107,2010-12-23 01:19:36,330.1666156693773,7,21,-1.099929690361023,3.869568109512329,18.316391505273263,17.536965690094952,73.52936500841246,63.55815754679961,-0.0002590179501567,0.0970755815505981,0,0,0
6046,220200.5465898411,2010-12-23 01:20:06,360.18153609443505,7,21,-1.0997490882873535,3.859854936599731,18.316391505273263,17.546135153995397,73.52936500841246,63.5935946876989,-0.0002590179501567,0.0970755815505981,0,0,0
6047,220230.5616842691,2010-12-23 01:20:36,390.1966304272555,7,21,-1.0997490882873535,3.8504655361175537,18.316391505273263,17.55530463954374,73.52936500841246,63.62894370624527,-0.0002590179501567,0.0970755815505981,0,0,0
6048,220260.57682227565,2010-12-23 01:21:06,420.2117684387688,7,21,-1.0997490882873535,3.841238021850586,18.316391505273263,17.564474121398607,73.52936500841246,63.66420668068736,-0.0001942634553415,0.0970755815505981,0,0,0
6049,220290.59197414163,2010-12-23 01:21:36,450.2269203097708,7,21,-1.0997490882873535,3.832010746002197,18.316391505273263,17.573643621664704,73.52936500841246,63.69938532952107,-0.0002266406954731,0.0970755815505981,0,0,0
6050,220320.6071808641,2010-12-23 01:22:06,480.2421270322688,7,21,-1.099929690361023,3.8231070041656494,18.316391505273263,17.58281316305711,73.52936500841246,63.73448168565683,-0.0001942634553415,0.0970755815505981,0,0,0
6051,220350.6221609777,2010-12-23 01:22:36,510.2571071408466,7,21,-1.099929690361023,3.8142032623291016,18.316391505273263,17.591982588028465,73.52936500841246,63.769496618635664,-0.0002590179501567,0.0970755815505981,0,0,0
6052,220380.6372977612,2010-12-23 01:23:06,540.2722439192914,7,21,-1.099568486213684,3.8059470653533936,18.316391505273263,17.601151974116195,73.52936500841246,63.80443196322839,-0.0001942634553415,0.0970755815505981,0,0,0
6053,220410.6524609303,2010-12-23 01:23:37,570.2874070884085,7,21,-1.099929690361023,3.7973670959472656,18.316391505273263,17.610321460284663,73.52936500841246,63.839290455311605,-0.0002266406954731,0.0970755815505981,0,0,0
6054,220440.66773116583,2010-12-23 01:24:07,600.3026773339811,7,21,-1.099568486213684,3.7894346714019775,18.316391505273263,17.61949095281643,73.52936500841246,63.87407356657557,-0.0001942634553415,0.0970755815505981,0,0,0
6055,220470.68281768923,2010-12-23 01:24:37,630.317763877418,7,21,-1.099568486213684,3.7815022468566895,18.316391505273263,17.62866040118746,73.52936500841246,63.90878293563017,-0.0001942634553415,0.0970755815505981,0,0,0
6056,220500.6979634099,2010-12-23 01:25:07,660.3329095730529,7,21,-1.0997490882873535,3.773893594741821,18.316391505273263,17.637829835065453,73.52936500841246,63.94342073214395,-0.0001942634553415,0.0970755815505981,0,0,0
6057,220530.7129346715,2010-12-23 01:25:37,690.3478808296029,7,21,-1.099929690361023,3.766123056411743,18.316391505273263,17.646999322054402,73.52936500841246,63.97798859590512,-0.0001942634553415,0.0970755815505981,0,0,0
6058,220560.72806695377,2010-12-23 01:26:07,720.3630131118591,7,21,-1.099929690361023,3.758838176727295,18.316391505273263,17.656168752023664,73.52936500841246,64.01248822789518,-0.0001942634553415,0.0970755815505981,0,0,0
6059,220590.7431995568,2010-12-23 01:26:37,750.3781457199261,7,21,-1.0997490882873535,3.751715421676636,18.316391505273263,17.665338303971097,73.52936500841246,64.04692162678785,-0.0001618862152099,0.0970755815505981,0,0,0
6060,220620.75853244824,2010-12-23 01:27:07,780.393478606378,7,21,-1.0997490882873535,3.7445924282073975,18.316391505273263,17.674507786182104,73.52936500841246,64.08128950182555,-0.0001942634553415,0.0970755815505981,0,0,0
6061,220650.7734510087,2010-12-23 01:27:37,810.4083971768208,7,21,-1.0997490882873535,3.737631320953369,18.316391505273263,17.68367729605372,73.52936500841246,64.11559334370291,-0.0001942634553415,0.0970755815505981,0,0,0
6062,220680.78858328093,2010-12-23 01:28:07,840.423529449052,7,21,-1.0997490882873535,3.730832099914551,18.316391505273263,17.692846802809377,73.52936500841246,64.14983445450441,-0.0001942634553415,0.0970755815505981,0,0,0
6063,220710.80372133755,2010-12-23 01:28:37,870.4386674956527,7,21,-1.099929690361023,3.724356651306152,18.316391505273263,17.702016257184663,73.52936500841246,64.1840144913279,-0.0001295089750783,0.0970755815505981,0,0,0
6064,220740.81892162905,2010-12-23 01:29:07,900.4538678523095,7,21,-1.0997490882873535,3.717881202697754,18.316391505273263,17.711185780045426,73.52936500841246,64.21813504701815,-0.0001618862152099,0.0970755815505981,0,0,0
6065,220770.8339506694,2010-12-23 01:29:37,930.4688968325024,7,21,-1.099929690361023,3.711405754089356,18.316391505273263,17.720355176273245,73.52936500841246,64.25219593123023,-0.0001618862152099,0.0970755815505981,0,0,0
6066,220800.84907887148,2010-12-23 01:30:07,960.4840250346052,7,21,-1.099929690361023,3.705254077911377,18.316391505273263,17.729524681088993,73.52936500841246,64.28619946339701,-0.0001618862152099,0.0970755815505981,0,0,0
6067,220830.86421292316,2010-12-23 01:30:37,990.4991590812522,7,21,-1.0997490882873535,3.6991024017333984,18.316391505273263,17.738694120196428,73.52936500841246,64.32014602159967,-0.0001618862152099,0.0970755815505981,0,0,0
6068,220860.87934237835,2010-12-23 01:31:07,1020.514288541486,7,21,-1.099929690361023,3.69295072555542,18.316391505273263,17.74786362742021,73.52936500841246,64.35403676415875,-0.0001618862152099,0.0970755815505981,0,0,0
6069,220890.89446352792,2010-12-23 01:31:37,1050.5294096960513,7,21,-1.0997490882873535,3.687122821807861,18.316391505273263,17.757033084082916,73.52936500841246,64.38787236033092,-0.0001295089750783,0.0970755815505981,0,0,0
6070,220920.90959810588,2010-12-23 01:32:07,1080.5445442940702,7,21,-1.099568486213684,3.681294918060303,18.316391505273263,17.76620259551382,73.52936500841246,64.42165420076445,-0.0001295089750783,0.0970755815505981,0,0,0
6071,220950.9248646723,2010-12-23 01:32:37,1110.5598108404376,7,21,-1.0997490882873535,3.675467014312744,18.316391505273263,17.775372160627793,73.52936500841246,64.45538291421754,-0.0001618862152099,0.0970755815505981,0,0,0
6072,220980.93999286945,2010-12-23 01:33:07,1140.574939037528,7,21,-1.099929690361023,3.669801235198975,18.316391505273263,17.784541684426774,73.52936500841246,64.48905925595906,-0.0001618862152099,0.0970755815505981,0,0,0
6073,221010.95496488785,2010-12-23 01:33:37,1170.589911055974,7,21,-1.1001102924346924,3.664135217666626,18.316391505273263,17.793711140244753,73.52936500841246,64.52268393898365,-0.0001295089750783,0.0970755815505981,0,0,0
6074,221040.9701014808,2010-12-23 01:34:07,1200.6050476389323,7,21,-1.0997490882873535,3.658792972564697,18.316391505273263,17.802880698956834,73.52936500841246,64.556258739955,-0.0001295089750783,0.0970755815505981,0,0,0
6075,221070.9853219425,2010-12-23 01:34:37,1230.6202681056322,7,21,-1.0997490882873535,3.653450727462769,18.316391505273263,17.812050197078342,73.52936500841246,64.58978386373293,-0.0001618862152099,0.0970755815505981,0,0,0
6076,221101.00034972976,2010-12-23 01:35:07,1260.635295897869,7,21,-1.099568486213684,3.64843225479126,18.316391505273263,17.821219638015762,73.52936500841246,64.62326015284401,-9.713172767078504e-05,0.0970755815505981,0,0,0
6077,221131.01561713323,2010-12-23 01:35:37,1290.6505632913445,7,21,-1.099929690361023,3.642928123474121,18.316391505273263,17.830389109256053,73.52936500841246,64.65668850110556,-0.0001295089750783,0.0970755815505981,0,0,0
6078,221161.0305891166,2010-12-23 01:36:07,1320.6655352797152,7,21,-1.099568486213684,3.6380715370178223,18.316391505273263,17.839558497914613,73.52936500841246,64.69006961906074,-9.713172767078504e-05,0.0970755815505981,0,0,0
6079,221191.0457167172,2010-12-23 01:36:37,1350.6806628753088,7,21,-1.0997490882873535,3.6330530643463135,18.316391505273263,17.848727923463006,73.52936500841246,64.72340523858364,-0.0001618862152099,0.0970755815505981,0,0,0
6080,221221.06098322847,2010-12-23 01:37:07,1380.695929396614,7,21,-1.0997490882873535,3.628196477890015,18.316391505273263,17.85789735628079,73.52936500841246,64.75669618044016,-0.0001295089750783,0.0970755815505981,0,0,0
6081,221251.0759725099,2010-12-23 01:37:37,1410.710918678018,7,21,-1.099568486213684,3.623501777648926,18.316391505273263,17.86706677419446,73.52936500841246,64.78994321535004,-0.0001295089750783,0.0970755815505981,0,0,0
6082,221281.09111259656,2010-12-23 01:38:07,1440.7260587596827,7,21,-1.0997490882873535,3.618807077407837,18.316391505273263,17.876236291817925,73.52936500841246,64.82314773526141,-0.0001618862152099,0.0970755815505981,0,0,0
6083,221311.1062333953,2010-12-23 01:38:37,1470.741179563375,7,21,-1.0997490882873535,3.614436149597168,18.316391505273263,17.885405799502788,73.52936500841246,64.85631061915689,-0.0001295089750783,0.0970755815505981,0,0,0
6084,221341.12136123143,2010-12-23 01:39:07,1500.7563074146049,7,21,-1.0997490882873535,3.610227108001709,18.316391505273263,17.8945752464792,73.52936500841246,64.88943299885979,-9.713172767078504e-05,0.0970755815505981,0,0,0
6085,221371.13646485732,2010-12-23 01:39:37,1530.7714110154884,7,21,-1.099929690361023,3.60569429397583,18.316391505273263,17.90374474108526,73.52936500841246,64.92251573260363,-0.0001295089750783,0.0970755815505981,0,0,0
6086,221401.1517172034,2010-12-23 01:40:07,1560.7866634417182,7,21,-1.0997490882873535,3.601647138595581,18.316391505273263,17.912914271445935,73.52936500841246,64.95555994135238,-9.713172767078504e-05,0.0970755815505981,0,0,0
6087,221431.16674447435,2010-12-23 01:40:37,1590.801690647496,7,21,-1.099929690361023,3.597438097000122,18.316391505273263,17.922083691805486,73.52936500841246,64.9885662257092,-0.0001295089750783,0.0970755815505981,0,0,0
6088,221461.18185701247,2010-12-23 01:41:07,1620.8168031806067,7,21,-1.099929690361023,3.593552827835083,18.316391505273263,17.931253187336498,73.52936500841246,65.02153601616159,-0.0001295089750783,0.0970755815505981,0,0,0
6089,221491.19696643783,2010-12-23 01:41:37,1650.8319126059848,7,21,-1.0997490882873535,3.589667797088623,18.316391505273263,17.940422677391318,73.52936500841246,65.05447020577917,-0.0001618862152099,0.0970755815505981,0,0,0
6090,221521.21250115652,2010-12-23 01:42:07,1680.8474474099007,7,21,-1.099929690361023,3.586106300354004,18.316391505273263,17.94959235181223,73.52936500841246,65.08737043790816,-0.0001295089750783,0.0970755815505981,0,0,0
6091,221551.22724228044,2010-12-23 01:42:37,1710.86218844355,7,21,-1.0997490882873535,3.5825448036193848,18.316391505273263,17.958761668539704,73.52936500841246,65.1202354440539,-9.713172767078504e-05,0.0970755815505981,0,0,0
6092,221581.24536225744,2010-12-23 01:43:07,1740.8803085258317,7,21,-1.0997490882873535,3.578821420669556,18.316391505273263,17.967932021511686,73.52936500841246,65.15307113071631,-0.0001295089750783,0.0970755815505981,0,0,0
6093,221611.25748091543,2010-12-23 01:43:37,1770.8924270835505,7,21,-1.0997490882873535,3.5752599239349365,18.316391505273263,17.977100592097315,73.52936500841246,65.18586795801794,-0.0001295089750783,0.0970755815505981,0,0,0
6094,221641.2726044058,2010-12-23 01:44:07,1800.9075505639032,7,21,-1.0997490882873535,3.571860313415528,18.316391505273263,17.986270110021263,73.52936500841246,65.2186361362738,-9.713172767078504e-05,0.0970755815505981,0,0,0
6095,221671.28773754017,2010-12-23 01:44:37,1830.9226837083047,7,21,-1.0997490882873535,3.568460702896118,18.316391505273263,17.995439637069108,73.52936500841246,65.25137266367189,-9.713172767078504e-05,0.0970755815505981,0,0,0
6096,221701.30286604303,2010-12-23 01:45:07,1860.937812201132,7,21,-1.0997490882873535,3.565061092376709,18.316391505273263,18.004609110692503,73.52936500841246,65.28407783431535,-6.47544875391759e-05,0.0970755815505981,0,0,0
6097,221731.31797980412,2010-12-23 01:45:37,1890.952925972323,7,21,-1.0997490882873535,3.5618233680725098,18.316391505273263,18.013778618329628,73.52936500841246,65.31675222626633,-6.47544875391759e-05,0.0970755815505981,0,0,0
6098,221761.3332512628,2010-12-23 01:46:07,1920.9681974208893,7,21,-1.099929690361023,3.55826187133789,18.316391505273263,18.022948114496582,73.52936500841246,65.34939592590219,-9.713172767078504e-05,0.0970755815505981,0,0,0
6099,221791.34823033377,2010-12-23 01:46:37,1950.9831764918856,7,21,-1.0997490882873535,3.554862260818481,18.316391505273263,18.032117571850456,73.52936500841246,65.38200805387001,-9.713172767078504e-05,0.0970755815505981,0,0,0
6100,221821.36337504195,2010-12-23 01:47:07,1980.9983212251257,7,21,-1.099568486213684,3.5514626502990723,18.316391505273263,18.04128681022322,73.52936500841246,65.4145877907325,-9.713172767078504e-05,0.0970755815505981,0,0,0
6101,221851.37848434705,2010-12-23 01:47:37,2011.0134305051413,7,21,-1.0997490882873535,3.548063039779663,18.316391505273263,18.05045602954725,73.52936500841246,65.44713589934709,-9.713172767078504e-05,0.0970755815505981,0,0,0
6102,221881.3936009904,2010-12-23 01:48:07,2041.028547178556,7,21,-1.099929690361023,3.544339656829834,18.316391505273263,18.05962535183764,73.52936500841246,65.47965210178252,-6.47544875391759e-05,0.0970755815505981,0,0,0
6103,221911.4087322501,2010-12-23 01:48:37,2071.0436784382678,7,21,-1.0997490882873535,3.540778160095215,18.316391505273263,18.068794663609356,73.52936500841246,65.51213533900703,-9.713172767078504e-05,0.0970755815505981,0,0,0
6104,221941.4239382558,2010-12-23 01:49:07,2101.058884549244,7,21,-1.099929690361023,3.537216663360596,18.316391505273263,18.07796419721944,73.52936500841246,65.54458600170825,-6.47544875391759e-05,0.0970755815505981,0,0,0
6105,221971.43902163635,2010-12-23 01:49:37,2131.0739678145237,7,21,-1.0997490882873535,3.5333313941955566,18.316391505273263,18.08713374448974,73.52936500841246,65.57700253520895,-9.713172767078504e-05,0.0970755815505981,0,0,0
6106,222001.45411796417,2010-12-23 01:50:07,2161.0890641272704,7,21,-1.0997490882873535,3.5296080112457275,18.316391505273263,18.09630327729848,73.52936500841246,65.60938395536638,-6.47544875391759e-05,0.0970755815505981,0,0,0
6107,222031.46925199075,2010-12-23 01:50:37,2191.104198148855,7,21,-1.099568486213684,3.5255608558654785,18.316391505273263,18.105472803674285,73.52936500841246,65.64172933885912,-9.713172767078504e-05,0.0970755815505981,0,0,0
6108,222061.4843777217,2010-12-23 01:51:07,2221.1193238747965,7,21,-1.0997490882873535,3.5213518142700195,18.316391505273263,18.114642317445217,73.52936500841246,65.67403739637857,-9.713172767078504e-05,0.0970755815505981,0,0,0
6109,222091.4995021344,2010-12-23 01:51:37,2251.134448292482,7,21,-1.1001102924346924,3.5169808864593506,18.316391505273263,18.123811816974385,73.52936500841246,65.70630710649066,-0.0001618862152099,0.0970755815505981,0,0,0
6110,222121.51462176515,2010-12-23 01:52:07,2281.1495679232557,7,21,-1.099568486213684,3.512771844863892,18.316391505273263,18.132981365433928,73.52936500841246,65.73853727088255,-0.0001295089750783,0.0970755815505981,0,0,0
6111,222151.5297469798,2010-12-23 01:52:37,2311.1646931329115,7,21,-1.099568486213684,3.508077383041382,18.316391505273263,18.142150827206287,73.52936500841246,65.77072553575016,-9.713172767078504e-05,0.0970755815505981,0,0,0
6112,222181.5449001039,2010-12-23 01:53:07,2341.1798462820943,7,21,-1.0997490882873535,3.503220796585083,18.316391505273263,18.151320402092317,73.52936500841246,65.8028703615449,-9.713172767078504e-05,0.0970755815505981,0,0,0
6113,222211.56001496283,2010-12-23 01:53:37,2371.194961120943,7,21,-1.0997490882873535,3.4980404376983643,18.316391505273263,18.160489890171597,73.52936500841246,65.83496867835899,-9.713172767078504e-05,0.0970755815505981,0,0,0
6114,222241.57512664385,2010-12-23 01:54:07,2401.210072801934,7,21,-1.0997490882873535,3.492374420166016,18.316391505273263,18.16965945081069,73.52936500841246,65.86701791714164,-0.0001618862152099,0.0970755815505981,0,0,0
6115,222271.59026014915,2010-12-23 01:54:37,2431.2252063072337,7,21,-1.0997490882873535,3.486060857772827,18.316391505273263,18.178829009046986,73.52936500841246,65.89901299328267,-0.0001942634553415,0.0970755815505981,0,0,0
6116,222301.6053909828,2010-12-23 01:55:07,2461.240337140885,7,21,-1.099929690361023,3.479099750518799,18.316391505273263,18.187998569441486,73.52936500841246,65.93094826055274,-0.0002266406954731,0.0970755815505981,0,0,0
6117,222331.6205102727,2010-12-23 01:55:38,2491.2554564308107,7,21,-1.0997490882873535,3.4713292121887207,18.316391505273263,18.19716803952801,73.52936500841246,65.96281552540701,-0.0002266406954731,0.0970755815505981,0,0,0
6118,222361.6357621726,2010-12-23 01:56:08,2521.270708330731,7,21,-1.0997490882873535,3.462263584136963,18.316391505273263,18.206337573582253,73.52936500841246,65.99460573555325,-0.0002590179501567,0.0970755815505981,0,0,0
6119,222391.65091851976,2010-12-23 01:56:38,2551.2858646878963,7,21,-1.0997490882873535,3.451579093933105,18.316391505273263,18.21550704510892,73.52936500841246,66.02630571342998,-0.0003237724304199,0.0970755815505981,0,0,0
6120,222421.6659685924,2010-12-23 01:57:08,2581.30091474554,7,21,-1.0997490882873535,3.4389519691467285,18.316391505273263,18.22467656323419,73.52936500841246,66.05789871157825,-0.0003561496851034,0.0970755815505981,0,0,0
6121,222451.6811398116,2010-12-23 01:57:38,2611.3160859747136,7,21,-1.0997490882873535,3.4232492446899414,18.316391505273263,18.23384607243665,73.52936500841246,66.08936206507194,-0.0004856586456298,0.0970755815505981,0,0,0
6122,222481.6962712718,2010-12-23 01:58:08,2641.331217439937,7,21,-1.0997490882873535,3.403499126434326,18.316391505273263,18.24301557163077,73.52936500841246,66.12066429044482,-0.0005827903514727,0.0970755815505981,0,0,0
6123,222511.7112732899,2010-12-23 01:58:38,2671.3462194429985,7,21,-1.0997490882873535,3.3779211044311523,18.316391505273263,18.252185052969704,73.52936500841246,66.15176087827038,-0.0007446765666827,0.0970755815505981,0,0,0
6124,222541.7264101235,2010-12-23 01:59:08,2701.361356281593,7,21,-1.099929690361023,3.34392523765564,18.316391505273263,18.26135454944921,73.52936500841246,66.1825869444923,-0.0010360718006268,0.0970755815505981,0,0,0
6125,222571.7414560408,2010-12-23 01:59:38,2731.3764022290084,7,21,-1.099929690361023,3.2979495525360107,18.316391505273263,18.27052409317454,73.52936500841246,66.21304952793881,-0.0013922214275225,0.0970755815505981,0,0,0
6126,222601.75667392107,2010-12-23 02:00:08,2761.39162010426,7,21,-1.099929690361023,3.234490394592285,18.316391505273263,18.279694408357315,73.52936500841246,66.24301727127845,-0.0019102573860436,0.0970755815505981,0,0,0
6127,222631.7717205151,2010-12-23 02:00:38,2791.406666698284,7,21,-1.0997490882873535,3.145129442214966,18.316391505273263,18.288864710924813,73.52936500841246,66.2722944170833,-0.0028815746773034,0.0970755815505981,0,0,0
6128,222661.78709053897,2010-12-23 02:01:08,2821.4220367071134,7,21,-1.0997490882873535,3.0104405879974365,18.316391505273263,18.2980343693144,73.52936500841246,66.30056605551385,-0.0044356347061693,0.0970755815505981,0,0,0
6129,222687.9583771591,2010-12-23 02:01:34,2847.593323327279,7,21,-1.0997490882873535,2.810187816619873,18.316391505273263,18.306029644425458,73.52936500841246,66.32390207444524,-0.0074467658996582,0.0970755815505981,0,0,0
6130,222699.3177081073,2010-12-23 02:01:45,2858.952654265422,7,21,-1.099929690361023,2.699943780899048,18.316391505273263,18.30949989951201,73.52936500841246,66.33346423425466,-0.007802867796272,0.0970755815505981,0,0,0
6131,222759.3379007399,2010-12-23 02:02:45,60.01459720188315,8,21,0.0,3.4182307720184326,18.316391505273263,18.30949989951201,73.52936500841246,66.33346423425466,0.0013922214275225,0.0970755815505981,0,0,0
6132,222759.5321365696,2010-12-23 02:02:46,0.18749914942183,9,21,-1.9243103452026844e-05,3.4183926582336426,18.316391505273263,18.309499900514258,73.52936500841246,66.3334642376807,0.0,0.0947341993451118,0,0,0
6133,222764.360176406,2010-12-23 02:02:50,5.01553898586097,9,21,0.0008838032954372,3.4269726276397705,18.316392327311544,18.30949990068165,73.52936782262323,66.33346423825293,0.0012303352123126,0.0947341993451118,0,0,0
