Data_Point,Test_Time(s),Date_Time,Step_Time(s),Step_Index,Cycle_Index,Current(A),Voltage(V),Charge_Capacity(Ah),Discharge_Capacity(Ah),Charge_Energy(Wh),Discharge_Energy(Wh),dV/dt(V/s),Internal_Resistance(Ohm),Is_FC_Data,AC_Impedance(Ohm),ACI_Phase_Angle(Deg)
1,30.000397465230783,2010-12-20 12:10:10,30.000398041665218,1,1,0.0,3.6947314739227295,0.0,0.0,0.0,0.0,3.237724376958795e-05,0.0,0,0,0
2,60.01545913677498,2010-12-20 12:10:40,60.01545971320941,1,1,0.0,3.6947314739227295,0.0,0.0,0.0,0.0,3.237724376958795e-05,0.0,0,0,0
3,90.03068604951552,2010-12-20 12:11:10,90.030686711162,1,1,0.0,3.69456958770752,0.0,0.0,0.0,0.0,0.0,0.0,0,0,0
4,120.01390330746123,2010-12-20 12:11:40,120.01390394905783,1,1,0.0,3.69456958770752,0.0,0.0,0.0,0.0,-3.237724376958795e-05,0.0,0,0,0
5,150.02660909133493,2010-12-20 12:12:10,30.01228930261073,2,1,0.550297200679779,3.789920330047608,0.004587082228949,0.0,0.017340689092278,0.0,0.0004209041653666,0.0,0,0,0
6,180.04154919035057,2010-12-20 12:12:40,60.02722941666378,2,1,0.550297200679779,3.800442934036255,0.009174485767195,0.0,0.034752105772548,0.0,0.0002590179501567,0.0,0,0,0
7,210.0565884511264,2010-12-20 12:13:10,90.04226867242716,2,1,0.5501165986061096,3.807242155075073,0.013761936421887,0.0,0.05220272573381,0.0,0.0001295089750783,0.0,0,0,0
8,240.0717935946952,2010-12-20 12:13:40,120.0574737909336,2,1,0.550297200679779,3.812746286392212,0.018349386829759,0.0,0.069680879487113,0.0,0.0001618862152099,0.0,0,0,0
9,270.08686318093487,2010-12-20 12:14:10,150.07254338218564,2,1,0.5501165986061096,3.816955327987671,0.022936809111966,0.0,0.087181646851304,0.0,9.713172767078504e-05,0.0,0,0,0
10,300.1019151383057,2010-12-20 12:14:40,180.08759534456897,2,1,0.550297200679779,3.82116436958313,0.027524268856863,0.0,0.1047021249584,0.0,9.713172767078504e-05,0.0,0,0,0
11,330.11697727099744,2010-12-20 12:15:10,210.10265749731064,2,1,0.550297200679779,3.825049638748169,0.032111643566023,0.0,0.122240187433953,0.0,0.0001295089750783,0.0,0,0,0
12,360.13192054290863,2010-12-20 12:15:40,240.117600739147,2,1,0.550297200679779,3.828611135482788,0.036699006717425,0.0,0.139795001151014,0.0,9.713172767078504e-05,0.0,0,0,0
13,390.1471723876917,2010-12-20 12:16:10,270.1328525989674,2,1,0.550297200679779,3.8318488597869873,0.041286352663596,0.0,0.157365796236901,0.0,6.47544875391759e-05,0.0,0,0,0
14,420.1620552943864,2010-12-20 12:16:40,300.1477354906247,2,1,0.550297200679779,3.8352482318878174,0.045873671777794,0.0,0.174951885826959,0.0,6.47544875391759e-05,0.0,0,0,0
15,450.177138519566,2010-12-20 12:17:10,330.1628188010164,2,1,0.5501165986061096,3.8384859561920166,0.050461037959847,0.0,0.192553162260553,0.0,9.713172767078504e-05,0.0,0,0,0
16,480.1924193715322,2010-12-20 12:17:40,360.17809968305744,2,1,0.550297200679779,3.841723680496216,0.055048339927901,0.0,0.21016892832256,0.0,6.47544875391759e-05,0.0,0,0,0
17,510.2072678124602,2010-12-20 12:18:10,390.19294803376096,2,1,0.5501165986061096,3.844799518585205,0.059635674871677,0.0,0.227799323901368,0.0,6.47544875391759e-05,0.0,0,0,0
18,540.2224456079745,2010-12-20 12:18:40,420.2081258844124,2,1,0.5501165986061096,3.8478753566741934,0.064223077553899,0.0,0.24544439279199,0.0,6.47544875391759e-05,0.0,0,0,0
19,570.237375667006,2010-12-20 12:19:10,450.2230558782817,2,1,0.5501165986061096,3.850951194763184,0.068810386457201,0.0,0.263103444099086,0.0,6.47544875391759e-05,0.0,0,0,0
20,600.2524697391779,2010-12-20 12:19:40,480.238149965491,2,1,0.5501165986061096,3.854188919067383,0.073397783144327,0.0,0.280777256039622,0.0,6.47544875391759e-05,0.0,0,0,0
21,630.2675296363064,2010-12-20 12:20:10,510.2532098576072,2,1,0.550297200679779,3.857588529586792,0.077985086324934,0.0,0.298465169089743,0.0,9.713172767078504e-05,0.0,0,0,0
22,660.2828235457658,2010-12-20 12:20:40,540.2685038422536,2,1,0.5501165986061096,3.8605024814605713,0.082572448063686,0.0,0.316167816101268,0.0,6.47544875391759e-05,0.0,0,0,0
23,690.2976418667415,2010-12-20 12:21:10,570.2833221682417,2,1,0.550297200679779,3.8637402057647705,0.087159735792455,0.0,0.3338846373276,0.0,6.47544875391759e-05,0.0,0,0,0
24,720.3127000345668,2010-12-20 12:21:40,600.29838026088,2,1,0.5504778623580933,3.86681604385376,0.091747078730941,0.0,0.351615926501428,0.0,9.713172767078504e-05,0.0,0,0,0
25,750.3277782171982,2010-12-20 12:22:10,630.313458428474,2,1,0.550297200679779,3.869891881942749,0.096334461344994,0.0,0.369361587633861,0.0,9.713172767078504e-05,0.0,0,0,0
26,780.3428318487352,2010-12-20 12:22:40,660.3285120700358,2,1,0.5501165986061096,3.872805833816528,0.10092176324213,0.0,0.38712086618216,0.0,6.47544875391759e-05,0.0,0,0,0
27,810.3579170137419,2010-12-20 12:23:10,690.3435972300301,2,1,0.5501165986061096,3.8758816719055176,0.105509149571526,0.0,0.404894041695562,0.0,9.713172767078504e-05,0.0,0,0,0
28,840.3730168251958,2010-12-20 12:23:40,720.3586971166711,2,1,0.5501165986061096,3.878633737564087,0.11009651352541,0.0,0.422680417428862,0.0,6.47544875391759e-05,0.0,0,0,0
29,870.3880594042289,2010-12-20 12:24:10,750.3737396255298,2,1,0.550297200679779,3.881385803222656,0.11468386715723,0.0,0.44047960440605,0.0,6.47544875391759e-05,0.0,0,0,0
30,900.4030892265174,2010-12-20 12:24:40,780.3887694327808,2,1,0.5501165986061096,3.8841378688812256,0.119271298232794,0.0,0.458291582301729,0.0,6.47544875391759e-05,0.0,0,0,0
31,930.4182520447612,2010-12-20 12:25:10,810.4039323412492,2,1,0.5499359965324402,3.886728048324585,0.12385868908188,0.0,0.476115367917688,0.0,3.237724376958795e-05,0.0,0,0,0
32,960.4333422723662,2010-12-20 12:25:40,840.4190225638414,2,1,0.5501165986061096,3.888994455337525,0.128446026110959,0.0,0.493950515478625,0.0,3.237724376958795e-05,0.0,0,0,0
33,990.448295293538,2010-12-20 12:26:10,870.4339755198514,2,1,0.5501165986061096,3.891584634780884,0.133033353910094,0.0,0.511796767006963,0.0,6.47544875391759e-05,0.0,0,0,0
34,1020.46337149123,2010-12-20 12:26:40,900.4490517125308,2,1,0.550297200679779,3.894012928009033,0.13762067070404,0.0,0.529653776760401,0.0,9.713172767078504e-05,0.0,0,0,0
35,1050.4784163509387,2010-12-20 12:27:10,930.464096642414,2,1,0.5501165986061096,3.8959555625915527,0.142208085000754,0.0,0.547521297948687,0.0,6.47544875391759e-05,0.0,0,0,0
36,1080.4936894486086,2010-12-20 12:27:40,960.479369740084,2,1,0.550297200679779,3.898060083389282,0.14679543792437,0.0,0.565398432347903,0.0,6.47544875391759e-05,0.0,0,0,0
37,1110.508593497916,2010-12-20 12:28:10,990.4942738144535,2,1,0.550297200679779,3.900164604187012,0.15138276066033,0.0,0.583285017851495,0.0,6.47544875391759e-05,0.0,0,0,0
38,1140.52361289426,2010-12-20 12:28:40,1020.5092931205731,2,1,0.5501165986061096,3.9021072387695312,0.155970107703901,0.0,0.601180837423921,0.0,3.237724376958795e-05,0.0,0,0,0
39,1170.5386717036818,2010-12-20 12:29:10,1050.5243519249825,2,1,0.550297200679779,3.904049873352051,0.160557398051186,0.0,0.619085328311305,0.0,6.47544875391759e-05,0.0,0,0,0
40,1200.5538584113735,2010-12-20 12:29:40,1080.5395386176367,2,1,0.550297200679779,3.90583062171936,0.165144807158632,0.0,0.636998819577715,0.0,6.47544875391759e-05,0.0,0,0,0
41,1230.5688435374373,2010-12-20 12:30:10,1110.5545237687631,2,1,0.5501165986061096,3.90761137008667,0.169732138157087,0.0,0.654920311209061,0.0,6.47544875391759e-05,0.0,0,0,0
42,1260.5838694048846,2010-12-20 12:30:40,1140.569549626185,2,1,0.550297200679779,3.90939211845398,0.174319449221922,0.0,0.672849753946386,0.0,3.237724376958795e-05,0.0,0,0,0
43,1290.59906481423,2010-12-20 12:31:10,1170.5847450204933,2,1,0.550297200679779,3.911172866821289,0.178906856632326,0.0,0.690787484361392,0.0,6.47544875391759e-05,0.0,0,0,0
44,1320.6139913595175,2010-12-20 12:31:40,1200.5996715808185,2,1,0.5501165986061096,3.9126298427581783,0.183494200861946,0.0,0.708732729081893,0.0,3.237724376958795e-05,0.0,0,0,0
45,1350.6290803340044,2010-12-20 12:32:10,1230.6147605553049,2,1,0.5501165986061096,3.914248466491699,0.188081564745433,0.0,0.726685655790189,0.0,0.0,0.0,0,0,0
46,1380.6441484215145,2010-12-20 12:32:40,1260.6298286277774,2,1,0.5501165986061096,3.916029214859009,0.192668980647474,0.0,0.744646297311969,0.0,6.47544875391759e-05,0.0,0,0,0
47,1410.6592234914,2010-12-20 12:33:10,1290.644903802925,2,1,0.5501165986061096,3.917648077011109,0.197256375399551,0.0,0.762614291258993,0.0,3.237724376958795e-05,0.0,0,0,0
48,1440.6743147315242,2010-12-20 12:33:40,1320.6599950330246,2,1,0.5501165986061096,3.919266939163208,0.201843703013801,0.0,0.780589420203901,0.0,6.47544875391759e-05,0.0,0,0,0
49,1470.6893302883136,2010-12-20 12:34:11,1350.6750105096144,2,1,0.5501165986061096,3.920885801315308,0.206430957158793,0.0,0.79857166188074,0.0,3.237724376958795e-05,0.0,0,0,0
50,1500.7045115123597,2010-12-20 12:34:41,1380.6901917186228,2,1,0.550297200679779,3.9225046634674072,0.211018363954799,0.0,0.816561800780151,0.0,9.713172767078504e-05,0.0,0,0,0
51,1530.7194596864697,2010-12-20 12:35:11,1410.7051398927329,2,1,0.5501165986061096,3.923799753189087,0.215605739374408,0.0,0.834559159020102,0.0,-3.237724376958795e-05,0.0,0,0,0
52,1560.7345070674523,2010-12-20 12:35:41,1440.7201872937655,2,1,0.550297200679779,3.9257423877716064,0.220193077921091,0.0,0.85256367200394,0.0,9.713172767078504e-05,0.0,0,0,0
53,1590.7495836761673,2010-12-20 12:36:11,1470.7352639024805,2,1,0.550297200679779,3.927199363708496,0.224780415812853,0.0,0.87057533901766,0.0,3.237724376958795e-05,0.0,0,0,0
54,1620.764650415322,2010-12-20 12:36:41,1500.7503306366227,2,1,0.5501165986061096,3.9286563396453857,0.229367774567042,0.0,0.888594362702285,0.0,3.237724376958795e-05,0.0,0,0,0
55,1650.7797255303196,2010-12-20 12:37:11,1530.7654057516204,2,1,0.550297200679779,3.930275201797485,0.23395510765237,0.0,0.906620525517453,0.0,3.237724376958795e-05,0.0,0,0,0
56,1680.7947667259102,2010-12-20 12:37:41,1560.780446947211,2,1,0.550297200679779,3.931894063949585,0.238542460358121,0.0,0.92465405267473,0.0,3.237724376958795e-05,0.0,0,0,0
57,1710.8098811988486,2010-12-20 12:38:11,1590.7955614101245,2,1,0.550297200679779,3.933512926101685,0.243129836386536,0.0,0.942694979381178,0.0,6.47544875391759e-05,0.0,0,0,0
58,1740.8249027655934,2010-12-20 12:38:41,1620.810582971857,2,1,0.5501165986061096,3.934969902038574,0.247717219382977,0.0,0.960743198666457,0.0,-3.237724376958795e-05,0.0,0,0,0
59,1770.839969259137,2010-12-20 12:39:11,1650.8256495506123,2,1,0.5501165986061096,3.936750650405884,0.252304698562401,0.0,0.978799028960693,0.0,6.47544875391759e-05,0.0,0,0,0
60,1800.8550360684665,2010-12-20 12:39:41,1680.8407162747296,2,1,0.550297200679779,3.938207626342773,0.256892121523681,0.0,0.99686190338792,0.0,3.237724376958795e-05,0.0,0,0,0
61,1830.8701336142824,2010-12-20 12:40:11,1710.8558138405956,2,1,0.550297200679779,3.939988374710083,0.261479549236005,0.0,1.014932087205337,0.0,6.47544875391759e-05,0.0,0,0,0
62,1860.8851826944936,2010-12-20 12:40:41,1740.8708629157943,2,1,0.5501165986061096,3.9414453506469727,0.266066904507609,0.0,1.033009328923711,0.0,3.237724376958795e-05,0.0,0,0,0
63,1890.9002208274628,2010-12-20 12:41:11,1770.8859010487636,2,1,0.550297200679779,3.943064212799072,0.270654297096006,0.0,1.051093963454551,0.0,3.237724376958795e-05,0.0,0,0,0
64,1920.9152890553223,2010-12-20 12:41:41,1800.9009692766228,2,1,0.550297200679779,3.944521188735962,0.275241749990684,0.0,1.069186222910581,0.0,-3.237724376958795e-05,0.0,0,0,0
65,1950.930501582264,2010-12-20 12:42:11,1830.9161818937896,2,1,0.5501165986061096,3.946301937103272,0.279829147923747,0.0,1.08728564057237,0.0,6.47544875391759e-05,0.0,0,0,0
66,1980.945416829437,2010-12-20 12:42:41,1860.93109705575,2,1,0.5501165986061096,3.947758913040161,0.284416438505252,0.0,1.105391828229822,0.0,3.237724376958795e-05,0.0,0,0,0
67,2010.96047831552,2010-12-20 12:43:11,1890.946158521783,2,1,0.5501165986061096,3.9493777751922607,0.289003790744613,0.0,1.12350560895856,0.0,3.237724376958795e-05,0.0,0,0,0
68,2040.9763178076405,2010-12-20 12:43:41,1920.9619981041285,2,1,0.550297200679779,3.95099663734436,0.293591326855054,0.0,1.141627529415871,0.0,3.237724376958795e-05,0.0,0,0,0
69,2070.978302798367,2010-12-20 12:44:11,1950.9639831098923,2,1,0.5501165986061096,3.95261549949646,0.298176761742065,0.0,1.159748585605056,0.0,3.237724376958795e-05,0.0,0,0,0
70,2100.990088748405,2010-12-20 12:44:41,1980.97576903988,2,1,0.550297200679779,3.9543962478637695,0.302763613993493,0.0,1.177882690767738,0.0,6.47544875391759e-05,0.0,0,0,0
71,2131.0052411457164,2010-12-20 12:45:11,2010.99092135198,2,1,0.5501165986061096,3.955853223800659,0.307350971114004,0.0,1.196026281165687,0.0,3.237724376958795e-05,0.0,0,0,0
72,2161.020178598146,2010-12-20 12:45:41,2041.0058588194468,2,1,0.550297200679779,3.9576339721679688,0.311938384097064,0.0,1.214177632930776,0.0,6.47544875391759e-05,0.0,0,0,0
73,2191.035249898652,2010-12-20 12:46:11,2071.020930109928,2,1,0.550297200679779,3.9594147205352783,0.316525781163575,0.0,1.232336638974365,0.0,6.47544875391759e-05,0.0,0,0,0
74,2221.0506031908826,2010-12-20 12:46:41,2101.036283417196,2,1,0.550297200679779,3.961033582687378,0.321113216151983,0.0,1.250503683303007,0.0,9.713172767078504e-05,0.0,0,0,0
75,2251.065377803091,2010-12-20 12:47:11,2131.051058024392,2,1,0.550297200679779,3.962814331054688,0.325700617518926,0.0,1.268678644620025,0.0,3.237724376958795e-05,0.0,0,0,0
76,2281.080622901085,2010-12-20 12:47:41,2161.0663031775225,2,1,0.5501165986061096,3.964595079421997,0.330288008054898,0.0,1.286861671749588,0.0,6.47544875391759e-05,0.0,0,0,0
77,2311.095511722498,2010-12-20 12:48:11,2191.081191943799,2,1,0.550297200679779,3.966375827789306,0.334875335932593,0.0,1.305052614646005,0.0,6.47544875391759e-05,0.0,0,0,0
78,2341.110600235837,2010-12-20 12:48:41,2221.0962804571377,2,1,0.5499359965324402,3.9679946899414062,0.339462694209765,0.0,1.323251868482069,0.0,3.237724376958795e-05,0.0,0,0,0
79,2371.1256477571687,2010-12-20 12:49:11,2251.1113279634324,2,1,0.550297200679779,3.969937324523926,0.344050035719496,0.0,1.341459279255827,0.0,3.237724376958795e-05,0.0,0,0,0
80,2401.1407407967718,2010-12-20 12:49:41,2281.1264210230843,2,1,0.550297200679779,3.9717180728912354,0.348637385935673,0.0,1.359674866780481,0.0,3.237724376958795e-05,0.0,0,0,0
81,2431.155789415835,2010-12-20 12:50:11,2311.141469642148,2,1,0.550297200679779,3.973498821258545,0.353224752643888,0.0,1.377898742898912,0.0,6.47544875391759e-05,0.0,0,0,0
82,2461.170803393695,2010-12-20 12:50:41,2341.1564836851703,2,1,0.550297200679779,3.9752795696258554,0.357812001265813,0.0,1.39613040347364,0.0,3.237724376958795e-05,0.0,0,0,0
83,2491.1859759712247,2010-12-20 12:51:11,2371.1716562677125,2,1,0.5501165986061096,3.977222204208374,0.362398692737683,0.0,1.414368088170113,0.0,6.47544875391759e-05,0.0,0,0,0
84,2521.200890631938,2010-12-20 12:51:41,2401.1865708532387,2,1,0.550297200679779,3.9791648387908936,0.366985381721312,0.0,1.432613771746342,0.0,9.713172767078504e-05,0.0,0,0,0
85,2551.216114211384,2010-12-20 12:52:11,2431.2017944326844,2,1,0.5501165986061096,3.980783700942993,0.371572033981136,0.0,1.450868229902851,0.0,3.237724376958795e-05,0.0,0,0,0
86,2581.23106304714,2010-12-20 12:52:41,2461.2167432734536,2,1,0.5501165986061096,3.9827263355255127,0.376158573040485,0.0,1.469130804694601,0.0,3.237724376958795e-05,0.0,0,0,0
87,2611.2463322601434,2010-12-20 12:53:11,2491.232012576681,2,1,0.5501165986061096,3.984668970108032,0.380745207757191,0.0,1.487402307586844,0.0,6.47544875391759e-05,0.0,0,0,0
88,2641.261193096918,2010-12-20 12:53:41,2521.246873413456,2,1,0.5501165986061096,3.986449718475342,0.385331788291276,0.0,1.505682360043323,0.0,3.237724376958795e-05,0.0,0,0,0
89,2671.2762270043727,2010-12-20 12:54:11,2551.2619072106354,2,1,0.5501165986061096,3.988392353057861,0.389919131111546,0.0,1.523974365987372,0.0,6.47544875391759e-05,0.0,0,0,0
90,2701.2914380175475,2010-12-20 12:54:41,2581.2771182288234,2,1,0.5501165986061096,3.990334987640381,0.394506517400324,0.0,1.542275405277878,0.0,6.47544875391759e-05,0.0,0,0,0
91,2731.3063750338924,2010-12-20 12:55:11,2611.2920552451674,2,1,0.5501165986061096,3.9924395084381104,0.399093835603788,0.0,1.560585059818768,0.0,6.47544875391759e-05,0.0,0,0,0
92,2761.3214250915357,2010-12-20 12:55:41,2641.307105297799,2,1,0.550297200679779,3.994381904602051,0.403681213753061,0.0,1.57890402417433,0.0,6.47544875391759e-05,0.0,0,0,0
93,2791.336586195513,2010-12-20 12:56:11,2671.3222664168143,2,1,0.550297200679779,3.9963245391845694,0.408268566973271,0.0,1.597232086747838,0.0,6.47544875391759e-05,0.0,0,0,0
94,2821.3515760784144,2010-12-20 12:56:41,2701.33725636989,2,1,0.550297200679779,3.99826717376709,0.412855934859796,0.0,1.615569496526103,0.0,3.237724376958795e-05,0.0,0,0,0
95,2851.3666336196807,2010-12-20 12:57:11,2731.3523138459936,2,1,0.550297200679779,4.000533580780029,0.41744326927043,0.0,1.633916016603644,0.0,6.47544875391759e-05,0.0,0,0,0
96,2881.3816622139134,2010-12-20 12:57:41,2761.367342440226,2,1,0.550297200679779,4.002476215362549,0.422030495542325,0.0,1.652271606106031,0.0,6.47544875391759e-05,0.0,0,0,0
97,2911.396726166133,2010-12-20 12:58:11,2791.382406372396,2,1,0.550297200679779,4.004742622375488,0.426617846302082,0.0,1.670637301174378,0.0,9.70840483205393e-05,0.0,0,0,0
98,2941.4118260126734,2010-12-20 12:58:41,2821.3975062239497,2,1,0.5501165986061096,4.006685256958008,0.431205211597588,0.0,1.689012769209437,0.0,3.23295607813634e-05,0.0,0,0,0
99,2971.426850556828,2010-12-20 12:59:11,2851.412530758079,2,1,0.5499359965324402,4.008790016174316,0.43579260650411,0.0,1.707398210683084,0.0,3.24249267578125e-05,0.0,0,0,0
100,3001.4420464824584,2010-12-20 12:59:41,2881.4277266937343,2,1,0.550297200679779,4.011218070983887,0.440379919763019,0.0,1.725793101623666,0.0,9.70840483205393e-05,0.0,0,0,0
101,3031.4571894212327,2010-12-20 13:00:11,2911.442869617471,2,1,0.550297200679779,4.013322830200195,0.444967243032589,0.0,1.744198079653051,0.0,9.71794142969884e-05,0.0,0,0,0
102,3061.472271834391,2010-12-20 13:00:41,2941.457952125867,2,1,0.5501165986061096,4.015265464782715,0.449554655941585,0.0,1.762613579996624,0.0,0.0,0.0,0,0,0
103,3091.4873969187365,2010-12-20 13:01:11,2971.4730771300124,2,1,0.550297200679779,4.017693519592285,0.454142068780945,0.0,1.781039306359255,0.0,9.70840483205393e-05,0.0,0,0,0
104,3121.502168673834,2010-12-20 13:01:41,3001.4878488800978,2,1,0.550297200679779,4.020122051239014,0.458729463545393,0.0,1.799475208692019,0.0,9.71794142969884e-05,0.0,0,0,0
105,3151.517234250095,2010-12-20 13:02:11,3031.5029144713963,2,1,0.550297200679779,4.022388458251953,0.463316847869528,0.0,1.817921529972546,0.0,9.71794142969884e-05,0.0,0,0,0
106,3181.532316342456,2010-12-20 13:02:41,3061.5179965637567,2,1,0.5501165986061096,4.024492740631104,0.467904194106213,0.0,1.83637819820912,0.0,6.47544875391759e-05,0.0,0,0,0
107,3211.5473551220343,2010-12-20 13:03:11,3091.533035343335,2,1,0.550297200679779,4.026759147644043,0.472491533168166,0.0,1.854845436266136,0.0,3.23295607813634e-05,0.0,0,0,0
108,3241.56242305917,2010-12-20 13:03:41,3121.548103280471,2,1,0.5501165986061096,4.029187679290772,0.477078928308789,0.0,1.873323682313849,0.0,6.47544875391759e-05,0.0,0,0,0
109,3271.5775236826453,2010-12-20 13:04:11,3151.563203908958,2,1,0.5501165986061096,4.031615734100342,0.481666301235315,0.0,1.891812602076616,0.0,6.47544875391759e-05,0.0,0,0,0
110,3301.592573745301,2010-12-20 13:04:41,3181.5782539666016,2,1,0.550297200679779,4.034205913543701,0.486253655328873,0.0,1.910312433639183,0.0,9.70840483205393e-05,0.0,0,0,0
111,3331.607626108682,2010-12-20 13:05:11,3211.5933064001574,2,1,0.5501165986061096,4.036472320556641,0.490840965850848,0.0,1.928823099007244,0.0,9.71794142969884e-05,0.0,0,0,0
112,3361.622669965896,2010-12-20 13:05:41,3241.608350177172,2,1,0.550297200679779,4.038900375366211,0.495428311165167,0.0,1.947345190901022,0.0,6.47544875391759e-05,0.0,0,0,0
113,3391.637758273724,2010-12-20 13:06:11,3271.6234384799864,2,1,0.5501165986061096,4.04132890701294,0.50001572352566,0.0,1.965878827959179,0.0,6.47544875391759e-05,0.0,0,0,0
114,3421.6528135142644,2010-12-20 13:06:42,3301.6384937205275,2,1,0.550297200679779,4.04375696182251,0.504603102169367,0.0,1.984423797657345,0.0,3.23295607813634e-05,0.0,0,0,0
115,3451.667995024022,2010-12-20 13:07:12,3331.65367530046,2,1,0.550297200679779,4.046347141265869,0.509190449722488,0.0,2.002980279936497,0.0,6.47544875391759e-05,0.0,0,0,0
116,3481.683078750448,2010-12-20 13:07:42,3361.668759036911,2,1,0.550297200679779,4.0489373207092285,0.513777823975832,0.0,2.021548462246357,0.0,6.47544875391759e-05,0.0,0,0,0
117,3511.697988493925,2010-12-20 13:08:12,3391.6836687001883,2,1,0.5501165986061096,4.051365852355957,0.518365235417639,0.0,2.040128537724595,0.0,3.24249267578125e-05,0.0,0,0,0
118,3541.7132037927654,2010-12-20 13:08:42,3421.698884069203,2,1,0.5501165986061096,4.053956031799316,0.522952603446624,0.0,2.058720249427595,0.0,0.0,0.0,0,0,0
119,3571.7281545432866,2010-12-20 13:09:12,3451.713834824737,2,1,0.5501165986061096,4.056707859039307,0.527540000368501,0.0,2.077324098611712,0.0,9.70840483205393e-05,0.0,0,0,0
120,3601.743188906876,2010-12-20 13:09:42,3481.72886911314,2,1,0.5501165986061096,4.059298038482666,0.53212736298154,0.0,2.09593987532183,0.0,3.23295607813634e-05,0.0,0,0,0
121,3631.7582569242113,2010-12-20 13:10:12,3511.743937135487,2,1,0.5504778623580933,4.062211990356445,0.5367147662556,0.0,2.114567699186332,0.0,9.70840483205393e-05,0.0,0,0,0
122,3661.7733322747954,2010-12-20 13:10:42,3541.759012496096,2,1,0.5501165986061096,4.064478397369385,0.541302141747974,0.0,2.133207629287309,0.0,3.23295607813634e-05,0.0,0,0,0
123,3691.788397896168,2010-12-20 13:11:12,3571.774078107444,2,1,0.550297200679779,4.067392349243164,0.545889432366183,0.0,2.151859558482015,0.0,9.70840483205393e-05,0.0,0,0,0
124,3721.803458976241,2010-12-20 13:11:42,3601.7891391975413,2,1,0.550297200679779,4.0701446533203125,0.550476803311438,0.0,2.170524339024808,0.0,6.47544875391759e-05,0.0,0,0,0
125,3751.81854274778,2010-12-20 13:12:12,3631.804222959056,2,1,0.550297200679779,4.072896480560303,0.555064164808993,0.0,2.189201660633955,0.0,9.70840483205393e-05,0.0,0,0,0
126,3781.8336022739854,2010-12-20 13:12:42,3661.819282495286,2,1,0.5499359965324402,4.075486660003662,0.559651513645187,0.0,2.207891667017027,0.0,3.23295607813634e-05,0.0,0,0,0
127,3811.848642191396,2010-12-20 13:13:12,3691.834322417709,2,1,0.5501165986061096,4.078400611877441,0.564238828813433,0.0,2.226594370298735,0.0,3.23295607813634e-05,0.0,0,0,0
128,3841.8636936274697,2010-12-20 13:13:42,3721.849373833732,2,1,0.5501165986061096,4.081314563751221,0.568826210338238,0.0,2.245310253050999,0.0,6.47544875391759e-05,0.0,0,0,0
129,3871.8787532388874,2010-12-20 13:14:12,3751.864433460188,2,1,0.5501165986061096,4.084066867828369,0.573413576402559,0.0,2.264038988929361,0.0,9.71794142969884e-05,0.0,0,0,0
130,3901.893857737003,2010-12-20 13:14:42,3781.879537963316,2,1,0.5501165986061096,4.086818695068359,0.578000919766286,0.0,2.282780805111163,0.0,6.47544875391759e-05,0.0,0,0,0
131,3931.908892646952,2010-12-20 13:15:12,3811.8945728532153,2,1,0.550297200679779,4.089894771575928,0.582588299129981,0.0,2.301535981646319,0.0,6.47544875391759e-05,0.0,0,0,0
132,3961.9239509902154,2010-12-20 13:15:42,3841.9096311964777,2,1,0.5501165986061096,4.092646598815918,0.587175672042005,0.0,2.320304409602046,0.0,3.23295607813634e-05,0.0,0,0,0
133,3991.939780953623,2010-12-20 13:16:12,3871.925461174924,2,1,0.5501165986061096,4.095722675323486,0.59176310073826,0.0,2.339086545189652,0.0,6.47544875391759e-05,0.0,0,0,0
134,4021.941518944701,2010-12-20 13:16:42,3901.927199256226,2,1,0.550297200679779,4.0987982749938965,0.596348426326698,0.0,2.357873664371136,0.0,6.47544875391759e-05,0.0,0,0,0
135,4051.9535614882607,2010-12-20 13:17:12,3931.939241694524,2,1,0.5501165986061096,4.101874351501465,0.600935285127708,0.0,2.376680776167781,0.0,9.71794142969884e-05,0.0,0,0,0
136,4081.968583461016,2010-12-20 13:17:42,3961.954263672292,2,1,0.550297200679779,4.104788303375244,0.605522622660619,0.0,2.395503555569929,0.0,0.0001295089750783,0.0,0,0,0
137,4111.983646465878,2010-12-20 13:18:12,3991.969326672142,2,1,0.550297200679779,4.108026027679443,0.61010997300746,0.0,2.414340456279451,0.0,0.0001295089750783,0.0,0,0,0
138,4141.998704062282,2010-12-20 13:18:42,4021.984384268545,2,1,0.550297200679779,4.110939979553223,0.614697311776036,0.0,2.433191319487904,0.0,9.71794142969884e-05,0.0,0,0,0
139,4172.014010086889,2010-12-20 13:19:12,4051.99969038839,2,1,0.5501165986061096,4.113853931427002,0.619284725932058,0.0,2.452056525691055,0.0,6.47544875391759e-05,0.0,0,0,0
140,4202.028837234831,2010-12-20 13:19:42,4082.014517456131,2,1,0.5501165986061096,4.117253303527832,0.623872052845588,0.0,2.47093566119425,0.0,9.71794142969884e-05,0.0,0,0,0
141,4232.043898710888,2010-12-20 13:20:12,4112.029578917151,2,1,0.5501165986061096,4.120167255401611,0.628459432095716,0.0,2.489829360388365,0.0,9.71794142969884e-05,0.0,0,0,0
142,4262.058990572559,2010-12-20 13:20:42,4142.044670798872,2,1,0.5501165986061096,4.1234049797058105,0.633046863301619,0.0,2.508737799207299,0.0,9.71794142969884e-05,0.0,0,0,0
143,4292.074056264107,2010-12-20 13:21:12,4172.059736470371,2,1,0.550297200679779,4.126480579376221,0.637634187004173,0.0,2.527660406567838,0.0,9.70840483205393e-05,0.0,0,0,0
144,4322.089226410587,2010-12-20 13:21:42,4202.074906631888,2,1,0.550297200679779,4.129880428314209,0.642221573239127,0.0,2.546598019286353,0.0,6.47544875391759e-05,0.0,0,0,0
145,4352.104163081071,2010-12-20 13:22:12,4232.089843292347,2,1,0.550297200679779,4.133118152618408,0.646808940123062,0.0,2.565550364601569,0.0,0.0001295089750783,0.0,0,0,0
146,4382.119216852958,2010-12-20 13:22:42,4262.104897059221,2,1,0.550297200679779,4.136355876922607,0.651396300020525,0.0,2.584517459226997,0.0,9.71794142969884e-05,0.0,0,0,0
147,4412.134425124309,2010-12-20 13:23:12,4292.120105330572,2,1,0.550297200679779,4.139593601226807,0.655983729454507,0.0,2.603499873101505,0.0,9.71794142969884e-05,0.0,0,0,0
148,4442.149482555301,2010-12-20 13:23:42,4322.135162831739,2,1,0.5501165986061096,4.142669200897217,0.660571142750191,0.0,2.622497333163372,0.0,3.23295607813634e-05,0.0,0,0,0
149,4472.164436052658,2010-12-20 13:24:12,4352.150116278972,2,1,0.550297200679779,4.146392822265625,0.665158544741939,0.0,2.641510105686898,0.0,0.0001295089750783,0.0,0,0,0
150,4502.179494857067,2010-12-20 13:24:42,4382.165175063331,2,1,0.550297200679779,4.149630546569824,0.669745970630803,0.0,2.660538546252835,0.0,0.0001295089750783,0.0,0,0,0
151,4532.194561290462,2010-12-20 13:25:12,4412.180241496724,2,1,0.550297200679779,4.153192043304443,0.674333391862378,0.0,2.67958243820771,0.0,0.0001295089750783,0.0,0,0,0
152,4562.209834508431,2010-12-20 13:25:42,4442.1955148099305,2,1,0.550297200679779,4.156429767608643,0.678920788231346,0.0,2.698641776567867,0.0,9.71794142969884e-05,0.0,0,0,0
153,4592.224669901891,2010-12-20 13:26:12,4472.210350178329,2,1,0.550297200679779,4.159829139709473,0.683508148272355,0.0,2.717716589039819,0.0,9.70840483205393e-05,0.0,0,0,0
154,4622.239734871641,2010-12-20 13:26:42,4502.225415077905,2,1,0.5501165986061096,4.163228988647461,0.6880955628575,0.0,2.736807468145315,0.0,6.47544875391759e-05,0.0,0,0,0
155,4652.254815149487,2010-12-20 13:27:12,4532.2404953758005,2,1,0.5501165986061096,4.166628360748291,0.692683021303594,0.0,2.755914323550893,0.0,6.47544875391759e-05,0.0,0,0,0
156,4682.2698875477245,2010-12-20 13:27:42,4562.255567774037,2,1,0.5501165986061096,4.17018985748291,0.697270456743634,0.0,2.775037010972056,0.0,6.47544875391759e-05,0.0,0,0,0
157,4712.284922412561,2010-12-20 13:28:12,4592.270602633862,2,1,0.550297200679779,4.173913478851318,0.701857722085196,0.0,2.794175046336379,0.0,9.71794142969884e-05,0.0,0,0,0
158,4742.300006620186,2010-12-20 13:28:42,4622.285686826449,2,1,0.550297200679779,4.177151203155518,0.706445035550478,0.0,2.81332938376479,0.0,6.47544875391759e-05,0.0,0,0,0
159,4772.315095664847,2010-12-20 13:29:12,4652.300775966347,2,1,0.5499359965324402,4.180874347686768,0.711032460173256,0.0,2.832500508346689,0.0,9.70840483205393e-05,0.0,0,0,0
160,4802.330240984546,2010-12-20 13:29:42,4682.315921205846,2,1,0.550297200679779,4.184435844421387,0.715619793451556,0.0,2.851687657231762,0.0,9.70840483205393e-05,0.0,0,0,0
161,4832.345325708456,2010-12-20 13:30:12,4712.331005994918,2,1,0.550297200679779,4.188159465789795,0.720207117850865,0.0,2.870891241993038,0.0,0.0001295089750783,0.0,0,0,0
162,4862.360241401739,2010-12-20 13:30:42,4742.345921623039,2,1,0.5501165986061096,4.191558837890625,0.724794386073914,0.0,2.89011122567682,0.0,9.70840483205393e-05,0.0,0,0,0
163,4892.375337734536,2010-12-20 13:31:12,4772.361017950823,2,1,0.550297200679779,4.195281982421875,0.729381741410121,0.0,2.909348284048792,0.0,9.70840483205393e-05,0.0,0,0,0
164,4922.390376083042,2010-12-20 13:31:42,4802.376056309355,2,1,0.5501165986061096,4.199005603790283,0.733969162537763,0.0,2.928602266311424,0.0,9.71794142969884e-05,0.0,0,0,0
165,4929.452794865551,2010-12-20 13:31:49,4809.4384751670505,2,1,0.550297200679779,4.200138568878174,0.735048551801787,0.0,2.933135052697698,0.0,0.0001942634553415,0.0,0,0,0
166,4959.46817793085,2010-12-20 13:32:19,30.01507537063385,3,1,0.0,4.112396717071533,0.735048551801787,0.0,2.933135052697698,0.0,-0.0004209518374409,0.0,0,0,0
167,4989.483231737824,2010-12-20 13:32:49,60.03012917760736,3,1,0.0,4.101550579071045,0.735048551801787,0.0,2.933135052697698,0.0,-0.0001942634553415,0.0,0,0,0
168,5019.498291464529,2010-12-20 13:33:19,90.0451889744865,3,1,0.0,4.095075130462647,0.735048551801787,0.0,2.933135052697698,0.0,-0.0001295089750783,0.0,0,0,0
169,5049.46649677081,2010-12-20 13:33:49,120.01339418553091,3,1,0.0,4.090866088867188,0.735048551801787,0.0,2.933135052697698,0.0,-0.0001295089750783,0.0,0,0,0
170,5049.467130521015,2010-12-20 13:33:50,2.54633646e-06,4,1,1.0117539167404177,4.199976921081543,0.735048552517416,0.0,2.933135055703325,0.0,0.0,0.0,0,0,0
171,5049.982747804795,2010-12-20 13:33:50,0.515619940390125,4,1,0.960460901260376,4.199814796447754,0.735188303205441,0.0,2.933721978985712,0.0,-3.24249267578125e-05,0.0,0,0,0
172,5051.717114695094,2010-12-20 13:33:52,2.24998676051559,4,1,0.9100708961486816,4.199814796447754,0.735637885351658,0.0,2.935610132261098,0.0,-3.24249267578125e-05,0.0,0,0,0
173,5054.49827989272,2010-12-20 13:33:55,5.031151958141992,4,1,0.860042154788971,4.199814796447754,0.7363205563261,0.0,2.938477204834409,0.0,0.0,0.0,0,0,0
174,5058.404587012747,2010-12-20 13:33:59,8.937459053105227,4,1,0.8096521496772766,4.199814796447754,0.737225137585012,0.0,2.942276277290089,0.0,3.23295607813634e-05,0.0,0,0,0
175,5063.59186083414,2010-12-20 13:34:04,14.124732879511708,4,1,0.7596233487129211,4.199814796447754,0.73835419123068,0.0,2.947018097556821,0.0,-3.24249267578125e-05,0.0,0,0,0
176,5070.310520916345,2010-12-20 13:34:10,20.84339298176616,4,1,0.7092334032058716,4.199814796447754,0.739723357006736,0.0,2.952768337278138,0.0,3.23295607813634e-05,0.0,0,0,0
177,5079.435326078036,2010-12-20 13:34:20,29.96819814846945,4,1,0.6592046022415161,4.199653148651123,0.741455229367532,0.0,2.960041886397624,0.0,-3.23295607813634e-05,0.0,0,0,0
178,5091.997578735611,2010-12-20 13:34:32,42.5304508010318,4,1,0.608995258808136,4.199814796447754,0.743662883833297,0.0,2.969313625791167,0.0,0.0,0.0,0,0,0
179,5111.044014909474,2010-12-20 13:34:51,61.5768869598578,4,1,0.5589664578437805,4.199814796447754,0.74674204896112,0.0,2.982245548947446,0.0,0.0,0.0,0,0,0
180,5143.29349308555,2010-12-20 13:35:23,93.82636515097184,4,1,0.5087571144104004,4.199814796447754,0.751502424001431,0.0,3.002238297493709,0.0,-6.47544875391759e-05,0.0,0,0,0
181,5204.0423523653735,2010-12-20 13:36:24,154.57522443580754,4,1,0.4587283134460449,4.199814796447754,0.75962552853177,0.0,3.036353878693602,0.0,-3.24249267578125e-05,0.0,0,0,0
182,5300.165549694882,2010-12-20 13:38:00,250.69842176030352,4,1,0.4086995422840118,4.199814796447754,0.771177648542838,0.0,3.084870703932279,0.0,-3.24249267578125e-05,0.0,0,0,0
183,5424.22574681888,2010-12-20 13:40:04,374.7586189544752,4,1,0.3586707711219787,4.199814796447754,0.784388055142199,0.0,3.140352086524941,0.0,0.0,0.0,0,0,0
184,5574.754307607843,2010-12-20 13:42:35,525.2871796582265,4,1,0.3084613978862762,4.199814796447754,0.798321637264156,0.0,3.198870600323545,0.0,0.0,0.0,0,0,0
185,5756.610141531105,2010-12-20 13:45:37,707.1430135965267,4,1,0.2584326267242431,4.199814796447754,0.812615312424644,0.0,3.25890155613841,0.0,0.0,0.0,0,0,0
186,5982.934047807108,2010-12-20 13:49:23,933.4669198775414,4,1,0.20840385556221,4.199653148651123,0.827245397638506,0.0,3.320345316612666,0.0,-3.23295607813634e-05,0.0,0,0,0
187,6281.053474890272,2010-12-20 13:54:21,1231.5863469556937,4,1,0.1583750993013382,4.199814796447754,0.842346945814384,0.0,3.383769144433126,0.0,0.0,0.0,0,0,0
188,6718.90477376208,2010-12-20 14:01:39,1669.4376458275017,4,1,0.1083463206887245,4.199814796447754,0.858375090684991,0.0,3.45108442668066,0.0,0.0,0.0,0,0,0
189,7537.076819254131,2010-12-20 14:15:17,2487.609691319553,4,1,0.0583175532519817,4.199814796447754,0.876624263038966,0.0,3.527727510496951,0.0,0.0,0.0,0,0,0
190,7768.822492343319,2010-12-20 14:19:09,2719.3553644989647,4,1,0.0498289167881011,4.199653148651123,0.880123586046921,0.0,3.542424035015838,0.0,0.0,0.0,0,0,0
191,7798.837599454051,2010-12-20 14:19:39,30.01483916785231,5,1,0.0,4.191558837890625,0.880123586046921,0.0,3.542424035015838,0.0,-6.47544875391759e-05,0.0,0,0,0
192,7828.837167415093,2010-12-20 14:20:09,60.0144071138564,5,1,0.0,4.190263748168945,0.880123586046921,0.0,3.542424035015838,0.0,-3.24249267578125e-05,0.0,0,0,0
193,7829.025380399868,2010-12-20 14:20:09,0.187424408431751,6,1,-1.9243103452026844e-05,4.190587520599365,0.880123586046921,1.001841e-09,3.542424035015838,4.198302e-09,0.0,0.0948198437690734,0,0,0
194,7833.853420522018,2010-12-20 14:20:14,5.015464545619291,6,1,0.0008838032954372,4.190263748168945,0.880124663717816,1.001841e-09,3.542428550961814,4.198302e-09,-6.47544875391759e-05,0.0948198437690734,0,0,0
195,7863.869105541109,2010-12-20 14:20:44,30.015164196674032,7,1,-1.099568486213684,4.008951663970947,0.880124663717816,0.00916821187159,3.542428550961814,0.036961191231888,-0.0009713172912597,0.0948198437690734,0,0,0
196,7893.884062141187,2010-12-20 14:21:14,60.03012079173944,7,1,-1.099568486213684,3.980783700942993,0.880124663717816,0.018336279160895,3.542428550961814,0.073576529264589,-0.0006151676061563,0.0948198437690734,0,0,0
197,7923.899106950769,2010-12-20 14:21:44,90.04516560633577,7,1,-1.0997490882873535,3.961195468902588,0.880124663717816,0.027504320534912,3.542428550961814,0.109977913378768,-0.0004532813909463,0.0948198437690734,0,0,0
198,7953.914187248665,2010-12-20 14:22:14,120.06024590423092,7,1,-1.099568486213684,3.9461400508880615,0.880124663717816,0.03667240102904,3.542428550961814,0.146223401872244,-0.0003561496851034,0.0948198437690734,0,0,0
199,7983.929332247566,2010-12-20 14:22:44,150.0753909682942,7,1,-1.099568486213684,3.9333510398864746,0.880124663717816,0.045840408180697,3.542428550961814,0.182342255004013,-0.0003237724304199,0.0948198437690734,0,0,0
200,8013.944449888387,2010-12-20 14:23:14,180.0905085239037,7,1,-1.099568486213684,3.922019004821777,0.880124663717816,0.055008513666741,3.542428550961814,0.218350222522001,-0.0002590179501567,0.0948198437690734,0,0,0
201,8043.959364273416,2010-12-20 14:23:44,210.1054229239685,7,1,-1.099568486213684,3.910849094390869,0.880124663717816,0.064176533435879,3.542428550961814,0.254255077802873,-0.0002913951757363,0.0948198437690734,0,0,0
202,8073.974443799389,2010-12-20 14:24:14,240.1205024349053,7,1,-1.099568486213684,3.900488376617432,0.880124663717816,0.073344606818494,3.542428550961814,0.29006257906344,-0.0002913951757363,0.0948198437690734,0,0,0
203,8103.989612777963,2010-12-20 14:24:44,270.13567143352884,7,1,-1.099568486213684,3.890451431274414,0.880124663717816,0.082512749649431,3.542428550961814,0.325776777988931,-0.0003237724304199,0.0948198437690734,0,0,0
204,8134.004557247856,2010-12-20 14:25:14,300.1506159034212,7,1,-1.099568486213684,3.880738258361816,0.880124663717816,0.091680770826593,3.542428550961814,0.361400069749413,-0.0002266406954731,0.0948198437690734,0,0,0
205,8164.019618864262,2010-12-20 14:25:44,330.1656775198282,7,1,-1.0993878841400146,3.8711869716644287,0.880124663717816,0.100848866053976,3.542428550961814,0.396934316337245,-0.0002266406954731,0.0948198437690734,0,0,0
206,8194.034707096902,2010-12-20 14:26:15,360.1807657524687,7,1,-1.0997490882873535,3.861311912536621,0.880124663717816,0.11001693704686,3.542428550961814,0.432381180436476,-0.0003237724304199,0.0948198437690734,0,0,0
207,8224.049885759576,2010-12-20 14:26:45,390.19594439509086,7,1,-1.0997490882873535,3.852408170700073,0.880124663717816,0.119185028250226,3.542428550961814,0.467742360218558,-0.0002266406954731,0.0948198437690734,0,0,0
208,8254.064938814678,2010-12-20 14:27:15,420.2109974702432,7,1,-1.099568486213684,3.843018770217896,0.880124663717816,0.128353074822627,3.542428550961814,0.503018497027252,-0.0002266406954731,0.0948198437690734,0,0,0
209,8284.079866312335,2010-12-20 14:27:45,450.2259250430879,7,1,-1.099568486213684,3.8342769145965576,0.880124663717816,0.137521147112122,3.542428550961814,0.538211287726235,-0.0001942634553415,0.0948198437690734,0,0,0
210,8314.09502850402,2010-12-20 14:28:15,480.241087259835,7,1,-1.0997490882873535,3.825211524963379,0.880124663717816,0.146689300879846,3.542428550961814,0.573322588782001,-0.0002590179501567,0.0948198437690734,0,0,0
211,8344.110023339244,2010-12-20 14:28:45,510.25608197476026,7,1,-1.099568486213684,3.816631555557251,0.880124663717816,0.155857315847907,3.542428550961814,0.608353428281691,-0.0002590179501567,0.0948198437690734,0,0,0
212,8374.125054870787,2010-12-20 14:29:15,540.2711135213397,7,1,-1.099568486213684,3.808051586151123,0.880124663717816,0.165025404978341,3.542428550961814,0.643305594499767,-0.0002266406954731,0.0948198437690734,0,0,0
213,8404.140491159551,2010-12-20 14:29:45,570.2865497950669,7,1,-1.0997490882873535,3.799471616744995,0.880124663717816,0.174193616183309,3.542428550961814,0.678180639221898,-0.0002913951757363,0.0948198437690734,0,0,0
214,8434.15519242925,2010-12-20 14:30:15,600.3012510697775,7,1,-1.099568486213684,3.791701078414917,0.880124663717816,0.183361594423469,3.542428550961814,0.712979140115013,-0.0001942634553415,0.0948198437690734,0,0,0
215,8464.170248446724,2010-12-20 14:30:45,630.3163070972766,7,1,-1.099568486213684,3.783606767654419,0.880124663717816,0.192529679245255,3.542428550961814,0.747703794160685,-0.0001942634553415,0.0948198437690734,0,0,0
216,8494.185310018018,2010-12-20 14:31:15,660.3313686685715,7,1,-1.099568486213684,3.775998115539551,0.880124663717816,0.20169774511557,3.542428550961814,0.782355955168377,-0.0001618862152099,0.0948198437690734,0,0,0
217,8524.20037972957,2010-12-20 14:31:45,690.3464383801229,7,1,-1.0997490882873535,3.7682275772094727,0.880124663717816,0.210865815708165,3.542428550961814,0.816937508780299,-0.0001942634553415,0.0948198437690734,0,0,0
218,8554.215452017532,2010-12-20 14:32:15,720.3615107633226,7,1,-1.0993878841400146,3.7607808113098153,0.880124663717816,0.220033900468005,3.542428550961814,0.85144992975496,-0.0001942634553415,0.0948198437690734,0,0,0
219,8584.230569172143,2010-12-20 14:32:45,750.3766278778346,7,1,-1.099568486213684,3.753334045410156,0.880124663717816,0.229201988360695,3.542428550961814,0.885894524731559,-0.0002266406954731,0.0948198437690734,0,0,0
220,8614.245578302942,2010-12-20 14:33:15,780.3916369635208,7,1,-1.099568486213684,3.746373176574707,0.880124663717816,0.238370116354109,3.542428550961814,0.920273225529884,-0.0001618862152099,0.0948198437690734,0,0,0
221,8644.26074956219,2010-12-20 14:33:45,810.4068082177573,7,1,-1.0993878841400146,3.739412069320679,0.880124663717816,0.247538290434764,3.542428550961814,0.954586927253625,-0.0001295089750783,0.0948198437690734,0,0,0
222,8674.275827198462,2010-12-20 14:34:15,840.4218858540291,7,1,-1.099929690361023,3.7321271896362314,0.880124663717816,0.256706474199603,3.542428550961814,0.988836871859834,-0.0002266406954731,0.0948198437690734,0,0,0
223,8704.290733473308,2010-12-20 14:34:45,870.4367921238621,7,1,-1.099568486213684,3.725489854812622,0.880124663717816,0.265874528061818,3.542428550961814,1.02302405146564,-0.0001942634553415,0.0948198437690734,0,0,0
224,8734.30580059341,2010-12-20 14:35:15,900.4518592439648,7,1,-1.0997490882873535,3.7188525199890137,0.880124663717816,0.275042599205202,3.542428550961814,1.057150665824838,-0.0002266406954731,0.0948198437690734,0,0,0
225,8764.323951913428,2010-12-20 14:35:45,930.4700106291424,7,1,-1.099568486213684,3.712700843811035,0.880124663717816,0.284211639894425,3.542428550961814,1.091220823805079,-0.0001295089750783,0.0948198437690734,0,0,0
226,8794.335970587588,2010-12-20 14:36:15,960.4820292231052,7,1,-1.099568486213684,3.7060635089874263,0.880124663717816,0.293378818398128,3.542428550961814,1.125224541807988,-0.0001618862152099,0.0948198437690734,0,0,0
227,8824.351035692676,2010-12-20 14:36:45,990.4970943482436,7,1,-1.099568486213684,3.6997499465942383,0.880124663717816,0.30254695443181,3.542428550961814,1.159173099170313,-0.0001618862152099,0.0948198437690734,0,0,0
228,8854.366113644735,2010-12-20 14:37:15,1020.5121722952888,7,1,-1.099568486213684,3.69343638420105,0.880124663717816,0.311715116066917,3.542428550961814,1.193063933680433,-0.0001618862152099,0.0948198437690734,0,0,0
229,8884.381169145925,2010-12-20 14:37:45,1050.5272278014909,7,1,-1.099568486213684,3.6872847080230713,0.880124663717816,0.320883158049994,3.542428550961814,1.226897659412475,-0.0001295089750783,0.0948198437690734,0,0,0
230,8914.396429637225,2010-12-20 14:38:15,1080.5424882827654,7,1,-1.099568486213684,3.6811330318450928,0.880124663717816,0.330051230678936,3.542428550961814,1.260675682763499,-0.0001942634553415,0.0948198437690734,0,0,0
231,8944.41132963144,2010-12-20 14:38:45,1110.557388261944,7,1,-1.0993878841400146,3.675305128097534,0.880124663717816,0.339219281781569,3.542428550961814,1.294398595482035,-0.0001942634553415,0.0948198437690734,0,0,0
232,8974.42631945419,2010-12-20 14:39:15,1140.5723781047452,7,1,-1.099568486213684,3.669801235198975,0.880124663717816,0.348387392480885,3.542428550961814,1.32806768458464,-0.0001295089750783,0.0948198437690734,0,0,0
233,9004.441452859242,2010-12-20 14:39:45,1170.587511514808,7,1,-1.0997490882873535,3.663649559020996,0.880124663717816,0.357555595252223,3.542428550961814,1.361683999335828,-0.0001942634553415,0.0948198437690734,0,0,0
234,9034.456514716248,2010-12-20 14:40:15,1200.6025734419884,7,1,-1.0997490882873535,3.657983541488648,0.880124663717816,0.36672379721099,3.542428550961814,1.395247670300649,-0.0001618862152099,0.0948198437690734,0,0,0
235,9064.471608312237,2010-12-20 14:40:45,1230.6176669627882,7,1,-1.0997490882873535,3.652479410171509,0.880124663717816,0.3758919828308,3.542428550961814,1.428759609934166,-0.0001618862152099,0.0948198437690734,0,0,0
236,9094.486669151707,2010-12-20 14:41:15,1260.6327278022618,7,1,-1.0997490882873535,3.64697527885437,0.880124663717816,0.385060154236115,3.542428550961814,1.462220974371138,-0.0001618862152099,0.0948198437690734,0,0,0
237,9124.501857879426,2010-12-20 14:41:45,1290.6479165349929,7,1,-1.099568486213684,3.6416330337524414,0.880124663717816,0.39422829537618,3.542428550961814,1.495632000388165,-9.713172767078504e-05,0.0948198437690734,0,0,0
238,9154.516903892005,2010-12-20 14:42:15,1320.6629625425578,7,1,-1.099568486213684,3.636128902435303,0.880124663717816,0.403396425664155,3.542428550961814,1.528994036782653,-0.0001618862152099,0.0948198437690734,0,0,0
239,9184.532017006562,2010-12-20 14:42:45,1350.6780757122533,7,1,-1.0997490882873535,3.631110429763794,0.880124663717816,0.412564624341239,3.542428550961814,1.56230856335297,-0.0001295089750783,0.0948198437690734,0,0,0
240,9214.546932078298,2010-12-20 14:43:15,1380.6929907138149,7,1,-1.099568486213684,3.626091957092285,0.880124663717816,0.421732755023697,3.542428550961814,1.595575760233663,-0.0001295089750783,0.0948198437690734,0,0,0
241,9244.562026551468,2010-12-20 14:43:45,1410.7080852070344,7,1,-1.099568486213684,3.621073484420776,0.880124663717816,0.430900914172887,3.542428550961814,1.628796751034661,-9.713172767078504e-05,0.0948198437690734,0,0,0
242,9274.577068102944,2010-12-20 14:44:15,1440.723126738461,7,1,-1.0997490882873535,3.616055011749268,0.880124663717816,0.440069096975918,3.542428550961814,1.661972104977671,-0.0001295089750783,0.0948198437690734,0,0,0
243,9304.59235440347,2010-12-20 14:44:45,1470.738450361862,7,1,-1.0997490882873535,3.6113603115081783,0.880124663717816,0.449237320513835,3.542428550961814,1.695103156934044,-9.713172767078504e-05,0.0948198437690734,0,0,0
244,9334.607205335597,2010-12-20 14:45:15,1500.7532639711126,7,1,-1.0997490882873535,3.60666561126709,0.880124663717816,0.458405430609048,3.542428550961814,1.728190549808456,-0.0001295089750783,0.0948198437690734,0,0,0
245,9364.622367913242,2010-12-20 14:45:45,1530.768426568808,7,1,-1.099929690361023,3.602132797241211,0.880124663717816,0.467573619487382,3.542428550961814,1.761235949431967,-0.0001295089750783,0.0948198437690734,0,0,0
246,9394.637440381654,2010-12-20 14:46:15,1560.7834990322071,7,1,-1.0997490882873535,3.597438097000122,0.880124663717816,0.476741792452553,3.542428550961814,1.794239935652116,-0.0001618862152099,0.0948198437690734,0,0,0
247,9424.652418164444,2010-12-20 14:46:45,1590.7984768901845,7,1,-1.099568486213684,3.593229055404663,0.880124663717816,0.485909987415001,3.542428550961814,1.827203041968669,-9.713172767078504e-05,0.0948198437690734,0,0,0
248,9454.667531143665,2010-12-20 14:47:15,1620.8135898643932,7,1,-1.0997490882873535,3.589020252227783,0.880124663717816,0.495078204014118,3.542428550961814,1.86012656405588,-9.713172767078504e-05,0.0948198437690734,0,0,0
249,9484.6824909818,2010-12-20 14:47:45,1650.828549607292,7,1,-1.099568486213684,3.584811210632324,0.880124663717816,0.504246377945521,3.542428550961814,1.893011415578921,-9.713172767078504e-05,0.0948198437690734,0,0,0
250,9514.697713428428,2010-12-20 14:48:15,1680.843772149156,7,1,-1.0993878841400146,3.580764055252075,0.880124663717816,0.513414684453822,3.542428550961814,1.925858832750261,-9.713172767078504e-05,0.0948198437690734,0,0,0
251,9544.712616395042,2010-12-20 14:48:45,1710.8586750455945,7,1,-1.099929690361023,3.576555013656616,0.880124663717816,0.522582876321862,3.542428550961814,1.9586692732563,-0.0001295089750783,0.0948198437690734,0,0,0
252,9574.727676668106,2010-12-20 14:49:15,1740.8737353186584,7,1,-1.0997490882873535,3.572993516921997,0.880124663717816,0.53175114346728,3.542428550961814,1.991444445352818,-9.713172767078504e-05,0.0948198437690734,0,0,0
253,9604.74274176317,2010-12-20 14:49:45,1770.8888003886595,7,1,-1.0997490882873535,3.569108247756958,0.880124663717816,0.540919380818153,3.542428550961814,2.024185012452388,-9.713172767078504e-05,0.0948198437690734,0,0,0
254,9634.75794024516,2010-12-20 14:50:15,1800.9039988957136,7,1,-1.0993878841400146,3.565708637237549,0.880124663717816,0.550087649479688,3.542428550961814,2.056891811813442,-9.713172767078504e-05,0.0948198437690734,0,0,0
255,9664.77289552696,2010-12-20 14:50:45,1830.9189541825235,7,1,-1.0997490882873535,3.56198525428772,0.880124663717816,0.55925584502876,3.542428550961814,2.089565022631198,-9.713172767078504e-05,0.0948198437690734,0,0,0
256,9694.78793421631,2010-12-20 14:51:15,1860.9339928668649,7,1,-1.099568486213684,3.55826187133789,0.880124663717816,0.568424031023644,3.542428550961814,2.122205490160972,-0.0001295089750783,0.0948198437690734,0,0,0
257,9724.80317602111,2010-12-20 14:51:45,1890.9492347268008,7,1,-1.0997490882873535,3.5547003746032715,0.880124663717816,0.577592351732587,3.542428550961814,2.154813176064459,-6.47544875391759e-05,0.0948198437690734,0,0,0
258,9754.818077519069,2010-12-20 14:52:15,1920.9641361696224,7,1,-1.0997490882873535,3.5513007640838623,0.880124663717816,0.586760573570344,3.542428550961814,2.187387577916144,-6.47544875391759e-05,0.0948198437690734,0,0,0
259,9784.833129972674,2010-12-20 14:52:45,1950.9791885981656,7,1,-1.099568486213684,3.547739267349243,0.880124663717816,0.59592880692608,3.542428550961814,2.219929563902324,-6.47544875391759e-05,0.0948198437690734,0,0,0
260,9814.848185945037,2010-12-20 14:53:15,1980.99424457554,7,1,-1.0997490882873535,3.544015884399414,0.880124663717816,0.605097060886195,3.542428550961814,2.252438641383441,-9.713172767078504e-05,0.0948198437690734,0,0,0
261,9844.863380201514,2010-12-20 14:53:45,2011.0094388370287,7,1,-1.099568486213684,3.540454387664795,0.880124663717816,0.614265353411637,3.542428550961814,2.284915055598207,-9.713172767078504e-05,0.0948198437690734,0,0,0
262,9874.878476343836,2010-12-20 14:54:15,2041.0245349793524,7,1,-1.0997490882873535,3.536892890930176,0.880124663717816,0.623433594062293,3.542428550961814,2.317358571790211,-9.713172767078504e-05,0.0948198437690734,0,0,0
263,9904.893380332996,2010-12-20 14:54:45,2071.03943898856,7,1,-1.0997490882873535,3.5331695079803467,0.880124663717816,0.632601876510544,3.542428550961814,2.349769309510734,-0.0001295089750783,0.0948198437690734,0,0,0
264,9934.908452169831,2010-12-20 14:55:15,2101.0545108254,7,1,-1.099568486213684,3.5296080112457275,0.880124663717816,0.641770129773605,3.542428550961814,2.382146740973137,-9.713172767078504e-05,0.0948198437690734,0,0,0
265,9964.923504658527,2010-12-20 14:55:45,2131.069563309081,7,1,-1.099568486213684,3.5258846282958984,0.880124663717816,0.650938369589918,3.542428550961814,2.414490029051364,-9.713172767078504e-05,0.0948198437690734,0,0,0
266,9994.938589788446,2010-12-20 14:56:15,2161.0846484440126,7,1,-1.0997490882873535,3.5218374729156494,0.880124663717816,0.66010662394579,3.542428550961814,2.446798648361507,-0.0001618862152099,0.0948198437690734,0,0,0
267,10024.95363616192,2010-12-20 14:56:45,2191.099694797438,7,1,-1.099568486213684,3.5181140899658203,0.880124663717816,0.669274833056795,3.542428550961814,2.479071457127213,-9.713172767078504e-05,0.0948198437690734,0,0,0
268,10054.968696154288,2010-12-20 14:57:15,2221.114754804841,7,1,-1.099568486213684,3.514228820800781,0.880124663717816,0.678443198842383,3.542428550961814,2.511308587649527,-6.47544875391759e-05,0.0948198437690734,0,0,0
269,10084.983900901872,2010-12-20 14:57:45,2251.1299595373875,7,1,-1.0997490882873535,3.5098581314086914,0.880124663717816,0.687611488283324,3.542428550961814,2.543507974139994,-0.0001295089750783,0.0948198437690734,0,0,0
270,10114.998836519737,2010-12-20 14:58:16,2281.14489515024,7,1,-1.0997490882873535,3.5054872035980225,0.880124663717816,0.696779765512686,3.542428550961814,2.575668090571579,-0.0001618862152099,0.0948198437690734,0,0,0
271,10145.014017513207,2010-12-20 14:58:46,2311.160076148724,7,1,-1.0997490882873535,3.501116275787353,0.880124663717816,0.705948136778824,3.542428550961814,2.607787790639989,-9.713172767078504e-05,0.0948198437690734,0,0,0
272,10175.0291668078,2010-12-20 14:59:16,2341.1752255134893,7,1,-1.0997490882873535,3.4962596893310547,0.880124663717816,0.715116462226677,3.542428550961814,2.639864857806975,-0.0001295089750783,0.0948198437690734,0,0,0
273,10205.044049689432,2010-12-20 14:59:46,2371.190108430209,7,1,-1.0997490882873535,3.490917444229126,0.880124663717816,0.724284952975831,3.542428550961814,2.671896173217367,-0.0001618862152099,0.0948198437690734,0,0,0
274,10235.059097030313,2010-12-20 15:00:16,2401.2051556808674,7,1,-1.0997490882873535,3.4854133129119877,0.880124663717816,0.733453970122253,3.542428550961814,2.703879201415999,-0.0001295089750783,0.0948198437690734,0,0,0
275,10265.074165278224,2010-12-20 15:00:46,2431.2202239287767,7,1,-1.099568486213684,3.478937864303589,0.880124663717816,0.742622740202289,3.542428550961814,2.735806269179116,-0.0001942634553415,0.0948198437690734,0,0,0
276,10295.089279515576,2010-12-20 15:01:16,2461.2353382363035,7,1,-1.099568486213684,3.4721386432647705,0.880124663717816,0.751791058085848,3.542428550961814,2.767671339415985,-0.0001942634553415,0.0948198437690734,0,0,0
277,10325.104314540811,2010-12-20 15:01:46,2491.25037318134,7,1,-1.099568486213684,3.4643681049346924,0.880124663717816,0.76095939132907,3.542428550961814,2.799470526116185,-0.0002590179501567,0.0948198437690734,0,0,0
278,10355.119364839053,2010-12-20 15:02:16,2521.2654234795814,7,1,-1.099929690361023,3.4557881355285645,0.880124663717816,0.770127713270265,3.542428550961814,2.831195413658869,-0.0002590179501567,0.0948198437690734,0,0,0
279,10385.13441585408,2010-12-20 15:02:46,2551.280474504633,7,1,-1.0997490882873535,3.446074962615967,0.880124663717816,0.779296007808448,3.542428550961814,2.862835101276561,-0.0002266406954731,0.0948198437690734,0,0,0
280,10415.149474858988,2010-12-20 15:03:16,2581.2955335095407,7,1,-1.099568486213684,3.4340953826904297,0.880124663717816,0.788464348971761,3.542428550961814,2.894375938081935,-0.0003561496851034,0.0948198437690734,0,0,0
281,10445.164633672266,2010-12-20 15:03:46,2611.310692377956,7,1,-1.099568486213684,3.420335292816162,0.880124663717816,0.797632744307514,3.542428550961814,2.925800017449586,-0.0004209041653666,0.0948198437690734,0,0,0
282,10475.17960948014,2010-12-20 15:04:16,2641.3256681156568,7,1,-1.0997490882873535,3.403337240219116,0.880124663717816,0.806801060780804,3.542428550961814,2.957083522508838,-0.0004856586456298,0.0948198437690734,0,0,0
283,10505.194810202707,2010-12-20 15:04:46,2671.340868908399,7,1,-1.099568486213684,3.3821301460266118,0.880124663717816,0.815969424923212,3.542428550961814,2.988193936371851,-0.0006475448608398,0.0948198437690734,0,0,0
284,10535.209726251878,2010-12-20 15:05:16,2701.35578490243,7,1,-1.099568486213684,3.3559045791625977,0.880124663717816,0.825137711878951,3.542428550961814,3.019087530981025,-0.0008094310760498,0.0948198437690734,0,0,0
285,10565.224797201508,2010-12-20 15:05:46,2731.3708558370254,7,1,-1.099568486213684,3.321261167526245,0.880124663717816,0.834306081374344,3.542428550961814,3.049703510702468,-0.0010036944877356,0.0948198437690734,0,0,0
286,10595.2398642765,2010-12-20 15:06:16,2761.3859229270533,7,1,-1.099568486213684,3.275933027267456,0.880124663717816,0.843474421526665,3.542428550961814,3.079956716050779,-0.0013598442310467,0.0948198437690734,0,0,0
287,10625.255239468226,2010-12-20 15:06:46,2791.4012981939672,7,1,-1.0997490882873535,3.21587347984314,0.880124663717816,0.852642784092403,3.542428550961814,3.109730706381579,-0.0018455028766766,0.0948198437690734,0,0,0
288,10655.2699900356,2010-12-20 15:07:16,2821.4160486861538,7,1,-1.0997490882873535,3.1331498622894287,0.880124663717816,0.861810985841363,3.542428550961814,3.138856154431025,-0.0024930476211011,0.0948198437690734,0,0,0
289,10685.288093626845,2010-12-20 15:07:46,2851.4341523676226,7,1,-1.0997490882873535,3.0107643604278564,0.880124663717816,0.870980231801824,3.542428550961814,3.167066033133797,-0.0040147304534912,0.0948198437690734,0,0,0
290,10714.347127419784,2010-12-20 15:08:15,2880.493186075349,7,1,-1.099568486213684,2.810511589050293,0.880124663717816,0.879856531120625,3.542428550961814,3.192971256978261,-0.0065402030013501,0.0948198437690734,0,0,0
291,10727.31564071132,2010-12-20 15:08:28,2893.4616994220232,7,1,-1.0993878841400146,2.699943780899048,0.880124663717816,0.883817861495656,3.542428550961814,3.203886046852711,-0.0068315505050122,0.0948198437690734,0,0,0
292,10787.330331847092,2010-12-20 15:09:28,60.01445575489777,8,1,0.0,3.413536071777344,0.880124663717816,0.883817861495656,3.542428550961814,3.203886046852711,0.0015217304462566,0.0948198437690734,0,0,0
293,10787.518240898631,2010-12-20 15:09:28,0.187389125631861,9,1,-1.9243103452026844e-05,3.4140217304229736,0.880124663717816,0.883817862497309,3.542428550961814,3.203886050272374,0.0,0.0962666198611259,0,0,0
294,10792.346403024383,2010-12-20 15:09:33,5.015551231333356,9,1,0.0003419754502829,3.422925472259521,0.880125689705061,0.883817862583682,3.542432058895495,3.203886050567256,0.0013274669181555,0.0962666198611259,0,0,0
