Data_Point,Test_Time(s),Date_Time,Step_Time(s),Step_Index,Cycle_Index,Current(A),Voltage(V),Charge_Capacity(Ah),Discharge_Capacity(Ah),Charge_Energy(Wh),Discharge_Energy(Wh),dV/dt(V/s),Internal_Resistance(Ohm),Is_FC_Data,AC_Impedance(Ohm),ACI_Phase_Angle(Deg)
1476,53599.09242419508,2010-12-21 03:03:05,30.015112056926277,1,6,0.0,3.4561119079589844,4.4075989326174,4.407727047916628,17.69579001956549,15.97936827598515,0.0008418083307333,0.0940094217658042,0,0,0
1477,53629.10759991544,2010-12-21 03:03:35,60.03028782740126,1,6,0.0,3.482013702392578,4.4075989326174,4.407727047916628,17.69579001956549,15.97936827598515,0.0006151676061563,0.0940094217658042,0,0,0
1478,53659.123021011386,2010-12-21 03:04:05,90.04570894842166,1,6,0.0,3.5012781620025635,4.4075989326174,4.407727047916628,17.69579001956549,15.97936827598515,0.0004209041653666,0.0940094217658042,0,0,0
1479,53689.09092021595,2010-12-21 03:04:35,120.0136080777936,1,6,0.0,3.5168190002441406,4.4075989326174,4.407727047916628,17.69579001956549,15.97936827598515,0.0003237724304199,0.0940094217658042,0,0,0
1480,53719.1083117341,2010-12-21 03:05:05,30.015065922121583,2,6,0.5504778623580933,3.661706924438477,4.412186481783971,4.407727047916628,17.71245090430754,15.97936827598515,0.0013274669181555,0.0940094217658042,0,0,0
1481,53749.123435114205,2010-12-21 03:05:35,60.03018930723763,2,6,0.5501165986061096,3.6997499465942383,4.41677397819213,4.407727047916628,17.72934196460741,15.97936827598515,0.0008741855854168,0.0940094217658042,0,0,0
1482,53779.13852744706,2010-12-21 03:06:05,90.0452816350688,2,6,0.550297200679779,3.726623058319092,4.421361381036553,4.407727047916628,17.74637902876363,15.97936827598515,0.0006151676061563,0.0940094217658042,0,0,0
1483,53809.15365365419,2010-12-21 03:06:35,120.06040782716993,2,6,0.550297200679779,3.746858835220337,4.42594888255261,4.407727047916628,17.763523677343116,15.97936827598515,0.0004532813909463,0.0940094217658042,0,0,0
1484,53839.16879629724,2010-12-21 03:07:05,150.07555049025848,2,6,0.550297200679779,3.761914014816284,4.430536249622744,4.407727047916628,17.78074816617905,15.97936827598515,0.0003561496851034,0.0940094217658042,0,0,0
1485,53869.18388263014,2010-12-21 03:07:35,180.09063680312164,2,6,0.5501165986061096,3.771627187728882,4.435123658621698,4.407727047916628,17.798029111299268,15.97936827598515,0.0002266406954731,0.0940094217658042,0,0,0
1486,53899.19912716173,2010-12-21 03:08:05,210.10588133971845,2,6,0.5501165986061096,3.77826452255249,4.439711051431845,4.407727047916628,17.815347535714245,15.97936827598515,9.713172767078504e-05,0.0940094217658042,0,0,0
1487,53929.21443568756,2010-12-21 03:08:35,240.12118985051265,2,6,0.5501165986061096,3.783930540084839,4.444298449025305,4.407727047916628,17.832693784151086,15.97936827598515,0.0001295089750783,0.0940094217658042,0,0,0
1488,53959.2292598982,2010-12-21 03:09:05,270.1360140711694,2,6,0.550297200679779,3.788949012756348,4.448885822879416,4.407727047916628,17.85006393312121,15.97936827598515,9.713172767078504e-05,0.0940094217658042,0,0,0
1489,53989.24446777856,2010-12-21 03:09:35,300.15122197159855,2,6,0.5501165986061096,3.793643712997437,4.453473283725485,4.407727047916628,17.867456499362117,15.97936827598515,0.0001295089750783,0.0940094217658042,0,0,0
1490,54019.259493630976,2010-12-21 03:10:05,330.1662477939334,2,6,0.550297200679779,3.7980146408081055,4.458060696648873,4.407727047916628,17.884869703377824,15.97936827598515,9.713172767078504e-05,0.0940094217658042,0,0,0
1491,54049.27457737244,2010-12-21 03:10:35,360.18133156547253,2,6,0.550297200679779,3.8023855686187744,4.462648090536579,4.407727047916628,17.902302643085253,15.97936827598515,0.0001618862152099,0.0940094217658042,0,0,0
1492,54079.289705729934,2010-12-21 03:11:05,390.1964599229621,2,6,0.5499359965324402,3.8062708377838135,4.46723555474927,4.407727047916628,17.919754879828588,15.97936827598515,6.47544875391759e-05,0.0940094217658042,0,0,0
1493,54109.30480386221,2010-12-21 03:11:35,420.21155805022494,2,6,0.550297200679779,3.8103179931640634,4.471822995952422,4.407727047916628,17.93722550191325,15.97936827598515,9.713172767078504e-05,0.0940094217658042,0,0,0
1494,54139.31991976871,2010-12-21 03:12:05,450.2266739617432,2,6,0.550297200679779,3.8145270347595215,4.476410463386942,4.407727047916628,17.95471440930516,15.97936827598515,0.0001618862152099,0.0940094217658042,0,0,0
1495,54169.33504684802,2010-12-21 03:12:35,480.2418010460647,2,6,0.550297200679779,3.8180885314941406,4.480997903441788,4.407727047916628,17.972221134336063,15.97936827598515,9.713172767078504e-05,0.0940094217658042,0,0,0
1496,54199.350289324495,2010-12-21 03:13:05,510.257043502485,2,6,0.550297200679779,3.82197380065918,4.485585376408593,4.407727047916628,17.989745441232063,15.97936827598515,9.713172767078504e-05,0.0940094217658042,0,0,0
1497,54229.3653307256,2010-12-21 03:13:35,540.2720849637367,2,6,0.550297200679779,3.825697183609009,4.490172768419495,4.407727047916628,18.007286712925104,15.97936827598515,0.0001295089750783,0.0940094217658042,0,0,0
1498,54259.38037593115,2010-12-21 03:14:05,570.2871300991312,2,6,0.5501165986061096,3.829420566558838,4.494760162585798,4.407727047916628,18.024845343173315,15.97936827598515,9.713172767078504e-05,0.0940094217658042,0,0,0
1499,54289.39549336647,2010-12-21 03:14:35,600.3022475544914,2,6,0.550297200679779,3.833143949508667,4.499347569406637,4.407727047916628,18.042421337077148,15.97936827598515,6.47544875391759e-05,0.0940094217658042,0,0,0
1500,54319.41063317245,2010-12-21 03:15:06,630.3173873604701,2,6,0.5501165986061096,3.837028980255127,4.50393489654939,4.407727047916628,18.060014430732416,15.97936827598515,9.713172767078504e-05,0.0940094217658042,0,0,0
1501,54349.4258595238,2010-12-21 03:15:36,660.3326137017887,2,6,0.550297200679779,3.841076135635376,4.508522309416918,4.407727047916628,18.07762538508016,15.97936827598515,0.0001295089750783,0.0940094217658042,0,0,0
1502,54379.44086766213,2010-12-21 03:16:06,690.347621855155,2,6,0.5501165986061096,3.844475746154785,4.513109704573302,4.407727047916628,18.09525379530347,15.97936827598515,3.237724376958795e-05,0.0940094217658042,0,0,0
1503,54409.455964516215,2010-12-21 03:16:36,720.3627186791747,2,6,0.5501165986061096,3.848361015319824,4.517697187468272,4.407727047916628,18.11290002551091,15.97936827598515,9.713172767078504e-05,0.0940094217658042,0,0,0
1504,54439.47110688357,2010-12-21 03:17:06,750.3778610766021,2,6,0.550297200679779,3.8522462844848633,4.522284605469021,4.407727047916628,18.13056334463247,15.97936827598515,6.47544875391759e-05,0.0940094217658042,0,0,0
1505,54469.48638413157,2010-12-21 03:17:36,780.3931383947746,2,6,0.5501165986061096,3.8558077812194815,4.526872050533058,4.407727047916628,18.148243748623543,15.97936827598515,6.47544875391759e-05,0.0940094217658042,0,0,0
1506,54499.50132998992,2010-12-21 03:18:06,810.4080841779352,2,6,0.5501165986061096,3.859531164169312,4.531459498745342,4.407727047916628,18.165940846718016,15.97936827598515,9.713172767078504e-05,0.0940094217658042,0,0,0
1507,54529.51641422762,2010-12-21 03:18:36,840.4231684156344,2,6,0.550297200679779,3.86309266090393,4.536046958221241,4.407727047916628,18.18365419743891,15.97936827598515,0.0001295089750783,0.0940094217658042,0,0,0
1508,54559.531631807135,2010-12-21 03:19:06,870.4383860803614,2,6,0.5501165986061096,3.86616849899292,4.540634405049667,4.407727047916628,18.201383170149317,15.97936827598515,3.237724376958795e-05,0.0940094217658042,0,0,0
1509,54589.54671328296,2010-12-21 03:19:36,900.4534674759883,2,6,0.550297200679779,3.869729995727539,4.545221812222324,4.407727047916628,18.21912715453182,15.97936827598515,9.713172767078504e-05,0.0940094217658042,0,0,0
1510,54619.561969127695,2010-12-21 03:20:06,930.4687233056876,2,6,0.550297200679779,3.8726439476013184,4.549809316450915,4.407727047916628,18.236886131134263,15.97936827598515,3.237724376958795e-05,0.0940094217658042,0,0,0
1511,54649.576927286646,2010-12-21 03:20:36,960.4836814746697,2,6,0.5501165986061096,3.8755578994750977,4.554396731530169,4.407727047916628,18.254658715684343,15.97936827598515,6.47544875391759e-05,0.0940094217658042,0,0,0
1512,54679.592047228194,2010-12-21 03:21:06,990.4988014162168,2,6,0.550297200679779,3.878471851348877,4.558984179863813,4.407727047916628,18.27244480116164,15.97936827598515,9.713172767078504e-05,0.0940094217658042,0,0,0
1513,54709.60715610722,2010-12-21 03:21:36,1020.5139102952346,2,6,0.550297200679779,3.8812239170074463,4.563571616456056,4.407727047916628,18.290243434634096,15.97936827598515,6.47544875391759e-05,0.0940094217658042,0,0,0
1514,54739.62226777818,2010-12-21 03:22:06,1050.5290219662006,2,6,0.550297200679779,3.8838140964508057,4.568159123255517,4.407727047916628,18.30805439261087,15.97936827598515,9.713172767078504e-05,0.0940094217658042,0,0,0
1515,54769.63775636208,2010-12-21 03:22:36,1080.5445106052373,2,6,0.5501165986061096,3.886242389678955,4.572746664186968,4.407727047916628,18.325876775856973,15.97936827598515,9.713172767078504e-05,0.0940094217658042,0,0,0
1516,54799.65250591693,2010-12-21 03:23:06,1110.5592601049536,2,6,0.550297200679779,3.8885087966918954,4.577334048036486,4.407727047916628,18.34370931351087,15.97936827598515,9.713172767078504e-05,0.0940094217658042,0,0,0
1517,54829.66765972275,2010-12-21 03:23:36,1140.5744139809449,2,6,0.5501165986061096,3.890613317489624,4.58192159849659,4.407727047916628,18.36155275377064,15.97936827598515,6.47544875391759e-05,0.0940094217658042,0,0,0
1518,54859.68287564814,2010-12-21 03:24:06,1170.5896298211317,2,6,0.550297200679779,3.892879724502564,4.586509113827007,4.407727047916628,18.37940582993817,15.97936827598515,9.713172767078504e-05,0.0940094217658042,0,0,0
1519,54889.70093340032,2010-12-21 03:24:36,1200.6076876535071,2,6,0.550297200679779,3.894822359085083,4.591097097566791,4.407727047916628,18.3972701853756,15.97936827598515,6.47544875391759e-05,0.0940094217658042,0,0,0
1520,54919.71301233946,2010-12-21 03:25:06,1230.6197665274742,2,6,0.550297200679779,3.8966031074523926,4.595684114264264,4.407727047916628,18.41513935129688,15.97936827598515,6.47544875391759e-05,0.0940094217658042,0,0,0
1521,54949.72810397055,2010-12-21 03:25:36,1260.634858163584,2,6,0.5501165986061096,3.898545742034912,4.60027152919289,4.407727047916628,18.433018982211927,15.97936827598515,6.47544875391759e-05,0.0940094217658042,0,0,0
1522,54979.74321180698,2010-12-21 03:26:06,1290.6499659749454,2,6,0.550297200679779,3.9003264904022217,4.604859001526888,4.407727047916628,18.45090748362499,15.97936827598515,6.47544875391759e-05,0.0940094217658042,0,0,0
1523,55009.75850074907,2010-12-21 03:26:36,1320.6652549270684,2,6,0.5501165986061096,3.902269124984741,4.609446440226583,4.407727047916628,18.46880425988699,15.97936827598515,6.47544875391759e-05,0.0940094217658042,0,0,0
1524,55039.77371001792,2010-12-21 03:27:06,1350.6804641908902,2,6,0.550297200679779,3.904049873352051,4.614033936443835,4.407727047916628,18.4867095060914,15.97936827598515,9.713172767078504e-05,0.0940094217658042,0,0,0
1525,55069.78856469937,2010-12-21 03:27:36,1380.695318862323,2,6,0.5501165986061096,3.9056687355041504,4.61862141992508,4.407727047916628,18.50462282123675,15.97936827598515,3.237724376958795e-05,0.0940094217658042,0,0,0
1526,55099.8038438521,2010-12-21 03:28:06,1410.7105981203224,2,6,0.550297200679779,3.90744948387146,4.62320883479414,4.407727047916628,18.522543915164533,15.97936827598515,0.0,0.0940094217658042,0,0,0
1527,55129.81881541943,2010-12-21 03:28:36,1440.7255696976706,2,6,0.550297200679779,3.9092302322387695,4.627796241622419,4.407727047916628,18.540473002609577,15.97936827598515,6.47544875391759e-05,0.0940094217658042,0,0,0
1528,55159.83438173175,2010-12-21 03:29:06,1470.7411359698942,2,6,0.5501165986061096,3.910849094390869,4.632383764334688,4.407727047916628,18.558410513089004,15.97936827598515,6.47544875391759e-05,0.0940094217658042,0,0,0
1529,55189.849169997935,2010-12-21 03:29:36,1500.7559241709175,2,6,0.550297200679779,3.9126298427581783,4.636971254433497,4.407727047916628,18.576355869919897,15.97936827598515,3.237724376958795e-05,0.0940094217658042,0,0,0
1530,55219.86417469772,2010-12-21 03:30:06,1530.7709288907397,2,6,0.5501165986061096,3.914410352706909,4.641558686312146,4.407727047916628,18.59430889609424,15.97936827598515,6.47544875391759e-05,0.0940094217658042,0,0,0
1531,55249.87926033389,2010-12-21 03:30:36,1560.7860145219065,2,6,0.5501165986061096,3.916029214859009,4.646146143774502,4.407727047916628,18.61226992532725,15.97936827598515,3.237724376958795e-05,0.0940094217658042,0,0,0
1532,55279.89439337303,2010-12-21 03:31:06,1590.8011475660587,2,6,0.550297200679779,3.917971849441528,4.650733578429875,4.407727047916628,18.63023879356775,15.97936827598515,6.47544875391759e-05,0.0940094217658042,0,0,0
1533,55309.90962534335,2010-12-21 03:31:36,1620.816379516335,2,6,0.5501165986061096,3.919590711593628,4.655320967260748,4.407727047916628,18.64821533602492,15.97936827598515,6.47544875391759e-05,0.0940094217658042,0,0,0
1534,55339.92461141677,2010-12-21 03:32:06,1650.8313656047935,2,6,0.550297200679779,3.9213714599609375,4.659908379148461,4.407727047916628,18.66619986493887,15.97936827598515,6.47544875391759e-05,0.0940094217658042,0,0,0
1535,55369.93972282709,2010-12-21 03:32:36,1680.8464770151106,2,6,0.5501165986061096,3.922990322113037,4.66449583536437,4.407727047916628,18.684192474855944,15.97936827598515,3.237724376958795e-05,0.0940094217658042,0,0,0
1536,55399.95485444269,2010-12-21 03:33:06,1710.861608630708,2,6,0.5499359965324402,3.9246091842651367,4.669083276997765,4.407727047916628,18.702192888109032,15.97936827598515,3.237724376958795e-05,0.0940094217658042,0,0,0
1537,55429.97041613351,2010-12-21 03:33:36,1740.877170396718,2,6,0.550297200679779,3.9263899326324463,4.673670852607315,4.407727047916628,18.720201725777965,15.97936827598515,0.0,0.0940094217658042,0,0,0
1538,55459.98506998521,2010-12-21 03:34:06,1770.8918241581937,2,6,0.550297200679779,3.928332567214966,4.678258186002542,4.407727047916628,18.73821749001426,15.97936827598515,9.713172767078504e-05,0.0940094217658042,0,0,0
1539,55490.00019270868,2010-12-21 03:34:36,1800.906946896701,2,6,0.550297200679779,3.9299514293670654,4.682845582187393,4.407727047916628,18.75624139254434,15.97936827598515,6.47544875391759e-05,0.0940094217658042,0,0,0
1540,55520.01531609379,2010-12-21 03:35:06,1830.9220702818168,2,6,0.5499359965324402,3.931408405303955,4.687433014498163,4.407727047916628,18.77427335910008,15.97936827598515,0.0,0.0940094217658042,0,0,0
1541,55550.03046569916,2010-12-21 03:35:36,1860.9372198871808,2,6,0.550297200679779,3.9333510398864746,4.692020432883342,4.407727047916628,18.792313170751704,15.97936827598515,6.47544875391759e-05,0.0940094217658042,0,0,0
1542,55580.04553526535,2010-12-21 03:36:06,1890.9522894383333,2,6,0.550297200679779,3.934969902038574,4.696607897870528,4.407727047916628,18.81036106340097,15.97936827598515,3.237724376958795e-05,0.0940094217658042,0,0,0
1543,55610.06065168815,2010-12-21 03:36:36,1920.967405856111,2,6,0.5501165986061096,3.936750650405884,4.7011954000551,4.407727047916628,18.82841694210304,15.97936827598515,3.237724376958795e-05,0.0940094217658042,0,0,0
1544,55640.07579063197,2010-12-21 03:37:06,1950.982544809969,2,6,0.550297200679779,3.938531398773194,4.705782816564977,4.407727047916628,18.846480460908044,15.97936827598515,6.47544875391759e-05,0.0940094217658042,0,0,0
1545,55670.09100617643,2010-12-21 03:37:36,1980.997760349408,2,6,0.550297200679779,3.940474033355713,4.710370207187038,4.407727047916628,18.864551827362178,15.97936827598515,9.713172767078504e-05,0.0940094217658042,0,0,0
1546,55700.10600111691,2010-12-21 03:38:06,2011.012755284882,2,6,0.5501165986061096,3.9419310092926025,4.714957620673852,4.407727047916628,18.88263121810088,15.97936827598515,3.237724376958795e-05,0.0940094217658042,0,0,0
1547,55730.12111727905,2010-12-21 03:38:36,2041.0278714720864,2,6,0.550297200679779,3.943549871444702,4.7195450178415,4.407727047916628,18.900718532755217,15.97936827598515,0.0,0.0940094217658042,0,0,0
1548,55760.13623369683,2010-12-21 03:39:06,2071.0429879550265,2,6,0.5501165986061096,3.9454925060272217,4.724132382110663,4.407727047916628,18.918813744547688,15.97936827598515,3.237724376958795e-05,0.0940094217658042,0,0,0
1549,55790.15130826046,2010-12-21 03:39:36,2101.058062448478,2,6,0.5499359965324402,3.947111368179321,4.728719104771363,4.407727047916628,18.936914267467767,15.97936827598515,3.237724376958795e-05,0.0940094217658042,0,0,0
1550,55820.16635767149,2010-12-21 03:40:06,2131.073111859512,2,6,0.5501165986061096,3.948892116546631,4.733305801501105,4.407727047916628,18.955022790273908,15.97936827598515,3.237724376958795e-05,0.0940094217658042,0,0,0
1551,55850.182294716375,2010-12-21 03:40:36,2161.089048979576,2,6,0.550297200679779,3.950672864913941,4.737892652740913,4.407727047916628,18.97314001173186,15.97936827598515,3.237724376958795e-05,0.0940094217658042,0,0,0
1552,55880.183049485735,2010-12-21 03:41:06,2191.0898037639818,2,6,0.5501165986061096,3.95245361328125,4.742477203107174,4.407727047916628,18.991256222772424,15.97936827598515,6.47544875391759e-05,0.0940094217658042,0,0,0
1553,55910.19620120946,2010-12-21 03:41:36,2221.10295535737,2,6,0.550297200679779,3.95423436164856,4.747063543126511,4.407727047916628,19.0093876269098,15.97936827598515,3.237724376958795e-05,0.0940094217658042,0,0,0
1554,55940.21142460343,2010-12-21 03:42:06,2251.1181787914543,2,6,0.550297200679779,3.956015110015869,4.751650237546269,4.407727047916628,19.02752860138109,15.97936827598515,6.47544875391759e-05,0.0940094217658042,0,0,0
1555,55970.22640031106,2010-12-21 03:42:36,2281.1331544990803,2,6,0.550297200679779,3.9579577445983887,4.756237678616463,4.407727047916628,19.045680887232223,15.97936827598515,6.47544875391759e-05,0.0940094217658042,0,0,0
1556,56000.24152785151,2010-12-21 03:43:06,2311.148282034524,2,6,0.550297200679779,3.959738492965698,4.760825121320099,4.407727047916628,19.06384154259865,15.97936827598515,6.47544875391759e-05,0.0940094217658042,0,0,0
1557,56030.256690965485,2010-12-21 03:43:36,2341.163445153517,2,6,0.5501165986061096,3.961519241333008,4.765412575107059,4.407727047916628,19.08201066762449,15.97936827598515,3.237724376958795e-05,0.0940094217658042,0,0,0
1558,56060.27179584958,2010-12-21 03:44:06,2371.1785500375936,2,6,0.5501165986061096,3.963299989700317,4.77000005517163,4.407727047916628,19.10018837403605,15.97936827598515,3.237724376958795e-05,0.0940094217658042,0,0,0
1559,56090.28683296,2010-12-21 03:44:36,2401.193587132981,2,6,0.550297200679779,3.965080738067627,4.774587467206081,4.407727047916628,19.118374257018196,15.97936827598515,6.47544875391759e-05,0.0940094217658042,0,0,0
1560,56120.30202630921,2010-12-21 03:45:06,2431.2087804822,2,6,0.550297200679779,3.967185258865357,4.779174982972869,4.407727047916628,19.136569170996463,15.97936827598515,6.47544875391759e-05,0.0940094217658042,0,0,0
1561,56150.31709922875,2010-12-21 03:45:36,2461.2238534017347,2,6,0.550297200679779,3.968966007232666,4.783762484646537,4.407727047916628,19.15477254394412,15.97936827598515,6.47544875391759e-05,0.0940094217658042,0,0,0
1562,56180.3322871645,2010-12-21 03:46:06,2491.23904135252,2,6,0.5501165986061096,3.970746755599976,4.788350057879944,4.407727047916628,19.172985004166744,15.97936827598515,3.237724376958795e-05,0.0940094217658042,0,0,0
1563,56210.34741925127,2010-12-21 03:46:36,2521.2541734392894,2,6,0.5501165986061096,3.973013162612915,4.79293758675607,4.407727047916628,19.191206109107785,15.97936827598515,6.47544875391759e-05,0.0940094217658042,0,0,0
1564,56240.36250809544,2010-12-21 03:47:06,2551.269262283452,2,6,0.5501165986061096,3.9747939109802246,4.797525122844721,4.407727047916628,19.2094361152568,15.97936827598515,6.47544875391759e-05,0.0940094217658042,0,0,0
1565,56270.377641535575,2010-12-21 03:47:37,2581.284395723589,2,6,0.550297200679779,3.976736545562744,4.802112654547238,4.407727047916628,19.227675048371896,15.97936827598515,6.47544875391759e-05,0.0940094217658042,0,0,0
1566,56300.39287182671,2010-12-21 03:48:07,2611.299626019749,2,6,0.550297200679779,3.9788410663604736,4.806700203714208,4.407727047916628,19.24592273788446,15.97936827598515,0.0001295089750783,0.0940094217658042,0,0,0
1567,56330.40798757284,2010-12-21 03:48:37,2641.314741765856,2,6,0.5504778623580933,3.980945587158203,4.811287586157148,4.407727047916628,19.26417935678707,15.97936827598515,0.0001295089750783,0.0940094217658042,0,0,0
1568,56360.42332227379,2010-12-21 03:49:07,2671.3300765369977,2,6,0.550297200679779,3.9827263355255127,4.81587505107782,4.407727047916628,19.282445573685603,15.97936827598515,6.47544875391759e-05,0.0940094217658042,0,0,0
1569,56390.43809561283,2010-12-21 03:49:37,2701.344849785813,2,6,0.550297200679779,3.984830856323242,4.820462351180791,4.407727047916628,19.300720411264027,15.97936827598515,6.47544875391759e-05,0.0940094217658042,0,0,0
1570,56420.45339325157,2010-12-21 03:50:07,2731.3601474245525,2,6,0.5501165986061096,3.9867734909057617,4.825049747930979,4.407727047916628,19.31900510587583,15.97936827598515,0.0,0.0940094217658042,0,0,0
1571,56450.46835245813,2010-12-21 03:50:37,2761.3751066511663,2,6,0.550297200679779,3.989039897918701,4.829637192463456,4.407727047916628,19.337299485640703,15.97936827598515,6.47544875391759e-05,0.0940094217658042,0,0,0
1572,56480.48344342758,2010-12-21 03:51:07,2791.390197600568,2,6,0.550297200679779,3.991144418716431,4.834224569320323,4.407727047916628,19.35560321340022,15.97936827598515,6.47544875391759e-05,0.0940094217658042,0,0,0
1573,56510.49869587387,2010-12-21 03:51:37,2821.4054500618845,2,6,0.5501165986061096,3.99324893951416,4.838812038173503,4.407727047916628,19.37391715122616,15.97936827598515,6.47544875391759e-05,0.0940094217658042,0,0,0
1574,56540.5136723484,2010-12-21 03:52:07,2851.42042653642,2,6,0.550297200679779,3.995515108108521,4.843399468434389,4.407727047916628,19.392240743872588,15.97936827598515,6.47544875391759e-05,0.0940094217658042,0,0,0
1575,56570.52881028974,2010-12-21 03:52:37,2881.435564462721,2,6,0.5501165986061096,3.99761962890625,4.847986937731855,4.407727047916628,19.410574484279262,15.97936827598515,9.713172767078504e-05,0.0940094217658042,0,0,0
1576,56600.54392747944,2010-12-21 03:53:07,2911.450681667457,2,6,0.5501165986061096,3.99972414970398,4.852574380172444,4.407727047916628,19.428918119936856,15.97936827598515,6.47544875391759e-05,0.0940094217658042,0,0,0
1577,56630.55905324046,2010-12-21 03:53:37,2941.465807433498,2,6,0.550297200679779,4.002152442932129,4.857161728683266,4.407727047916628,19.44727159157741,15.97936827598515,9.70840483205393e-05,0.0940094217658042,0,0,0
1578,56660.57416542772,2010-12-21 03:54:07,2971.4809196006986,2,6,0.550297200679779,4.004418849945068,4.86174911632638,4.407727047916628,19.46563555564694,15.97936827598515,9.70840483205393e-05,0.0940094217658042,0,0,0
1579,56690.589256532505,2010-12-21 03:54:37,3001.4960107255365,2,6,0.550297200679779,4.006523609161377,4.866336537477475,4.407727047916628,19.484010091128773,15.97936827598515,6.47544875391759e-05,0.0940094217658042,0,0,0
1580,56720.60436989267,2010-12-21 03:55:07,3031.511124065656,2,6,0.5499359965324402,4.008790016174316,4.870924006689702,4.407727047916628,19.50239541611089,15.97936827598515,3.24249267578125e-05,0.0940094217658042,0,0,0
1581,56750.61949958348,2010-12-21 03:55:37,3061.526253761476,2,6,0.550297200679779,4.011380195617676,4.875511424966993,4.407727047916628,19.520791106074924,15.97936827598515,9.71794142969884e-05,0.0940094217658042,0,0,0
1582,56780.63463700352,2010-12-21 03:56:07,3091.5413911714923,2,6,0.550297200679779,4.013646602630615,4.880098831883894,4.407727047916628,19.539197560970557,15.97936827598515,6.47544875391759e-05,0.0940094217658042,0,0,0
1583,56810.64972526624,2010-12-21 03:56:37,3121.556479454257,2,6,0.5501165986061096,4.015913009643555,4.884686232549364,4.407727047916628,19.55761490168205,15.97936827598515,3.24249267578125e-05,0.0940094217658042,0,0,0
1584,56840.667751144094,2010-12-21 03:57:07,3151.5745054073022,2,6,0.5501165986061096,4.018341064453125,4.889274079505015,4.407727047916628,19.576045050991866,15.97936827598515,6.47544875391759e-05,0.0940094217658042,0,0,0
1585,56870.67998930444,2010-12-21 03:57:37,3181.5867434774227,2,6,0.5501165986061096,4.0207695960998535,4.89386106318042,4.407727047916628,19.59448275990861,15.97936827598515,6.47544875391759e-05,0.0940094217658042,0,0,0
1586,56900.69508939158,2010-12-21 03:58:07,3211.6018435796,2,6,0.5501165986061096,4.023359775543213,4.89844843596313,4.407727047916628,19.612933313220115,15.97936827598515,6.47544875391759e-05,0.0940094217658042,0,0,0
1587,56930.71018832084,2010-12-21 03:58:37,3241.6169425088588,2,6,0.550297200679779,4.025787830352783,4.903035851608625,4.407727047916628,19.631395308312356,15.97936827598515,9.70840483205393e-05,0.0940094217658042,0,0,0
1588,56960.72538263246,2010-12-21 03:59:07,3271.6321368756094,2,6,0.5501165986061096,4.028216361999512,4.90762324844997,4.407727047916628,19.649868703864552,15.97936827598515,3.24249267578125e-05,0.0940094217658042,0,0,0
1589,56990.74072583958,2010-12-21 03:59:37,3301.647480122844,2,6,0.5501165986061096,4.030644416809082,4.912210737226629,4.407727047916628,19.66835398434123,15.97936827598515,3.23295607813634e-05,0.0940094217658042,0,0,0
1590,57020.75556051626,2010-12-21 04:00:07,3331.6623147042837,2,6,0.5501165986061096,4.033234596252441,4.916798095606408,4.407727047916628,19.68685039752325,15.97936827598515,6.47544875391759e-05,0.0940094217658042,0,0,0
1591,57050.770691760925,2010-12-21 04:00:37,3361.67744601412,2,6,0.5501165986061096,4.035662651062012,4.921385484315482,4.407727047916628,19.705358750477448,15.97936827598515,0.0,0.0940094217658042,0,0,0
1592,57080.78577757256,2010-12-21 04:01:07,3391.6925317605733,2,6,0.550297200679779,4.03841495513916,4.925972924581259,4.407727047916628,19.72387920113389,15.97936827598515,6.47544875391759e-05,0.0940094217658042,0,0,0
1593,57110.80095577407,2010-12-21 04:01:37,3421.707709962098,2,6,0.5501165986061096,4.04100513458252,4.930560373454982,4.407727047916628,19.74241161106813,15.97936827598515,6.47544875391759e-05,0.0940094217658042,0,0,0
1594,57140.81614767971,2010-12-21 04:02:07,3451.7229018526878,2,6,0.550297200679779,4.04375696182251,4.935147734805219,4.407727047916628,19.76095573491362,15.97936827598515,6.47544875391759e-05,0.0940094217658042,0,0,0
1595,57170.83120186261,2010-12-21 04:02:37,3481.7379561458706,2,6,0.550297200679779,4.046509265899658,4.939735119965825,4.407727047916628,19.77951219964712,15.97936827598515,9.71794142969884e-05,0.0940094217658042,0,0,0
1596,57200.84624481258,2010-12-21 04:03:07,3511.7529990005896,2,6,0.5504778623580933,4.049099445343018,4.944322514677512,4.407727047916628,19.798081012846172,15.97936827598515,6.47544875391759e-05,0.0940094217658042,0,0,0
1597,57230.861377992056,2010-12-21 04:03:37,3541.7681321800787,2,6,0.5501165986061096,4.051851272583008,4.948909950362389,4.407727047916628,19.81666243552752,15.97936827598515,9.70840483205393e-05,0.0940094217658042,0,0,0
1598,57260.876625481,2010-12-21 04:04:07,3571.783379658997,2,6,0.5501165986061096,4.054603576660156,4.953497352660039,4.407727047916628,19.835256279352045,15.97936827598515,6.47544875391759e-05,0.0940094217658042,0,0,0
1599,57290.89159602077,2010-12-21 04:04:37,3601.7983501937515,2,6,0.550297200679779,4.0573554039001465,4.958084800581674,4.407727047916628,19.853862985725748,15.97936827598515,6.47544875391759e-05,0.0940094217658042,0,0,0
1600,57320.90671615279,2010-12-21 04:05:07,3631.81347034081,2,6,0.550297200679779,4.060269355773926,4.962672189936991,4.407727047916628,19.87248214395331,15.97936827598515,6.47544875391759e-05,0.0940094217658042,0,0,0
1601,57350.92184491128,2010-12-21 04:05:37,3661.828599084259,2,6,0.5501165986061096,4.062859535217285,4.967259668772008,4.407727047916628,19.891114066025708,15.97936827598515,9.70840483205393e-05,0.0940094217658042,0,0,0
1602,57380.93721939625,2010-12-21 04:06:07,3691.843973664465,2,6,0.5501165986061096,4.0657734870910645,4.971847157248233,4.407727047916628,19.909759027665658,15.97936827598515,3.23295607813634e-05,0.0940094217658042,0,0,0
1603,57410.95206702014,2010-12-21 04:06:37,3721.8588211931233,2,6,0.5501165986061096,4.068525791168213,4.97643449648816,4.407727047916628,19.928416382342565,15.97936827598515,6.47544875391759e-05,0.0940094217658042,0,0,0
1604,57440.96718105699,2010-12-21 04:07:07,3751.873935229976,2,6,0.5501165986061096,4.071277618408203,4.981021898936431,4.407727047916628,19.94708715195002,15.97936827598515,6.47544875391759e-05,0.0940094217658042,0,0,0
1605,57470.982322226366,2010-12-21 04:07:37,3781.8890764193975,2,6,0.5501165986061096,4.074191570281982,4.985609338650015,4.407727047916628,19.96577130025864,15.97936827598515,3.23295607813634e-05,0.0940094217658042,0,0,0
1606,57500.9974111407,2010-12-21 04:08:07,3811.904165308672,2,6,0.550297200679779,4.077429294586182,4.990196754258279,4.407727047916628,19.984468696140823,15.97936827598515,6.47544875391759e-05,0.0940094217658042,0,0,0
1607,57531.01249916783,2010-12-21 04:08:37,3841.9192533408127,2,6,0.5501165986061096,4.08018159866333,4.99478416425359,4.407727047916628,20.003179626543076,15.97936827598515,6.47544875391759e-05,0.0940094217658042,0,0,0
1608,57561.02765135963,2010-12-21 04:09:07,3871.934405552664,2,6,0.550297200679779,4.08325719833374,4.999371606212741,4.407727047916628,20.02190432099391,15.97936827598515,6.47544875391759e-05,0.0940094217658042,0,0,0
1609,57591.04275692039,2010-12-21 04:09:37,3901.949511108412,2,6,0.5501165986061096,4.08617115020752,5.003958923563404,4.407727047916628,20.040642253234893,15.97936827598515,6.47544875391759e-05,0.0940094217658042,0,0,0
1610,57621.057867493626,2010-12-21 04:10:07,3931.964621686659,2,6,0.5501165986061096,4.089085102081299,5.008546214866274,4.407727047916628,20.05939392843328,15.97936827598515,3.23295607813634e-05,0.0940094217658042,0,0,0
1611,57651.072966568245,2010-12-21 04:10:37,3961.9797207562674,2,6,0.5501165986061096,4.092322826385498,5.013133594450569,4.407727047916628,20.078160005203937,15.97936827598515,6.47544875391759e-05,0.0940094217658042,0,0,0
1612,57681.08812048434,2010-12-21 04:11:07,3991.994874657321,2,6,0.550297200679779,4.095560550689697,5.01772098766622,4.407727047916628,20.09694020995532,15.97936827598515,0.0001295089750783,0.0940094217658042,0,0,0
1613,57711.10325826528,2010-12-21 04:11:37,4022.010012443272,2,6,0.5501165986061096,4.098636627197266,5.022308400133619,4.407727047916628,20.11573463650321,15.97936827598515,0.0001295089750783,0.0940094217658042,0,0,0
1614,57741.118346623225,2010-12-21 04:12:07,4052.025100796212,2,6,0.5499359965324402,4.101550579071045,5.026895839889677,4.407727047916628,20.13454341602614,15.97936827598515,6.47544875391759e-05,0.0940094217658042,0,0,0
1615,57771.13340899653,2010-12-21 04:12:37,4082.040163169502,2,6,0.550297200679779,4.104788303375244,5.031483201569682,4.407727047916628,20.153366225299663,15.97936827598515,6.47544875391759e-05,0.0940094217658042,0,0,0
1616,57801.14859627062,2010-12-21 04:13:07,4112.055350463654,2,6,0.5504778623580933,4.108026027679443,5.036070618667305,4.407727047916628,20.172203809998955,15.97936827598515,9.71794142969884e-05,0.0940094217658042,0,0,0
1617,57831.16368932026,2010-12-21 04:13:37,4142.070443598493,2,6,0.5501165986061096,4.111263751983643,5.040657997964972,4.407727047916628,20.19105592473319,15.97936827598515,9.71794142969884e-05,0.0940094217658042,0,0,0
1618,57861.17881523165,2010-12-21 04:14:07,4172.085569439721,2,6,0.550297200679779,4.114177703857422,5.045245396154535,4.407727047916628,20.209922850644475,15.97936827598515,3.24249267578125e-05,0.0940094217658042,0,0,0
1619,57891.19397330309,2010-12-21 04:14:37,4202.10072756629,2,6,0.5501165986061096,4.117577075958252,5.049832768480032,4.407727047916628,20.228804512648733,15.97936827598515,6.47544875391759e-05,0.0940094217658042,0,0,0
1620,57921.20901866404,2010-12-21 04:15:07,4232.115772857071,2,6,0.550297200679779,4.120976448059082,5.054420112771933,4.407727047916628,20.24770098313121,15.97936827598515,9.70840483205393e-05,0.0940094217658042,0,0,0
1621,57951.22416098628,2010-12-21 04:15:37,4262.130915174299,2,6,0.550297200679779,4.124214172363281,5.05900754962556,4.407727047916628,20.266612879065395,15.97936827598515,9.70840483205393e-05,0.0940094217658042,0,0,0
1622,57981.239256537134,2010-12-21 04:16:07,4292.146010710114,2,6,0.5501165986061096,4.1274518966674805,5.063594968783094,4.407727047916628,20.2855398837544,15.97936827598515,6.47544875391759e-05,0.0940094217658042,0,0,0
1623,58011.25437302008,2010-12-21 04:16:37,4322.161127208091,2,6,0.550297200679779,4.13068962097168,5.068182414880007,4.407727047916628,20.30448226539033,15.97936827598515,3.23295607813634e-05,0.0940094217658042,0,0,0
1624,58041.26954604872,2010-12-21 04:17:07,4352.176300316943,2,6,0.5501165986061096,4.134251117706299,5.072769862676039,4.407727047916628,20.323440107474944,15.97936827598515,9.70840483205393e-05,0.0940094217658042,0,0,0
1625,58071.28462517871,2010-12-21 04:17:37,4382.191379371745,2,6,0.5504778623580933,4.137812614440918,5.07735730633463,4.407727047916628,20.342413505958785,15.97936827598515,6.47544875391759e-05,0.0940094217658042,0,0,0
1626,58101.29989828641,2010-12-21 04:18:07,4412.206652549614,2,6,0.5501165986061096,4.140888690948486,5.081944802911501,4.407727047916628,20.36140276676636,15.97936827598515,6.47544875391759e-05,0.0940094217658042,0,0,0
1627,58131.314844024455,2010-12-21 04:18:37,4442.221598197438,2,6,0.5501165986061096,4.144611835479736,5.086532231392064,4.407727047916628,20.380407477619137,15.97936827598515,0.0001295089750783,0.0940094217658042,0,0,0
1628,58161.33003731853,2010-12-21 04:19:07,4472.236791561694,2,6,0.550297200679779,4.148011684417725,5.091119626447116,4.407727047916628,20.399428287913,15.97936827598515,9.71794142969884e-05,0.0940094217658042,0,0,0
1629,58191.3450850153,2010-12-21 04:19:38,4502.251839203325,2,6,0.5501165986061096,4.151573181152344,5.095707065337789,4.407727047916628,20.418465274938843,15.97936827598515,9.71794142969884e-05,0.0940094217658042,0,0,0
1630,58221.3603227199,2010-12-21 04:20:08,4532.26707690792,2,6,0.550297200679779,4.155134677886963,5.100294507099013,4.407727047916628,20.43751825990942,15.97936827598515,9.71794142969884e-05,0.0940094217658042,0,0,0
1631,58251.37531342986,2010-12-21 04:20:38,4562.282067607855,2,6,0.550297200679779,4.158696174621582,5.104881922136903,4.407727047916628,20.456587249546697,15.97936827598515,0.0001295089750783,0.0940094217658042,0,0,0
1632,58281.39042357703,2010-12-21 04:21:08,4592.297177770066,2,6,0.550297200679779,4.162095546722412,5.109469272481049,4.407727047916628,20.47567220262999,15.97936827598515,9.70840483205393e-05,0.0940094217658042,0,0,0
1633,58311.40556502209,2010-12-21 04:21:38,4622.312319195074,2,6,0.5501165986061096,4.165657043457031,5.114056655969931,4.407727047916628,20.49477369807993,15.97936827598515,9.70840483205393e-05,0.0940094217658042,0,0,0
1634,58341.42066676334,2010-12-21 04:22:08,4652.32742095638,2,6,0.5501165986061096,4.16938066482544,5.118644033004731,4.407727047916628,20.513891699942032,15.97936827598515,9.71794142969884e-05,0.0940094217658042,0,0,0
1635,58371.43577618371,2010-12-21 04:22:38,4682.34253034667,2,6,0.5499359965324402,4.1727800369262695,5.123231402015179,4.407727047916628,20.533026184717805,15.97936827598515,6.47544875391759e-05,0.0940094217658042,0,0,0
1636,58401.451019893255,2010-12-21 04:23:08,4712.357774081271,2,6,0.5501165986061096,4.176665306091309,5.127818886397694,4.407727047916628,20.55217784319157,15.97936827598515,9.70840483205393e-05,0.0940094217658042,0,0,0
1637,58431.466258048975,2010-12-21 04:23:38,4742.373012292127,2,6,0.5504778623580933,4.180388927459717,5.132406302667269,4.407727047916628,20.571346001509863,15.97936827598515,0.0001295089750783,0.0940094217658042,0,0,0
1638,58461.481134524656,2010-12-21 04:24:08,4772.387888697644,2,6,0.550297200679779,4.184112071990967,5.136993640139154,4.407727047916628,20.59053080944568,15.97936827598515,0.0001295089750783,0.0940094217658042,0,0,0
1639,58491.49625166925,2010-12-21 04:24:38,4802.40300584223,2,6,0.550297200679779,4.187673568725586,5.141581018607653,4.407727047916628,20.609732734298863,15.97936827598515,6.47544875391759e-05,0.0940094217658042,0,0,0
1640,58521.51139404162,2010-12-21 04:25:08,4832.418148234646,2,6,0.5501165986061096,4.191397190093994,5.146168455232547,4.407727047916628,20.62895204227781,15.97936827598515,9.71794142969884e-05,0.0940094217658042,0,0,0
1641,58551.52652293543,2010-12-21 04:25:38,4862.433277123457,2,6,0.5501165986061096,4.195281982421875,5.150755830617907,4.407727047916628,20.648188272108428,15.97936827598515,0.0001294136018259,0.0940094217658042,0,0,0
1642,58581.54182828838,2010-12-21 04:26:08,4892.4485825315305,2,6,0.5501165986061096,4.199005603790283,5.155343264296008,4.407727047916628,20.66744199087492,15.97936827598515,0.0001295089750783,0.0940094217658042,0,0,0
1643,58589.47896929851,2010-12-21 04:26:16,4900.385723476497,2,6,0.5504778623580933,4.200300693511963,5.156556325128521,4.407727047916628,20.67253618934389,15.97936827598515,0.0001619339018361,0.0940094217658042,0,0,0
1644,58619.49345298879,2010-12-21 04:26:46,30.015099731254317,3,6,0.0,4.113206386566162,5.156556325128521,4.407727047916628,20.67253618934389,15.97936827598515,-0.0003884315374307,0.0940094217658042,0,0,0
1645,58649.508540680086,2010-12-21 04:27:16,60.03018742254765,3,6,0.0,4.102198123931885,5.156556325128521,4.407727047916628,20.67253618934389,15.97936827598515,-0.0002590179501567,0.0940094217658042,0,0,0
1646,58679.52383382765,2010-12-21 04:27:46,90.045480570111,3,6,0.0,4.096046447753906,5.156556325128521,4.407727047916628,20.67253618934389,15.97936827598515,-0.0001618385285837,0.0940094217658042,0,0,0
1647,58709.49191238853,2010-12-21 04:28:16,120.01355915104124,3,6,0.0,4.091837406158447,5.156556325128521,4.407727047916628,20.67253618934389,15.97936827598515,-9.70840483205393e-05,0.0940094217658042,0,0,0
1648,58709.49331669024,2010-12-21 04:28:16,2.666635821e-06,4,6,1.0020010471343994,4.199814796447754,5.156556325870735,4.407727047916628,20.67253619246106,15.97936827598515,0.0,0.0940094217658042,0,0,0
1649,58710.37136229295,2010-12-21 04:28:17,0.878048394659017,4,6,0.9507079720497132,4.199491024017334,5.156793045941311,4.407727047916628,20.673530355017636,15.97936827598515,-6.47544875391759e-05,0.0940094217658042,0,0,0
1650,58712.274636101625,2010-12-21 04:28:19,2.781322103079587,4,6,0.900498628616333,4.199653148651123,5.157281375321159,4.407727047916628,20.675581207428596,15.97936827598515,-3.23295607813634e-05,0.0940094217658042,0,0,0
1651,58715.19636749282,2010-12-21 04:28:22,5.703053574471859,4,6,0.8504698276519775,4.199814796447754,5.157990833309351,4.407727047916628,20.678560750586364,15.97936827598515,0.0,0.0940094217658042,0,0,0
1652,58719.25879541345,2010-12-21 04:28:26,9.765481414905553,4,6,0.800079882144928,4.199653148651123,5.158920860223376,4.407727047916628,20.682466631219413,15.97936827598515,-3.23295607813634e-05,0.0940094217658042,0,0,0
1653,58724.63369525498,2010-12-21 04:28:31,15.14038125643428,4,6,0.7498704791069031,4.199653148651123,5.160076360830434,4.407727047916628,20.687319458790505,15.97936827598515,-3.23295607813634e-05,0.0940094217658042,0,0,0
1654,58731.60231862621,2010-12-21 04:28:38,22.109004627669623,4,6,0.6996610760688782,4.199653148651123,5.161477315795061,4.407727047916628,20.6932031297495,15.97936827598515,0.0,0.0940094217658042,0,0,0
1655,58740.91466525263,2010-12-21 04:28:47,31.421351269119697,4,6,0.6496323347091675,4.199976921081543,5.163219674529462,4.407727047916628,20.700520648296077,15.97936827598515,3.24249267578125e-05,0.0940094217658042,0,0,0
1656,58753.94569633729,2010-12-21 04:29:00,44.452382353780365,4,6,0.599603533744812,4.199653148651123,5.165475887336157,4.407727047916628,20.709996241318365,15.97936827598515,-3.23295607813634e-05,0.0940094217658042,0,0,0
1657,58773.757867142325,2010-12-21 04:29:20,64.26455315882215,4,6,0.5493941903114319,4.199653148651123,5.16862832949082,4.407727047916628,20.723235772705472,15.97936827598515,-3.23295607813634e-05,0.0940094217658042,0,0,0
1658,58807.92912026645,2010-12-21 04:29:54,98.43580628294256,4,6,0.4993654191493988,4.199653148651123,5.173584788356376,4.407727047916628,20.74405178448424,15.97936827598515,-3.23295607813634e-05,0.0940094217658042,0,0,0
1659,58870.75632803656,2010-12-21 04:30:57,161.2630140480349,4,6,0.4493366479873657,4.199814796447754,5.181823620075189,4.407727047916628,20.77865302235724,15.97936827598515,3.23295607813634e-05,0.0940094217658042,0,0,0
1660,58967.6764276317,2010-12-21 04:32:34,258.1831136281439,4,6,0.3993078768253326,4.199814796447754,5.193216804379576,4.407727047916628,20.826501928532632,15.97936827598515,3.23295607813634e-05,0.0940094217658042,0,0,0
1661,59087.908823785205,2010-12-21 04:34:34,378.4155098016989,4,6,0.3492791056632995,4.199491024017334,5.205699038913653,4.407727047916628,20.878924608435945,15.97936827598515,-3.24249267578125e-05,0.0940094217658042,0,0,0
1662,59232.82822213919,2010-12-21 04:36:59,523.3349081556797,4,6,0.299069732427597,4.199814796447754,5.218737756196439,4.407727047916628,20.933684310231147,15.97936827598515,3.23295607813634e-05,0.0940094217658042,0,0,0
1663,59407.37212762977,2010-12-21 04:39:54,697.878813626216,4,6,0.2488603442907333,4.199653148651123,5.232010906614954,4.407727047916628,20.98942860046717,15.97936827598515,0.0,0.0940094217658042,0,0,0
1664,59623.727835121485,2010-12-21 04:43:30,914.2345211379856,4,6,0.1988315731287002,4.199653148651123,5.245427330101755,4.407727047916628,21.04577460472639,15.97936827598515,-3.23295607813634e-05,0.0940094217658042,0,0,0
1665,59912.70754356635,2010-12-21 04:48:19,1203.214229653021,4,6,0.1488028019666671,4.199814796447754,5.259288628856295,4.407727047916628,21.10398905376841,15.97936827598515,0.0,0.0940094217658042,0,0,0
1666,60356.19986267506,2010-12-21 04:55:43,1646.7065486915517,4,6,0.0987740308046341,4.199653148651123,5.274302265011625,4.407727047916628,21.167043003345643,15.97936827598515,-3.23295607813634e-05,0.0940094217658042,0,0,0
1667,61204.15416275719,2010-12-21 05:09:51,2494.660848763654,4,6,0.0498289167881011,4.199653148651123,5.29112010066594,4.407727047916628,21.23767425813213,15.97936827598515,-3.23295607813634e-05,0.0940094217658042,0,0,0
1668,61234.169987799854,2010-12-21 05:10:21,30.01510065856188,5,6,0.0,4.191558837890625,5.29112010066594,4.407727047916628,21.23767425813213,15.97936827598515,-6.47544875391759e-05,0.0940094217658042,0,0,0
1669,61264.16953435262,2010-12-21 05:10:51,60.01464721132974,5,6,0.0,4.190263748168945,5.29112010066594,4.407727047916628,21.23767425813213,15.97936827598515,-6.47544875391759e-05,0.0940094217658042,0,0,0
1670,61264.3587233123,2010-12-21 05:10:51,0.187352970661608,6,6,-1.9243103452026844e-05,4.190425872802734,5.29112010066594,4.407727048918087,21.23767425813213,15.97936828018169,0.0,0.0963535830378532,0,0,0
1671,61269.18676207608,2010-12-21 05:10:56,5.015391664256824,6,6,0.0007031940040178,4.190263748168945,5.291121144416134,4.407727049085325,21.23767863188993,15.979368280882486,-6.47544875391759e-05,0.0963535830378532,0,0,0
1672,61299.20400248818,2010-12-21 05:11:26,30.01522360450814,7,6,-1.0993878841400146,4.008790016174316,5.291121144416134,4.416895641554986,21.23767863188993,16.0163336574779,-0.0009713172912597,0.0963535830378532,0,0,0
1673,61329.21895458205,2010-12-21 05:11:56,60.03017567331012,7,6,-1.0997490882873535,3.979650497436523,5.291121144416134,4.426064129867272,21.23767863188993,16.052944914271507,-0.0006475448608398,0.0963535830378532,0,0,0
1674,61359.23411763588,2010-12-21 05:12:26,90.04533882237722,7,6,-1.0997490882873535,3.959576606750488,5.291121144416134,4.435232569771689,21.23767863188993,16.08933563773495,-0.0004856586456298,0.0963535830378532,0,0,0
1675,61389.24913556857,2010-12-21 05:12:56,120.06035666986692,7,6,-1.099929690361023,3.943873643875122,5.291121144416134,4.444401007621823,21.23767863188993,16.125564561273556,-0.0003885269106831,0.0963535830378532,0,0,0
1676,61419.264437232334,2010-12-21 05:13:26,150.07565840379712,7,6,-1.0997490882873535,3.930598974227905,5.291121144416134,4.453569447041668,21.23767863188993,16.161661656991253,-0.0002913951757363,0.0963535830378532,0,0,0
1677,61449.27931097622,2010-12-21 05:13:56,180.09053207751597,7,6,-1.099568486213684,3.918457508087158,5.291121144416134,4.462737781345359,21.23767863188993,16.1976422321624,-0.0003237724304199,0.0963535830378532,0,0,0
1678,61479.294388161376,2010-12-21 05:14:26,210.1056092626652,7,6,-1.099568486213684,3.90712571144104,5.291121144416134,4.471906189871287,21.23767863188993,16.233516345615804,-0.0002913951757363,0.0963535830378532,0,0,0
1679,61509.30950344132,2010-12-21 05:14:56,240.12072455764925,7,6,-1.0997490882873535,3.8962793350219727,5.291121144416134,4.481074545231044,21.23767863188993,16.269288720242866,-0.0002913951757363,0.0963535830378532,0,0,0
1680,61539.32456446626,2010-12-21 05:15:26,270.13578558258433,7,6,-1.0997490882873535,3.885918617248535,5.291121144416134,4.490242929149726,21.23767863188993,16.304963941018244,-0.0002913951757363,0.0963535830378532,0,0,0
1681,61569.33979946411,2010-12-21 05:15:56,300.151020565407,7,6,-1.0997490882873535,3.8755578994750977,5.291121144416134,4.499411400869717,21.23767863188993,16.340544576640514,-0.0002913951757363,0.0963535830378532,0,0,0
1682,61599.3547268916,2010-12-21 05:16:26,330.16594799289004,7,6,-1.0997490882873535,3.86568284034729,5.291121144416134,4.508579852185998,21.23767863188993,16.376032360123588,-0.0002590179501567,0.0963535830378532,0,0,0
1683,61629.36997629029,2010-12-21 05:16:56,360.18119739158595,7,6,-1.099568486213684,3.855969667434693,5.291121144416134,4.517748311332585,21.23767863188993,16.411429618202423,-0.0002590179501567,0.0963535830378532,0,0,0
1684,61659.384898940894,2010-12-21 05:17:26,390.1961200371695,7,6,-1.0997490882873535,3.846256494522095,5.291121144416134,4.526916686042108,21.23767863188993,16.446737444150862,-0.0002266406954731,0.0963535830378532,0,0,0
1685,61689.40012801401,2010-12-21 05:17:56,420.2113491152985,7,6,-1.099568486213684,3.836867094039917,5.291121144416134,4.536085167093029,21.23767863188993,16.481958641260274,-0.0002913951757363,0.0963535830378532,0,0,0
1686,61719.41511430798,2010-12-21 05:18:26,450.2263354092685,7,6,-1.099568486213684,3.8278017044067374,5.291121144416134,4.545253545188906,21.23767863188993,16.51709408367687,-0.0001942634553415,0.0963535830378532,0,0,0
1687,61749.43016983423,2010-12-21 05:18:56,480.2413909355203,7,6,-1.099568486213684,3.8185741901397705,5.291121144416134,4.554422039287579,21.23767863188993,16.552146544535173,-0.0002590179501567,0.0963535830378532,0,0,0
1688,61779.445239500674,2010-12-21 05:19:26,510.256460596947,7,6,-1.0997490882873535,3.809670448303223,5.291121144416134,4.563590476350748,21.23767863188993,16.58711702915088,-0.0002590179501567,0.0963535830378532,0,0,0
1689,61809.46045012789,2010-12-21 05:19:56,540.2716712291741,7,6,-1.0997490882873535,3.8012523651123047,5.291121144416134,4.572758921151968,21.23767863188993,16.62200725769719,-0.0001942634553415,0.0963535830378532,0,0,0
1690,61839.47561608394,2010-12-21 05:20:26,570.2868372754508,7,6,-1.0997490882873535,3.7928342819213863,5.291121144416134,4.581927385099399,21.23767863188993,16.656819504379612,-0.0002266406954731,0.0963535830378532,0,0,0
1691,61869.4905045645,2010-12-21 05:20:56,600.301725660779,7,6,-1.099568486213684,3.784578084945679,5.291121144416134,4.591095724752781,21.23767863188993,16.691555159714877,-0.0002266406954731,0.0963535830378532,0,0,0
1692,61899.50556897787,2010-12-21 05:21:26,630.3167900992083,7,6,-1.099568486213684,3.776645660400391,5.291121144416134,4.600264135764327,21.23767863188993,16.726216825333378,-0.0001942634553415,0.0963535830378532,0,0,0
1693,61929.52066730563,2010-12-21 05:21:56,660.3318884219577,7,6,-1.0997490882873535,3.768713235855103,5.291121144416134,4.609432583382852,21.23767863188993,16.76080625848969,-0.0001942634553415,0.0963535830378532,0,0,0
1694,61959.53581117673,2010-12-21 05:22:26,690.3470323682395,7,6,-1.099568486213684,3.761266469955444,5.291121144416134,4.618601068589669,21.23767863188993,16.79532496393596,-0.0001618862152099,0.0963535830378532,0,0,0
1695,61989.55082296916,2010-12-21 05:22:56,720.3620440854742,7,6,-1.099568486213684,3.753657817840576,5.291121144416134,4.627769541889441,21.23767863188993,16.829774493590975,-0.0002266406954731,0.0963535830378532,0,0,0
1696,62019.56589683605,2010-12-21 05:23:26,750.3771179273036,7,6,-1.0997490882873535,3.746373176574707,5.291121144416134,4.636938067316319,21.23767863188993,16.86415672496626,-0.0001942634553415,0.0963535830378532,0,0,0
1697,62049.58114158316,2010-12-21 05:23:56,780.392362764649,7,6,-1.099929690361023,3.7392501831054688,5.291121144416134,4.646106591435451,21.23767863188993,16.898472868039633,-0.0001942634553415,0.0963535830378532,0,0,0
1698,62079.59606981766,2010-12-21 05:24:26,810.4072909089157,7,6,-1.0997490882873535,3.7321271896362314,5.291121144416134,4.655275057199897,21.23767863188993,16.932723891777528,-0.0002266406954731,0.0963535830378532,0,0,0
1699,62109.611165122886,2010-12-21 05:24:56,840.422386214156,7,6,-1.0993878841400146,3.725651741027832,5.291121144416134,4.664443469334847,21.23767863188993,16.966911446431872,-0.0001295089750783,0.0963535830378532,0,0,0
1700,62139.62623724544,2010-12-21 05:25:26,870.4374583667819,7,6,-1.099929690361023,3.7185287475585938,5.291121144416134,4.673611994466558,21.23767863188993,17.001037228266235,-0.0002266406954731,0.0963535830378532,0,0,0
1701,62169.64130169891,2010-12-21 05:25:56,900.452522790174,7,6,-1.0997490882873535,3.7120532989501953,5.291121144416134,4.682780473112801,21.23767863188993,17.035101828247647,-0.0001942634553415,0.0963535830378532,0,0,0
1702,62199.65637965598,2010-12-21 05:26:26,930.4676007773188,7,6,-1.099568486213684,3.705739736557007,5.291121144416134,4.69194896085376,21.23767863188993,17.06910649001475,-0.0001618862152099,0.0963535830378532,0,0,0
1703,62229.67146335233,2010-12-21 05:26:57,960.482684473671,7,6,-1.0997490882873535,3.6991024017333984,5.291121144416134,4.70111740533461,21.23767863188993,17.10305181271765,-0.0001942634553415,0.0963535830378532,0,0,0
1704,62259.68666577915,2010-12-21 05:27:27,990.4978869506042,7,6,-1.0997490882873535,3.69278883934021,5.291121144416134,4.710285898197657,21.23767863188993,17.136938712905117,-0.0001942634553415,0.0963535830378532,0,0,0
1705,62289.70168287476,2010-12-21 05:27:57,1020.5129039910856,7,6,-1.099929690361023,3.686637163162232,5.291121144416134,4.719454352695603,21.23767863188993,17.17076840574416,-0.0001618862152099,0.0963535830378532,0,0,0
1706,62319.71669383511,2010-12-21 05:28:27,1050.527914951437,7,6,-1.099568486213684,3.680647373199463,5.291121144416134,4.728622810831994,21.23767863188993,17.204542110821166,-0.0001295089750783,0.0963535830378532,0,0,0
1707,62349.73182415248,2010-12-21 05:28:57,1080.543045273816,7,6,-1.0997490882873535,3.6746575832366943,5.291121144416134,4.737791262800751,21.23767863188993,17.238260967822658,-0.0001942634553415,0.0963535830378532,0,0,0
1708,62379.746857267965,2010-12-21 05:29:27,1110.5580783592245,7,6,-1.099929690361023,3.668829917907715,5.291121144416134,4.746959676179931,21.23767863188993,17.27192584260113,-0.0001618862152099,0.0963535830378532,0,0,0
1709,62409.76193302456,2010-12-21 05:29:57,1140.5731541408811,7,6,-1.099568486213684,3.663163900375366,5.291121144416134,4.756128130630655,21.23767863188993,17.305537997075906,-0.0001618862152099,0.0963535830378532,0,0,0
1710,62439.77713400276,2010-12-21 05:30:27,1170.5883551892591,7,6,-1.099929690361023,3.657335996627808,5.291121144416134,4.765296664135134,21.23767863188993,17.33909818535629,-0.0001618862152099,0.0963535830378532,0,0,0
1711,62469.79209354516,2010-12-21 05:30:57,1200.6033146464472,7,6,-1.099568486213684,3.651993751525879,5.291121144416134,4.774465060424745,21.23767863188993,17.37260657972495,-0.0001295089750783,0.0963535830378532,0,0,0
1712,62499.807234323554,2010-12-21 05:31:27,1230.6184554148208,7,6,-1.0993878841400146,3.64648962020874,5.291121144416134,4.783633492495122,21.23767863188993,17.406064739996438,-0.0001942634553415,0.0963535830378532,0,0,0
1713,62529.82224843676,2010-12-21 05:31:57,1260.6334695280177,7,6,-1.0997490882873535,3.641147375106812,5.291121144416134,4.792801825291765,21.23767863188993,17.439472601627042,-0.0001295089750783,0.0963535830378532,0,0,0
1714,62559.83734816801,2010-12-21 05:32:27,1290.6485693494967,7,6,-1.0997490882873535,3.635805130004883,5.291121144416134,4.801970218109751,21.23767863188993,17.472831539281433,-0.0001295089750783,0.0963535830378532,0,0,0
1715,62589.85238931849,2010-12-21 05:32:57,1320.6636104298004,7,6,-1.0993878841400146,3.630624771118164,5.291121144416134,4.811138573454582,21.23767863188993,17.506142105847385,-0.0001618862152099,0.0963535830378532,0,0,0
1716,62619.86747311509,2010-12-21 05:33:27,1350.6786942264018,7,6,-1.0997490882873535,3.6252825260162354,5.291121144416134,4.820306949240008,21.23767863188993,17.539405774106278,-0.0002266406954731,0.0963535830378532,0,0,0
1717,62649.882535638746,2010-12-21 05:33:57,1380.693756755079,7,6,-1.0997490882873535,3.6205878257751465,5.291121144416134,4.82947519594598,21.23767863188993,17.572623233942245,-0.0001295089750783,0.0963535830378532,0,0,0
1718,62679.89776129837,2010-12-21 05:34:27,1410.7089823946512,7,6,-1.099568486213684,3.615731239318848,5.291121144416134,4.838643487849945,21.23767863188993,17.605795887876237,-6.47544875391759e-05,0.0963535830378532,0,0,0
1719,62709.91270530712,2010-12-21 05:34:57,1440.7239264284583,7,6,-1.0993878841400146,3.611036539077759,5.291121144416134,4.847811758214614,21.23767863188993,17.638924397125862,-0.0001295089750783,0.0963535830378532,0,0,0
1720,62739.92776850246,2010-12-21 05:35:27,1470.7389896187822,7,6,-1.0997490882873535,3.60634183883667,5.291121144416134,4.856980014997117,21.23767863188993,17.672009823846146,-0.0001295089750783,0.0963535830378532,0,0,0
1721,62769.94288872971,2010-12-21 05:35:57,1500.7541099162147,7,6,-1.099568486213684,3.601809024810791,5.291121144416134,4.866148410255514,21.23767863188993,17.705053891010344,-0.0001295089750783,0.0963535830378532,0,0,0
1722,62799.961010751824,2010-12-21 05:36:27,1530.7722319583734,7,6,-1.099568486213684,3.597276210784912,5.291121144416134,4.87531777602112,21.23767863188993,17.73806070288652,-0.0001618862152099,0.0963535830378532,0,0,0
1723,62829.97303330563,2010-12-21 05:36:57,1560.7842544219654,7,6,-1.0997490882873535,3.593229055404663,5.291121144416134,4.884485233460027,21.23767863188993,17.771020671339475,-9.713172767078504e-05,0.0963535830378532,0,0,0
1724,62859.98808482191,2010-12-21 05:37:27,1590.7993060134258,7,6,-1.0997490882873535,3.589182138442993,5.291121144416134,4.893653641139453,21.23767863188993,17.803945303056384,-9.713172767078504e-05,0.0963535830378532,0,0,0
1725,62890.00319209193,2010-12-21 05:37:57,1620.8144132984771,7,6,-1.0997490882873535,3.584973096847534,5.291121144416134,4.902822135671631,21.23767863188993,17.836832809724967,-9.713172767078504e-05,0.0963535830378532,0,0,0
1726,62920.01823604438,2010-12-21 05:38:27,1650.829457160704,7,6,-1.099568486213684,3.581087827682495,5.291121144416134,4.91199048640081,21.23767863188993,17.869682958911554,-9.713172767078504e-05,0.0963535830378532,0,0,0
1727,62950.03345353868,2010-12-21 05:38:57,1680.8446746550069,7,6,-1.0997490882873535,3.577364444732666,5.291121144416134,4.921158988184013,21.23767863188993,17.902498095777396,-9.713172767078504e-05,0.0963535830378532,0,0,0
1728,62980.0484086701,2010-12-21 05:39:27,1710.8596297814177,7,6,-1.099568486213684,3.573479175567627,5.291121144416134,4.930327347671431,21.23767863188993,17.935277549460757,-6.47544875391759e-05,0.0963535830378532,0,0,0
1729,63010.06347209601,2010-12-21 05:39:57,1740.87469319229,7,6,-1.099568486213684,3.569755792617798,5.291121144416134,4.939495753782014,21.23767863188993,17.968023194280867,-9.713172767078504e-05,0.0963535830378532,0,0,0
1730,63040.07854219854,2010-12-21 05:40:27,1770.889763289802,7,6,-1.099568486213684,3.5661942958831787,5.291121144416134,4.948664186697102,21.23767863188993,18.000735302268648,-9.713172767078504e-05,0.0963535830378532,0,0,0
1731,63070.09376049985,2010-12-21 05:40:57,1800.9049815911137,7,6,-1.099568486213684,3.56263279914856,5.291121144416134,4.957832640023204,21.23767863188993,18.033414245183344,-6.47544875391759e-05,0.0963535830378532,0,0,0
1732,63100.10877484863,2010-12-21 05:41:27,1830.919996020096,7,6,-1.099568486213684,3.5589094161987305,5.291121144416134,4.967001015269776,21.23767863188993,18.06606052253348,-9.713172767078504e-05,0.0963535830378532,0,0,0
1733,63130.12384873557,2010-12-21 05:41:57,1860.9350699371128,7,6,-1.099568486213684,3.5553479194641118,5.291121144416134,4.976169417682351,21.23767863188993,18.09867439763794,-9.713172767078504e-05,0.0963535830378532,0,0,0
1734,63160.13885063838,2010-12-21 05:42:27,1890.9500717597248,7,6,-1.0997490882873535,3.551948308944702,5.291121144416134,4.985337759121318,21.23767863188993,18.13125544327388,-6.47544875391759e-05,0.0963535830378532,0,0,0
1735,63190.15394124193,2010-12-21 05:42:57,1920.9651623532409,7,6,-1.099568486213684,3.548548698425293,5.291121144416134,4.994506195640128,21.23767863188993,18.163804512669177,-6.47544875391759e-05,0.0963535830378532,0,0,0
1736,63220.169163232415,2010-12-21 05:43:27,1950.980384413907,7,6,-1.0997490882873535,3.544825315475464,5.291121144416134,5.003674723107443,21.23767863188993,18.196321717000817,-6.47544875391759e-05,0.0963535830378532,0,0,0
1737,63250.18407180799,2010-12-21 05:43:57,1980.9952928992527,7,6,-1.0997490882873535,3.5411019325256348,5.291121144416134,5.012843169388819,21.23767863188993,18.22880575122623,-0.0001295089750783,0.0963535830378532,0,0,0
1738,63280.19914626636,2010-12-21 05:44:27,2011.0103673676413,7,6,-1.099568486213684,3.537540435791016,5.291121144416134,5.022011632064475,21.23767863188993,18.26125699493041,-9.713172767078504e-05,0.0963535830378532,0,0,0
1739,63310.21423727089,2010-12-21 05:44:57,2041.02545839223,7,6,-1.099568486213684,3.5339789390563965,5.291121144416134,5.031180141132468,21.23767863188993,18.293675360199067,-9.713172767078504e-05,0.0963535830378532,0,0,0
1740,63340.22952729067,2010-12-21 05:45:27,2071.040748507247,7,6,-1.0997490882873535,3.5302555561065674,5.291121144416134,5.040348722435589,21.23767863188993,18.326060438197757,-0.0001295089750783,0.0963535830378532,0,0,0
1741,63370.24438420769,2010-12-21 05:45:57,2101.0556053089804,7,6,-1.0997490882873535,3.526694059371948,5.291121144416134,5.049517106879581,21.23767863188993,18.358410977947223,-6.47544875391759e-05,0.0963535830378532,0,0,0
1742,63400.259620995006,2010-12-21 05:46:27,2131.0708421464183,7,6,-1.0997490882873535,3.522808790206909,5.291121144416134,5.05868563723635,21.23767863188993,18.39072783923207,-0.0001295089750783,0.0963535830378532,0,0,0
1743,63430.27457328937,2010-12-21 05:46:57,2161.0857944758686,7,6,-1.0997490882873535,3.51876163482666,5.291121144416134,5.067854089943546,21.23767863188993,18.423008996883823,-0.0001295089750783,0.0963535830378532,0,0,0
1744,63460.28960813917,2010-12-21 05:47:27,2191.1008292554934,7,6,-1.0997490882873535,3.514876365661621,5.291121144416134,5.077023200977177,21.23767863188993,18.455255959538917,-0.0001295089750783,0.0963535830378532,0,0,0
1745,63490.30468699347,2010-12-21 05:47:57,2221.1159080897464,7,6,-1.099568486213684,3.510829448699951,5.291121144416134,5.08619222288501,21.23767863188993,18.48746526849172,-0.0001295089750783,0.0963535830378532,0,0,0
1746,63520.31977584265,2010-12-21 05:48:27,2251.1309969639838,7,6,-1.099568486213684,3.5064585208892822,5.291121144416134,5.095360630490778,21.23767863188993,18.519634403310302,-0.0001618862152099,0.0963535830378532,0,0,0
1747,63550.33488235076,2010-12-21 05:48:57,2281.146103467089,7,6,-1.0997490882873535,3.5022494792938232,5.291121144416134,5.104529129950773,21.23767863188993,18.55176376188606,-9.713172767078504e-05,0.0963535830378532,0,0,0
1748,63580.34992598743,2010-12-21 05:49:27,2311.161147098742,7,6,-1.0997490882873535,3.4973928928375244,5.291121144416134,5.113697618939504,21.23767863188993,18.583851318098667,-0.0001295089750783,0.0963535830378532,0,0,0
1749,63610.365143446645,2010-12-21 05:49:57,2341.176364537908,7,6,-1.099568486213684,3.4925363063812256,5.291121144416134,5.122866190682921,21.23767863188993,18.61589505289679,-9.713172767078504e-05,0.0963535830378532,0,0,0
1750,63640.38008011212,2010-12-21 05:50:27,2371.1913012284417,7,6,-1.099568486213684,3.487355947494507,5.291121144416134,5.13203459045766,21.23767863188993,18.64789197868503,-0.0001618862152099,0.0963535830378532,0,0,0
1751,63670.39520533179,2010-12-21 05:50:57,2401.20642654336,7,6,-1.0993878841400146,3.481689929962158,5.291121144416134,5.141203022913069,21.23767863188993,18.67983992866105,-0.0001618862152099,0.0963535830378532,0,0,0
1752,63700.41029667217,2010-12-21 05:51:27,2431.221517788497,7,6,-1.099568486213684,3.4753763675689697,5.291121144416134,5.150371331254929,21.23767863188993,18.711732258111475,-0.0001618862152099,0.0963535830378532,0,0,0
1753,63730.4254277765,2010-12-21 05:51:57,2461.236648897834,7,6,-1.099568486213684,3.4682533740997314,5.291121144416134,5.159539735715208,21.23767863188993,18.743563841819228,-0.0002266406954731,0.0963535830378532,0,0,0
1754,63760.440346773,2010-12-21 05:52:27,2491.2515678793,7,6,-1.0997490882873535,3.460320949554444,5.291121144416134,5.168708106962742,21.23767863188993,18.77532688812136,-0.0002266406954731,0.0963535830378532,0,0,0
1755,63790.45558534976,2010-12-21 05:52:57,2521.266806476116,7,6,-1.0997490882873535,3.451255321502685,5.291121144416134,5.177876621846037,21.23767863188993,18.80701140563553,-0.0002266406954731,0.0963535830378532,0,0,0
1756,63820.47054881192,2010-12-21 05:53:27,2551.2817699132074,7,6,-1.099929690361023,3.4400851726531982,5.291121144416134,5.187045083238624,21.23767863188993,18.838604059244258,-0.0003237724304199,0.0963535830378532,0,0,0
1757,63850.485600528686,2010-12-21 05:53:57,2581.2968216450167,7,6,-1.0997490882873535,3.4271345138549805,5.291121144416134,5.19621347173714,21.23767863188993,18.870087069235872,-0.0003561496851034,0.0963535830378532,0,0,0
1758,63880.500646185385,2010-12-21 05:54:27,2611.3118673017084,7,6,-1.099929690361023,3.4111077785491943,5.291121144416134,5.205381983885113,21.23767863188993,18.901437665341263,-0.0004532813909463,0.0963535830378532,0,0,0
1759,63910.51576194151,2010-12-21 05:54:57,2641.326983062853,7,6,-1.099568486213684,3.391357660293579,5.291121144416134,5.214550412498468,21.23767863188993,18.932625025646004,-0.0005504131549969,0.0963535830378532,0,0,0
1760,63940.53083844496,2010-12-21 05:55:27,2671.3420595462558,7,6,-1.0997490882873535,3.3659415245056152,5.291121144416134,5.223718862804119,21.23767863188993,18.963606670848517,-0.0007770538213662,0.0963535830378532,0,0,0
1761,63970.54590775051,2010-12-21 05:55:57,2701.3571288517965,7,6,-1.099568486213684,3.3322694301605225,5.291121144416134,5.232887316845925,21.23767863188993,18.99431950107265,-0.0010036944877356,0.0963535830378532,0,0,0
1762,64000.56097748211,2010-12-21 05:56:27,2731.3721985984357,7,6,-1.099568486213684,3.287912607192993,5.291121144416134,5.242055746602222,21.23767863188993,19.02467652324796,-0.0012950897216796,0.0963535830378532,0,0,0
1763,64030.576078055456,2010-12-21 05:56:57,2761.3872991717853,7,6,-1.099568486213684,3.227691173553467,5.291121144416134,5.251224139540301,21.23767863188993,19.0545583748268,-0.0018131255637854,0.0963535830378532,0,0,0
1764,64060.59112597278,2010-12-21 05:57:27,2791.4023470941147,7,6,-1.0997490882873535,3.144320011138916,5.291121144416134,5.260392605204834,21.23767863188993,19.08379103344616,-0.0025254250504076,0.0963535830378532,0,0,0
1765,64090.60633501605,2010-12-21 05:57:57,2821.417556132376,7,6,-1.0997490882873535,3.023067712783813,5.291121144416134,5.269561098434775,21.23767863188993,19.112102607607007,-0.0038852214347571,0.0963535830378532,0,0,0
1766,64120.511919893805,2010-12-21 05:58:27,2851.3231409900795,7,6,-1.0997490882873535,2.82297682762146,5.291121144416134,5.278696097537697,21.23767863188993,19.138882666953187,-0.0065725804306566,0.0963535830378532,0,0,0
1767,64134.49614166182,2010-12-21 05:58:41,2865.307362768119,7,6,-1.0997490882873535,2.699943780899048,5.291121144416134,5.282967768168842,21.23767863188993,19.1506825868403,-0.0071877003647387,0.0963535830378532,0,0,0
1768,64194.50999854223,2010-12-21 05:59:41,60.01452189949605,8,6,0.0,3.4353904724121094,5.291121144416134,5.282967768168842,21.23767863188993,19.1506825868403,0.0014245510101318,0.0963535830378532,0,0,0
1769,64194.69801253219,2010-12-21 05:59:42,0.187453275265757,9,6,-1.9243103452026844e-05,3.43555235862732,5.2911211481164,5.282967768168842,21.23767864460299,19.1506825868403,-6.47544875391759e-05,0.0961798131465911,0,0,0
1770,64199.52601631392,2010-12-21 05:59:47,5.015457067009058,9,6,0.0007031940040178,3.4441323280334477,5.291122161878999,5.282967768335718,21.23768213245771,19.150682587413613,0.0011979580158367,0.0961798131465911,0,0,0
