Data_Point,Test_Time(s),Date_Time,Step_Time(s),Step_Index,Cycle_Index,Current(A),Voltage(V),Charge_Capacity(Ah),Discharge_Capacity(Ah),Charge_Energy(Wh),Discharge_Energy(Wh),dV/dt(V/s),Internal_Resistance(Ohm),Is_FC_Data,AC_Impedance(Ohm),ACI_Phase_Angle(Deg)
4394,159550.41397444037,2010-12-22 08:29:09,30.014910244724373,1,16,0.0,3.494640827178955,13.126698445922242,13.111211978786327,52.691258738114094,47.50077275351898,0.0007446765666827,0.0949916243553161,0,0,0
4395,159580.43187313675,2010-12-22 08:29:39,60.0328090212953,1,16,0.0,3.51876163482666,13.126698445922242,13.111211978786327,52.691258738114094,47.50077275351898,0.0005827903514727,0.0949916243553161,0,0,0
4396,159610.44404492693,2010-12-22 08:30:09,90.04498081148088,1,16,0.0,3.536407232284546,13.126698445922242,13.111211978786327,52.691258738114094,47.50077275351898,0.0003885269106831,0.0949916243553161,0,0,0
4397,159640.41218988303,2010-12-22 08:30:39,120.0131257425208,1,16,0.0,3.5503294467926025,13.126698445922242,13.111211978786327,52.691258738114094,47.50077275351898,0.0003237724304199,0.0949916243553161,0,0,0
4398,159670.41998571125,2010-12-22 08:31:09,30.01504452888534,2,16,0.5499359965324402,3.69181752204895,13.131285189076134,13.111211978786327,52.708067922988086,47.50077275351898,0.0011979580158367,0.0949916243553161,0,0,0
4399,159700.43505065594,2010-12-22 08:31:39,60.03010947357463,2,16,0.5499359965324402,3.725975513458252,13.135871907028392,13.111211978786327,52.72508482199915,47.50077275351898,0.0007770538213662,0.0949916243553161,0,0,0
4400,159730.4501321117,2010-12-22 08:32:09,90.04519093436359,2,16,0.5501165986061096,3.749610900878906,13.140458643591195,13.111211978786327,52.74223174030089,47.50077275351898,0.0005180359003134,0.0949916243553161,0,0,0
4401,159760.4653094561,2010-12-22 08:32:39,120.0603682787552,2,16,0.5501165986061096,3.766446828842163,13.145045354981209,13.111211978786327,52.7594712717812,47.50077275351898,0.0003561496851034,0.0949916243553161,0,0,0
4402,159790.48026857246,2010-12-22 08:33:09,150.07532739509472,2,16,0.5501165986061096,3.77810263633728,13.149632002905294,13.111211978786327,52.77677551822696,47.50077275351898,0.0002913951757363,0.0949916243553161,0,0,0
4403,159820.4953775467,2010-12-22 08:33:39,180.0904364244871,2,16,0.5501165986061096,3.786035060882568,13.154218770025164,13.111211978786327,52.79412402531472,47.50077275351898,0.0001942634553415,0.0949916243553161,0,0,0
4404,159850.51039960465,2010-12-22 08:34:09,210.1054584273172,2,16,0.550297200679779,3.792510509490967,13.158805482272244,13.111211978786327,52.81150429489209,47.50077275351898,0.0002266406954731,0.0949916243553161,0,0,0
4405,159880.52546619345,2010-12-22 08:34:39,240.12052501609776,2,16,0.5501165986061096,3.797852754592896,13.16339222178504,13.111211978786327,52.82891140234301,47.50077275351898,0.0001295089750783,0.0949916243553161,0,0,0
4406,159910.54055323813,2010-12-22 08:35:09,270.1356120557695,2,16,0.5501165986061096,3.8027093410491934,13.167978919036516,13.111211978786327,52.84634262532703,47.50077275351898,6.47544875391759e-05,0.0949916243553161,0,0,0
4407,159940.55563418765,2010-12-22 08:35:39,300.1506930052862,2,16,0.5501165986061096,3.807889699935913,13.17256563307804,13.111211978786327,52.86379676979782,47.50077275351898,0.0001618862152099,0.0949916243553161,0,0,0
4408,159970.57071058085,2010-12-22 08:36:09,330.1657694586144,2,16,0.5499359965324402,3.812098741531372,13.177152387427617,13.111211978786327,52.881272648128736,47.50077275351898,9.713172767078504e-05,0.0949916243553161,0,0,0
4409,160000.585760453,2010-12-22 08:36:39,360.18081927064657,2,16,0.550297200679779,3.816955327987671,13.181739066882836,13.111211978786327,52.89876923943376,47.50077275351898,9.713172767078504e-05,0.0949916243553161,0,0,0
4410,160030.60083160314,2010-12-22 08:37:09,390.1958904257903,2,16,0.5501165986061096,3.82116436958313,13.186325709826566,13.111211978786327,52.91628568073644,47.50077275351898,9.713172767078504e-05,0.0949916243553161,0,0,0
4411,160060.61589179598,2010-12-22 08:37:39,420.2109506136424,2,16,0.5501165986061096,3.825373411178589,13.190912383204491,13.111211978786327,52.93382155419356,47.50077275351898,0.0001295089750783,0.0949916243553161,0,0,0
4412,160090.63095503644,2010-12-22 08:38:09,450.2260138591032,2,16,0.5501165986061096,3.829258680343628,13.195499048508456,13.111211978786327,52.951376091315375,47.50077275351898,9.713172767078504e-05,0.0949916243553161,0,0,0
4413,160120.64602613647,2010-12-22 08:38:39,480.2410849591098,2,16,0.550297200679779,3.833143949508667,13.200085739172367,13.111211978786327,52.96894896742271,47.50077275351898,9.713172767078504e-05,0.0949916243553161,0,0,0
4414,160150.6631015892,2010-12-22 08:39:09,510.2581604970832,2,16,0.550297200679779,3.837190866470337,13.20467265062304,13.111211978786327,52.98654052688871,47.50077275351898,0.0001295089750783,0.0949916243553161,0,0,0
4415,160180.6761798501,2010-12-22 08:39:40,540.2712387579862,2,16,0.5501165986061096,3.840914249420166,13.209258985507892,13.111211978786327,53.00414764659568,47.50077275351898,6.47544875391759e-05,0.0949916243553161,0,0,0
4416,160210.69140568015,2010-12-22 08:40:10,570.2864645980575,2,16,0.5501165986061096,3.844799518585205,13.21384566729916,13.111211978786327,53.02177380361113,47.50077275351898,9.713172767078504e-05,0.0949916243553161,0,0,0
4417,160240.70636392932,2010-12-22 08:40:40,600.301422762027,2,16,0.5501165986061096,3.848522901535034,13.218432348554405,13.111211978786327,53.03941743906467,47.50077275351898,6.47544875391759e-05,0.0949916243553161,0,0,0
4418,160270.72141555088,2010-12-22 08:41:10,630.3164743785497,2,16,0.550297200679779,3.852408170700073,13.223019005770702,13.111211978786327,53.05707835528271,47.50077275351898,0.0001618862152099,0.0949916243553161,0,0,0
4419,160300.73644978917,2010-12-22 08:41:40,660.3315086368772,2,16,0.5499359965324402,3.8561315536499023,13.227605675958843,13.111211978786327,53.07475662246622,47.50077275351898,9.713172767078504e-05,0.0949916243553161,0,0,0
4420,160330.75150962613,2010-12-22 08:42:10,690.3465684738561,2,16,0.5501165986061096,3.859854936599731,13.23219226677294,13.111211978786327,53.092451813798775,47.50077275351898,6.47544875391759e-05,0.0949916243553161,0,0,0
4421,160360.76660283117,2010-12-22 08:42:40,720.3616616788701,2,16,0.5501165986061096,3.863578319549561,13.236778911449536,13.111211978786327,53.11016415740387,47.50077275351898,9.713172767078504e-05,0.0949916243553161,0,0,0
4422,160390.78189166298,2010-12-22 08:43:10,750.376950500669,2,16,0.5499359965324402,3.86713981628418,13.241365541255622,13.111211978786327,53.12789298253474,47.50077275351898,9.713172767078504e-05,0.0949916243553161,0,0,0
4423,160420.79678767727,2010-12-22 08:43:40,780.3918465851561,2,16,0.550297200679779,3.870701313018799,13.245952140107317,13.111211978786327,53.14563788154773,47.50077275351898,9.713172767078504e-05,0.0949916243553161,0,0,0
4424,160450.81180168522,2010-12-22 08:44:10,810.4068605078792,2,16,0.5501165986061096,3.873939037322998,13.250538729148428,13.111211978786327,53.16339847355986,47.50077275351898,9.713172767078504e-05,0.0949916243553161,0,0,0
4425,160480.82686905595,2010-12-22 08:44:40,840.4219278735932,2,16,0.550297200679779,3.877176761627197,13.255125386443376,13.111211978786327,53.18117439077768,47.50077275351898,9.713172767078504e-05,0.0949916243553161,0,0,0
4426,160510.84198154396,2010-12-22 08:45:10,870.437040466854,2,16,0.5501165986061096,3.8802525997161865,13.259711979463482,13.111211978786327,53.19896464827266,47.50077275351898,6.47544875391759e-05,0.0949916243553161,0,0,0
4427,160540.85717690818,2010-12-22 08:45:40,900.4522358260748,2,16,0.5501165986061096,3.883328437805176,13.264298624982656,13.111211978786327,53.21676905277455,47.50077275351898,9.713172767078504e-05,0.0949916243553161,0,0,0
4428,160570.87209921292,2010-12-22 08:46:10,930.4671580506106,2,16,0.5501165986061096,3.886080503463745,13.268885215410252,13.111211978786327,53.23458652534596,47.50077275351898,3.237724376958795e-05,0.0949916243553161,0,0,0
4429,160600.8871453558,2010-12-22 08:46:40,960.4822041734626,2,16,0.5501165986061096,3.888670682907105,13.273471839698328,13.111211978786327,53.2524167301077,47.50077275351898,6.47544875391759e-05,0.0949916243553161,0,0,0
4430,160630.9022303855,2010-12-22 08:47:10,990.4972892031324,2,16,0.5501165986061096,3.891260862350464,13.278058521820064,13.111211978786327,53.27025911253011,47.50077275351898,6.47544875391759e-05,0.0949916243553161,0,0,0
4431,160660.9172843629,2010-12-22 08:47:40,1020.51234318053,2,16,0.550297200679779,3.893689155578613,13.282645226201312,13.111211978786327,53.28811291359986,47.50077275351898,3.237724376958795e-05,0.0949916243553161,0,0,0
4432,160690.93235172358,2010-12-22 08:48:10,1050.5274105412316,2,16,0.5501165986061096,3.8959555625915527,13.287231892565709,13.111211978786327,53.30597698544874,47.50077275351898,6.47544875391759e-05,0.0949916243553161,0,0,0
4433,160720.94742820197,2010-12-22 08:48:40,1080.5424870246345,2,16,0.5499359965324402,3.897898197174072,13.291818461750792,13.111211978786327,53.32385073753875,47.50077275351898,3.237724376958795e-05,0.0949916243553161,0,0,0
4434,160750.96252516133,2010-12-22 08:49:10,1110.557584049153,2,16,0.550297200679779,3.9003264904022217,13.29640506269624,13.111211978786327,53.34173437630729,47.50077275351898,9.713172767078504e-05,0.0949916243553161,0,0,0
4435,160780.97762576476,2010-12-22 08:49:40,1140.5726846926775,2,16,0.5501165986061096,3.9021072387695312,13.300991608719391,13.111211978786327,53.35962703362216,47.50077275351898,6.47544875391759e-05,0.0949916243553161,0,0,0
4436,160810.99263770255,2010-12-22 08:50:10,1170.5876965302118,2,16,0.550297200679779,3.9042117595672607,13.305578214643845,13.111211978786327,53.37752892146722,47.50077275351898,6.47544875391759e-05,0.0949916243553161,0,0,0
4437,160841.0077088677,2010-12-22 08:50:40,1200.602767700393,2,16,0.5501165986061096,3.9059925079345694,13.31016485550986,13.111211978786327,53.39543965454242,47.50077275351898,6.47544875391759e-05,0.0949916243553161,0,0,0
4438,160871.0227977219,2010-12-22 08:51:10,1230.6178565445553,2,16,0.5501165986061096,3.90777325630188,13.314751419875709,13.111211978786327,53.4133585507365,47.50077275351898,6.47544875391759e-05,0.0949916243553161,0,0,0
4439,160901.03796984832,2010-12-22 08:51:40,1260.6330286659495,2,16,0.550297200679779,3.9095540046691895,13.31933807742632,13.111211978786327,53.43128616843673,47.50077275351898,3.237724376958795e-05,0.0949916243553161,0,0,0
4440,160931.0530534043,2010-12-22 08:52:10,1290.6481122269647,2,16,0.5501165986061096,3.911334753036499,13.323924812903885,13.111211978786327,53.44922227369927,47.50077275351898,3.237724376958795e-05,0.0949916243553161,0,0,0
4441,160961.0681125997,2010-12-22 08:52:40,1320.6631714273597,2,16,0.550297200679779,3.9131155014038086,13.328511418655642,13.111211978786327,53.46716593560514,47.50077275351898,6.47544875391759e-05,0.0949916243553161,0,0,0
4442,160991.08308780607,2010-12-22 08:53:10,1350.6781466537884,2,16,0.5501165986061096,3.914896011352539,13.333098053708072,13.111211978786327,53.48511778521608,47.50077275351898,9.713172767078504e-05,0.0949916243553161,0,0,0
4443,161021.0983435706,2010-12-22 08:53:40,1380.6934024634377,2,16,0.5499359965324402,3.916514873504639,13.337684710114644,13.111211978786327,53.50307759601772,47.50077275351898,3.237724376958795e-05,0.0949916243553161,0,0,0
4444,161051.1131203432,2010-12-22 08:54:10,1410.7081791658477,2,16,0.5501165986061096,3.9181337356567374,13.34227123038854,13.111211978786327,53.521044886074726,47.50077275351898,0.0,0.0949916243553161,0,0,0
4445,161081.1282938831,2010-12-22 08:54:40,1440.7233527007593,2,16,0.5501165986061096,3.919914484024048,13.346857740646508,13.111211978786327,53.53901999866866,47.50077275351898,0.0,0.0949916243553161,0,0,0
4446,161111.14333985557,2010-12-22 08:55:10,1470.7383987083242,2,16,0.5501165986061096,3.921533346176148,13.351444294032747,13.111211978786327,53.55700309523098,47.50077275351898,0.0,0.0949916243553161,0,0,0
4447,161141.15851907965,2010-12-22 08:55:40,1500.7535779223683,2,16,0.5501165986061096,3.923314094543457,13.356030825434797,13.111211978786327,53.57499401596595,47.50077275351898,3.237724376958795e-05,0.0949916243553161,0,0,0
4448,161171.17363711647,2010-12-22 08:56:10,1530.7686960093,2,16,0.550297200679779,3.925256729125977,13.360617394515502,13.111211978786327,53.59299294672224,47.50077275351898,6.47544875391759e-05,0.0949916243553161,0,0,0
4449,161201.18856913035,2010-12-22 08:56:40,1560.7836279780838,2,16,0.5499359965324402,3.926713705062866,13.365204000021356,13.111211978786327,53.61099973625537,47.50077275351898,0.0,0.0949916243553161,0,0,0
4450,161231.20363551864,2010-12-22 08:57:10,1590.7986943663657,2,16,0.5501165986061096,3.928494453430176,13.369790643268892,13.111211978786327,53.629014527547,47.50077275351898,3.237724376958795e-05,0.0949916243553161,0,0,0
4451,161261.2186792756,2010-12-22 08:57:40,1620.813738093255,2,16,0.5501165986061096,3.9301133155822754,13.374377275684784,13.111211978786327,53.64703707214968,47.50077275351898,3.237724376958795e-05,0.0949916243553161,0,0,0
4452,161291.23403084357,2010-12-22 08:58:10,1650.8290897614447,2,16,0.550297200679779,3.932217836380005,13.378964033026476,13.111211978786327,53.66506793277922,47.50077275351898,9.713172767078504e-05,0.0949916243553161,0,0,0
4453,161321.24882725,2010-12-22 08:58:40,1680.84388607265,2,16,0.5499359965324402,3.9336748123168954,13.383550616762385,13.111211978786327,53.683105940507616,47.50077275351898,6.47544875391759e-05,0.0949916243553161,0,0,0
4454,161351.26409691412,2010-12-22 08:59:10,1710.859155832013,2,16,0.5501165986061096,3.935293674468994,13.388137337880886,13.111211978786327,53.701152324519775,47.50077275351898,3.237724376958795e-05,0.0949916243553161,0,0,0
4455,161381.27903207086,2010-12-22 08:59:40,1740.8740909787043,2,16,0.5499359965324402,3.937074422836304,13.39272394666478,13.111211978786327,53.71920604204099,47.50077275351898,9.713172767078504e-05,0.0949916243553161,0,0,0
4456,161411.2940577077,2010-12-22 09:00:10,1770.8891165203413,2,16,0.550297200679779,3.938855171203613,13.397310569362302,13.111211978786327,53.737267809258896,47.50077275351898,9.713172767078504e-05,0.0949916243553161,0,0,0
4457,161441.30922482163,2010-12-22 09:00:40,1800.9042836493118,2,16,0.5501165986061096,3.940474033355713,13.40189726299914,13.111211978786327,53.75533773649431,47.50077275351898,3.237724376958795e-05,0.0949916243553161,0,0,0
4458,161471.3241788102,2010-12-22 09:01:10,1830.9192376328788,2,16,0.5501165986061096,3.942416667938232,13.40648393688722,13.111211978786327,53.77341549723699,47.50077275351898,9.713172767078504e-05,0.0949916243553161,0,0,0
4459,161501.33938692117,2010-12-22 09:01:40,1860.934445748844,2,16,0.5501165986061096,3.944035530090332,13.411070596823562,13.111211978786327,53.79150111754113,47.50077275351898,6.47544875391759e-05,0.0949916243553161,0,0,0
4460,161531.35432305533,2010-12-22 09:02:10,1890.949381963193,2,16,0.5501165986061096,3.945654392242432,13.415657188537985,13.111211978786327,53.809594321037245,47.50077275351898,3.237724376958795e-05,0.0949916243553161,0,0,0
4461,161561.3694441347,2010-12-22 09:02:40,1920.9645030124968,2,16,0.5501165986061096,3.947435140609741,13.420243940966175,13.111211978786327,53.82769606563665,47.50077275351898,3.237724376958795e-05,0.0949916243553161,0,0,0
4462,161591.38457600094,2010-12-22 09:03:10,1950.979634818568,2,16,0.5499359965324402,3.949054002761841,13.42483065581216,13.111211978786327,53.84580563374992,47.50077275351898,0.0,0.0949916243553161,0,0,0
4463,161621.39952317756,2010-12-22 09:03:40,1980.9945820252703,2,16,0.5501165986061096,3.95099663734436,13.429417323767678,13.111211978786327,53.86392294349371,47.50077275351898,6.47544875391759e-05,0.0949916243553161,0,0,0
4464,161651.41481515722,2010-12-22 09:04:10,2011.0098740700896,2,16,0.5501165986061096,3.95261549949646,13.43400410636553,13.111211978786327,53.88204874301511,47.50077275351898,3.237724376958795e-05,0.0949916243553161,0,0,0
4465,161681.42968889608,2010-12-22 09:04:40,2041.0247477137336,2,16,0.5499359965324402,3.9543962478637695,13.438590785953645,13.111211978786327,53.90018217900775,47.50077275351898,3.237724376958795e-05,0.0949916243553161,0,0,0
4466,161711.44472641253,2010-12-22 09:05:10,2071.039785230169,2,16,0.5501165986061096,3.956176996231079,13.443177413692815,13.111211978786327,53.91832353449167,47.50077275351898,6.47544875391759e-05,0.0949916243553161,0,0,0
4467,161741.45990188225,2010-12-22 09:05:40,2101.0549607099206,2,16,0.5501165986061096,3.9579577445983887,13.447764120204752,13.111211978786327,53.93647325957417,47.50077275351898,9.713172767078504e-05,0.0949916243553161,0,0,0
4468,161771.47486292338,2010-12-22 09:06:10,2131.0699217410247,2,16,0.5501165986061096,3.959900379180908,13.452350731320182,13.111211978786327,53.95463079299598,47.50077275351898,9.713172767078504e-05,0.0949916243553161,0,0,0
4469,161801.48992477034,2010-12-22 09:06:40,2161.0849835880053,2,16,0.5499359965324402,3.961357355117798,13.45693733182874,13.111211978786327,53.97279653126246,47.50077275351898,3.237724376958795e-05,0.0949916243553161,0,0,0
4470,161831.50499477264,2010-12-22 09:07:10,2191.1000536003053,2,16,0.550297200679779,3.9634618759155273,13.461523985828212,13.111211978786327,53.99097073837562,47.50077275351898,9.713172767078504e-05,0.0949916243553161,0,0,0
4471,161861.52007299036,2010-12-22 09:07:40,2221.115131813011,2,16,0.5499359965324402,3.965080738067627,13.466110618363802,13.111211978786327,54.00915321646421,47.50077275351898,3.237724376958795e-05,0.0949916243553161,0,0,0
4472,161891.53515852627,2010-12-22 09:08:10,2251.130217343929,2,16,0.5501165986061096,3.9670233726501465,13.47069735272629,13.111211978786327,54.02734460209538,47.50077275351898,3.237724376958795e-05,0.0949916243553161,0,0,0
4473,161921.55035679776,2010-12-22 09:08:40,2281.1454156153964,2,16,0.5499359965324402,3.968804121017456,13.475284032749164,13.111211978786327,54.045544164012135,47.50077275351898,9.713172767078504e-05,0.0949916243553161,0,0,0
4474,161951.5652979945,2010-12-22 09:09:10,2311.160356812144,2,16,0.5499359965324402,3.970746755599976,13.479870678174292,13.111211978786327,54.06375215435256,47.50077275351898,6.47544875391759e-05,0.0949916243553161,0,0,0
4475,161981.58053027058,2010-12-22 09:09:40,2341.175589193493,2,16,0.5499359965324402,3.972527503967285,13.484457284052224,13.111211978786327,54.081968620480765,47.50077275351898,3.237724376958795e-05,0.0949916243553161,0,0,0
4476,162011.59552046927,2010-12-22 09:10:10,2371.1905793721294,2,16,0.5499359965324402,3.9744701385498047,13.489043459623325,13.111211978786327,54.10019190904894,47.50077275351898,6.47544875391759e-05,0.0949916243553161,0,0,0
4477,162041.6105799654,2010-12-22 09:10:40,2401.205638873273,2,16,0.5499359965324402,3.976412773132324,13.493629366860072,13.111211978786327,54.11842283389958,47.50077275351898,6.47544875391759e-05,0.0949916243553161,0,0,0
4478,162071.62555659033,2010-12-22 09:11:10,2431.22061543302,2,16,0.5501165986061096,3.978031635284424,13.498215424534418,13.111211978786327,54.13666297949064,47.50077275351898,3.237724376958795e-05,0.0949916243553161,0,0,0
4479,162101.6406049738,2010-12-22 09:11:41,2461.235663816497,2,16,0.5499359965324402,3.980136156082153,13.502801242203288,13.111211978786327,54.154911249561934,47.50077275351898,3.237724376958795e-05,0.0949916243553161,0,0,0
4480,162131.65580398208,2010-12-22 09:12:11,2491.250862809761,2,16,0.5501165986061096,3.9824025630950928,13.50738713576648,13.111211978786327,54.17316897360613,47.50077275351898,9.713172767078504e-05,0.0949916243553161,0,0,0
4481,162161.6707545772,2010-12-22 09:12:41,2521.265813424946,2,16,0.5499359965324402,3.9841833114624015,13.511972933614064,13.111211978786327,54.19143527618894,47.50077275351898,3.237724376958795e-05,0.0949916243553161,0,0,0
4482,162191.68582335144,2010-12-22 09:13:11,2551.280882179115,2,16,0.5501165986061096,3.986125946044922,13.516559140735456,13.111211978786327,54.20971247103672,47.50077275351898,0.0,0.0949916243553161,0,0,0
4483,162221.70100761807,2010-12-22 09:13:41,2581.2960664457323,2,16,0.5499359965324402,3.9882304668426514,13.521145820970066,13.111211978786327,54.228000892370346,47.50077275351898,6.47544875391759e-05,0.0949916243553161,0,0,0
4484,162251.7159706341,2010-12-22 09:14:11,2611.311029461776,2,16,0.5501165986061096,3.990334987640381,13.525732509745646,13.111211978786327,54.24629868515714,47.50077275351898,3.237724376958795e-05,0.0949916243553161,0,0,0
4485,162281.73102307267,2010-12-22 09:14:41,2641.3260818903195,2,16,0.5501165986061096,3.9924395084381104,13.530319126598323,13.111211978786327,54.26460568382616,47.50077275351898,6.47544875391759e-05,0.0949916243553161,0,0,0
4486,162311.74629561897,2010-12-22 09:15:11,2671.341354436617,2,16,0.550297200679779,3.994705677032471,13.534905762811023,13.111211978786327,54.28292234919735,47.50077275351898,9.713172767078504e-05,0.0949916243553161,0,0,0
4487,162341.76129478496,2010-12-22 09:15:41,2701.3563536126435,2,16,0.5501165986061096,3.9968101978302,13.539492432160934,13.111211978786327,54.3012488603568,47.50077275351898,9.713172767078504e-05,0.0949916243553161,0,0,0
4488,162371.77631298333,2010-12-22 09:16:11,2731.3713718811814,2,16,0.550297200679779,3.99875283241272,13.544079110961032,13.111211978786327,54.3195852095147,47.50077275351898,6.47544875391759e-05,0.0949916243553161,0,0,0
4489,162401.79129697155,2010-12-22 09:16:41,2761.386355789214,2,16,0.5501165986061096,4.000857353210449,13.548665737824766,13.111211978786327,54.33793123302389,47.50077275351898,3.23295607813634e-05,0.0949916243553161,0,0,0
4490,162431.8063798559,2010-12-22 09:17:11,2791.401438678558,2,16,0.5501165986061096,4.003123760223389,13.553252438394438,13.111211978786327,54.356287605193415,47.50077275351898,6.47544875391759e-05,0.0949916243553161,0,0,0
4491,162461.82144752238,2010-12-22 09:17:41,2821.416506340008,2,16,0.5501165986061096,4.005552291870117,13.557839083493985,13.111211978786327,54.374653867228574,47.50077275351898,9.71794142969884e-05,0.0949916243553161,0,0,0
4492,162491.83649752487,2010-12-22 09:18:11,2851.431556342514,2,16,0.5499359965324402,4.007656574249268,13.56242565703586,13.111211978786327,54.3930301603759,47.50077275351898,3.23295607813634e-05,0.0949916243553161,0,0,0
4493,162521.8515604044,2010-12-22 09:18:41,2881.446619222064,2,16,0.5501165986061096,4.009922981262207,13.567012483979202,13.111211978786327,54.41141792282534,47.50077275351898,3.23295607813634e-05,0.0949916243553161,0,0,0
4494,162551.8667694076,2010-12-22 09:19:11,2911.46182823025,2,16,0.5501165986061096,4.0121893882751465,13.571599863402309,13.111211978786327,54.42981851502636,47.50077275351898,3.23295607813634e-05,0.0949916243553161,0,0,0
4495,162581.88173025826,2010-12-22 09:19:41,2941.476789075893,2,16,0.5501165986061096,4.014617919921875,13.57618719747839,13.111211978786327,54.44822960690277,47.50077275351898,6.47544875391759e-05,0.0949916243553161,0,0,0
4496,162611.89677049645,2010-12-22 09:20:11,2971.491829314101,2,16,0.550297200679779,4.017045974731445,13.58077449259872,13.111211978786327,54.46665131296398,47.50077275351898,3.23295607813634e-05,0.0949916243553161,0,0,0
4497,162641.9119505927,2010-12-22 09:20:41,3001.50700949054,2,16,0.550297200679779,4.019312381744385,13.5853617845706,13.111211978786327,54.48508395298912,47.50077275351898,6.47544875391759e-05,0.0949916243553161,0,0,0
4498,162671.92694780382,2010-12-22 09:21:11,3031.5220066465395,2,16,0.5501165986061096,4.021740913391113,13.589948462142107,13.111211978786327,54.50352503804413,47.50077275351898,6.47544875391759e-05,0.0949916243553161,0,0,0
4499,162701.94197957095,2010-12-22 09:21:41,3061.537038413668,2,16,0.5501165986061096,4.024168968200684,13.594535200410208,13.111211978786327,54.52197757658496,47.50077275351898,6.47544875391759e-05,0.0949916243553161,0,0,0
4500,162731.95704495674,2010-12-22 09:22:11,3091.552103799455,2,16,0.5499359965324402,4.026597499847412,13.599121769898426,13.111211978786327,54.54044054066697,47.50077275351898,6.47544875391759e-05,0.0949916243553161,0,0,0
4501,162761.9721359813,2010-12-22 09:22:41,3121.5671947989804,2,16,0.5501165986061096,4.029187679290772,13.603708429619374,13.111211978786327,54.55891518351407,47.50077275351898,3.24249267578125e-05,0.0949916243553161,0,0,0
4502,162791.9873200675,2010-12-22 09:23:11,3151.582378910211,2,16,0.5501165986061096,4.031615734100342,13.608295000405022,13.111211978786327,54.577400811179146,47.50077275351898,6.47544875391759e-05,0.0949916243553161,0,0,0
4503,162822.00237694714,2010-12-22 09:23:41,3181.597435774793,2,16,0.5501165986061096,4.034205913543701,13.61288157326134,13.111211978786327,54.59589803974808,47.50077275351898,9.70840483205393e-05,0.0949916243553161,0,0,0
4504,162852.01732361747,2010-12-22 09:24:11,3211.6123824401493,2,16,0.5501165986061096,4.0367960929870605,13.617468124244212,13.111211978786327,54.61440688318493,47.50077275351898,6.47544875391759e-05,0.0949916243553161,0,0,0
4505,162882.03241673228,2010-12-22 09:24:41,3241.627475574988,2,16,0.5501165986061096,4.03938627243042,13.622054708954348,13.111211978786327,54.63292769366178,47.50077275351898,6.47544875391759e-05,0.0949916243553161,0,0,0
4506,162912.0475071604,2010-12-22 09:25:11,3271.6425659830425,2,16,0.550297200679779,4.041976451873779,13.626641403371092,13.111211978786327,54.65146074985834,47.50077275351898,9.71794142969884e-05,0.0949916243553161,0,0,0
4507,162942.0625378298,2010-12-22 09:25:41,3301.6575966524388,2,16,0.5501165986061096,4.044566631317139,13.631227989715509,13.111211978786327,54.670005464636986,47.50077275351898,6.47544875391759e-05,0.0949916243553161,0,0,0
4508,162972.07767431752,2010-12-22 09:26:11,3331.672733230385,2,16,0.550297200679779,4.047318458557129,13.635814620604606,13.111211978786327,54.68856248053301,47.50077275351898,9.70840483205393e-05,0.0949916243553161,0,0,0
4509,163002.09269963356,2010-12-22 09:26:41,3361.6877584562358,2,16,0.550297200679779,4.049908638000488,13.64040123533978,13.111211978786327,54.70713172092498,47.50077275351898,6.47544875391759e-05,0.0949916243553161,0,0,0
4510,163032.10778051292,2010-12-22 09:27:11,3391.7028393355777,2,16,0.5501165986061096,4.052660942077637,13.644987866425092,13.111211978786327,54.72571334625228,47.50077275351898,9.71794142969884e-05,0.0949916243553161,0,0,0
4511,163062.12279875137,2010-12-22 09:27:41,3421.717857569028,2,16,0.5501165986061096,4.055412769317627,13.649574411520591,13.111211978786327,54.74430710930022,47.50077275351898,6.47544875391759e-05,0.0949916243553161,0,0,0
4512,163092.1381336378,2010-12-22 09:28:11,3451.7331924755067,2,16,0.5501165986061096,4.058002948760986,13.654161102413374,13.111211978786327,54.762914017997566,47.50077275351898,3.23295607813634e-05,0.0949916243553161,0,0,0
4513,163122.15306153146,2010-12-22 09:28:41,3481.748120364137,2,16,0.550297200679779,4.060755252838135,13.65874774476594,13.111211978786327,54.78153342174,47.50077275351898,3.24249267578125e-05,0.0949916243553161,0,0,0
4514,163152.16800327456,2010-12-22 09:29:11,3511.763062122281,2,16,0.5501165986061096,4.063669204711914,13.66333440489822,13.111211978786327,54.800165324282034,47.50077275351898,9.71794142969884e-05,0.0949916243553161,0,0,0
4515,163182.18323683384,2010-12-22 09:29:41,3541.7782958018606,2,16,0.5499359965324402,4.066421031951904,13.66792108665455,13.111211978786327,54.81881041601312,47.50077275351898,9.70840483205393e-05,0.0949916243553161,0,0,0
4516,163212.19840133126,2010-12-22 09:30:11,3571.793460244146,2,16,0.550297200679779,4.069497108459473,13.672507720259114,13.111211978786327,54.83746837968973,47.50077275351898,0.0001295089750783,0.0949916243553161,0,0,0
4517,163242.2131987051,2010-12-22 09:30:41,3601.8082575979456,2,16,0.5499359965324402,4.072087287902832,13.677094375456116,13.111211978786327,54.85613957624447,47.50077275351898,3.24249267578125e-05,0.0949916243553161,0,0,0
4518,163272.22848668983,2010-12-22 09:31:11,3631.823545567625,2,16,0.5501165986061096,4.075325012207031,13.6816810737646,13.111211978786327,54.87482421075693,47.50077275351898,0.0001295089750783,0.0949916243553161,0,0,0
4519,163302.24340616754,2010-12-22 09:31:41,3661.8384650804114,2,16,0.550297200679779,4.0780768394470215,13.686267739806953,13.111211978786327,54.89352212844407,47.50077275351898,6.47544875391759e-05,0.0949916243553161,0,0,0
4520,163332.25840712298,2010-12-22 09:32:11,3691.853465965691,2,16,0.5497553944587708,4.08082914352417,13.690854421404282,13.111211978786327,54.91223366049258,47.50077275351898,3.24249267578125e-05,0.0949916243553161,0,0,0
4521,163362.27350074405,2010-12-22 09:32:41,3721.868559586741,2,16,0.5501165986061096,4.084066867828369,13.695441111723875,13.111211978786327,54.93095875562438,47.50077275351898,0.0001295089750783,0.0949916243553161,0,0,0
4522,163392.28855931785,2010-12-22 09:33:11,3751.8836181355146,2,16,0.5501165986061096,4.086980819702148,13.700027831170877,13.111211978786327,54.94969778017818,47.50077275351898,6.47544875391759e-05,0.0949916243553161,0,0,0
4523,163422.30361187173,2010-12-22 09:33:41,3781.898670694382,2,16,0.5501165986061096,4.090056419372559,13.704614441727706,13.111211978786327,54.96845024377927,47.50077275351898,6.47544875391759e-05,0.0949916243553161,0,0,0
4524,163452.3187164701,2010-12-22 09:34:11,3811.91377537796,2,16,0.550297200679779,4.093294143676758,13.709201188962352,13.111211978786327,54.98721725254866,47.50077275351898,0.0001295089750783,0.0949916243553161,0,0,0
4525,163482.33374653797,2010-12-22 09:34:41,3841.928805360648,2,16,0.5499359965324402,4.096046447753906,13.71378787914236,13.111211978786327,55.00599809612788,47.50077275351898,3.24249267578125e-05,0.0949916243553161,0,0,0
4526,163512.34897757095,2010-12-22 09:35:11,3871.9440363986528,2,16,0.5501165986061096,4.0992841720581055,13.7183746656693,13.111211978786327,55.02479355817776,47.50077275351898,3.24249267578125e-05,0.0949916243553161,0,0,0
4527,163542.36400664138,2010-12-22 09:35:41,3901.959065469071,2,16,0.5501165986061096,4.102359771728516,13.722961396562072,13.111211978786327,55.04360308440364,47.50077275351898,6.47544875391759e-05,0.0949916243553161,0,0,0
4528,163572.37895615384,2010-12-22 09:36:11,3931.9740149764993,2,16,0.5499359965324402,4.105597496032715,13.727548030733193,13.111211978786327,55.06242664797154,47.50077275351898,6.47544875391759e-05,0.0949916243553161,0,0,0
4529,163602.39402809093,2010-12-22 09:36:41,3961.989086913589,2,16,0.550297200679779,4.108997344970703,13.732134695218326,13.111211978786327,55.08126500907712,47.50077275351898,0.0001295089750783,0.0949916243553161,0,0,0
4530,163632.40919617226,2010-12-22 09:37:11,3992.004255080142,2,16,0.5501165986061096,4.111911296844482,13.736721439975476,13.111211978786327,55.10011844207972,47.50077275351898,3.24249267578125e-05,0.0949916243553161,0,0,0
4531,163662.42428509664,2010-12-22 09:37:41,4022.019343924304,2,16,0.5501165986061096,4.1153106689453125,13.741308043112424,13.111211978786327,55.11898600778783,47.50077275351898,0.0001295089750783,0.0949916243553161,0,0,0
4532,163692.43936154494,2010-12-22 09:38:11,4052.034420382645,2,16,0.5501165986061096,4.118548393249512,13.745894707872177,13.111211978786327,55.13786877955645,47.50077275351898,0.0001295089750783,0.0949916243553161,0,0,0
4533,163722.4543185811,2010-12-22 09:38:41,4082.04937740377,2,16,0.5501165986061096,4.121786117553711,13.750481391870236,13.111211978786327,55.156766590890086,47.50077275351898,9.71794142969884e-05,0.0949916243553161,0,0,0
4534,163752.4713183305,2010-12-22 09:39:11,4112.066377243371,2,16,0.5501165986061096,4.12502384185791,13.75506836110624,13.111211978786327,55.17568061880414,47.50077275351898,6.47544875391759e-05,0.0949916243553161,0,0,0
4535,163782.4844757233,2010-12-22 09:39:41,4142.079534626166,2,16,0.5501165986061096,4.128261566162109,13.759654756333848,13.111211978786327,55.19460750654626,47.50077275351898,6.47544875391759e-05,0.0949916243553161,0,0,0
4536,163812.49950563582,2010-12-22 09:40:11,4172.094564458479,2,16,0.5499359965324402,4.1318230628967285,13.764241425000987,13.111211978786327,55.21355088974878,47.50077275351898,9.71794142969884e-05,0.0949916243553161,0,0,0
4537,163842.51457385364,2010-12-22 09:40:41,4202.109632696364,2,16,0.550297200679779,4.135222434997559,13.768828115707276,13.111211978786327,55.2325098351913,47.50077275351898,6.47544875391759e-05,0.0949916243553161,0,0,0
4538,163872.5299131711,2010-12-22 09:41:11,4232.124972078981,2,16,0.5501165986061096,4.138460159301758,13.77341485205318,13.111211978786327,55.251484552844246,47.50077275351898,3.23295607813634e-05,0.0949916243553161,0,0,0
4539,163902.5447211714,2010-12-22 09:41:41,4262.139780014111,2,16,0.5501165986061096,4.141860008239746,13.778001540416922,13.111211978786327,55.27047467599128,47.50077275351898,6.47544875391759e-05,0.0949916243553161,0,0,0
4540,163932.55991752807,2010-12-22 09:42:11,4292.154976355778,2,16,0.5501165986061096,4.145583152770996,13.782588313256676,13.111211978786327,55.28948096998841,47.50077275351898,9.70840483205393e-05,0.0949916243553161,0,0,0
4541,163962.5748465646,2010-12-22 09:42:41,4322.169905407302,2,16,0.5501165986061096,4.148983001708984,13.787174983757287,13.111211978786327,55.30850303349859,47.50077275351898,6.47544875391759e-05,0.0949916243553161,0,0,0
4542,163992.59004144763,2010-12-22 09:43:11,4352.185100265276,2,16,0.550297200679779,4.152706146240234,13.79176173465205,13.111211978786327,55.32754153846119,47.50077275351898,0.0001618385285837,0.0949916243553161,0,0,0
4543,164022.60497224348,2010-12-22 09:43:42,4382.200031066153,2,16,0.5499359965324402,4.155943870544434,13.796348474905946,13.111211978786327,55.34659614388154,47.50077275351898,6.47544875391759e-05,0.0949916243553161,0,0,0
4544,164052.62018824407,2010-12-22 09:44:12,4412.2152471369145,2,16,0.5501165986061096,4.159667491912842,13.800935165102713,13.111211978786327,55.36566681776427,47.50077275351898,0.0001295089750783,0.0949916243553161,0,0,0
4545,164082.63511650864,2010-12-22 09:44:42,4442.230175356368,2,16,0.5501165986061096,4.163228988647461,13.805521830173598,13.111211978786327,55.38475376003955,47.50077275351898,0.0001295089750783,0.0949916243553161,0,0,0
4546,164112.65018865626,2010-12-22 09:45:12,4472.245247478919,2,16,0.5499359965324402,4.16679048538208,13.810108551648494,13.111211978786327,55.40385736700873,47.50077275351898,9.71794142969884e-05,0.0949916243553161,0,0,0
4547,164142.66527149046,2010-12-22 09:45:42,4502.260330333175,2,16,0.5499359965324402,4.170351982116699,13.814695188182991,13.111211978786327,55.42297714948524,47.50077275351898,9.71794142969884e-05,0.0949916243553161,0,0,0
4548,164172.68031105198,2010-12-22 09:46:12,4532.275369894699,2,16,0.5499359965324402,4.173913478851318,13.819281922393047,13.111211978786327,55.442114088673,47.50077275351898,6.47544875391759e-05,0.0949916243553161,0,0,0
4549,164202.6953811044,2010-12-22 09:46:42,4562.290439947099,2,16,0.550297200679779,4.177798748016357,13.823868660942868,13.111211978786327,55.461267835900415,47.50077275351898,9.71794142969884e-05,0.0949916243553161,0,0,0
4550,164232.71073599058,2010-12-22 09:47:12,4592.305794903471,2,16,0.550297200679779,4.181521892547607,13.82845543108523,13.111211978786327,55.48043871993428,47.50077275351898,0.0001295089750783,0.0949916243553161,0,0,0
4551,164262.7255180012,2010-12-22 09:47:42,4622.320576818853,2,16,0.5501165986061096,4.185083389282227,13.833042160359131,13.111211978786327,55.49962643302679,47.50077275351898,6.47544875391759e-05,0.0949916243553161,0,0,0
4552,164292.74058452985,2010-12-22 09:48:12,4652.335643347484,2,16,0.5501165986061096,4.188968658447266,13.837628852415332,13.111211978786327,55.51883105591857,47.50077275351898,9.70840483205393e-05,0.0949916243553161,0,0,0
4553,164322.75577435028,2010-12-22 09:48:42,4682.350833192983,2,16,0.5501165986061096,4.192692279815674,13.842215610253197,13.111211978786327,55.53805324541083,47.50077275351898,9.71794142969884e-05,0.0949916243553161,0,0,0
4554,164352.77077467414,2010-12-22 09:49:12,4712.36583352188,2,16,0.5499359965324402,4.196415424346924,13.846802242655308,13.111211978786327,55.557292254027104,47.50077275351898,6.47544875391759e-05,0.0949916243553161,0,0,0
4555,164379.3796118771,2010-12-22 09:49:38,4738.974670719829,2,16,0.550297200679779,4.200138568878174,13.850868368526466,13.111211978786327,55.57436261998386,47.50077275351898,0.0001295089750783,0.0949916243553161,0,0,0
4556,164409.39708158854,2010-12-22 09:50:08,30.015044884770948,3,16,0.0,4.110130310058594,13.850868368526466,13.111211978786327,55.57436261998386,47.50077275351898,-0.0004209518374409,0.0949916243553161,0,0,0
4557,164439.41230365922,2010-12-22 09:50:38,60.03026696047472,3,16,0.0,4.0989603996276855,13.850868368526466,13.111211978786327,55.57436261998386,47.50077275351898,-0.0002265930233988,0.0949916243553161,0,0,0
4558,164469.42722314197,2010-12-22 09:51:08,90.045186438175,3,16,0.0,4.092161178588867,13.850868368526466,13.111211978786327,55.57436261998386,47.50077275351898,-0.0001618385285837,0.0949916243553161,0,0,0
4559,164499.3955448078,2010-12-22 09:51:38,120.01350820927462,3,16,0.0,4.087790012359619,13.850868368526466,13.111211978786327,55.57436261998386,47.50077275351898,-0.0001295089750783,0.0949916243553161,0,0,0
4560,164499.40008169835,2010-12-22 09:51:39,2.661623347e-06,4,16,1.011573314666748,4.199814796447754,13.850868369274362,13.111211978786327,55.57436262312488,47.50077275351898,0.0,0.0949916243553161,0,0,0
4561,164500.10318442242,2010-12-22 09:51:39,0.703105420797138,4,16,0.9615445733070374,4.199653148651123,13.851059657125328,13.111211978786327,55.57516598668333,47.50077275351898,-3.23295607813634e-05,0.0949916243553161,0,0,0
4562,164501.9156580233,2010-12-22 09:51:41,2.515578991567478,4,16,0.9109739661216736,4.199653148651123,13.851529956780835,13.111211978786327,55.577141124700816,47.50077275351898,-3.23295607813634e-05,0.0949916243553161,0,0,0
4563,164504.6970013943,2010-12-22 09:51:44,5.29692245780847,4,16,0.8609451651573181,4.199814796447754,13.852213480056973,13.111211978786327,55.58001175507555,47.50077275351898,6.47544875391759e-05,0.0949916243553161,0,0,0
4564,164508.60310262197,2010-12-22 09:51:48,9.203023665428972,4,16,0.810735821723938,4.199814796447754,13.853119257795786,13.111211978786327,55.58381580674468,47.50077275351898,3.23295607813634e-05,0.0949916243553161,0,0,0
4565,164513.75923060815,2010-12-22 09:51:53,14.359151676672337,4,16,0.7605264186859131,4.199814796447754,13.854242976468656,13.111211978786327,55.58853517062511,47.50077275351898,0.0,0.0949916243553161,0,0,0
4566,164520.44657082207,2010-12-22 09:52:00,21.046491805377222,4,16,0.7099558115005493,4.199653148651123,13.855607155021508,13.111211978786327,55.594264429891965,47.50077275351898,0.0,0.0949916243553161,0,0,0
4567,164529.38405112305,2010-12-22 09:52:09,29.98397219156902,4,16,0.6599270701408386,4.199814796447754,13.857304957176805,13.111211978786327,55.60139484729192,47.50077275351898,-3.24249267578125e-05,0.0949916243553161,0,0,0
4568,164541.54003975823,2010-12-22 09:52:21,42.13996075156254,4,16,0.6097176671028137,4.199653148651123,13.85944397452058,13.111211978786327,55.61037829042092,47.50077275351898,-3.23295607813634e-05,0.0949916243553161,0,0,0
4569,164559.94585612934,2010-12-22 09:52:39,60.54577721792306,4,16,0.559688925743103,4.199814796447754,13.86242402459674,13.111211978786327,55.62289389420192,47.50077275351898,0.0,0.0949916243553161,0,0,0
4570,164590.85153126824,2010-12-22 09:53:10,91.45145225156446,4,16,0.5096601247787476,4.199814796447754,13.866991995722532,13.111211978786327,55.642078405991256,47.50077275351898,3.23295607813634e-05,0.0949916243553161,0,0,0
4571,164648.61613044658,2010-12-22 09:54:08,149.2160514349169,4,16,0.4592701494693756,4.199814796447754,13.874727736456068,13.111211978786327,55.67456687555652,47.50077275351898,3.23295607813634e-05,0.0949916243553161,0,0,0
4572,164742.7551358057,2010-12-22 09:55:42,243.355056804047,4,16,0.4092413783073425,4.199653148651123,13.886054008218636,13.111211978786327,55.72213488773345,47.50077275351898,0.0,0.0949916243553161,0,0,0
4573,164862.40902699684,2010-12-22 09:57:42,363.0089479751536,4,16,0.3592126071453094,4.199653148651123,13.898811354712675,13.111211978786327,55.77571317016999,47.50077275351898,0.0,0.0949916243553161,0,0,0
4574,165008.26567598298,2010-12-22 10:00:07,508.865597051509,4,16,0.3091838359832763,4.199814796447754,13.912340145361169,13.111211978786327,55.8325313494206,47.50077275351898,0.0,0.0949916243553161,0,0,0
4575,165181.5750826808,2010-12-22 10:03:01,682.1750036791555,4,16,0.2591550648212433,4.199653148651123,13.925995224532112,13.111211978786327,55.88987989361809,47.50077275351898,-3.23295607813634e-05,0.0949916243553161,0,0,0
4576,165394.47730246617,2010-12-22 10:06:34,895.0772234645444,4,16,0.2091262936592102,4.199814796447754,13.93980127462332,13.111211978786327,55.94786247572489,47.50077275351898,0.0,0.0949916243553161,0,0,0
4577,165675.53453020754,2010-12-22 10:11:15,1176.1344511858356,4,16,0.1590975224971771,4.199814796447754,13.954107057192946,13.111211978786327,56.00794383399673,47.50077275351898,3.23295607813634e-05,0.0949916243553161,0,0,0
4578,166092.6050806812,2010-12-22 10:18:12,1593.2050016595142,4,16,0.1090687587857246,4.199653148651123,13.969473107057322,13.111211978786327,56.07247815725062,47.50077275351898,-3.23295607813634e-05,0.0949916243553161,0,0,0
4579,166872.43424835656,2010-12-22 10:31:12,2373.0341693298324,4,16,0.0590399913489818,4.199653148651123,13.987080391833713,13.111211978786327,56.14642508426188,47.50077275351898,-3.23295607813634e-05,0.0949916243553161,0,0,0
4580,167119.054681103,2010-12-22 10:35:18,2619.6546020763208,4,16,0.0498289167881011,4.199814796447754,13.990831617311525,13.111211978786327,56.1621794816471,47.50077275351898,3.23295607813634e-05,0.0949916243553161,0,0,0
4581,167149.07607671636,2010-12-22 10:35:48,30.01505922044472,5,16,0.0,4.191397190093994,13.990831617311525,13.111211978786327,56.1621794816471,47.50077275351898,-3.23295607813634e-05,0.0949916243553161,0,0,0
4582,167179.07552313997,2010-12-22 10:36:18,60.01450561898262,5,16,0.0,4.1901021003723145,13.990831617311525,13.111211978786327,56.1621794816471,47.50077275351898,-6.47544875391759e-05,0.0949916243553161,0,0,0
4583,167179.27049463036,2010-12-22 10:36:19,0.187519349689419,6,16,-1.9243103452026844e-05,4.1901021003723145,13.990831617311525,13.111211979788678,56.1621794816471,47.50077275771893,0.0,0.0971632748842239,0,0,0
4584,167184.09867628472,2010-12-22 10:36:24,5.015701114311383,6,16,0.0007031940040178,4.1901021003723145,13.990832438461675,13.111211979956575,56.16218292244776,47.50077275842244,-3.23295607813634e-05,0.0971632748842239,0,0,0
4585,167214.12153184408,2010-12-22 10:36:54,30.015490789387435,7,16,-1.0997490882873535,4.004418849945068,13.990832438509235,13.120381221110684,56.16218292264705,47.53770679866699,-0.0010360718006268,0.0971632748842239,0,0,0
4586,167244.13620978073,2010-12-22 10:37:24,60.0301687009597,7,16,-1.0997490882873535,3.9743082523345943,13.990832438509235,13.129550108638634,56.16218292264705,47.57427544103838,-0.0006799221155233,0.0971632748842239,0,0,0
4587,167274.1513792004,2010-12-22 10:37:54,90.04533805045632,7,16,-1.0997490882873535,3.95358681678772,13.990832438509235,13.138719057310944,56.16218292264705,47.61061607058,-0.0004856586456298,0.0971632748842239,0,0,0
4588,167304.1663467076,2010-12-22 10:38:24,120.06030555767622,7,16,-1.099568486213684,3.9372363090515137,13.990832438509235,13.147887934128292,56.16218292264705,47.64678868515379,-0.0003885269106831,0.0971632748842239,0,0,0
4589,167334.1813955472,2010-12-22 10:38:54,150.07535439227618,7,16,-1.099568486213684,3.923475980758667,13.990832438509235,13.15705693160224,56.16218292264705,47.68282491895898,-0.0003561496851034,0.0971632748842239,0,0,0
4590,167364.19647614085,2010-12-22 10:39:24,180.09043498590722,7,16,-1.0997490882873535,3.911010980606079,13.990832438509235,13.166225828999105,56.16218292264705,47.71874120665739,-0.0003561496851034,0.0971632748842239,0,0,0
4591,167394.21153896023,2010-12-22 10:39:54,210.10549783037013,7,16,-1.0997490882873535,3.899355173110962,13.990832438509235,13.175394797727156,56.16218292264705,47.75454784476254,-0.0002913951757363,0.0971632748842239,0,0,0
4592,167424.2266958788,2010-12-22 10:40:24,240.1206547890327,7,16,-1.099568486213684,3.8885087966918954,13.990832438509235,13.184563715195193,56.16218292264705,47.79025067947983,-0.0002590179501567,0.0971632748842239,0,0,0
4593,167454.24168031316,2010-12-22 10:40:54,270.13563915821294,7,16,-1.099929690361023,3.877500534057617,13.990832438509235,13.193732675012198,56.16218292264705,47.82585409365278,-0.0003237724304199,0.0971632748842239,0,0,0
4594,167484.25676080654,2010-12-22 10:41:24,300.1507196515945,7,16,-1.0997490882873535,3.86713981628418,13.990832438509235,13.202901663697077,56.16218292264705,47.86136062502304,-0.0002913951757363,0.0971632748842239,0,0,0
4595,167514.2718406834,2010-12-22 10:41:54,330.16579955350426,7,16,-1.099568486213684,3.857102870941162,13.990832438509235,13.212070705531753,56.16218292264705,47.89677312598359,-0.0002590179501567,0.0971632748842239,0,0,0
4596,167544.28690338248,2010-12-22 10:42:24,360.1808622225307,7,16,-1.099568486213684,3.847389698028565,13.990832438509235,13.221239639880956,56.16218292264705,47.93209369363023,-0.0002266406954731,0.0971632748842239,0,0,0
4597,167574.3019434202,2010-12-22 10:42:54,390.1959022652523,7,16,-1.0997490882873535,3.837676525115967,13.990832438509235,13.2304086447522,56.16218292264705,47.96732458353039,-0.0002590179501567,0.0971632748842239,0,0,0
4598,167604.3191452775,2010-12-22 10:43:24,420.213104222816,7,16,-1.0997490882873535,3.828125476837158,13.990832438509235,13.239578211382186,56.16218292264705,48.002469767389535,-0.0002266406954731,0.0971632748842239,0,0,0
4599,167634.3323703287,2010-12-22 10:43:54,450.2263292589636,7,16,-1.0997490882873535,3.8190598487854,13.990832438509235,13.248746650801587,56.16218292264705,48.0375252028262,-0.0001942634553415,0.0971632748842239,0,0,0
4600,167664.3471708554,2010-12-22 10:44:24,480.2411297104719,7,16,-1.0997490882873535,3.809670448303223,13.990832438509235,13.257915577581349,56.16218292264705,48.0724986338704,-0.0002913951757363,0.0971632748842239,0,0,0
4601,167694.3623669765,2010-12-22 10:44:54,510.2563258516385,7,16,-1.0997490882873535,3.8009285926818848,13.990832438509235,13.267084594622494,56.16218292264705,48.10738964524226,-0.0001942634553415,0.0971632748842239,0,0,0
4602,167724.37734728056,2010-12-22 10:45:24,540.2713061657278,7,16,-1.099929690361023,3.792186737060547,13.990832438509235,13.276253604361974,56.16218292264705,48.14220059783934,-0.0002266406954731,0.0971632748842239,0,0,0
4603,167754.39240414515,2010-12-22 10:45:54,570.2863629902103,7,16,-1.099568486213684,3.783930540084839,13.990832438509235,13.285422581100429,56.16218292264705,48.17693339872407,-0.0001942634553415,0.0971632748842239,0,0,0
4604,167784.4074550549,2010-12-22 10:46:24,600.301413909999,7,16,-1.0997490882873535,3.775674343109131,13.990832438509235,13.294591628384032,56.16218292264705,48.211589768049365,-0.0002266406954731,0.0971632748842239,0,0,0
4605,167814.4227783826,2010-12-22 10:46:54,630.3167372527018,7,16,-1.099568486213684,3.767580032348633,13.990832438509235,13.303760654937848,56.16218292264705,48.246171336497405,-0.0001942634553415,0.0971632748842239,0,0,0
4606,167844.4376224276,2010-12-22 10:47:24,660.3315812776409,7,16,-1.0997490882873535,3.7598094940185542,13.990832438509235,13.312929605853236,56.16218292264705,48.28067984911304,-0.0001618862152099,0.0971632748842239,0,0,0
4607,167874.45269973803,2010-12-22 10:47:54,690.3466586031393,7,16,-1.099929690361023,3.7518773078918457,13.990832438509235,13.322098663578908,56.16218292264705,48.31511741869226,-0.0002589702489785,0.0971632748842239,0,0,0
4608,167904.46787945332,2010-12-22 10:48:24,720.3618382983809,7,16,-1.099568486213684,3.7445924282073975,13.990832438509235,13.331267694849766,56.16218292264705,48.349485416555446,-0.0002266406954731,0.0971632748842239,0,0,0
4609,167934.48284707585,2010-12-22 10:48:54,750.3768059559751,7,16,-1.099929690361023,3.737307548522949,13.990832438509235,13.340436694521632,56.16218292264705,48.38378548894862,-0.0001942634553415,0.0971632748842239,0,0,0
4610,167964.49802527734,2010-12-22 10:49:24,780.3919841324373,7,16,-1.099568486213684,3.730184555053711,13.990832438509235,13.349605762855871,56.16218292264705,48.41801983793,-0.0001618862152099,0.0971632748842239,0,0,0
4611,167994.51310208158,2010-12-22 10:49:54,810.4070609266136,7,16,-1.0997490882873535,3.7232234477996826,13.990832438509235,13.358774692217851,56.16218292264705,48.45218941928045,-0.0002266406954731,0.0971632748842239,0,0,0
4612,168024.52841429156,2010-12-22 10:50:24,840.4223732519,7,16,-1.099929690361023,3.7162623405456543,13.990832438509235,13.367943846711912,56.16218292264705,48.486296750462586,-0.0001942634553415,0.0971632748842239,0,0,0
4613,168054.54314051336,2010-12-22 10:50:54,870.4370994636654,7,16,-1.0997490882873535,3.709625005722046,13.990832438509235,13.37711281071,56.16218292264705,48.52034075781867,-0.0001942634553415,0.0971632748842239,0,0,0
4614,168084.55840284922,2010-12-22 10:51:24,900.4523617845176,7,16,-1.0997490882873535,3.7029876708984375,13.990832438509235,13.386282020260587,56.16218292264705,48.55432396007561,-0.0001942634553415,0.0971632748842239,0,0,0
4615,168114.57343703738,2010-12-22 10:51:54,930.4673959826954,7,16,-1.0997490882873535,3.696512222290039,13.990832438509235,13.395451189290188,56.16218292264705,48.58824723709582,-0.0001618862152099,0.0971632748842239,0,0,0
4616,168144.5883598183,2010-12-22 10:52:24,960.482318683416,7,16,-1.099929690361023,3.6900367736816406,13.990832438509235,13.404620281747436,56.16218292264705,48.622111794280805,-0.0001942634553415,0.0971632748842239,0,0,0
4617,168174.60340444744,2010-12-22 10:52:54,990.497363292501,7,16,-1.0997490882873535,3.684046983718872,13.990832438509235,13.413789295742175,56.16218292264705,48.655918711218575,-0.0001295089750783,0.0971632748842239,0,0,0
4618,168204.61850129152,2010-12-22 10:53:24,1020.5124601365708,7,16,-1.0997490882873535,3.6782190799713135,13.990832438509235,13.422958387757085,56.16218292264705,48.68967055559991,-0.0001295089750783,0.0971632748842239,0,0,0
4619,168234.63371185356,2010-12-22 10:53:54,1050.527670879072,7,16,-1.0997490882873535,3.672067642211914,13.990832438509235,13.432127463804218,56.16218292264705,48.72336818456778,-0.0001942157687153,0.0971632748842239,0,0,0
4620,168264.64875138504,2010-12-22 10:54:24,1080.542710235085,7,16,-1.099929690361023,3.6660778522491455,13.990832438509235,13.441296496260977,56.16218292264705,48.757011509508935,-0.0001618862152099,0.0971632748842239,0,0,0
4621,168294.6636960905,2010-12-22 10:54:54,1110.557654935551,7,16,-1.0997490882873535,3.660249948501587,13.990832438509235,13.45046546820023,56.16218292264705,48.79060057980824,-0.0002266406954731,0.0971632748842239,0,0,0
4622,168324.6787836665,2010-12-22 10:55:24,1140.5727425215823,7,16,-1.099568486213684,3.6545839309692383,13.990832438509235,13.459634566581528,56.16218292264705,48.82413644199696,-0.0001618862152099,0.0971632748842239,0,0,0
4623,168354.694076789,2010-12-22 10:55:54,1170.5880357292956,7,16,-1.099568486213684,3.6490797996521,13.990832438509235,13.468803721756911,56.16218292264705,48.857619694105374,-0.0001295089750783,0.0971632748842239,0,0,0
4624,168384.7089178616,2010-12-22 10:56:24,1200.6028767016385,7,16,-1.099568486213684,3.643413782119751,13.990832438509235,13.477972638067648,56.16218292264705,48.89105013331326,-0.0001295089750783,0.0971632748842239,0,0,0
4625,168414.72413959645,2010-12-22 10:56:54,1230.6180984415062,7,16,-1.0997490882873535,3.637909650802612,13.990832438509235,13.48714164771879,56.16218292264705,48.92443027293736,-9.713172767078504e-05,0.0971632748842239,0,0,0
4626,168444.73907116425,2010-12-22 10:57:24,1260.6330300143047,7,16,-1.0997490882873535,3.632567405700684,13.990832438509235,13.496310603773146,56.16218292264705,48.957760827092685,-9.713172767078504e-05,0.0971632748842239,0,0,0
4627,168474.75428487913,2010-12-22 10:57:54,1290.6482437943653,7,16,-1.099929690361023,3.627225160598755,13.990832438509235,13.5054797139908,56.16218292264705,48.99104357147044,-0.0001618862152099,0.0971632748842239,0,0,0
4628,168504.76920493328,2010-12-22 10:58:24,1320.6631637933626,7,16,-1.099929690361023,3.621882915496826,13.990832438509235,13.51464871950351,56.16218292264705,49.02427768476779,-0.0001618862152099,0.0971632748842239,0,0,0
4629,168534.7842824743,2010-12-22 10:58:54,1350.6782413193605,7,16,-1.0997490882873535,3.6170263290405273,13.990832438509235,13.523817792142417,56.16218292264705,49.057465472832654,-9.713172767078504e-05,0.0971632748842239,0,0,0
4630,168564.79950344726,2010-12-22 10:59:24,1380.6934622923195,7,16,-1.0997490882873535,3.6120078563690186,13.990832438509235,13.53298693405292,56.16218292264705,49.090607604377645,-0.0001295089750783,0.0971632748842239,0,0,0
4631,168594.814421737,2010-12-22 10:59:54,1410.7083805770512,7,16,-1.0997490882873535,3.60715126991272,13.990832438509235,13.542155933930832,56.16218292264705,49.12370435491204,-0.0001618862152099,0.0971632748842239,0,0,0
4632,168624.82953585408,2010-12-22 11:00:24,1440.723494744229,7,16,-1.099568486213684,3.602456569671631,13.990832438509235,13.551325030702769,56.16218292264705,49.15675782717227,-0.0001295089750783,0.0971632748842239,0,0,0
4633,168654.84472163944,2010-12-22 11:00:54,1470.7386806850125,7,16,-1.099929690361023,3.598085641860962,13.990832438509235,13.560494158718416,56.16218292264705,49.18976957345719,-9.713172767078504e-05,0.0971632748842239,0,0,0
4634,168684.85966152296,2010-12-22 11:01:24,1500.7536203880427,7,16,-1.0997490882873535,3.594038486480713,13.990832438509235,13.569663175869891,56.16218292264705,49.222740886853536,-6.47544875391759e-05,0.0971632748842239,0,0,0
4635,168714.87482527352,2010-12-22 11:01:54,1530.7687841386064,7,16,-1.099568486213684,3.589667797088623,13.990832438509235,13.578832126304135,56.16218292264705,49.25567302527568,-6.47544875391759e-05,0.0971632748842239,0,0,0
4636,168744.8897694978,2010-12-22 11:02:24,1560.7837283578754,7,16,-1.0997490882873535,3.585296869277954,13.990832438509235,13.588000887360316,56.16218292264705,49.28856553837706,-0.0001618862152099,0.0971632748842239,0,0,0
4637,168774.9049009129,2010-12-22 11:02:54,1590.798859777986,7,16,-1.099929690361023,3.581249713897705,13.990832438509235,13.597169885798056,56.16218292264705,49.32142095616882,-0.0001618862152099,0.0971632748842239,0,0,0
4638,168804.9200979964,2010-12-22 11:03:24,1620.8140568414476,7,16,-1.0997490882873535,3.577202558517456,13.990832438509235,13.606339018529328,56.16218292264705,49.35423963212726,-9.713172767078504e-05,0.0971632748842239,0,0,0
4639,168834.93505220048,2010-12-22 11:03:55,1650.8290111608503,7,16,-1.099929690361023,3.573317289352417,13.990832438509235,13.61550809621948,56.16218292264705,49.38702134322168,-9.713172767078504e-05,0.0971632748842239,0,0,0
4640,168864.95023059752,2010-12-22 11:04:25,1680.844189502724,7,16,-1.099929690361023,3.569432020187378,13.990832438509235,13.624677323995082,56.16218292264705,49.419768037952736,-9.713172767078504e-05,0.0971632748842239,0,0,0
4641,168894.96517475165,2010-12-22 11:04:55,1710.859133596681,7,16,-1.099568486213684,3.565708637237549,13.990832438509235,13.633846395104152,56.16218292264705,49.45247877730779,-6.47544875391759e-05,0.0971632748842239,0,0,0
4642,168924.98026133014,2010-12-22 11:05:25,1740.8742201752052,7,16,-1.0997490882873535,3.5618233680725098,13.990832438509235,13.643015550224312,56.16218292264705,49.485155280563774,-0.0001295089750783,0.0971632748842239,0,0,0
4643,168954.9953385604,2010-12-22 11:05:55,1770.8892974656164,7,16,-1.099929690361023,3.5580999851226807,13.990832438509235,13.652184676620402,56.16218292264705,49.51779842493244,-0.0001295089750783,0.0971632748842239,0,0,0
4644,168985.01041280324,2010-12-22 11:06:25,1800.9043716533065,7,16,-1.099929690361023,3.5547003746032715,13.990832438509235,13.661353795447289,56.16218292264705,49.55040807685683,-6.47544875391759e-05,0.0971632748842239,0,0,0
4645,169015.02547381815,2010-12-22 11:06:55,1830.919432663204,7,16,-1.099568486213684,3.5511388778686523,13.990832438509235,13.670522939246714,56.16218292264705,49.58298467155243,-9.713172767078504e-05,0.0971632748842239,0,0,0
4646,169045.0407647101,2010-12-22 11:07:25,1860.934723650391,7,16,-1.099929690361023,3.5474154949188232,13.990832438509235,13.67969211664359,56.16218292264705,49.61552850047399,-6.47544875391759e-05,0.0971632748842239,0,0,0
4647,169075.05561637905,2010-12-22 11:07:55,1890.9495752191028,7,16,-1.0997490882873535,3.543853998184204,13.990832438509235,13.688861203332037,56.16218292264705,49.648038964270114,-9.713172767078504e-05,0.0971632748842239,0,0,0
4648,169105.0710926774,2010-12-22 11:08:25,1920.9650515675544,7,16,-1.0997490882873535,3.540292501449585,13.990832438509235,13.698030466095148,56.16218292264705,49.68051651518066,-6.47544875391759e-05,0.0971632748842239,0,0,0
4649,169135.08577243856,2010-12-22 11:08:55,1950.9797312836167,7,16,-1.0997490882873535,3.536569118499756,13.990832438509235,13.707199514832237,56.16218292264705,49.71295970434517,-9.713172767078504e-05,0.0971632748842239,0,0,0
4650,169165.10087165353,2010-12-22 11:09:25,1980.9948305837988,7,16,-1.0997490882873535,3.5328457355499268,13.990832438509235,13.716368710361529,56.16218292264705,49.74536983337518,-6.47544875391759e-05,0.0971632748842239,0,0,0
4651,169195.11524529793,2010-12-22 11:09:55,2011.0092041480143,7,16,-1.0997490882873535,3.5291223526000977,13.990832438509235,13.725532998862288,56.16218292264705,49.77772897091479,-0.0001295089750783,0.0971632748842239,0,0,0
4652,169225.11534853102,2010-12-22 11:10:25,2041.00930738106,7,16,-1.099568486213684,3.5255608558654785,13.990832438509235,13.734702116604952,56.16218292264705,49.81007163716822,-0.0001295089750783,0.0971632748842239,0,0,0
4653,169255.1304238014,2010-12-22 11:10:55,2071.024382646432,7,16,-1.0997490882873535,3.5218374729156494,13.990832438509235,13.74387128120228,56.16218292264705,49.84238012525306,-3.237724376958795e-05,0.0971632748842239,0,0,0
4654,169285.1456504535,2010-12-22 11:11:25,2101.039609388748,7,16,-1.099568486213684,3.5177903175354004,13.990832438509235,13.75304046058526,56.16218292264705,49.87465386157283,-0.0001295089750783,0.0971632748842239,0,0,0
4655,169315.16058058268,2010-12-22 11:11:55,2131.0545394277297,7,16,-1.0997490882873535,3.513743162155152,13.990832438509235,13.762209546032354,56.16218292264705,49.906891364641766,-0.0001295089750783,0.0971632748842239,0,0,0
4656,169345.17568974738,2010-12-22 11:12:25,2161.069648602484,7,16,-1.0997490882873535,3.5098581314086914,13.990832438509235,13.771378667753927,56.16218292264705,49.93909151476765,-6.47544875391759e-05,0.0971632748842239,0,0,0
4657,169375.19074064714,2010-12-22 11:12:55,2191.08469951726,7,16,-1.099568486213684,3.5054872035980225,13.990832438509235,13.780547844872707,56.16218292264705,49.97125277819639,-9.713172767078504e-05,0.0971632748842239,0,0,0
4658,169405.20591385625,2010-12-22 11:13:25,2221.099872711324,7,16,-1.1001102924346924,3.500954389572144,13.990832438509235,13.789717011459894,56.16218292264705,50.0033741383484,-0.0001295089750783,0.0971632748842239,0,0,0
4659,169435.22087516804,2010-12-22 11:13:55,2251.1148340181144,7,16,-1.099568486213684,3.4964215755462646,13.990832438509235,13.798886122784351,56.16218292264705,50.03545387756591,-9.713172767078504e-05,0.0971632748842239,0,0,0
4660,169465.22229269164,2010-12-22 11:14:25,2281.1162516219206,7,16,-1.099929690361023,3.491564989089966,13.990832438509235,13.808051054114472,56.16218292264705,50.06747581710906,-0.0001295089750783,0.0971632748842239,0,0,0
4661,169495.2354254181,2010-12-22 11:14:55,2311.1293842882096,7,16,-1.099568486213684,3.486708402633667,13.990832438509235,13.817219643988608,56.16218292264705,50.09946593298383,-0.0001295089750783,0.0971632748842239,0,0,0
4662,169525.25057974018,2010-12-22 11:15:25,2341.144538585249,7,16,-1.0997490882873535,3.4812042713165283,13.990832438509235,13.82638882763968,56.16218292264705,50.13141062400466,-0.0001295089750783,0.0971632748842239,0,0,0
4663,169555.26554986893,2010-12-22 11:15:55,2371.1595087089795,7,16,-1.099568486213684,3.47521448135376,13.990832438509235,13.835557890418205,56.16218292264705,50.163302620327485,-0.0001942634553415,0.0971632748842239,0,0,0
4664,169585.28073666687,2010-12-22 11:16:25,2401.174695582083,7,16,-1.099929690361023,3.468577146530152,13.990832438509235,13.844727008399303,56.16218292264705,50.19513735046513,-0.0001942634553415,0.0971632748842239,0,0,0
4665,169615.2959999451,2010-12-22 11:16:55,2431.1899588352558,7,16,-1.099568486213684,3.460968494415283,13.990832438509235,13.853896195940852,56.16218292264705,50.226907445085466,-0.0002590179501567,0.0971632748842239,0,0,0
4666,169645.31073551514,2010-12-22 11:17:25,2461.2046943601963,7,16,-1.0997490882873535,3.4522266387939453,13.990832438509235,13.863065198452244,56.16218292264705,50.2586024378365,-0.0002590179501567,0.0971632748842239,0,0,0
4667,169675.32581667017,2010-12-22 11:17:55,2491.219775510212,7,16,-1.099929690361023,3.442189693450928,13.990832438509235,13.872234363665031,56.16218292264705,50.29021203446067,-0.0002913951757363,0.0971632748842239,0,0,0
4668,169705.34090503314,2010-12-22 11:18:25,2521.2348638832013,7,16,-1.099929690361023,3.4302103519439697,13.990832438509235,13.881403987724743,56.16218292264705,50.321722247172985,-0.0003561019839253,0.0971632748842239,0,0,0
4669,169735.35610949,2010-12-22 11:18:55,2551.2500684102365,7,16,-1.099929690361023,3.415802478790283,13.990832438509235,13.890573983601646,56.16218292264705,50.35311405995663,-0.0004532813909463,0.0971632748842239,0,0,0
4670,169765.3711762442,2010-12-22 11:19:25,2581.2651351995155,7,16,-1.099929690361023,3.398642539978028,13.990832438509235,13.899743545456992,56.16218292264705,50.38436057045909,-0.0005180359003134,0.0971632748842239,0,0,0
4671,169795.3861745681,2010-12-22 11:19:55,2611.28013341816,7,16,-1.0997490882873535,3.3775973320007324,13.990832438509235,13.908912647369508,56.16218292264705,50.41543165144015,-0.0006475448608398,0.0971632748842239,0,0,0
4672,169825.40121824987,2010-12-22 11:20:25,2641.2951771901617,7,16,-1.099929690361023,3.3497531414031982,13.990832438509235,13.918081773195173,56.16218292264705,50.44628007505271,-0.0008093834039755,0.0971632748842239,0,0,0
4673,169855.4163896645,2010-12-22 11:20:55,2671.3103485095603,7,16,-1.099568486213684,3.313652515411377,13.990832438509235,13.92725095832032,56.16218292264705,50.47683782120189,-0.0011332035064697,0.0971632748842239,0,0,0
4674,169885.43146460407,2010-12-22 11:21:25,2701.325423514284,7,16,-1.099929690361023,3.2652487754821777,13.990832438509235,13.936420092225411,56.16218292264705,50.50701139805193,-0.0014893055194988,0.0971632748842239,0,0,0
4675,169915.44643481303,2010-12-22 11:21:55,2731.340393693152,7,16,-1.0997490882873535,3.199684858322144,13.990832438509235,13.945589187048354,56.16218292264705,50.53666686268255,-0.0020073889754712,0.0971632748842239,0,0,0
4676,169945.46158646344,2010-12-22 11:22:25,2761.355545378693,7,16,-1.099568486213684,3.107086420059204,13.990832438509235,13.954758357947863,56.16218292264705,50.56560577959331,-0.0028167725540697,0.0971632748842239,0,0,0
4677,169975.4765563065,2010-12-22 11:22:55,2791.37051515155,7,16,-1.0997490882873535,2.966893196105957,13.990832438509235,13.963927464112862,56.16218292264705,50.59350231038732,-0.0045651914551854,0.0971632748842239,0,0,0
4678,170002.41359330705,2010-12-22 11:23:22,2818.307552277398,7,16,-1.099929690361023,2.7664787769317627,13.990832438509235,13.972156303885736,56.16218292264705,50.61714787368964,-0.006961059756577,0.0971632748842239,0,0,0
4679,170009.9291904565,2010-12-22 11:23:30,2825.8231493967683,7,16,-1.099568486213684,2.699943780899048,13.990832438509235,13.974452224337,56.16218292264705,50.6234239814886,-0.0071553229354321,0.0971632748842239,0,0,0
4680,170069.9405770941,2010-12-22 11:24:30,60.01449328829819,8,16,0.0,3.4519028663635254,13.990832438509235,13.974452224337,56.16218292264705,50.6234239814886,0.0013274669181555,0.0971632748842239,0,0,0
4681,170070.12646112207,2010-12-22 11:24:30,0.187743342085883,9,16,-1.9243103452026844e-05,3.4522266387939453,13.990832438509235,13.974452225340546,56.16218292264705,50.62342398495307,0.0,0.0970755815505981,0,0,0
4682,170074.9542536932,2010-12-22 11:24:35,5.015535822990287,9,16,0.0005225847125984,3.4604828357696533,13.990833172693009,13.97445222558966,56.1621854606911,50.62342398581324,0.0011979580158367,0.0970755815505981,0,0,0
