Data_Point,Test_Time(s),Date_Time,Step_Time(s),Step_Index,Cycle_Index,Current(A),Voltage(V),Charge_Capacity(Ah),Discharge_Capacity(Ah),Charge_Energy(Wh),Discharge_Energy(Wh),dV/dt(V/s),Internal_Resistance(Ohm),Is_FC_Data,AC_Impedance(Ohm),ACI_Phase_Angle(Deg)
1179,42912.36901505782,2010-12-21 00:04:57,30.015234296113796,1,5,0.0,3.456921339035034,3.523506698867597,3.523766775651116,14.1511525752581,12.769406033851002,0.0008418083307333,0.0931989923119545,0,0,0
1180,42942.38412502956,2010-12-21 00:05:27,60.03034426785115,1,5,0.0,3.482985019683838,3.523506698867597,3.523766775651116,14.1511525752581,12.769406033851002,0.0005827903514727,0.0931989923119545,0,0,0
1181,42972.39908723358,2010-12-21 00:05:57,90.0453064969366,1,5,0.0,3.502411365509033,3.523506698867597,3.523766775651116,14.1511525752581,12.769406033851002,0.0003885269106831,0.0931989923119545,0,0,0
1182,43002.367320549565,2010-12-21 00:06:27,120.01353981291908,1,5,0.0,3.5179522037506104,3.523506698867597,3.523766775651116,14.1511525752581,12.769406033851002,0.0003561496851034,0.0931989923119545,0,0,0
1183,43032.381614726895,2010-12-21 00:06:57,30.01517368528608,2,5,0.550297200679779,3.662678241729736,3.528094165029587,3.523766775651116,14.167817811284753,12.769406033851002,0.0012950897216796,0.0931989923119545,0,0,0
1184,43062.39660709598,2010-12-21 00:07:27,60.03016607442366,2,5,0.550297200679779,3.700559377670288,3.532681626397031,3.523766775651116,14.184713017599648,12.769406033851002,0.0008094310760498,0.0931989923119545,0,0,0
1185,43092.41166943418,2010-12-21 00:07:57,90.04522839257692,2,5,0.550297200679779,3.727594375610352,3.537269010344437,3.523766775651116,14.201753947276716,12.769406033851002,0.0006799221155233,0.0931989923119545,0,0,0
1186,43122.427165912726,2010-12-21 00:08:27,120.06072489117147,2,5,0.550297200679779,3.7476682662963863,3.541856443571393,3.523766775651116,14.218901945763076,12.769406033851002,0.0004856586456298,0.0931989923119545,0,0,0
1187,43152.4419608054,2010-12-21 00:08:57,150.07551976379682,2,5,0.550297200679779,3.762399673461914,3.546443750032426,3.523766775651116,14.236129680877632,12.769406033851002,0.0002913951757363,0.0931989923119545,0,0,0
1188,43182.45704835133,2010-12-21 00:09:27,180.09060732476584,2,5,0.550297200679779,3.7722747325897217,3.551031221103388,3.523766775651116,14.253414044507226,12.769406033851002,0.0001942634553415,0.0931989923119545,0,0,0
1189,43212.47213291986,2010-12-21 00:09:57,210.10569187825087,2,5,0.550297200679779,3.77907395362854,3.555618687080311,3.523766775651116,14.270735630078574,12.769406033851002,0.0001618862152099,0.0931989923119545,0,0,0
1190,43242.48723954327,2010-12-21 00:10:27,240.12079851669347,2,5,0.550297200679779,3.784578084945679,3.560206134399198,3.523766775651116,14.288084796104398,12.769406033851002,0.0001618862152099,0.0931989923119545,0,0,0
1191,43272.50257511641,2010-12-21 00:10:57,270.136134139956,2,5,0.550297200679779,3.789596557617188,3.564793557534866,3.523766775651116,14.3054576930666,12.769406033851002,0.0001618862152099,0.0931989923119545,0,0,0
1192,43302.51741803358,2010-12-21 00:11:27,300.15097700701364,2,5,0.5501165986061096,3.7941293716430655,3.569380967793739,3.523766775651116,14.322852540907336,12.769406033851002,9.713172767078504e-05,0.0931989923119545,0,0,0
1193,43332.53252971958,2010-12-21 00:11:57,330.16608869301683,2,5,0.550297200679779,3.798500299453736,3.573968425034344,3.523766775651116,14.340268316747698,12.769406033851002,6.47544875391759e-05,0.0931989923119545,0,0,0
1194,43362.547664162215,2010-12-21 00:12:27,360.18122312061166,2,5,0.550297200679779,3.802871227264404,3.57855586395377,3.523766775651116,14.357703817097704,12.769406033851002,0.0001295089750783,0.0931989923119545,0,0,0
1195,43392.56279604849,2010-12-21 00:12:57,390.1963549968576,2,5,0.5501165986061096,3.806918382644653,3.583143295850088,3.523766775651116,14.375158347391332,12.769406033851002,0.0001295089750783,0.0931989923119545,0,0,0
1196,43422.57789564942,2010-12-21 00:13:27,420.2114547180869,2,5,0.5501165986061096,3.810803651809693,3.5877307207466,3.523766775651116,14.392631412882768,12.769406033851002,9.713172767078504e-05,0.0931989923119545,0,0,0
1197,43452.59299022284,2010-12-21 00:13:57,450.2265491962691,2,5,0.550297200679779,3.814688920974731,3.592318198004638,3.523766775651116,14.410122891718991,12.769406033851002,9.713172767078504e-05,0.0931989923119545,0,0,0
1198,43482.60809380368,2010-12-21 00:14:27,480.2416527570532,2,5,0.550297200679779,3.818736076354981,3.596905581210332,3.523766775651116,14.427631850659974,12.769406033851002,9.713172767078504e-05,0.0931989923119545,0,0,0
1199,43512.62322037172,2010-12-21 00:14:58,510.25677932007727,2,5,0.5501165986061096,3.8224594593048096,3.601493025975019,3.523766775651116,14.445158507867625,12.769406033851002,0.0001295089750783,0.0931989923119545,0,0,0
1200,43542.63843606654,2010-12-21 00:15:28,540.2719950249274,2,5,0.5501165986061096,3.826182842254639,3.60608047728311,3.523766775651116,14.462702474975046,12.769406033851002,9.713172767078504e-05,0.0931989923119545,0,0,0
1201,43572.65350530691,2010-12-21 00:15:58,570.2870643505184,2,5,0.5501165986061096,3.829906225204468,3.610667900871724,3.523766775651116,14.480263670992295,12.769406033851002,6.47544875391759e-05,0.0931989923119545,0,0,0
1202,43602.66861926858,2010-12-21 00:16:28,600.3021783121845,2,5,0.5501165986061096,3.833791255950928,3.615255306066827,3.523766775651116,14.497842098394466,12.769406033851002,6.47544875391759e-05,0.0931989923119545,0,0,0
1203,43632.68365455447,2010-12-21 00:16:58,630.3172135278944,2,5,0.5501165986061096,3.837514638900757,3.619842673470067,3.523766775651116,14.515437746198772,12.769406033851002,9.713172767078504e-05,0.0931989923119545,0,0,0
1204,43662.69885812913,2010-12-21 00:17:28,660.3324170875217,2,5,0.5501165986061096,3.841238021850586,3.624430116473229,3.523766775651116,14.533051118925098,12.769406033851002,9.713172767078504e-05,0.0931989923119545,0,0,0
1205,43692.7138705431,2010-12-21 00:17:58,690.3474296117646,2,5,0.5501165986061096,3.845123291015625,3.629017506368915,3.523766775651116,14.55068170664285,12.769406033851002,6.47544875391759e-05,0.0931989923119545,0,0,0
1206,43722.72894098646,2010-12-21 00:18:28,720.3624999649127,2,5,0.550297200679779,3.849008560180664,3.63360487401922,3.523766775651116,14.568329605481956,12.769406033851002,0.0001295089750783,0.0931989923119545,0,0,0
1207,43752.74405797567,2010-12-21 00:18:58,750.3776169491001,2,5,0.5501165986061096,3.852731943130493,3.638192323412497,3.523766775651116,14.585995118155973,12.769406033851002,0.0001295089750783,0.0931989923119545,0,0,0
1208,43782.7591738521,2010-12-21 00:19:28,780.3927328305437,2,5,0.550297200679779,3.856455326080322,3.642779696394233,3.523766775651116,14.603677293362766,12.769406033851002,9.713172767078504e-05,0.0931989923119545,0,0,0
1209,43812.774271352806,2010-12-21 00:19:58,810.4078303262348,2,5,0.550297200679779,3.860016822814941,3.647367060506646,3.523766775651116,14.621376199059831,12.769406033851002,0.0001295089750783,0.0931989923119545,0,0,0
1210,43842.78939327428,2010-12-21 00:20:28,840.4229522477088,2,5,0.5501165986061096,3.863416433334351,3.65195445569825,3.523766775651116,14.639091457344378,12.769406033851002,6.47544875391759e-05,0.0931989923119545,0,0,0
1211,43872.80448542667,2010-12-21 00:20:58,870.4380444051159,2,5,0.550297200679779,3.86665415763855,3.656541850466931,3.523766775651116,14.656822379466805,12.769406033851002,6.47544875391759e-05,0.0931989923119545,0,0,0
1212,43902.81958278703,2010-12-21 00:21:28,900.4531417604578,2,5,0.5501165986061096,3.870215654373169,3.661129270779488,3.523766775651116,14.674568634249512,12.769406033851002,0.0001618862152099,0.0931989923119545,0,0,0
1213,43932.83474885336,2010-12-21 00:21:58,930.468307982171,2,5,0.550297200679779,3.873129606246948,3.665716722255274,3.523766775651116,14.692329629371748,12.769406033851002,6.47544875391759e-05,0.0931989923119545,0,0,0
1214,43962.849786685576,2010-12-21 00:22:28,960.483345633943,2,5,0.550297200679779,3.8762054443359375,3.670304186136469,3.523766775651116,14.710104602231077,12.769406033851002,9.713172767078504e-05,0.0931989923119545,0,0,0
1215,43992.864933849865,2010-12-21 00:22:58,990.4984928182824,2,5,0.5501165986061096,3.878957509994507,3.674891603849675,3.523766775651116,14.727892765949038,12.769406033851002,0.0,0.0931989923119545,0,0,0
1216,44022.88001566654,2010-12-21 00:23:28,1020.513574644982,2,5,0.5501165986061096,3.881709575653076,3.679479062147987,3.523766775651116,14.745693778974536,12.769406033851002,9.713172767078504e-05,0.0931989923119545,0,0,0
1217,44052.89511962832,2010-12-21 00:23:58,1050.5286786017514,2,5,0.550297200679779,3.884299755096436,3.684066505778323,3.523766775651116,14.7635068118871,12.769406033851002,6.47544875391759e-05,0.0931989923119545,0,0,0
1218,44082.91171022453,2010-12-21 00:24:28,1080.5452692881902,2,5,0.5501165986061096,3.886566162109375,3.688654122881049,3.523766775651116,14.78133177363525,12.769406033851002,6.47544875391759e-05,0.0931989923119545,0,0,0
1219,44112.9135324352,2010-12-21 00:24:58,1110.5470914988452,2,5,0.550297200679779,3.8891563415527344,3.693239505966201,3.523766775651116,14.799158886819994,12.769406033851002,9.713172767078504e-05,0.0931989923119545,0,0,0
1220,44142.92487449061,2010-12-21 00:25:28,1140.558433529205,2,5,0.5501165986061096,3.891098976135254,3.697826371908236,3.523766775651116,14.817002091454508,12.769406033851002,3.237724376958795e-05,0.0931989923119545,0,0,0
1221,44172.9399068041,2010-12-21 00:25:58,1170.5734657624937,2,5,0.5501165986061096,3.893203496932984,3.70241377358447,3.523766775651116,14.83485723201956,12.769406033851002,6.47544875391759e-05,0.0931989923119545,0,0,0
1222,44202.955291198734,2010-12-21 00:26:28,1200.5888502423338,2,5,0.550297200679779,3.895146131515503,3.707001294077633,3.523766775651116,14.85272215409582,12.769406033851002,6.47544875391759e-05,0.0931989923119545,0,0,0
1223,44232.9701573788,2010-12-21 00:26:58,1230.603716337193,2,5,0.5501165986061096,3.8970887660980233,3.71158862204779,3.523766775651116,14.870595137782743,12.769406033851002,3.237724376958795e-05,0.0931989923119545,0,0,0
1224,44262.98540043672,2010-12-21 00:27:28,1260.6189594101477,2,5,0.550297200679779,3.899031400680542,3.716176040144434,3.523766775651116,14.888477355160886,12.769406033851002,3.237724376958795e-05,0.0931989923119545,0,0,0
1225,44293.00035168849,2010-12-21 00:27:58,1290.633910636854,2,5,0.550297200679779,3.9009740352630615,3.720763418022071,3.523766775651116,14.90636803424366,12.769406033851002,3.237724376958795e-05,0.0931989923119545,0,0,0
1226,44323.015455951005,2010-12-21 00:28:28,1320.6490149094093,2,5,0.5501165986061096,3.902754783630371,3.725350782836437,3.523766775651116,14.924267088222114,12.769406033851002,3.237724376958795e-05,0.0931989923119545,0,0,0
1227,44353.03059244375,2010-12-21 00:28:58,1350.664151402143,2,5,0.550297200679779,3.904373645782471,3.729938188595031,3.523766775651116,14.942174625995996,12.769406033851002,3.237724376958795e-05,0.0931989923119545,0,0,0
1228,44383.04574643002,2010-12-21 00:29:28,1380.6793054084587,2,5,0.550297200679779,3.9063162803649902,3.734525617269668,3.523766775651116,14.960090399028411,12.769406033851002,6.47544875391759e-05,0.0931989923119545,0,0,0
1229,44413.060867293854,2010-12-21 00:29:58,1410.6944262522509,2,5,0.5501165986061096,3.9080970287323,3.739113046770663,3.523766775651116,14.978014289434448,12.769406033851002,6.47544875391759e-05,0.0931989923119545,0,0,0
1230,44443.07595318066,2010-12-21 00:30:28,1440.7095121390537,2,5,0.550297200679779,3.90987777709961,3.743700454739582,3.523766775651116,14.995946125160328,12.769406033851002,6.47544875391759e-05,0.0931989923119545,0,0,0
1231,44473.091049729,2010-12-21 00:30:58,1470.7246087024248,2,5,0.550297200679779,3.911658525466919,3.748287904330689,3.523766775651116,15.013886072772404,12.769406033851002,6.47544875391759e-05,0.0931989923119545,0,0,0
1232,44503.10631693199,2010-12-21 00:31:28,1500.7398759605633,2,5,0.550297200679779,3.9131155014038086,3.75287530854021,3.523766775651116,15.031833763866969,12.769406033851002,-3.237724376958795e-05,0.0931989923119545,0,0,0
1233,44533.12138913475,2010-12-21 00:31:58,1530.7549481131894,2,5,0.550297200679779,3.915057897567749,3.757462689998594,3.523766775651116,15.049789306254327,12.769406033851002,6.47544875391759e-05,0.0931989923119545,0,0,0
1234,44563.136468329896,2010-12-21 00:32:28,1560.7700273935525,2,5,0.550297200679779,3.9168386459350586,3.762050070652934,3.523766775651116,15.067752645909827,12.769406033851002,6.47544875391759e-05,0.0931989923119545,0,0,0
1235,44593.15150525486,2010-12-21 00:32:58,1590.7850642132537,2,5,0.5501165986061096,3.918295621871948,3.766637437064166,3.523766775651116,15.085723831092844,12.769406033851002,0.0,0.0931989923119545,0,0,0
1236,44623.16662093581,2010-12-21 00:33:28,1620.8001799794104,2,5,0.550297200679779,3.920238256454468,3.771224784191809,3.523766775651116,15.103702868505392,12.769406033851002,6.47544875391759e-05,0.0931989923119545,0,0,0
1237,44653.18196781708,2010-12-21 00:33:58,1650.8155268907628,2,5,0.5501165986061096,3.921857118606568,3.775812213498147,3.523766775651116,15.121690107272252,12.769406033851002,3.237724376958795e-05,0.0931989923119545,0,0,0
1238,44683.19696523373,2010-12-21 00:34:28,1680.8305242823487,2,5,0.5501165986061096,3.923475980758667,3.780399537298187,3.523766775651116,15.139684835770003,12.769406033851002,3.237724376958795e-05,0.0931989923119545,0,0,0
1239,44713.21190737282,2010-12-21 00:34:58,1710.845466326204,2,5,0.550297200679779,3.9254186153411865,3.784986923317594,3.523766775651116,15.157687726297514,12.769406033851002,3.237724376958795e-05,0.0931989923119545,0,0,0
1240,44743.22716987413,2010-12-21 00:35:28,1740.8607288325177,2,5,0.550297200679779,3.927037477493286,3.789574384671622,3.523766775651116,15.17569867461782,12.769406033851002,6.47544875391759e-05,0.0931989923119545,0,0,0
1241,44773.2421515917,2010-12-21 00:35:58,1770.8757105701495,2,5,0.550297200679779,3.9286563396453857,3.794161785820656,3.523766775651116,15.193717297882884,12.769406033851002,6.47544875391759e-05,0.0931989923119545,0,0,0
1242,44803.25731092126,2010-12-21 00:36:28,1800.890869879662,2,5,0.5501165986061096,3.9304370880126953,3.798749218271788,3.523766775651116,15.211743943167622,12.769406033851002,3.237724376958795e-05,0.0931989923119545,0,0,0
1243,44833.27234448788,2010-12-21 00:36:58,1830.905903466318,2,5,0.550297200679779,3.932055950164795,3.803336642989818,3.523766775651116,15.229778451374036,12.769406033851002,3.237724376958795e-05,0.0931989923119545,0,0,0
1244,44863.28746224399,2010-12-21 00:37:28,1860.921021217414,2,5,0.5501165986061096,3.933836698532105,3.807924055011122,3.523766775651116,15.247820798731835,12.769406033851002,3.237724376958795e-05,0.0931989923119545,0,0,0
1245,44893.30256132361,2010-12-21 00:37:58,1890.936120297047,2,5,0.5501165986061096,3.935617446899414,3.812511480260496,3.523766775651116,15.265871128014624,12.769406033851002,6.47544875391759e-05,0.0931989923119545,0,0,0
1246,44923.31766803724,2010-12-21 00:38:28,1920.951226995639,2,5,0.5501165986061096,3.9372363090515137,3.817098883713617,3.523766775651116,15.283929206073132,12.769406033851002,0.0,0.0931989923119545,0,0,0
1247,44953.33277661551,2010-12-21 00:38:58,1950.9663355889463,2,5,0.550297200679779,3.9390170574188232,3.821686244334878,3.523766775651116,15.301995128881732,12.769406033851002,6.47544875391759e-05,0.0931989923119545,0,0,0
1248,44983.3479747717,2010-12-21 00:39:28,1980.981533815302,2,5,0.5501165986061096,3.940797805786133,3.82627362446907,3.523766775651116,15.32006907909641,12.769406033851002,3.237724376958795e-05,0.0931989923119545,0,0,0
1249,45013.36299522066,2010-12-21 00:39:58,2010.9965541940903,2,5,0.5501165986061096,3.942416667938232,3.830861036354055,3.523766775651116,15.338151104787274,12.769406033851002,3.237724376958795e-05,0.0931989923119545,0,0,0
1250,45043.37810584402,2010-12-21 00:40:28,2041.0116648174496,2,5,0.550297200679779,3.944197416305542,3.835448435744293,3.523766775651116,15.356241042765694,12.769406033851002,0.0,0.0931989923119545,0,0,0
1251,45073.3935635962,2010-12-21 00:40:58,2071.0271226398,2,5,0.5501165986061096,3.945978164672852,3.840035891750109,3.523766775651116,15.37433922960235,12.769406033851002,3.237724376958795e-05,0.0931989923119545,0,0,0
1252,45103.40833032879,2010-12-21 00:41:28,2101.041889287188,2,5,0.5501165986061096,3.947597026824951,3.844623248744669,3.523766775651116,15.392444989387178,12.769406033851002,0.0,0.0931989923119545,0,0,0
1253,45133.42343520786,2010-12-21 00:41:58,2131.0569941712647,2,5,0.550297200679779,3.949539661407471,3.849210629702429,3.523766775651116,15.41055885732794,12.769406033851002,6.47544875391759e-05,0.0931989923119545,0,0,0
1254,45163.43854037264,2010-12-21 00:42:28,2161.072099346065,2,5,0.5501165986061096,3.95132040977478,3.853798036726845,3.523766775651116,15.428680974865047,12.769406033851002,3.237724376958795e-05,0.0931989923119545,0,0,0
1255,45193.45369236394,2010-12-21 00:42:58,2191.087251342379,2,5,0.5501165986061096,3.95293927192688,3.858385457386853,3.523766775651116,15.446811262928415,12.769406033851002,0.0,0.0931989923119545,0,0,0
1256,45223.46876449651,2010-12-21 00:43:28,2221.1023234699423,2,5,0.5501165986061096,3.9548819065094,3.862972864532988,3.523766775651116,15.464949771968453,12.769406033851002,6.47544875391759e-05,0.0931989923119545,0,0,0
1257,45253.48399222629,2010-12-21 00:43:58,2251.117551204729,2,5,0.550297200679779,3.956824541091919,3.867560366538127,3.523766775651116,15.48309692215224,12.769406033851002,6.47544875391759e-05,0.0931989923119545,0,0,0
1258,45283.498970455184,2010-12-21 00:44:28,2281.132529413579,2,5,0.550297200679779,3.958605289459229,3.872147831426261,3.523766775651116,15.501252074210798,12.769406033851002,6.47544875391759e-05,0.0931989923119545,0,0,0
1259,45313.51407933421,2010-12-21 00:44:58,2311.1476383076347,2,5,0.550297200679779,3.960386037826538,3.876735329617827,3.523766775651116,15.519415742892727,12.769406033851002,6.47544875391759e-05,0.0931989923119545,0,0,0
1260,45343.52936777505,2010-12-21 00:45:28,2341.162926823673,2,5,0.5501165986061096,3.9620048999786377,3.881322806511248,3.523766775651116,15.537587672909536,12.769406033851002,3.237724376958795e-05,0.0931989923119545,0,0,0
1261,45373.544427246125,2010-12-21 00:45:58,2371.177986219554,2,5,0.5501165986061096,3.963947534561157,3.885910243775224,3.523766775651116,15.555767776520431,12.769406033851002,6.47544875391759e-05,0.0931989923119545,0,0,0
1262,45403.55958119229,2010-12-21 00:46:28,2401.193140155695,2,5,0.550297200679779,3.9658901691436768,3.890497718053445,3.523766775651116,15.573956561539395,12.769406033851002,6.47544875391759e-05,0.0931989923119545,0,0,0
1263,45433.57457482953,2010-12-21 00:46:58,2431.208133893188,2,5,0.550297200679779,3.9676709175109854,3.895085197019925,3.523766775651116,15.592153917501848,12.769406033851002,3.237724376958795e-05,0.0931989923119545,0,0,0
1264,45463.58964423532,2010-12-21 00:47:29,2461.2232032087545,2,5,0.550297200679779,3.969613552093506,3.899672651563388,3.523766775651116,15.610359792476634,12.769406033851002,6.47544875391759e-05,0.0931989923119545,0,0,0
1265,45493.604862646906,2010-12-21 00:47:59,2491.23842166044,2,5,0.550297200679779,3.971394300460816,3.90426009549715,3.523766775651116,15.628574308696962,12.769406033851002,3.237724376958795e-05,0.0931989923119545,0,0,0
1266,45523.61984230938,2010-12-21 00:48:29,2521.25340126777,2,5,0.5501165986061096,3.973498821258545,3.908847544246627,3.523766775651116,15.646797621215406,12.769406033851002,9.713172767078504e-05,0.0931989923119545,0,0,0
1267,45553.634971012725,2010-12-21 00:48:59,2551.268530056333,2,5,0.550297200679779,3.975117683410645,3.913434967103597,3.523766775651116,15.665029650265383,12.769406033851002,0.0,0.0931989923119545,0,0,0
1268,45583.65008423756,2010-12-21 00:49:29,2581.283643195953,2,5,0.550297200679779,3.977384090423584,3.918022439242825,3.523766775651116,15.683270851425709,12.769406033851002,9.713172767078504e-05,0.0931989923119545,0,0,0
1269,45613.665188585306,2010-12-21 00:49:59,2611.29874755372,2,5,0.5501165986061096,3.9791648387908936,3.922609840219028,3.523766775651116,15.701520433004134,12.769406033851002,3.237724376958795e-05,0.0931989923119545,0,0,0
1270,45643.68027960487,2010-12-21 00:50:29,2641.3138385783086,2,5,0.5499359965324402,3.981269359588623,3.927197235144142,3.523766775651116,15.719779604330062,12.769406033851002,3.237724376958795e-05,0.0931989923119545,0,0,0
1271,45673.69545861341,2010-12-21 00:50:59,2671.329017657016,2,5,0.5501165986061096,3.983373880386353,3.931784592821909,3.523766775651116,15.73804784481843,12.769406033851002,6.47544875391759e-05,0.0931989923119545,0,0,0
1272,45703.71050960337,2010-12-21 00:51:29,2701.344068576804,2,5,0.550297200679779,3.985478401184082,3.93637199627215,3.523766775651116,15.756325582735595,12.769406033851002,6.47544875391759e-05,0.0931989923119545,0,0,0
1273,45733.725616718,2010-12-21 00:51:59,2731.359175671382,2,5,0.5501165986061096,3.9874210357666016,3.940959401272829,3.523766775651116,15.774612732338888,12.769406033851002,3.237724376958795e-05,0.0931989923119545,0,0,0
1274,45763.74071523122,2010-12-21 00:52:29,2761.3742741846054,2,5,0.550297200679779,3.989525556564331,3.945546767121755,3.523766775651116,15.792909126212775,12.769406033851002,6.47544875391759e-05,0.0931989923119545,0,0,0
1275,45793.75619763474,2010-12-21 00:52:59,2791.389756718449,2,5,0.5501165986061096,3.991630077362061,3.950134176271076,3.523766775651116,15.81121529541943,12.769406033851002,6.47544875391759e-05,0.0931989923119545,0,0,0
1276,45823.77108725815,2010-12-21 00:53:29,2821.4046462165466,2,5,0.5501165986061096,3.99373459815979,3.954721536649318,3.523766775651116,15.82953104275885,12.769406033851002,9.713172767078504e-05,0.0931989923119545,0,0,0
1277,45853.786046615096,2010-12-21 00:53:59,2851.4196055935345,2,5,0.5501165986061096,3.995838880538941,3.959308913007994,3.523766775651116,15.847856681306922,12.769406033851002,6.47544875391759e-05,0.0931989923119545,0,0,0
1278,45883.801163945136,2010-12-21 00:54:29,2881.4347229185705,2,5,0.5501165986061096,3.99810528755188,3.963896402095811,3.523766775651116,15.866192755814255,12.769406033851002,3.237724376958795e-05,0.0931989923119545,0,0,0
1279,45913.816267691385,2010-12-21 00:54:59,2911.449826664816,2,5,0.550297200679779,4.000209808349609,3.968483671943899,3.523766775651116,15.884537842196808,12.769406033851002,6.47544875391759e-05,0.0931989923119545,0,0,0
1280,45943.83145895541,2010-12-21 00:55:29,2941.465017983983,2,5,0.550297200679779,4.002476215362549,3.973071031723877,3.523766775651116,15.90289352055083,12.769406033851002,6.47544875391759e-05,0.0931989923119545,0,0,0
1281,45973.84649810091,2010-12-21 00:55:59,2971.480057074335,2,5,0.550297200679779,4.004742622375488,3.977658404965135,3.523766775651116,15.921259579154908,12.769406033851002,6.47544875391759e-05,0.0931989923119545,0,0,0
1282,46003.86159862914,2010-12-21 00:56:29,3001.4951576025724,2,5,0.550297200679779,4.007009029388428,3.982245773791777,3.523766775651116,15.939636055362625,12.769406033851002,6.47544875391759e-05,0.0931989923119545,0,0,0
1283,46033.87992972152,2010-12-21 00:56:59,3031.513488785169,2,5,0.550297200679779,4.009437561035156,3.986833682139198,3.523766775651116,15.958025219200035,12.769406033851002,9.71794142969884e-05,0.0931989923119545,0,0,0
1284,46063.891842582365,2010-12-21 00:57:29,3061.5254015307323,2,5,0.550297200679779,4.011541843414307,3.991420543862903,3.523766775651116,15.976420782339291,12.769406033851002,3.23295607813634e-05,0.0931989923119545,0,0,0
1285,46093.90684874578,2010-12-21 00:57:59,3091.540407719209,2,5,0.5501165986061096,4.013970375061035,3.996007896511624,3.523766775651116,15.994829050530903,12.769406033851002,3.24249267578125e-05,0.0931989923119545,0,0,0
1286,46123.9221482642,2010-12-21 00:58:29,3121.5557072225884,2,5,0.5501165986061096,4.0163984298706055,4.000595378923695,3.523766775651116,16.013248741103837,12.769406033851002,6.47544875391759e-05,0.0931989923119545,0,0,0
1287,46153.93712989656,2010-12-21 00:58:59,3151.5706888750083,2,5,0.5499359965324402,4.018826961517334,4.005182807182215,3.523766775651116,16.031679266547997,12.769406033851002,6.47544875391759e-05,0.0931989923119545,0,0,0
1288,46183.95239857825,2010-12-21 00:59:29,3181.585957551677,2,5,0.5501165986061096,4.021093368530273,4.009770300120813,3.523766775651116,16.050121077156124,12.769406033851002,3.24249267578125e-05,0.0931989923119545,0,0,0
1289,46213.96735184503,2010-12-21 00:59:59,3211.60091081846,2,5,0.5501165986061096,4.023845195770264,4.014357667526463,3.523766775651116,16.06857362259945,12.769406033851002,6.47544875391759e-05,0.0931989923119545,0,0,0
1290,46243.98248798188,2010-12-21 01:00:29,3241.616046965333,2,5,0.5501165986061096,4.026111602783203,4.018945131024299,3.523766775651116,16.087037911109185,12.769406033851002,6.47544875391759e-05,0.0931989923119545,0,0,0
1291,46273.9975789413,2010-12-21 01:00:59,3271.6311379147346,2,5,0.5501165986061096,4.0287017822265625,4.023532527486456,3.523766775651116,16.10551332932991,12.769406033851002,6.47544875391759e-05,0.0931989923119545,0,0,0
1292,46304.01288146219,2010-12-21 01:01:29,3301.646440510809,2,5,0.5501165986061096,4.031130313873291,4.028120064565895,3.523766775651116,16.12400080872826,12.769406033851002,3.24249267578125e-05,0.0931989923119545,0,0,0
1293,46334.02777690508,2010-12-21 01:01:59,3331.6613358735003,2,5,0.550297200679779,4.033882141113281,4.032707421043707,3.523766775651116,16.142499156974353,12.769406033851002,0.0001295089750783,0.0931989923119545,0,0,0
1294,46364.04291516221,2010-12-21 01:02:29,3361.6764741707248,2,5,0.550297200679779,4.036310195922852,4.037294847560074,3.523766775651116,16.161009529143875,12.769406033851002,6.47544875391759e-05,0.0931989923119545,0,0,0
1295,46394.05799659292,2010-12-21 01:02:59,3391.691555546302,2,5,0.5501165986061096,4.0390625,4.041882266944107,3.523766775651116,16.179531747229944,12.769406033851002,9.71794142969884e-05,0.0931989923119545,0,0,0
1296,46424.07313124608,2010-12-21 01:03:29,3421.706690224521,2,5,0.550297200679779,4.041652679443359,4.04646977201304,3.523766775651116,16.198066180036243,12.769406033851002,9.71794142969884e-05,0.0931989923119545,0,0,0
1297,46454.08836505598,2010-12-21 01:03:59,3451.7219241045987,2,5,0.550297200679779,4.044242858886719,4.051057224555906,3.523766775651116,16.21661250763547,12.769406033851002,9.71794142969884e-05,0.0931989923119545,0,0,0
1298,46484.10332917477,2010-12-21 01:04:29,3481.7368881381744,2,5,0.5501165986061096,4.046833038330078,4.055644618714374,3.523766775651116,16.235170796555586,12.769406033851002,6.47544875391759e-05,0.0931989923119545,0,0,0
1299,46514.11856848837,2010-12-21 01:04:59,3511.752127461799,2,5,0.5501165986061096,4.049584865570068,4.060232150665297,3.523766775651116,16.253742001048614,12.769406033851002,6.47544875391759e-05,0.0931989923119545,0,0,0
1300,46544.13357975448,2010-12-21 01:05:29,3541.767138727911,2,5,0.550297200679779,4.052175045013428,4.064819594738719,3.523766775651116,16.2723251988557,12.769406033851002,9.70840483205393e-05,0.0931989923119545,0,0,0
1301,46574.148894425605,2010-12-21 01:05:59,3571.782453479235,2,5,0.550297200679779,4.055088996887207,4.069407036855557,3.523766775651116,16.290920934599693,12.769406033851002,9.70840483205393e-05,0.0931989923119545,0,0,0
1302,46604.16389699507,2010-12-21 01:06:29,3601.7974560236435,2,5,0.550297200679779,4.057679176330566,4.073994537628995,3.523766775651116,16.30952951812637,12.769406033851002,3.23295607813634e-05,0.0931989923119545,0,0,0
1303,46634.17888241688,2010-12-21 01:06:59,3631.8124413953183,2,5,0.5501165986061096,4.060431480407715,4.078582026715554,3.523766775651116,16.328150777464778,12.769406033851002,3.24249267578125e-05,0.0931989923119545,0,0,0
1304,46664.19401673419,2010-12-21 01:07:29,3661.827575707626,2,5,0.550297200679779,4.063183307647705,4.083169490830232,3.523766775651116,16.346784296382808,12.769406033851002,6.47544875391759e-05,0.0931989923119545,0,0,0
1305,46694.20910013983,2010-12-21 01:07:59,3691.8426590881927,2,5,0.5501165986061096,4.066097259521484,4.087756898287149,3.523766775651116,16.36543059592279,12.769406033851002,6.47544875391759e-05,0.0931989923119545,0,0,0
1306,46724.224224086334,2010-12-21 01:08:29,3721.857783034706,2,5,0.550297200679779,4.069173336029053,4.092344353335545,3.523766775651116,16.38409012156395,12.769406033851002,9.71794142969884e-05,0.0931989923119545,0,0,0
1307,46754.239450302346,2010-12-21 01:08:59,3751.8730092807873,2,5,0.550297200679779,4.071763515472412,4.096931852863409,3.523766775651116,16.40276297954344,12.769406033851002,6.47544875391759e-05,0.0931989923119545,0,0,0
1308,46784.2545826247,2010-12-21 01:09:29,3781.888141603144,2,5,0.5501165986061096,4.074677467346191,4.101519276959126,3.523766775651116,16.421448722351133,12.769406033851002,6.47544875391759e-05,0.0931989923119545,0,0,0
1309,46814.26954394151,2010-12-21 01:09:59,3811.903102899909,2,5,0.550297200679779,4.077753067016602,4.106106702009328,3.523766775651116,16.44014784909443,12.769406033851002,9.70840483205393e-05,0.0931989923119545,0,0,0
1310,46844.28465970767,2010-12-21 01:10:29,3841.9182186861153,2,5,0.550297200679779,4.08050537109375,4.110694111691517,3.523766775651116,16.458860373505,12.769406033851002,9.71794142969884e-05,0.0931989923119545,0,0,0
1311,46874.29985638017,2010-12-21 01:10:59,3871.933415433791,2,5,0.550297200679779,4.08358097076416,4.115281595413134,3.523766775651116,16.477586714269844,12.769406033851002,6.47544875391759e-05,0.0931989923119545,0,0,0
1312,46904.31507375416,2010-12-21 01:11:29,3901.948632802782,2,5,0.550297200679779,4.0866570472717285,4.119869018544599,3.523766775651116,16.49632653002466,12.769406033851002,9.71794142969884e-05,0.0931989923119545,0,0,0
1313,46934.32999354264,2010-12-21 01:11:59,3931.9635525010312,2,5,0.5501165986061096,4.089570999145508,4.124456442827698,3.523766775651116,16.515080105887076,12.769406033851002,6.47544875391759e-05,0.0931989923119545,0,0,0
1314,46964.3450789683,2010-12-21 01:12:29,3961.978637941724,2,5,0.5501165986061096,4.092484951019287,4.129043862800375,3.523766775651116,16.533847584677805,12.769406033851002,6.47544875391759e-05,0.0931989923119545,0,0,0
1315,46994.36040755404,2010-12-21 01:12:59,3991.993966527474,2,5,0.5501165986061096,4.095560550689697,4.133631253719263,3.523766775651116,16.552628958027032,12.769406033851002,9.70840483205393e-05,0.0931989923119545,0,0,0
1316,47024.375326731,2010-12-21 01:13:29,4022.008885799664,2,5,0.550297200679779,4.0989603996276855,4.138218667724135,3.523766775651116,16.5714246349701,12.769406033851002,0.0001295089750783,0.0931989923119545,0,0,0
1317,47054.39052969414,2010-12-21 01:13:59,4052.024088667569,2,5,0.550297200679779,4.102035999298096,4.142806158137062,3.523766775651116,16.59023494314173,12.769406033851002,9.70840483205393e-05,0.0931989923119545,0,0,0
1318,47084.40554199282,2010-12-21 01:14:29,4082.039100961239,2,5,0.550297200679779,4.105112075805664,4.147393483319282,3.523766775651116,16.609058839829707,12.769406033851002,9.71794142969884e-05,0.0931989923119545,0,0,0
1319,47114.420625528765,2010-12-21 01:14:59,4112.054184487166,2,5,0.550297200679779,4.108026027679443,4.151980916634548,3.523766775651116,16.62789780091237,12.769406033851002,3.24249267578125e-05,0.0931989923119545,0,0,0
1320,47144.43573897917,2010-12-21 01:15:29,4142.06929795761,2,5,0.5501165986061096,4.111425399780273,4.156568385618769,3.523766775651116,16.646751558795042,12.769406033851002,6.47544875391759e-05,0.0931989923119545,0,0,0
1321,47174.45085258495,2010-12-21 01:15:59,4172.08441154334,2,5,0.5501165986061096,4.114663124084473,4.161155882605387,3.523766775651116,16.665620168894897,12.769406033851002,6.47544875391759e-05,0.0931989923119545,0,0,0
1322,47204.46600950852,2010-12-21 01:16:29,4202.0995685270655,2,5,0.550297200679779,4.117900848388672,4.165743334451625,3.523766775651116,16.684503455717312,12.769406033851002,9.71794142969884e-05,0.0931989923119545,0,0,0
1323,47234.48104929059,2010-12-21 01:16:59,4232.114608269038,2,5,0.550297200679779,4.121300220489502,4.170330741045246,3.523766775651116,16.703401603513285,12.769406033851002,9.70840483205393e-05,0.0931989923119545,0,0,0
1324,47264.496180003945,2010-12-21 01:17:29,4262.129738977378,2,5,0.5501165986061096,4.12437629699707,4.174918195657688,3.523766775651116,16.7223149200227,12.769406033851002,9.71794142969884e-05,0.0931989923119545,0,0,0
1325,47294.51129420621,2010-12-21 01:17:59,4292.144853179643,2,5,0.5501165986061096,4.1277756690979,4.179505151880085,3.523766775651116,16.74124133065435,12.769406033851002,6.47544875391759e-05,0.0931989923119545,0,0,0
1326,47324.526383937584,2010-12-21 01:18:29,4322.159942911013,2,5,0.550297200679779,4.131175518035889,4.18409193835735,3.523766775651116,16.76018226914029,12.769406033851002,9.71794142969884e-05,0.0931989923119545,0,0,0
1327,47354.541513217366,2010-12-21 01:18:59,4352.175072281023,2,5,0.5501165986061096,4.134574890136719,4.188678715357092,3.523766775651116,16.779138580725593,12.769406033851002,9.70840483205393e-05,0.0931989923119545,0,0,0
1328,47384.55661833703,2010-12-21 01:19:30,4382.190177310461,2,5,0.5501165986061096,4.137812614440918,4.193265506466723,3.523766775651116,16.798110529586115,12.769406033851002,6.47544875391759e-05,0.0931989923119545,0,0,0
1329,47414.57184245782,2010-12-21 01:20:00,4412.205401431254,2,5,0.5501165986061096,4.141374111175537,4.197852959750699,3.523766775651116,16.817100983928906,12.769406033851002,0.0001295089750783,0.0931989923119545,0,0,0
1330,47444.58682507264,2010-12-21 01:20:30,4442.220384036044,2,5,0.5499359965324402,4.144773960113525,4.202440537631898,3.523766775651116,16.836107724509695,12.769406033851002,6.47544875391759e-05,0.0931989923119545,0,0,0
1331,47474.601974567726,2010-12-21 01:21:00,4472.235533596295,2,5,0.550297200679779,4.148497104644775,4.207028045795746,3.523766775651116,16.85513033894044,12.769406033851002,0.0001295089750783,0.0931989923119545,0,0,0
1332,47504.61704137706,2010-12-21 01:21:30,4502.2506003555,2,5,0.550297200679779,4.151896953582764,4.211615461321491,3.523766775651116,16.874168510003727,12.769406033851002,9.71794142969884e-05,0.0931989923119545,0,0,0
1333,47534.63213011596,2010-12-21 01:22:00,4532.26568907435,2,5,0.550297200679779,4.155296325683594,4.216202973626944,3.523766775651116,16.893223130628332,12.769406033851002,6.47544875391759e-05,0.0931989923119545,0,0,0
1334,47564.64725968646,2010-12-21 01:22:30,4562.28081866992,2,5,0.550297200679779,4.158857822418213,4.220790450956643,3.523766775651116,16.91229379781926,12.769406033851002,9.70840483205393e-05,0.0931989923119545,0,0,0
1335,47594.66235373859,2010-12-21 01:23:00,4592.295912701993,2,5,0.5504778623580933,4.162581443786621,4.225377922520616,3.523766775651116,16.931380660119043,12.769406033851002,0.0001295089750783,0.0931989923119545,0,0,0
1336,47624.67747564502,2010-12-21 01:23:30,4622.311034603417,2,5,0.5501165986061096,4.165980815887451,4.229965385282429,3.523766775651116,16.950483806014116,12.769406033851002,9.70840483205393e-05,0.0931989923119545,0,0,0
1337,47654.69257320087,2010-12-21 01:24:00,4652.326132179308,2,5,0.550297200679779,4.169704437255859,4.234552877033512,3.523766775651116,16.969603594453545,12.769406033851002,0.0001295089750783,0.0931989923119545,0,0,0
1338,47684.707683623725,2010-12-21 01:24:30,4682.341242572093,2,5,0.550297200679779,4.173265933990479,4.239140388964309,3.523766775651116,16.988740055075585,12.769406033851002,0.0001295089750783,0.0931989923119545,0,0,0
1339,47714.72283470275,2010-12-21 01:25:00,4712.3563936812,2,5,0.5499359965324402,4.176665306091309,4.243727887513245,3.523766775651116,17.007893059634306,12.769406033851002,6.47544875391759e-05,0.0931989923119545,0,0,0
1340,47744.7379277574,2010-12-21 01:25:30,4742.371486705764,2,5,0.550297200679779,4.180550575256348,4.248315299817557,3.523766775651116,17.02706241549057,12.769406033851002,0.0001295089750783,0.0931989923119545,0,0,0
1341,47774.75302923299,2010-12-21 01:26:00,4772.386588211434,2,5,0.550297200679779,4.184274196624756,4.252902705130718,3.523766775651116,17.046248638141805,12.769406033851002,9.71794142969884e-05,0.0931989923119545,0,0,0
1342,47804.7681676054,2010-12-21 01:26:30,4802.401726563796,2,5,0.5501165986061096,4.187997341156006,4.257490198045239,3.523766775651116,17.065452191101475,12.769406033851002,0.0001295089750783,0.0931989923119545,0,0,0
1343,47834.78325090577,2010-12-21 01:27:00,4832.416809864161,2,5,0.550297200679779,4.191882610321045,4.262077694866785,3.523766775651116,17.084673003379095,12.769406033851002,0.0001618385285837,0.0931989923119545,0,0,0
1344,47864.798482951286,2010-12-21 01:27:30,4862.4320419297255,2,5,0.550297200679779,4.195444107055664,4.266665155108899,3.523766775651116,17.103910942730593,12.769406033851002,6.47544875391759e-05,0.0931989923119545,0,0,0
1345,47894.81345894462,2010-12-21 01:28:00,4892.447017923063,2,5,0.5501165986061096,4.199167251586914,4.271252587078149,3.523766775651116,17.123166032228934,12.769406033851002,9.70840483205393e-05,0.0931989923119545,0,0,0
1346,47899.34487810693,2010-12-21 01:28:04,4896.9784371455125,2,5,0.5504778623580933,4.200138568878174,4.271945155421733,3.523766775651116,17.126074504038762,12.769406033851002,0.0001942634553415,0.0931989923119545,0,0,0
1347,47929.36106106277,2010-12-21 01:28:34,30.01509818240005,3,5,0.0,4.112720489501953,4.271945155421733,3.523766775651116,17.126074504038762,12.769406033851002,-0.0004208564641885,0.0931989923119545,0,0,0
1348,47959.3762992636,2010-12-21 01:29:04,60.0303363782181,3,5,0.0,4.102035999298096,4.271945155421733,3.523766775651116,17.126074504038762,12.769406033851002,-0.0001942634553415,0.0931989923119545,0,0,0
1349,47989.39132223886,2010-12-21 01:29:34,90.04535941863021,3,5,0.0,4.095722675323486,4.271945155421733,3.523766775651116,17.126074504038762,12.769406033851002,-0.0001295089750783,0.0931989923119545,0,0,0
1350,48019.35952756519,2010-12-21 01:30:04,120.01356465473698,3,5,0.0,4.091513633728027,4.271945155421733,3.523766775651116,17.126074504038762,12.769406033851002,-6.47544875391759e-05,0.0931989923119545,0,0,0
1351,48019.37474338806,2010-12-21 01:30:05,0.015741702621524,4,5,1.0034458637237549,4.199814796447754,4.271949543184423,3.523766775651116,17.126092931829433,12.769406033851002,0.0,0.0931989923119545,0,0,0
1352,48020.15598369452,2010-12-21 01:30:05,0.796982004063959,4,5,0.9532365202903748,4.199653148651123,4.272160399631774,3.523766775651116,17.126978477300675,12.769406033851002,-3.23295607813634e-05,0.0931989923119545,0,0,0
1353,48022.046452092414,2010-12-21 01:30:07,2.687450386924385,4,5,0.9028465151786804,4.199814796447754,4.27264664325485,3.523766775651116,17.129020576821954,12.769406033851002,0.0,0.0931989923119545,0,0,0
1354,48024.921411498326,2010-12-21 01:30:10,5.562409802855568,4,5,0.8522759079933167,4.199814796447754,4.273346487720652,3.523766775651116,17.131959755626827,12.769406033851002,0.0,0.0931989923119545,0,0,0
1355,48028.98383744906,2010-12-21 01:30:14,9.624835743561864,4,5,0.8018859624862671,4.199814796447754,4.274278807699506,3.523766775651116,17.13587528455524,12.769406033851002,3.23295607813634e-05,0.0931989923119545,0,0,0
1356,48034.296373951816,2010-12-21 01:30:20,14.937372251333125,4,5,0.7518571615219116,4.199653148651123,4.275423862169387,3.523766775651116,17.140684264629236,12.769406033851002,-3.23295607813634e-05,0.0931989923119545,0,0,0
1357,48041.24924267321,2010-12-21 01:30:26,21.89024098275323,4,5,0.7018284201622009,4.199814796447754,4.276825711599208,3.523766775651116,17.146571720322726,12.769406033851002,3.23295607813634e-05,0.0931989923119545,0,0,0
1358,48050.467858363794,2010-12-21 01:30:36,31.108856678349586,4,5,0.6517996191978455,4.199653148651123,4.278555806423622,3.523766775651116,17.153837737492854,12.769406033851002,0.0,0.0931989923119545,0,0,0
1359,48063.45216844504,2010-12-21 01:30:49,44.093166809714944,4,5,0.6017708778381348,4.199814796447754,4.280810984149253,3.523766775651116,17.16330899403702,12.769406033851002,0.0,0.0931989923119545,0,0,0
1360,48082.96727691688,2010-12-21 01:31:08,63.60827521139142,4,5,0.5517420768737793,4.199653148651123,4.283927243566621,3.523766775651116,17.176396624477576,12.769406033851002,-3.23295607813634e-05,0.0931989923119545,0,0,0
1361,48116.60739493172,2010-12-21 01:31:42,97.24839333148256,4,5,0.5017133355140686,4.199653148651123,4.288827054415823,3.523766775651116,17.19697479898956,12.769406033851002,-3.23295607813634e-05,0.0931989923119545,0,0,0
1362,48178.87213107782,2010-12-21 01:32:44,159.51312937733513,4,5,0.4515039622783661,4.199814796447754,4.297029161628707,3.523766775651116,17.231421872036545,12.769406033851002,0.0,0.0931989923119545,0,0,0
1363,48274.52651839665,2010-12-21 01:34:20,255.16751677636276,4,5,0.401475191116333,4.199653148651123,4.308332664283786,3.523766775651116,17.278894115519254,12.769406033851002,-3.23295607813634e-05,0.0931989923119545,0,0,0
1364,48395.60258997901,2010-12-21 01:36:21,376.24358826348646,4,5,0.3514464199542999,4.199653148651123,4.320977352973849,3.523766775651116,17.331999081554898,12.769406033851002,0.0,0.0931989923119545,0,0,0
1365,48539.35012522672,2010-12-21 01:38:45,519.991123606436,4,5,0.3014176487922668,4.199653148651123,4.333996120444921,3.523766775651116,17.38667506059289,12.769406033851002,0.0,0.0931989923119545,0,0,0
1366,48713.56585765626,2010-12-21 01:41:39,694.2068559708197,4,5,0.2513888776302337,4.199814796447754,4.347348744275781,3.523766775651116,17.442753209593622,12.769406033851002,3.23295607813634e-05,0.0931989923119545,0,0,0
1367,48927.67157078355,2010-12-21 01:45:13,908.3125690981018,4,5,0.2013601064682006,4.199653148651123,4.360770752854821,3.523766775651116,17.499122743016553,12.769406033851002,0.0,0.0931989923119545,0,0,0
1368,49210.9636165135,2010-12-21 01:49:56,1191.6046148230405,4,5,0.1513313353061676,4.199814796447754,4.374571095969798,3.523766775651116,17.557081192646113,12.769406033851002,0.0,0.0931989923119545,0,0,0
1369,49644.28446406645,2010-12-21 01:57:10,1624.925462446164,4,5,0.1013025641441345,4.199814796447754,4.389560200757091,3.523766775651116,17.620032154542997,12.769406033851002,0.0,0.0931989923119545,0,0,0
1370,50508.5665753287,2010-12-21 02:11:34,2489.20757376857,4,5,0.0512737929821014,4.199653148651123,4.407076630792907,3.523766775651116,17.693597250648885,12.769406033851002,-3.23295607813634e-05,0.0931989923119545,0,0,0
1371,50545.26923536657,2010-12-21 02:12:11,2525.9102337512963,4,5,0.0498289167881011,4.199653148651123,4.407596860890341,3.523766775651116,17.69578210298831,12.769406033851002,-6.47544875391759e-05,0.0931989923119545,0,0,0
1372,50575.28408604434,2010-12-21 02:12:41,30.01545462940471,5,5,0.0,4.191720962524414,4.407596860890341,3.523766775651116,17.69578210298831,12.769406033851002,-3.23295607813634e-05,0.0931989923119545,0,0,0
1373,50605.283353251965,2010-12-21 02:13:11,60.0147218219955,5,5,0.0,4.190425872802734,4.407596860890341,3.523766775651116,17.69578210298831,12.769406033851002,-3.23295607813634e-05,0.0931989923119545,0,0,0
1374,50605.47137519606,2010-12-21 02:13:11,0.187494136948483,6,5,-1.9243103452026844e-05,4.190263748168945,4.407596860890341,3.523766776653329,17.69578210298831,12.769406038050542,0.0,0.0963535830378532,0,0,0
1375,50610.299176238266,2010-12-21 02:13:16,5.015295083920371,6,5,0.0007031940040178,4.190263748168945,4.407597946219721,3.523766776735878,17.695786651047573,12.769406038396443,-9.71794142969884e-05,0.0963535830378532,0,0,0
1376,50640.315147165806,2010-12-21 02:13:46,30.01523724344812,7,5,-1.0997490882873535,4.009922981262207,4.407597946219721,3.53293563669938,17.695786651047573,12.806381970299755,-0.0009713172912597,0.0963535830378532,0,0,0
1377,50670.33026933289,2010-12-21 02:14:16,60.03035940050819,7,5,-1.099568486213684,3.981431245803833,4.407597946219721,3.542104494808952,17.695786651047573,12.84300762914924,-0.0005827903514727,0.0963535830378532,0,0,0
1378,50700.345380226914,2010-12-21 02:14:46,90.04547030957806,7,5,-1.0997490882873535,3.961519241333008,4.407597946219721,3.551273245733497,17.695786651047573,12.87941592758158,-0.0004532813909463,0.0963535830378532,0,0,0
1379,50730.36051929105,2010-12-21 02:15:16,120.06060938874816,7,5,-1.0997490882873535,3.945978164672852,4.407597946219721,3.560441995548699,17.695786651047573,12.915664637939004,-0.0003885269106831,0.0963535830378532,0,0,0
1380,50760.37547346509,2010-12-21 02:15:46,150.07556354273905,7,5,-1.099568486213684,3.9328653812408447,4.407597946219721,3.569610640638833,17.695786651047573,12.95178291313079,-0.0003561496851034,0.0963535830378532,0,0,0
1381,50790.39072972587,2010-12-21 02:16:16,180.09081980351107,7,5,-1.0997490882873535,3.921209573745728,4.407597946219721,3.578779466368707,17.695786651047573,12.987788188668578,-0.0002590179501567,0.0963535830378532,0,0,0
1382,50820.40571172415,2010-12-21 02:16:46,210.1058018168288,7,5,-1.0997490882873535,3.9100396633148193,4.407597946219721,3.587948166901906,17.695786651047573,13.023688329153735,-0.0002913951757363,0.0963535830378532,0,0,0
1383,50850.42082289888,2010-12-21 02:17:16,240.12091299155972,7,5,-1.099568486213684,3.899678945541382,4.407597946219721,3.597116905098901,17.695786651047573,13.0594894443715,-0.0002590179501567,0.0963535830378532,0,0,0
1384,50880.43596447426,2010-12-21 02:17:46,270.1360545519041,7,5,-1.099568486213684,3.889318227767944,4.407597946219721,3.606285668878895,17.695786651047573,13.09519596356288,-0.0002913951757363,0.0963535830378532,0,0,0
1385,50910.45106117297,2010-12-21 02:18:16,300.151151270662,7,5,-1.0997490882873535,3.8794431686401367,4.407597946219721,3.615454456707891,17.695786651047573,13.130810103117714,-0.0002590179501567,0.0963535830378532,0,0,0
1386,50940.466308767165,2010-12-21 02:18:46,330.16639884481765,7,5,-1.099568486213684,3.869568109512329,4.407597946219721,3.624623274827976,17.695786651047573,13.166333649278378,-0.0002266406954731,0.0963535830378532,0,0,0
1387,50970.48140307493,2010-12-21 02:19:16,360.1814931676132,7,5,-1.0997490882873535,3.859854936599731,4.407597946219721,3.633792098471584,17.695786651047573,13.201767916533248,-0.0002913951757363,0.0963535830378532,0,0,0
1388,51000.49639494778,2010-12-21 02:19:46,390.1964850254286,7,5,-1.1001102924346924,3.8504655361175537,4.407597946219721,3.642960833700027,17.695786651047573,13.237115077612362,-0.0002590179501567,0.0963535830378532,0,0,0
1389,51030.51163001582,2010-12-21 02:20:16,420.2117201085008,7,5,-1.099568486213684,3.841561794281006,4.407597946219721,3.652129682724532,17.695786651047573,13.272377983794115,-0.0001942634553415,0.0963535830378532,0,0,0
1390,51060.52684302897,2010-12-21 02:20:46,450.22693311664034,7,5,-1.0997490882873535,3.832496404647827,4.407597946219721,3.661298527272065,17.695786651047573,13.307557779076308,-0.0001942157687153,0.0963535830378532,0,0,0
1391,51090.54177479725,2010-12-21 02:21:16,480.2418649801622,7,5,-1.099568486213684,3.8235926628112793,4.407597946219721,3.670467251830008,17.695786651047573,13.342655686318144,-0.0002266406954731,0.0963535830378532,0,0,0
1392,51120.55706519798,2010-12-21 02:21:46,510.25715534580286,7,5,-1.099568486213684,3.815174579620361,4.407597946219721,3.679636055505427,17.695786651047573,13.377674278770495,-0.0001942634553415,0.0963535830378532,0,0,0
1393,51150.57200141233,2010-12-21 02:22:16,540.272091489977,7,5,-1.099568486213684,3.8065946102142334,4.407597946219721,3.688804735263805,17.695786651047573,13.412613991321832,-0.0001942634553415,0.0963535830378532,0,0,0
1394,51180.58720057101,2010-12-21 02:22:46,570.2872906486526,7,5,-1.0997490882873535,3.798176527023315,4.407597946219721,3.697973395965763,17.695786651047573,13.447477177945787,-0.0002590179501567,0.0963535830378532,0,0,0
1395,51210.60234379048,2010-12-21 02:23:16,600.3024338831632,7,5,-1.0997490882873535,3.790405988693237,4.407597946219721,3.707142119706949,17.695786651047573,13.482266141942306,-0.0001618862152099,0.0963535830378532,0,0,0
1396,51240.61729928281,2010-12-21 02:23:46,630.3173893754845,7,5,-1.0997490882873535,3.782635450363159,4.407597946219721,3.716310744820041,17.695786651047573,13.516982105501835,-0.0001942634553415,0.0963535830378532,0,0,0
1397,51270.63260820964,2010-12-21 02:24:16,660.3326983023138,7,5,-1.099568486213684,3.774864912033081,4.407597946219721,3.725479503499613,17.695786651047573,13.55162741722588,-0.0001942634553415,0.0963535830378532,0,0,0
1398,51300.64753566719,2010-12-21 02:24:46,690.3476257648841,7,5,-1.099568486213684,3.767418146133423,4.407597946219721,3.734648288991631,17.695786651047573,13.586203246363572,-0.0001618862152099,0.0963535830378532,0,0,0
1399,51330.66263897233,2010-12-21 02:25:16,720.3627290650195,7,5,-1.0997490882873535,3.760133266448975,4.407597946219721,3.743817106431124,17.695786651047573,13.6207116068535,-0.0001942634553415,0.0963535830378532,0,0,0
1400,51360.67802796842,2010-12-21 02:25:46,750.3781181262603,7,5,-1.0997490882873535,3.752686738967896,4.407597946219721,3.752986031038359,17.695786651047573,13.655154175604023,-0.0002589702489785,0.0963535830378532,0,0,0
1401,51390.69288693053,2010-12-21 02:26:16,780.3929770131829,7,5,-1.099568486213684,3.745887517929077,4.407597946219721,3.762154759649046,17.695786651047573,13.689531271225794,-0.0001942634553415,0.0963535830378532,0,0,0
1402,51420.70799239605,2010-12-21 02:26:46,810.4080824887316,7,5,-1.099568486213684,3.739088296890259,4.407597946219721,3.771323573170406,17.695786651047573,13.723845077678412,-0.0001295089750783,0.0963535830378532,0,0,0
1403,51450.72331238541,2010-12-21 02:27:16,840.4234024530272,7,5,-1.0997490882873535,3.7324509620666495,4.407597946219721,3.780492400158459,17.695786651047573,13.758096795524336,-0.0001618862152099,0.0963535830378532,0,0,0
1404,51480.73857733279,2010-12-21 02:27:46,870.4386675006649,7,5,-1.0993878841400146,3.725975513458252,4.407597946219721,3.789661200841274,17.695786651047573,13.792287966544928,-0.0001618862152099,0.0963535830378532,0,0,0
1405,51510.75337472168,2010-12-21 02:28:16,900.4534648895522,7,5,-1.099568486213684,3.719661951065064,4.407597946219721,3.798829927655893,17.695786651047573,13.826419613972035,-0.0001295089750783,0.0963535830378532,0,0,0
1406,51540.76844605728,2010-12-21 02:28:46,930.4685361549704,7,5,-1.0997490882873535,3.713024616241455,4.407597946219721,3.807998718479881,17.695786651047573,13.860493152162634,-0.0001942634553415,0.0963535830378532,0,0,0
1407,51570.78357743729,2010-12-21 02:29:16,960.4836675299688,7,5,-1.0997490882873535,3.7070348262786874,4.407597946219721,3.817167478810502,17.695786651047573,13.894509401821194,-0.0001618862152099,0.0963535830378532,0,0,0
1408,51600.798734295706,2010-12-21 02:29:46,990.4988244836188,7,5,-1.0997490882873535,3.700883150100708,4.407597946219721,3.826336373289741,17.695786651047573,13.928469577283344,-0.0001618862152099,0.0963535830378532,0,0,0
1409,51630.813802292985,2010-12-21 02:30:16,1020.51389239068,7,5,-1.0997490882873535,3.69489336013794,4.407597946219721,3.835505217630769,17.695786651047573,13.962374107059912,-0.0001618862152099,0.0963535830378532,0,0,0
1410,51660.828901417735,2010-12-21 02:30:46,1050.528991515425,7,5,-1.099568486213684,3.688903570175171,4.407597946219721,3.844674104730557,17.695786651047573,13.996224426654695,-0.0001942634553415,0.0963535830378532,0,0,0
1411,51690.84409783458,2010-12-21 02:31:16,1080.5441879272653,7,5,-1.099568486213684,3.683075666427612,4.407597946219721,3.853842945231669,17.695786651047573,14.03002079640082,-0.0001618862152099,0.0963535830378532,0,0,0
1412,51720.85913935599,2010-12-21 02:31:46,1110.5592294536789,7,5,-1.099568486213684,3.677409648895264,4.407597946219721,3.863011726198424,17.695786651047573,14.063763950062697,-0.0001618862152099,0.0963535830378532,0,0,0
1413,51750.87426272106,2010-12-21 02:32:16,1140.5743527886702,7,5,-1.099568486213684,3.671743869781494,4.407597946219721,3.872180543268036,17.695786651047573,14.097455215639098,-9.713172767078504e-05,0.0963535830378532,0,0,0
1414,51780.88950722757,2010-12-21 02:32:46,1170.5895973202546,7,5,-1.099929690361023,3.666239738464356,4.407597946219721,3.881349471124761,17.695786651047573,14.131095782269185,-0.0001295089750783,0.0963535830378532,0,0,0
1415,51810.904465947926,2010-12-21 02:33:16,1200.6045560406087,7,5,-1.099568486213684,3.6608974933624263,4.407597946219721,3.890518212631205,17.695786651047573,14.164685535866948,-0.0001295089750783,0.0963535830378532,0,0,0
1416,51840.91972291545,2010-12-21 02:33:46,1230.6198129981146,7,5,-1.099929690361023,3.655231475830078,4.407597946219721,3.899687067082753,17.695786651047573,14.198226153419403,-0.0001618862152099,0.0963535830378532,0,0,0
1417,51870.93470980592,2010-12-21 02:34:17,1260.6347999036063,7,5,-1.099568486213684,3.65005111694336,4.407597946219721,3.908855851560016,17.695786651047573,14.23171807901488,-0.0001618862152099,0.0963535830378532,0,0,0
1418,51900.95044130931,2010-12-21 02:34:47,1290.6505315323132,7,5,-1.099568486213684,3.645194530487061,4.407597946219721,3.918024806534533,17.695786651047573,14.265162720426114,-9.713172767078504e-05,0.0963535830378532,0,0,0
1419,51930.96493315787,2010-12-21 02:35:17,1320.6650232555628,7,5,-1.0993878841400146,3.640176057815552,4.407597946219721,3.927193338911565,17.695786651047573,14.298558837463217,-9.713172767078504e-05,0.0963535830378532,0,0,0
1420,51960.98004294414,2010-12-21 02:35:47,1350.6801330368262,7,5,-1.099568486213684,3.635157585144043,4.407597946219721,3.936362089305086,17.695786651047573,14.331909670230177,-9.713172767078504e-05,0.0963535830378532,0,0,0
1421,51990.995206363885,2010-12-21 02:36:17,1380.6952964565671,7,5,-1.099568486213684,3.630300998687744,4.407597946219721,3.945530895784696,17.695786651047573,14.365216011320168,-9.713172767078504e-05,0.0963535830378532,0,0,0
1422,52021.01027936362,2010-12-21 02:36:47,1410.710369456301,7,5,-1.099568486213684,3.625444412231445,4.407597946219721,3.954699684018932,17.695786651047573,14.398478263484485,-9.713172767078504e-05,0.0963535830378532,0,0,0
1423,52051.02547616643,2010-12-21 02:37:17,1440.7255663292888,7,5,-1.0997490882873535,3.620749711990357,4.407597946219721,3.963868466279849,17.695786651047573,14.431697750636724,-0.0001295089750783,0.0963535830378532,0,0,0
1424,52081.04062270918,2010-12-21 02:37:47,1470.7407127868196,7,5,-1.0997490882873535,3.616378784179688,4.407597946219721,3.973037302041213,17.695786651047573,14.464875474138996,-9.713172767078504e-05,0.0963535830378532,0,0,0
1425,52111.05562145413,2010-12-21 02:38:17,1500.7557115518232,7,5,-1.099568486213684,3.6118459701538086,4.407597946219721,3.982206106600339,17.695786651047573,14.498012330596774,-0.0001295089750783,0.0963535830378532,0,0,0
1426,52141.07084722403,2010-12-21 02:38:47,1530.7709373167074,7,5,-1.0997490882873535,3.60747504234314,4.407597946219721,3.991375010719875,17.695786651047573,14.531109605295155,-0.0001295089750783,0.0963535830378532,0,0,0
1427,52171.08585459545,2010-12-21 02:39:17,1560.7859446730902,7,5,-1.099568486213684,3.60342788696289,4.407597946219721,4.000543867113476,17.695786651047573,14.564167801820137,-9.713172767078504e-05,0.0963535830378532,0,0,0
1428,52201.100986952886,2010-12-21 02:39:47,1590.801077045571,7,5,-1.0997490882873535,3.5993807315826416,4.407597946219721,4.00971278371414,17.695786651047573,14.597188507130117,-9.713172767078504e-05,0.0963535830378532,0,0,0
1429,52231.116204863225,2010-12-21 02:40:17,1620.816294930847,7,5,-1.0997490882873535,3.5953335762023926,4.407597946219721,4.018881715767931,17.695786651047573,14.630172515147011,-0.0001295089750783,0.0963535830378532,0,0,0
1430,52261.13118114228,2010-12-21 02:40:47,1650.8312712349575,7,5,-1.0993878841400146,3.5917723178863525,4.407597946219721,4.028050563924086,17.695786651047573,14.66312052680886,-6.47544875391759e-05,0.0963535830378532,0,0,0
1431,52291.146294923485,2010-12-21 02:41:17,1680.8463850161747,7,5,-1.0997490882873535,3.587887048721313,4.407597946219721,4.037219438678959,17.695786651047573,14.696033885471955,-6.47544875391759e-05,0.0963535830378532,0,0,0
1432,52321.16160856205,2010-12-21 02:41:47,1710.861698744954,7,5,-1.099568486213684,3.5840017795562744,4.407597946219721,4.046388414308691,17.695786651047573,14.728913630117512,-0.0001295089750783,0.0963535830378532,0,0,0
1433,52351.17652503728,2010-12-21 02:42:17,1740.8766151299578,7,5,-1.0997490882873535,3.580602169036865,4.407597946219721,4.055557242237573,17.695786651047573,14.761759915175526,-0.0001295089750783,0.0963535830378532,0,0,0
1434,52381.191848385,2010-12-21 02:42:47,1770.891938547848,7,5,-1.0997490882873535,3.577202558517456,4.407597946219721,4.064726211346567,17.695786651047573,14.794574427707254,-9.713172767078504e-05,0.0963535830378532,0,0,0
1435,52411.20689307929,2010-12-21 02:43:17,1800.906983146908,7,5,-1.0997490882873535,3.573641061782837,4.407597946219721,4.073895139139695,17.695786651047573,14.827357117033928,-0.0001295089750783,0.0963535830378532,0,0,0
1436,52441.22505145185,2010-12-21 02:43:47,1830.9251416247355,7,5,-1.0997490882873535,3.570241451263428,4.407597946219721,4.083064959655787,17.695786651047573,14.860111689364588,-9.713172767078504e-05,0.0963535830378532,0,0,0
1437,52471.23713907259,2010-12-21 02:44:17,1860.9372292254184,7,5,-1.0993878841400146,3.5671656131744385,4.407597946219721,4.092232941552271,17.695786651047573,14.892828575844849,-6.47544875391759e-05,0.0963535830378532,0,0,0
1438,52501.25211736665,2010-12-21 02:44:47,1890.952207464344,7,5,-1.0997490882873535,3.5634422302246094,4.407597946219721,4.101401823780805,17.695786651047573,14.925517965787432,-9.713172767078504e-05,0.0963535830378532,0,0,0
1439,52531.26720810553,2010-12-21 02:45:17,1920.9672981982087,7,5,-1.0997490882873535,3.56036639213562,4.407597946219721,4.110570584661947,17.695786651047573,14.958176877826713,-9.713172767078504e-05,0.0963535830378532,0,0,0
1440,52561.282448802565,2010-12-21 02:45:47,1950.9825388802133,7,5,-1.099929690361023,3.556966781616211,4.407597946219721,4.119739443367274,17.695786651047573,14.990805613448698,-9.713172767078504e-05,0.0963535830378532,0,0,0
1441,52591.29756313015,2010-12-21 02:46:17,1980.9976532128028,7,5,-1.099568486213684,3.553729057312012,4.407597946219721,4.12890829304235,17.695786651047573,15.023403420051102,-6.47544875391759e-05,0.0963535830378532,0,0,0
1442,52621.31269951761,2010-12-21 02:46:47,2011.0127896103,7,5,-1.099568486213684,3.5503294467926025,4.407597946219721,4.138077075439832,17.695786651047573,15.055970336855276,-9.713172767078504e-05,0.0963535830378532,0,0,0
1443,52651.32778617133,2010-12-21 02:47:17,2041.0278762640107,7,5,-1.099568486213684,3.5469298362731934,4.407597946219721,4.147245859628868,17.695786651047573,15.088506033775737,-6.47544875391759e-05,0.0963535830378532,0,0,0
1444,52681.342782575455,2010-12-21 02:47:47,2071.04287266814,7,5,-1.099929690361023,3.543368339538574,4.407597946219721,4.156414744222754,17.695786651047573,15.121010366926056,-6.47544875391759e-05,0.0963535830378532,0,0,0
1445,52711.357916421606,2010-12-21 02:48:17,2101.058006514288,7,5,-1.099568486213684,3.539806842803955,4.407597946219721,4.165583600568922,17.695786651047573,15.153482312532237,-9.713172767078504e-05,0.0963535830378532,0,0,0
1446,52741.37299875457,2010-12-21 02:48:47,2131.0730888322096,7,5,-1.0997490882873535,3.536083459854126,4.407597946219721,4.174752458597649,17.695786651047573,15.18592146075969,-0.0001295089750783,0.0963535830378532,0,0,0
1447,52771.38812176876,2010-12-21 02:49:17,2161.0882118464024,7,5,-1.0997490882873535,3.532360076904297,4.407597946219721,4.183921359930533,17.695786651047573,15.218327189129436,-0.0001295089750783,0.0963535830378532,0,0,0
1448,52801.40322807638,2010-12-21 02:49:47,2191.103318154021,7,5,-1.099568486213684,3.5287985801696777,4.407597946219721,4.193090191311247,17.695786651047573,15.250698448692246,-6.47544875391759e-05,0.0963535830378532,0,0,0
1449,52831.4183659325,2010-12-21 02:50:17,2221.1184560251854,7,5,-1.099568486213684,3.5247514247894287,4.407597946219721,4.202259140579659,17.695786651047573,15.28303468499684,-9.713172767078504e-05,0.0963535830378532,0,0,0
1450,52861.43359111594,2010-12-21 02:50:47,2251.1336812888226,7,5,-1.099929690361023,3.5205423831939697,4.407597946219721,4.211428101891347,17.695786651047573,15.315334218502262,-9.713172767078504e-05,0.0963535830378532,0,0,0
1451,52891.44871251612,2010-12-21 02:51:17,2281.148802613812,7,5,-1.099568486213684,3.5164952278137207,4.407597946219721,4.220597020005871,17.695786651047573,15.3475960378942,-0.0001295089750783,0.0963535830378532,0,0,0
1452,52921.463687035786,2010-12-21 02:51:47,2311.163777193632,7,5,-1.099568486213684,3.5122861862182617,4.407597946219721,4.229765918475376,17.695786651047573,15.37981902020605,-9.713172767078504e-05,0.0963535830378532,0,0,0
1453,52951.47894066,2010-12-21 02:52:17,2341.17903081283,7,5,-1.0997490882873535,3.507429838180542,4.407597946219721,4.238934839693459,17.695786651047573,15.412001384019192,-0.0001618862152099,0.0963535830378532,0,0,0
1454,52981.49436617195,2010-12-21 02:52:47,2371.194456344828,7,5,-1.099568486213684,3.502897024154663,4.407597946219721,4.248103904284565,17.695786651047573,15.444141187928068,-0.0001295089750783,0.0963535830378532,0,0,0
1455,53011.50906204321,2010-12-21 02:53:17,2401.209152175992,7,5,-1.0997490882873535,3.4978785514831543,4.407597946219721,4.2572727022433,17.695786651047573,15.476234712077318,-0.0001295089750783,0.0963535830378532,0,0,0
1456,53041.5241966312,2010-12-21 02:53:47,2431.2242867088485,7,5,-1.099568486213684,3.492374420166016,4.407597946219721,4.266441661385411,17.695786651047573,15.50828070596564,-0.0001295089750783,0.0963535830378532,0,0,0
1457,53071.53928029247,2010-12-21 02:54:17,2461.239370385151,7,5,-1.099568486213684,3.486222743988037,4.407597946219721,4.275610633953693,17.695786651047573,15.540274212940918,-0.0001618862152099,0.0963535830378532,0,0,0
1458,53101.55439460501,2010-12-21 02:54:47,2491.2544846826527,7,5,-1.0997490882873535,3.4795854091644287,4.407597946219721,4.284779556702905,17.695786651047573,15.572208802254815,-0.0001295089750783,0.0963535830378532,0,0,0
1459,53131.56949758936,2010-12-21 02:55:17,2521.269587687052,7,5,-1.0997490882873535,3.4718148708343506,4.407597946219721,4.293948413763178,17.695786651047573,15.604077010340651,-0.0002266406954731,0.0963535830378532,0,0,0
1460,53161.58463170117,2010-12-21 02:55:47,2551.2847218840734,7,5,-1.099568486213684,3.4629111289978027,4.407597946219721,4.303117380177284,17.695786651047573,15.635869990000916,-0.0002590179501567,0.0963535830378532,0,0,0
1461,53191.599744926,2010-12-21 02:56:17,2581.299835018681,7,5,-1.0997490882873535,3.452550411224365,4.407597946219721,4.312286301482425,17.695786651047573,15.667574741649926,-0.0002913951757363,0.0963535830378532,0,0,0
1462,53221.61484323873,2010-12-21 02:56:47,2611.314933331405,7,5,-1.0997490882873535,3.4399232864379883,4.407597946219721,4.321455288847783,17.695786651047573,15.699175059209992,-0.0003885269106831,0.0963535830378532,0,0,0
1463,53251.62997659365,2010-12-21 02:57:17,2641.3300666813184,7,5,-1.0997490882873535,3.424706220626831,4.407597946219721,4.330624198327207,17.695786651047573,15.730648011262454,-0.0004532813909463,0.0963535830378532,0,0,0
1464,53281.64507532241,2010-12-21 02:57:47,2671.345165420103,7,5,-1.0997490882873535,3.404956102371216,4.407597946219721,4.339793106762824,17.695786651047573,15.761962153278564,-0.0005827903514727,0.0963535830378532,0,0,0
1465,53311.66021296802,2010-12-21 02:58:17,2701.360303060693,7,5,-1.099568486213684,3.379701852798462,4.407597946219721,4.348962066587006,17.695786651047573,15.793073182063484,-0.0008094310760498,0.0963535830378532,0,0,0
1466,53341.67533594712,2010-12-21 02:58:47,2731.375426039799,7,5,-1.0997490882873535,3.346191644668579,4.407597946219721,4.358131000758322,17.695786651047573,15.823916673058225,-0.0010360240703448,0.0963535830378532,0,0,0
1467,53371.6905471658,2010-12-21 02:59:17,2761.3906372484607,7,5,-1.0997490882873535,3.30134916305542,4.407597946219721,4.367299974277487,17.695786651047573,15.854402680610596,-0.0012950897216796,0.0963535830378532,0,0,0
1468,53401.70576357741,2010-12-21 02:59:47,2791.4058537152064,7,5,-1.0997490882873535,3.239994525909424,4.407597946219721,4.376468894326982,17.695786651047573,15.884405160948786,-0.0018455028766766,0.0963535830378532,0,0,0
1469,53431.72067233845,2010-12-21 03:00:17,2821.420762436139,7,5,-1.099568486213684,3.1548426151275635,4.407597946219721,4.385637680572051,17.695786651047573,15.91374350225594,-0.0025901794433593,0.0963535830378532,0,0,0
1470,53461.73578299187,2010-12-21 03:00:47,2851.435873089573,7,5,-1.0997490882873535,3.0298666954040527,4.407597946219721,4.394806603569203,17.695786651047573,15.942137263597228,-0.0039824009872972,0.0963535830378532,0,0,0
1471,53490.07905522972,2010-12-21 03:01:16,2879.779145322398,7,5,-1.099568486213684,2.8297760486602783,4.407597946219721,4.403464759043231,17.695786651047573,15.967581454623636,-0.0069287298247218,0.0963535830378532,0,0,0
1472,53504.03194748545,2010-12-21 03:01:30,2893.73203758314,7,5,-1.0997490882873535,2.699943780899048,4.407597946219721,4.407727046747788,17.695786651047573,15.97936827199982,-0.0075114727951586,0.0963535830378532,0,0,0
1473,53564.04573861288,2010-12-21 03:02:30,60.01461804875979,8,5,0.0,3.4096508026123047,4.407597946219721,4.407727046747788,17.695786651047573,15.97936827199982,0.0013922214275225,0.0963535830378532,0,0,0
1474,53564.2333367776,2010-12-21 03:02:30,0.187389441417682,9,5,-1.9243103452026844e-05,3.4096508026123047,4.407597946219721,4.407727047749443,17.695786651047573,15.979368275415109,0.0,0.0940094217658042,0,0,0
1475,53569.0613795313,2010-12-21 03:02:35,5.015432195116309,9,5,0.0007031940040178,3.4185545444488525,4.4075989326174,4.407727047916628,17.69579001956549,15.97936827598515,0.0012303352123126,0.0940094217658042,0,0,0
